# Temperatura_=_-3.4
# Concentracion g/m^3_=_4090.0
# C_Vs_to_Am_M_A/Vsm_=_65563218390.804596
# pendiente_HvsI_1/m_=_3716.3
# ordenada_HvsI_A/m_=_1297.0
# frecuencia_Hz_=_135075.91620932013

Tiempo_(s)	Campo_(V.s)	Magnetizacion_(V.s)	Campo_(kA/m)	Magnetizacion_(A/m)
0.000000e+00	-5.449284e-06	-2.370110e-09	-3.839621e+01	-1.534542e+02
1.000000e-08	-5.449400e-06	-2.370027e-09	-3.839703e+01	-1.534455e+02
2.000000e-08	-5.449282e-06	-2.367334e-09	-3.839620e+01	-1.534385e+02
3.000000e-08	-5.448891e-06	-2.364472e-09	-3.839344e+01	-1.534334e+02
4.000000e-08	-5.448085e-06	-2.360638e-09	-3.838776e+01	-1.534308e+02
5.000000e-08	-5.446893e-06	-2.358918e-09	-3.837936e+01	-1.534311e+02
6.000000e-08	-5.445256e-06	-2.377828e-09	-3.836783e+01	-1.534348e+02
7.000000e-08	-5.443075e-06	-2.403613e-09	-3.835246e+01	-1.534422e+02
8.000000e-08	-5.440230e-06	-2.359178e-09	-3.833241e+01	-1.534539e+02
9.000000e-08	-5.436744e-06	-2.270948e-09	-3.830786e+01	-1.534701e+02
1.000000e-07	-5.432871e-06	-2.311702e-09	-3.828056e+01	-1.534913e+02
1.100000e-07	-5.428610e-06	-2.419100e-09	-3.825054e+01	-1.535176e+02
1.200000e-07	-5.424073e-06	-2.414701e-09	-3.821857e+01	-1.535495e+02
1.300000e-07	-5.419301e-06	-2.287049e-09	-3.818494e+01	-1.535871e+02
1.400000e-07	-5.414255e-06	-2.270880e-09	-3.814939e+01	-1.536305e+02
1.500000e-07	-5.408890e-06	-2.426551e-09	-3.811159e+01	-1.536800e+02
1.600000e-07	-5.403102e-06	-2.410003e-09	-3.807081e+01	-1.537355e+02
1.700000e-07	-5.396849e-06	-2.282442e-09	-3.802674e+01	-1.537970e+02
1.800000e-07	-5.390159e-06	-2.244781e-09	-3.797961e+01	-1.538645e+02
1.900000e-07	-5.383109e-06	-2.356611e-09	-3.792993e+01	-1.539379e+02
2.000000e-07	-5.375761e-06	-2.381090e-09	-3.787816e+01	-1.540169e+02
2.100000e-07	-5.368137e-06	-2.309245e-09	-3.782444e+01	-1.541012e+02
2.200000e-07	-5.360240e-06	-2.330918e-09	-3.776880e+01	-1.541905e+02
2.300000e-07	-5.352044e-06	-2.378174e-09	-3.771105e+01	-1.542844e+02
2.400000e-07	-5.343502e-06	-2.359224e-09	-3.765086e+01	-1.543823e+02
2.500000e-07	-5.334502e-06	-2.317394e-09	-3.758745e+01	-1.544836e+02
2.600000e-07	-5.324874e-06	-2.378826e-09	-3.751960e+01	-1.545877e+02
2.700000e-07	-5.314672e-06	-2.403156e-09	-3.744772e+01	-1.546939e+02
2.800000e-07	-5.303993e-06	-2.370481e-09	-3.737247e+01	-1.548013e+02
2.900000e-07	-5.292802e-06	-2.380001e-09	-3.729363e+01	-1.549091e+02
3.000000e-07	-5.281111e-06	-2.438445e-09	-3.721125e+01	-1.550163e+02
3.100000e-07	-5.268973e-06	-2.398105e-09	-3.712572e+01	-1.551220e+02
3.200000e-07	-5.256492e-06	-2.345611e-09	-3.703778e+01	-1.552251e+02
3.300000e-07	-5.243656e-06	-2.369703e-09	-3.694733e+01	-1.553247e+02
3.400000e-07	-5.230416e-06	-2.410244e-09	-3.685404e+01	-1.554195e+02
3.500000e-07	-5.216732e-06	-2.404529e-09	-3.675762e+01	-1.555086e+02
3.600000e-07	-5.202675e-06	-2.402779e-09	-3.665858e+01	-1.555908e+02
3.700000e-07	-5.188237e-06	-2.399585e-09	-3.655685e+01	-1.556651e+02
3.800000e-07	-5.173246e-06	-2.383992e-09	-3.645122e+01	-1.557304e+02
3.900000e-07	-5.157661e-06	-2.386179e-09	-3.634141e+01	-1.557857e+02
4.000000e-07	-5.141557e-06	-2.388172e-09	-3.622794e+01	-1.558300e+02
4.100000e-07	-5.125011e-06	-2.363218e-09	-3.611135e+01	-1.558624e+02
4.200000e-07	-5.107985e-06	-2.365079e-09	-3.599139e+01	-1.558822e+02
4.300000e-07	-5.090598e-06	-2.404458e-09	-3.586887e+01	-1.558886e+02
4.400000e-07	-5.073025e-06	-2.409605e-09	-3.574505e+01	-1.558810e+02
4.500000e-07	-5.055178e-06	-2.372581e-09	-3.561930e+01	-1.558589e+02
4.600000e-07	-5.036951e-06	-2.348665e-09	-3.549087e+01	-1.558219e+02
4.700000e-07	-5.018340e-06	-2.362705e-09	-3.535973e+01	-1.557698e+02
4.800000e-07	-4.999374e-06	-2.367362e-09	-3.522610e+01	-1.557025e+02
4.900000e-07	-4.980074e-06	-2.358888e-09	-3.509011e+01	-1.556200e+02
5.000000e-07	-4.960452e-06	-2.346687e-09	-3.495185e+01	-1.555226e+02
5.100000e-07	-4.940566e-06	-2.367065e-09	-3.481173e+01	-1.554105e+02
5.200000e-07	-4.920411e-06	-2.386459e-09	-3.466972e+01	-1.552843e+02
5.300000e-07	-4.900017e-06	-2.376393e-09	-3.452602e+01	-1.551446e+02
5.400000e-07	-4.879392e-06	-2.343677e-09	-3.438069e+01	-1.549921e+02
5.500000e-07	-4.858441e-06	-2.341300e-09	-3.423307e+01	-1.548277e+02
5.600000e-07	-4.837082e-06	-2.353914e-09	-3.408257e+01	-1.546525e+02
5.700000e-07	-4.815363e-06	-2.362607e-09	-3.392954e+01	-1.544675e+02
5.800000e-07	-4.793286e-06	-2.351186e-09	-3.377398e+01	-1.542739e+02
5.900000e-07	-4.770859e-06	-2.344075e-09	-3.361596e+01	-1.540730e+02
6.000000e-07	-4.748009e-06	-2.349796e-09	-3.345496e+01	-1.538661e+02
6.100000e-07	-4.724848e-06	-2.357081e-09	-3.329176e+01	-1.536544e+02
6.200000e-07	-4.701565e-06	-2.332799e-09	-3.312771e+01	-1.534394e+02
6.300000e-07	-4.678023e-06	-2.308893e-09	-3.296183e+01	-1.532222e+02
6.400000e-07	-4.654172e-06	-2.316990e-09	-3.279377e+01	-1.530043e+02
6.500000e-07	-4.630097e-06	-2.337626e-09	-3.262414e+01	-1.527868e+02
6.600000e-07	-4.605805e-06	-2.334601e-09	-3.245297e+01	-1.525709e+02
6.700000e-07	-4.581242e-06	-2.320230e-09	-3.227989e+01	-1.523575e+02
6.800000e-07	-4.556270e-06	-2.316071e-09	-3.210394e+01	-1.521478e+02
6.900000e-07	-4.530776e-06	-2.320910e-09	-3.192431e+01	-1.519424e+02
7.000000e-07	-4.504776e-06	-2.315300e-09	-3.174111e+01	-1.517420e+02
7.100000e-07	-4.478243e-06	-2.294458e-09	-3.155416e+01	-1.515471e+02
7.200000e-07	-4.451206e-06	-2.283874e-09	-3.136365e+01	-1.513581e+02
7.300000e-07	-4.423763e-06	-2.295880e-09	-3.117029e+01	-1.511752e+02
7.400000e-07	-4.396031e-06	-2.306936e-09	-3.097488e+01	-1.509983e+02
7.500000e-07	-4.368062e-06	-2.295174e-09	-3.077781e+01	-1.508273e+02
7.600000e-07	-4.339883e-06	-2.283804e-09	-3.057926e+01	-1.506619e+02
7.700000e-07	-4.311513e-06	-2.284956e-09	-3.037936e+01	-1.505016e+02
7.800000e-07	-4.282884e-06	-2.289027e-09	-3.017764e+01	-1.503457e+02
7.900000e-07	-4.254025e-06	-2.277962e-09	-2.997429e+01	-1.501935e+02
8.000000e-07	-4.224954e-06	-2.267334e-09	-2.976945e+01	-1.500441e+02
8.100000e-07	-4.195501e-06	-2.267340e-09	-2.956193e+01	-1.498965e+02
8.200000e-07	-4.165685e-06	-2.278258e-09	-2.935184e+01	-1.497496e+02
8.300000e-07	-4.135603e-06	-2.278648e-09	-2.913988e+01	-1.496024e+02
8.400000e-07	-4.105228e-06	-2.269566e-09	-2.892585e+01	-1.494535e+02
8.500000e-07	-4.074627e-06	-2.263642e-09	-2.871024e+01	-1.493019e+02
8.600000e-07	-4.043745e-06	-2.266267e-09	-2.849264e+01	-1.491464e+02
8.700000e-07	-4.012551e-06	-2.260784e-09	-2.827285e+01	-1.489858e+02
8.800000e-07	-3.981173e-06	-2.247667e-09	-2.805175e+01	-1.488189e+02
8.900000e-07	-3.949586e-06	-2.235887e-09	-2.782919e+01	-1.486449e+02
9.000000e-07	-3.917729e-06	-2.238906e-09	-2.760472e+01	-1.484627e+02
9.100000e-07	-3.885667e-06	-2.243900e-09	-2.737880e+01	-1.482716e+02
9.200000e-07	-3.853385e-06	-2.241928e-09	-2.715135e+01	-1.480708e+02
9.300000e-07	-3.820873e-06	-2.238306e-09	-2.692226e+01	-1.478598e+02
9.400000e-07	-3.788120e-06	-2.241176e-09	-2.669148e+01	-1.476381e+02
9.500000e-07	-3.755029e-06	-2.241289e-09	-2.645832e+01	-1.474056e+02
9.600000e-07	-3.721547e-06	-2.231543e-09	-2.622240e+01	-1.471621e+02
9.700000e-07	-3.687617e-06	-2.217088e-09	-2.598333e+01	-1.469076e+02
9.800000e-07	-3.653220e-06	-2.210365e-09	-2.574096e+01	-1.466425e+02
9.900000e-07	-3.618455e-06	-2.211161e-09	-2.549600e+01	-1.463669e+02
1.000000e-06	-3.583391e-06	-2.211235e-09	-2.524894e+01	-1.460815e+02
1.010000e-06	-3.548055e-06	-2.210373e-09	-2.499996e+01	-1.457867e+02
1.020000e-06	-3.512455e-06	-2.211741e-09	-2.474912e+01	-1.454835e+02
1.030000e-06	-3.476631e-06	-2.211362e-09	-2.449670e+01	-1.451724e+02
1.040000e-06	-3.440680e-06	-2.202773e-09	-2.424338e+01	-1.448545e+02
1.050000e-06	-3.404579e-06	-2.189258e-09	-2.398901e+01	-1.445306e+02
1.060000e-06	-3.368304e-06	-2.174924e-09	-2.373341e+01	-1.442017e+02
1.070000e-06	-3.331840e-06	-2.168101e-09	-2.347648e+01	-1.438688e+02
1.080000e-06	-3.295132e-06	-2.165281e-09	-2.321784e+01	-1.435327e+02
1.090000e-06	-3.258156e-06	-2.161484e-09	-2.295730e+01	-1.431945e+02
1.100000e-06	-3.220935e-06	-2.156837e-09	-2.269504e+01	-1.428549e+02
1.110000e-06	-3.183486e-06	-2.154682e-09	-2.243117e+01	-1.425148e+02
1.120000e-06	-3.145810e-06	-2.150501e-09	-2.216570e+01	-1.421747e+02
1.130000e-06	-3.107995e-06	-2.146316e-09	-2.189925e+01	-1.418354e+02
1.140000e-06	-3.069977e-06	-2.139134e-09	-2.163137e+01	-1.414971e+02
1.150000e-06	-3.031677e-06	-2.131799e-09	-2.136151e+01	-1.411603e+02
1.160000e-06	-2.993154e-06	-2.124872e-09	-2.109007e+01	-1.408252e+02
1.170000e-06	-2.954375e-06	-2.117456e-09	-2.081683e+01	-1.404916e+02
1.180000e-06	-2.915416e-06	-2.108628e-09	-2.054232e+01	-1.401597e+02
1.190000e-06	-2.876312e-06	-2.102143e-09	-2.026678e+01	-1.398290e+02
1.200000e-06	-2.837012e-06	-2.097950e-09	-1.998988e+01	-1.394992e+02
1.210000e-06	-2.797544e-06	-2.093821e-09	-1.971178e+01	-1.391698e+02
1.220000e-06	-2.757876e-06	-2.086434e-09	-1.943227e+01	-1.388402e+02
1.230000e-06	-2.718048e-06	-2.078582e-09	-1.915164e+01	-1.385097e+02
1.240000e-06	-2.678146e-06	-2.070801e-09	-1.887049e+01	-1.381773e+02
1.250000e-06	-2.638086e-06	-2.063931e-09	-1.858822e+01	-1.378422e+02
1.260000e-06	-2.597892e-06	-2.057215e-09	-1.830502e+01	-1.375035e+02
1.270000e-06	-2.557589e-06	-2.050917e-09	-1.802103e+01	-1.371601e+02
1.280000e-06	-2.517163e-06	-2.043161e-09	-1.773619e+01	-1.368111e+02
1.290000e-06	-2.476649e-06	-2.034913e-09	-1.745072e+01	-1.364554e+02
1.300000e-06	-2.435958e-06	-2.029638e-09	-1.716401e+01	-1.360920e+02
1.310000e-06	-2.395064e-06	-2.024769e-09	-1.687586e+01	-1.357199e+02
1.320000e-06	-2.353904e-06	-2.018943e-09	-1.658585e+01	-1.353383e+02
1.330000e-06	-2.312392e-06	-2.010999e-09	-1.629335e+01	-1.349462e+02
1.340000e-06	-2.270605e-06	-2.004393e-09	-1.599892e+01	-1.345430e+02
1.350000e-06	-2.228559e-06	-2.000474e-09	-1.570265e+01	-1.341278e+02
1.360000e-06	-2.186099e-06	-1.994425e-09	-1.540348e+01	-1.337001e+02
1.370000e-06	-2.143313e-06	-1.984652e-09	-1.510200e+01	-1.332594e+02
1.380000e-06	-2.100372e-06	-1.973796e-09	-1.479944e+01	-1.328052e+02
1.390000e-06	-2.057245e-06	-1.961561e-09	-1.449556e+01	-1.323372e+02
1.400000e-06	-2.013876e-06	-1.951613e-09	-1.418997e+01	-1.318553e+02
1.410000e-06	-1.970313e-06	-1.945049e-09	-1.388303e+01	-1.313592e+02
1.420000e-06	-1.926612e-06	-1.940474e-09	-1.357510e+01	-1.308489e+02
1.430000e-06	-1.882811e-06	-1.935243e-09	-1.326648e+01	-1.303244e+02
1.440000e-06	-1.838942e-06	-1.929204e-09	-1.295737e+01	-1.297858e+02
1.450000e-06	-1.795076e-06	-1.921412e-09	-1.264829e+01	-1.292332e+02
1.460000e-06	-1.751127e-06	-1.911935e-09	-1.233862e+01	-1.286667e+02
1.470000e-06	-1.706987e-06	-1.896623e-09	-1.202760e+01	-1.280866e+02
1.480000e-06	-1.662762e-06	-1.879059e-09	-1.171599e+01	-1.274929e+02
1.490000e-06	-1.618475e-06	-1.866387e-09	-1.140394e+01	-1.268858e+02
1.500000e-06	-1.574157e-06	-1.859843e-09	-1.109167e+01	-1.262655e+02
1.510000e-06	-1.529786e-06	-1.856297e-09	-1.077903e+01	-1.256320e+02
1.520000e-06	-1.485297e-06	-1.850911e-09	-1.046555e+01	-1.249854e+02
1.530000e-06	-1.440767e-06	-1.842550e-09	-1.015179e+01	-1.243257e+02
1.540000e-06	-1.396240e-06	-1.832849e-09	-9.838052e+00	-1.236527e+02
1.550000e-06	-1.351577e-06	-1.820385e-09	-9.523351e+00	-1.229664e+02
1.560000e-06	-1.306693e-06	-1.802393e-09	-9.207091e+00	-1.222663e+02
1.570000e-06	-1.261755e-06	-1.784216e-09	-8.890454e+00	-1.215522e+02
1.580000e-06	-1.216731e-06	-1.772924e-09	-8.573212e+00	-1.208236e+02
1.590000e-06	-1.171514e-06	-1.765435e-09	-8.254606e+00	-1.200800e+02
1.600000e-06	-1.126174e-06	-1.757300e-09	-7.935135e+00	-1.193207e+02
1.610000e-06	-1.080764e-06	-1.746425e-09	-7.615172e+00	-1.185450e+02
1.620000e-06	-1.035355e-06	-1.735190e-09	-7.295215e+00	-1.177522e+02
1.630000e-06	-9.898884e-07	-1.723533e-09	-6.974855e+00	-1.169413e+02
1.640000e-06	-9.443336e-07	-1.707947e-09	-6.653871e+00	-1.161113e+02
1.650000e-06	-8.986682e-07	-1.691504e-09	-6.332108e+00	-1.152613e+02
1.660000e-06	-8.529347e-07	-1.679038e-09	-6.009865e+00	-1.143902e+02
1.670000e-06	-8.072622e-07	-1.670050e-09	-5.688051e+00	-1.134969e+02
1.680000e-06	-7.615305e-07	-1.657838e-09	-5.365822e+00	-1.125800e+02
1.690000e-06	-7.156950e-07	-1.638236e-09	-5.042860e+00	-1.116386e+02
1.700000e-06	-6.698500e-07	-1.617661e-09	-4.719831e+00	-1.106713e+02
1.710000e-06	-6.239376e-07	-1.603367e-09	-4.396328e+00	-1.096768e+02
1.720000e-06	-5.780025e-07	-1.591282e-09	-4.072665e+00	-1.086538e+02
1.730000e-06	-5.321078e-07	-1.575480e-09	-3.749286e+00	-1.076010e+02
1.740000e-06	-4.861441e-07	-1.558420e-09	-3.425421e+00	-1.065171e+02
1.750000e-06	-4.401187e-07	-1.543648e-09	-3.101121e+00	-1.054006e+02
1.760000e-06	-3.940617e-07	-1.529319e-09	-2.776599e+00	-1.042501e+02
1.770000e-06	-3.479341e-07	-1.510039e-09	-2.451579e+00	-1.030643e+02
1.780000e-06	-3.017638e-07	-1.486732e-09	-2.126258e+00	-1.018416e+02
1.790000e-06	-2.556229e-07	-1.466618e-09	-1.801145e+00	-1.005804e+02
1.800000e-06	-2.094844e-07	-1.447074e-09	-1.476048e+00	-9.927910e+01
1.810000e-06	-1.633212e-07	-1.426216e-09	-1.150778e+00	-9.793614e+01
1.820000e-06	-1.171929e-07	-1.405681e-09	-8.257532e-01	-9.654972e+01
1.830000e-06	-7.104640e-08	-1.386125e-09	-5.006002e-01	-9.511805e+01
1.840000e-06	-2.490880e-08	-1.366839e-09	-1.755099e-01	-9.363920e+01
1.850000e-06	2.121813e-08	-1.345001e-09	1.495051e-01	-9.211121e+01
1.860000e-06	6.737921e-08	-1.317836e-09	4.747608e-01	-9.053199e+01
1.870000e-06	1.135142e-07	-1.289811e-09	7.998328e-01	-8.889938e+01
1.880000e-06	1.596533e-07	-1.262651e-09	1.124933e+00	-8.721110e+01
1.890000e-06	2.058578e-07	-1.234297e-09	1.450495e+00	-8.546483e+01
1.900000e-06	2.520174e-07	-1.205617e-09	1.775740e+00	-8.365815e+01
1.910000e-06	2.981986e-07	-1.177323e-09	2.101138e+00	-8.178859e+01
1.920000e-06	3.444060e-07	-1.148774e-09	2.426720e+00	-7.985361e+01
1.930000e-06	3.905232e-07	-1.120866e-09	2.751666e+00	-7.785069e+01
1.940000e-06	4.366088e-07	-1.091554e-09	3.076390e+00	-7.577727e+01
1.950000e-06	4.826409e-07	-1.060633e-09	3.400737e+00	-7.363085e+01
1.960000e-06	5.286139e-07	-1.029201e-09	3.724668e+00	-7.140895e+01
1.970000e-06	5.745169e-07	-9.972545e-10	4.048105e+00	-6.910923e+01
1.980000e-06	6.204018e-07	-9.619546e-10	4.371414e+00	-6.672946e+01
1.990000e-06	6.663055e-07	-9.232675e-10	4.694856e+00	-6.426757e+01
2.000000e-06	7.121883e-07	-8.864687e-10	5.018151e+00	-6.172173e+01
2.010000e-06	7.580246e-07	-8.501648e-10	5.341119e+00	-5.909034e+01
2.020000e-06	8.038098e-07	-8.101061e-10	5.663725e+00	-5.637212e+01
2.030000e-06	8.495186e-07	-7.661916e-10	5.985795e+00	-5.356613e+01
2.040000e-06	8.951976e-07	-7.239765e-10	6.307654e+00	-5.067181e+01
2.050000e-06	9.408327e-07	-6.821952e-10	6.629203e+00	-4.768902e+01
2.060000e-06	9.863708e-07	-6.370366e-10	6.950069e+00	-4.461810e+01
2.070000e-06	1.031816e-06	-5.910246e-10	7.270283e+00	-4.145986e+01
2.080000e-06	1.077129e-06	-5.470009e-10	7.589562e+00	-3.821566e+01
2.090000e-06	1.122334e-06	-5.036058e-10	7.908079e+00	-3.488740e+01
2.100000e-06	1.167451e-06	-4.575276e-10	8.225978e+00	-3.147753e+01
2.110000e-06	1.212509e-06	-4.056137e-10	8.543459e+00	-2.798912e+01
2.120000e-06	1.257424e-06	-3.502931e-10	8.859939e+00	-2.442579e+01
2.130000e-06	1.302199e-06	-2.955284e-10	9.175427e+00	-2.079175e+01
2.140000e-06	1.346896e-06	-2.396639e-10	9.490364e+00	-1.709179e+01
2.150000e-06	1.391455e-06	-1.793841e-10	9.804337e+00	-1.333128e+01
2.160000e-06	1.435910e-06	-1.177819e-10	1.011757e+01	-9.516069e+00
2.170000e-06	1.480276e-06	-5.980122e-11	1.043017e+01	-5.652555e+00
2.180000e-06	1.524580e-06	-3.520549e-12	1.074234e+01	-1.747577e+00
2.190000e-06	1.568842e-06	5.674080e-11	1.105422e+01	2.191609e+00
2.200000e-06	1.613000e-06	1.194694e-10	1.136536e+01	6.157385e+00
2.210000e-06	1.657132e-06	1.809933e-10	1.167632e+01	1.014183e+01
2.220000e-06	1.701239e-06	2.419562e-10	1.198710e+01	1.413677e+01
2.230000e-06	1.745273e-06	3.041953e-10	1.229737e+01	1.813389e+01
2.240000e-06	1.789284e-06	3.667237e-10	1.260747e+01	2.212474e+01
2.250000e-06	1.833241e-06	4.269619e-10	1.291720e+01	2.610086e+01
2.260000e-06	1.877114e-06	4.848952e-10	1.322633e+01	3.005382e+01
2.270000e-06	1.920899e-06	5.430533e-10	1.353485e+01	3.397534e+01
2.280000e-06	1.964618e-06	6.005651e-10	1.384290e+01	3.785731e+01
2.290000e-06	2.008229e-06	6.542386e-10	1.415018e+01	4.169188e+01
2.300000e-06	2.051625e-06	7.092802e-10	1.445596e+01	4.547157e+01
2.310000e-06	2.094743e-06	7.689127e-10	1.475977e+01	4.918925e+01
2.320000e-06	2.137563e-06	8.260813e-10	1.506148e+01	5.283829e+01
2.330000e-06	2.180122e-06	8.764224e-10	1.536136e+01	5.641255e+01
2.340000e-06	2.222288e-06	9.252954e-10	1.565847e+01	5.990646e+01
2.350000e-06	2.264139e-06	9.765614e-10	1.595336e+01	6.331504e+01
2.360000e-06	2.305872e-06	1.026284e-09	1.624741e+01	6.663394e+01
2.370000e-06	2.347305e-06	1.069122e-09	1.653935e+01	6.985947e+01
2.380000e-06	2.388393e-06	1.107245e-09	1.682886e+01	7.298861e+01
2.390000e-06	2.429179e-06	1.148486e-09	1.711624e+01	7.601900e+01
2.400000e-06	2.469828e-06	1.193543e-09	1.740266e+01	7.894897e+01
2.410000e-06	2.510388e-06	1.235609e-09	1.768845e+01	8.177750e+01
2.420000e-06	2.550778e-06	1.271580e-09	1.797304e+01	8.450424e+01
2.430000e-06	2.591042e-06	1.308044e-09	1.825674e+01	8.712943e+01
2.440000e-06	2.631180e-06	1.349514e-09	1.853956e+01	8.965390e+01
2.450000e-06	2.671215e-06	1.387190e-09	1.882165e+01	9.207905e+01
2.460000e-06	2.711172e-06	1.416529e-09	1.910320e+01	9.440675e+01
2.470000e-06	2.751035e-06	1.445034e-09	1.938407e+01	9.663935e+01
2.480000e-06	2.790756e-06	1.478656e-09	1.966395e+01	9.877958e+01
2.490000e-06	2.830334e-06	1.512605e-09	1.994282e+01	1.008305e+02
2.500000e-06	2.869649e-06	1.541701e-09	2.021984e+01	1.027955e+02
2.510000e-06	2.908691e-06	1.567802e-09	2.049493e+01	1.046782e+02
2.520000e-06	2.947507e-06	1.595878e-09	2.076844e+01	1.064823e+02
2.530000e-06	2.986110e-06	1.623328e-09	2.104044e+01	1.082117e+02
2.540000e-06	3.024525e-06	1.642662e-09	2.131111e+01	1.098703e+02
2.550000e-06	3.062740e-06	1.659158e-09	2.158038e+01	1.114620e+02
2.560000e-06	3.100740e-06	1.681926e-09	2.184813e+01	1.129907e+02
2.570000e-06	3.138527e-06	1.709477e-09	2.211438e+01	1.144602e+02
2.580000e-06	3.176133e-06	1.734157e-09	2.237936e+01	1.158740e+02
2.590000e-06	3.213516e-06	1.754004e-09	2.264276e+01	1.172357e+02
2.600000e-06	3.250681e-06	1.772154e-09	2.290463e+01	1.185486e+02
2.610000e-06	3.287591e-06	1.789211e-09	2.316470e+01	1.198156e+02
2.620000e-06	3.324258e-06	1.804704e-09	2.342306e+01	1.210395e+02
2.630000e-06	3.360728e-06	1.819619e-09	2.368003e+01	1.222230e+02
2.640000e-06	3.397014e-06	1.838688e-09	2.393571e+01	1.233682e+02
2.650000e-06	3.433139e-06	1.859756e-09	2.419025e+01	1.244772e+02
2.660000e-06	3.469142e-06	1.875542e-09	2.444392e+01	1.255517e+02
2.670000e-06	3.505050e-06	1.887584e-09	2.469694e+01	1.265933e+02
2.680000e-06	3.540825e-06	1.899984e-09	2.494901e+01	1.276032e+02
2.690000e-06	3.576429e-06	1.912077e-09	2.519988e+01	1.285824e+02
2.700000e-06	3.611698e-06	1.921424e-09	2.544839e+01	1.295318e+02
2.710000e-06	3.646472e-06	1.932450e-09	2.569342e+01	1.304520e+02
2.720000e-06	3.680751e-06	1.950136e-09	2.593494e+01	1.313436e+02
2.730000e-06	3.714634e-06	1.970511e-09	2.617369e+01	1.322070e+02
2.740000e-06	3.748099e-06	1.984575e-09	2.640949e+01	1.330424e+02
2.750000e-06	3.781116e-06	1.990199e-09	2.664213e+01	1.338501e+02
2.760000e-06	3.813762e-06	1.994122e-09	2.687215e+01	1.346302e+02
2.770000e-06	3.846159e-06	2.002196e-09	2.710043e+01	1.353829e+02
2.780000e-06	3.878427e-06	2.011079e-09	2.732779e+01	1.361084e+02
2.790000e-06	3.910545e-06	2.018272e-09	2.755410e+01	1.368067e+02
2.800000e-06	3.942526e-06	2.030443e-09	2.777944e+01	1.374782e+02
2.810000e-06	3.974319e-06	2.050074e-09	2.800345e+01	1.381231e+02
2.820000e-06	4.005880e-06	2.064714e-09	2.822584e+01	1.387417e+02
2.830000e-06	4.037144e-06	2.065958e-09	2.844613e+01	1.393345e+02
2.840000e-06	4.068017e-06	2.064074e-09	2.866366e+01	1.399019e+02
2.850000e-06	4.098486e-06	2.069767e-09	2.887835e+01	1.404446e+02
2.860000e-06	4.128619e-06	2.081391e-09	2.909067e+01	1.409633e+02
2.870000e-06	4.158562e-06	2.091865e-09	2.930165e+01	1.414586e+02
2.880000e-06	4.188323e-06	2.100699e-09	2.951135e+01	1.419315e+02
2.890000e-06	4.217877e-06	2.112102e-09	2.971959e+01	1.423829e+02
2.900000e-06	4.247215e-06	2.123291e-09	2.992631e+01	1.428138e+02
