# Temperatura_=_-1.66
# Concentracion g/m^3_=_4090.0
# C_Vs_to_Am_M_A/Vsm_=_65563218390.804596
# pendiente_HvsI_1/m_=_3716.3
# ordenada_HvsI_A/m_=_1297.0
# frecuencia_Hz_=_135082.1061904782

Tiempo_(s)	Campo_(V.s)	Magnetizacion_(V.s)	Campo_(kA/m)	Magnetizacion_(A/m)
0.000000e+00	-5.433818e-06	-2.505704e-09	-3.839440e+01	-1.620200e+02
1.000000e-08	-5.433826e-06	-2.502134e-09	-3.839446e+01	-1.619450e+02
2.000000e-08	-5.433709e-06	-2.498677e-09	-3.839364e+01	-1.618769e+02
3.000000e-08	-5.433239e-06	-2.495636e-09	-3.839031e+01	-1.618187e+02
4.000000e-08	-5.432261e-06	-2.495035e-09	-3.838340e+01	-1.617734e+02
5.000000e-08	-5.430804e-06	-2.504723e-09	-3.837311e+01	-1.617439e+02
6.000000e-08	-5.428757e-06	-2.525718e-09	-3.835865e+01	-1.617328e+02
7.000000e-08	-5.426056e-06	-2.531169e-09	-3.833956e+01	-1.617428e+02
8.000000e-08	-5.422735e-06	-2.473810e-09	-3.831609e+01	-1.617761e+02
9.000000e-08	-5.418957e-06	-2.410705e-09	-3.828940e+01	-1.618346e+02
1.000000e-07	-5.414869e-06	-2.452262e-09	-3.826051e+01	-1.619198e+02
1.100000e-07	-5.410555e-06	-2.586719e-09	-3.823003e+01	-1.620331e+02
1.200000e-07	-5.406011e-06	-2.526198e-09	-3.819793e+01	-1.621752e+02
1.300000e-07	-5.401060e-06	-2.383871e-09	-3.816294e+01	-1.623464e+02
1.400000e-07	-5.395752e-06	-2.436733e-09	-3.812543e+01	-1.625465e+02
1.500000e-07	-5.390174e-06	-2.617945e-09	-3.808603e+01	-1.627750e+02
1.600000e-07	-5.384135e-06	-2.589236e-09	-3.804335e+01	-1.630308e+02
1.700000e-07	-5.377642e-06	-2.372058e-09	-3.799748e+01	-1.633123e+02
1.800000e-07	-5.370779e-06	-2.416990e-09	-3.794898e+01	-1.636178e+02
1.900000e-07	-5.363631e-06	-2.608448e-09	-3.789848e+01	-1.639447e+02
2.000000e-07	-5.356281e-06	-2.601771e-09	-3.784654e+01	-1.642904e+02
2.100000e-07	-5.348640e-06	-2.465790e-09	-3.779255e+01	-1.646520e+02
2.200000e-07	-5.340674e-06	-2.548004e-09	-3.773626e+01	-1.650261e+02
2.300000e-07	-5.332353e-06	-2.667790e-09	-3.767747e+01	-1.654093e+02
2.400000e-07	-5.323593e-06	-2.601180e-09	-3.761557e+01	-1.657978e+02
2.500000e-07	-5.314140e-06	-2.538195e-09	-3.754878e+01	-1.661880e+02
2.600000e-07	-5.304067e-06	-2.648223e-09	-3.747760e+01	-1.665761e+02
2.700000e-07	-5.293465e-06	-2.680242e-09	-3.740270e+01	-1.669583e+02
2.800000e-07	-5.282336e-06	-2.567107e-09	-3.732406e+01	-1.673309e+02
2.900000e-07	-5.270808e-06	-2.596443e-09	-3.724260e+01	-1.676905e+02
3.000000e-07	-5.258825e-06	-2.709944e-09	-3.715793e+01	-1.680338e+02
3.100000e-07	-5.246398e-06	-2.635717e-09	-3.707013e+01	-1.683576e+02
3.200000e-07	-5.233666e-06	-2.531266e-09	-3.698017e+01	-1.686591e+02
3.300000e-07	-5.220599e-06	-2.624292e-09	-3.688784e+01	-1.689361e+02
3.400000e-07	-5.207122e-06	-2.691758e-09	-3.679261e+01	-1.691862e+02
3.500000e-07	-5.193304e-06	-2.606718e-09	-3.669498e+01	-1.694080e+02
3.600000e-07	-5.179176e-06	-2.588724e-09	-3.659515e+01	-1.696000e+02
3.700000e-07	-5.164492e-06	-2.641490e-09	-3.649139e+01	-1.697614e+02
3.800000e-07	-5.149191e-06	-2.608389e-09	-3.638328e+01	-1.698917e+02
3.900000e-07	-5.133485e-06	-2.584097e-09	-3.627230e+01	-1.699909e+02
4.000000e-07	-5.117251e-06	-2.612839e-09	-3.615760e+01	-1.700593e+02
4.100000e-07	-5.100449e-06	-2.585808e-09	-3.603888e+01	-1.700975e+02
4.200000e-07	-5.083422e-06	-2.554453e-09	-3.591857e+01	-1.701067e+02
4.300000e-07	-5.066183e-06	-2.625858e-09	-3.579676e+01	-1.700881e+02
4.400000e-07	-5.048564e-06	-2.635880e-09	-3.567226e+01	-1.700435e+02
4.500000e-07	-5.030640e-06	-2.560194e-09	-3.554562e+01	-1.699746e+02
4.600000e-07	-5.012361e-06	-2.559587e-09	-3.541646e+01	-1.698835e+02
4.700000e-07	-4.993644e-06	-2.615455e-09	-3.528421e+01	-1.697724e+02
4.800000e-07	-4.974483e-06	-2.595081e-09	-3.514882e+01	-1.696436e+02
4.900000e-07	-4.954922e-06	-2.562496e-09	-3.501061e+01	-1.694995e+02
5.000000e-07	-4.935139e-06	-2.571851e-09	-3.487083e+01	-1.693423e+02
5.100000e-07	-4.915211e-06	-2.589622e-09	-3.473002e+01	-1.691744e+02
5.200000e-07	-4.895062e-06	-2.601135e-09	-3.458765e+01	-1.689981e+02
5.300000e-07	-4.874703e-06	-2.595428e-09	-3.444380e+01	-1.688155e+02
5.400000e-07	-4.853993e-06	-2.560474e-09	-3.429746e+01	-1.686286e+02
5.500000e-07	-4.832852e-06	-2.560019e-09	-3.414809e+01	-1.684393e+02
5.600000e-07	-4.811366e-06	-2.591489e-09	-3.399627e+01	-1.682491e+02
5.700000e-07	-4.789604e-06	-2.577691e-09	-3.384250e+01	-1.680595e+02
5.800000e-07	-4.767508e-06	-2.539675e-09	-3.368637e+01	-1.678718e+02
5.900000e-07	-4.744995e-06	-2.546419e-09	-3.352730e+01	-1.676869e+02
6.000000e-07	-4.722119e-06	-2.571280e-09	-3.336566e+01	-1.675056e+02
6.100000e-07	-4.699028e-06	-2.572758e-09	-3.320251e+01	-1.673284e+02
6.200000e-07	-4.675661e-06	-2.556758e-09	-3.303740e+01	-1.671557e+02
6.300000e-07	-4.651943e-06	-2.537608e-09	-3.286982e+01	-1.669877e+02
6.400000e-07	-4.628014e-06	-2.542582e-09	-3.270074e+01	-1.668242e+02
6.500000e-07	-4.603838e-06	-2.557533e-09	-3.252991e+01	-1.666651e+02
6.600000e-07	-4.579402e-06	-2.541489e-09	-3.235725e+01	-1.665101e+02
6.700000e-07	-4.554672e-06	-2.512558e-09	-3.218251e+01	-1.663585e+02
6.800000e-07	-4.529518e-06	-2.522890e-09	-3.200478e+01	-1.662099e+02
6.900000e-07	-4.503748e-06	-2.544324e-09	-3.182269e+01	-1.660637e+02
7.000000e-07	-4.477378e-06	-2.537950e-09	-3.163637e+01	-1.659190e+02
7.100000e-07	-4.450616e-06	-2.516881e-09	-3.144727e+01	-1.657752e+02
7.200000e-07	-4.423525e-06	-2.515378e-09	-3.125585e+01	-1.656316e+02
7.300000e-07	-4.396032e-06	-2.526315e-09	-3.106159e+01	-1.654874e+02
7.400000e-07	-4.368207e-06	-2.525413e-09	-3.086498e+01	-1.653419e+02
7.500000e-07	-4.340213e-06	-2.500282e-09	-3.066718e+01	-1.651945e+02
7.600000e-07	-4.312026e-06	-2.484820e-09	-3.046802e+01	-1.650445e+02
7.700000e-07	-4.283644e-06	-2.496634e-09	-3.026748e+01	-1.648916e+02
7.800000e-07	-4.255006e-06	-2.508526e-09	-3.006513e+01	-1.647352e+02
7.900000e-07	-4.226024e-06	-2.494497e-09	-2.986034e+01	-1.645749e+02
8.000000e-07	-4.196705e-06	-2.480725e-09	-2.965318e+01	-1.644104e+02
8.100000e-07	-4.167075e-06	-2.485991e-09	-2.944382e+01	-1.642415e+02
8.200000e-07	-4.137189e-06	-2.496247e-09	-2.923265e+01	-1.640681e+02
8.300000e-07	-4.107053e-06	-2.487848e-09	-2.901972e+01	-1.638900e+02
8.400000e-07	-4.076518e-06	-2.468092e-09	-2.880396e+01	-1.637071e+02
8.500000e-07	-4.045536e-06	-2.462380e-09	-2.858505e+01	-1.635196e+02
8.600000e-07	-4.014423e-06	-2.471427e-09	-2.836521e+01	-1.633273e+02
8.700000e-07	-3.983296e-06	-2.469757e-09	-2.814527e+01	-1.631304e+02
8.800000e-07	-3.951889e-06	-2.455864e-09	-2.792335e+01	-1.629289e+02
8.900000e-07	-3.920183e-06	-2.452015e-09	-2.769932e+01	-1.627230e+02
9.000000e-07	-3.888318e-06	-2.462246e-09	-2.747417e+01	-1.625126e+02
9.100000e-07	-3.856242e-06	-2.465800e-09	-2.724753e+01	-1.622979e+02
9.200000e-07	-3.823954e-06	-2.451575e-09	-2.701939e+01	-1.620788e+02
9.300000e-07	-3.791487e-06	-2.439390e-09	-2.678998e+01	-1.618555e+02
9.400000e-07	-3.758750e-06	-2.444284e-09	-2.655867e+01	-1.616279e+02
9.500000e-07	-3.725714e-06	-2.450594e-09	-2.632524e+01	-1.613960e+02
9.600000e-07	-3.692251e-06	-2.440988e-09	-2.608880e+01	-1.611597e+02
9.700000e-07	-3.658260e-06	-2.429740e-09	-2.584863e+01	-1.609189e+02
9.800000e-07	-3.623839e-06	-2.430903e-09	-2.560541e+01	-1.606737e+02
9.900000e-07	-3.589060e-06	-2.437183e-09	-2.535967e+01	-1.604237e+02
1.000000e-06	-3.553942e-06	-2.432372e-09	-2.511153e+01	-1.601690e+02
1.010000e-06	-3.518518e-06	-2.422509e-09	-2.486123e+01	-1.599093e+02
1.020000e-06	-3.482873e-06	-2.418692e-09	-2.460937e+01	-1.596446e+02
1.030000e-06	-3.447020e-06	-2.421945e-09	-2.435604e+01	-1.593747e+02
1.040000e-06	-3.410987e-06	-2.416401e-09	-2.410144e+01	-1.590996e+02
1.050000e-06	-3.374854e-06	-2.399674e-09	-2.384613e+01	-1.588192e+02
1.060000e-06	-3.338534e-06	-2.388247e-09	-2.358950e+01	-1.585334e+02
1.070000e-06	-3.301957e-06	-2.390508e-09	-2.333105e+01	-1.582422e+02
1.080000e-06	-3.265161e-06	-2.390915e-09	-2.307105e+01	-1.579457e+02
1.090000e-06	-3.228044e-06	-2.381237e-09	-2.280879e+01	-1.576439e+02
1.100000e-06	-3.190748e-06	-2.372734e-09	-2.254527e+01	-1.573369e+02
1.110000e-06	-3.153360e-06	-2.373441e-09	-2.228109e+01	-1.570250e+02
1.120000e-06	-3.115724e-06	-2.373663e-09	-2.201516e+01	-1.567082e+02
1.130000e-06	-3.077785e-06	-2.364645e-09	-2.174709e+01	-1.563868e+02
1.140000e-06	-3.039562e-06	-2.351797e-09	-2.147701e+01	-1.560611e+02
1.150000e-06	-3.001235e-06	-2.347029e-09	-2.120620e+01	-1.557313e+02
1.160000e-06	-2.962817e-06	-2.347552e-09	-2.093475e+01	-1.553977e+02
1.170000e-06	-2.924178e-06	-2.341508e-09	-2.066173e+01	-1.550605e+02
1.180000e-06	-2.885333e-06	-2.331335e-09	-2.038725e+01	-1.547201e+02
1.190000e-06	-2.846173e-06	-2.328268e-09	-2.011056e+01	-1.543765e+02
1.200000e-06	-2.806787e-06	-2.330477e-09	-1.983226e+01	-1.540301e+02
1.210000e-06	-2.767334e-06	-2.324444e-09	-1.955350e+01	-1.536809e+02
1.220000e-06	-2.727667e-06	-2.306943e-09	-1.927321e+01	-1.533290e+02
1.230000e-06	-2.687860e-06	-2.292521e-09	-1.899195e+01	-1.529745e+02
1.240000e-06	-2.647978e-06	-2.288227e-09	-1.871015e+01	-1.526172e+02
1.250000e-06	-2.608027e-06	-2.284566e-09	-1.842786e+01	-1.522569e+02
1.260000e-06	-2.567962e-06	-2.277641e-09	-1.814477e+01	-1.518935e+02
1.270000e-06	-2.527678e-06	-2.271629e-09	-1.786013e+01	-1.515265e+02
1.280000e-06	-2.487293e-06	-2.271106e-09	-1.757477e+01	-1.511556e+02
1.290000e-06	-2.446747e-06	-2.269218e-09	-1.728829e+01	-1.507801e+02
1.300000e-06	-2.405905e-06	-2.259539e-09	-1.699971e+01	-1.503994e+02
1.310000e-06	-2.364805e-06	-2.245500e-09	-1.670929e+01	-1.500129e+02
1.320000e-06	-2.323539e-06	-2.233904e-09	-1.641772e+01	-1.496196e+02
1.330000e-06	-2.282063e-06	-2.223666e-09	-1.612466e+01	-1.492188e+02
1.340000e-06	-2.240228e-06	-2.213703e-09	-1.582906e+01	-1.488095e+02
1.350000e-06	-2.198033e-06	-2.206066e-09	-1.553092e+01	-1.483908e+02
1.360000e-06	-2.155521e-06	-2.202198e-09	-1.523053e+01	-1.479617e+02
1.370000e-06	-2.112719e-06	-2.200543e-09	-1.492810e+01	-1.475213e+02
1.380000e-06	-2.069719e-06	-2.195774e-09	-1.462427e+01	-1.470685e+02
1.390000e-06	-2.026606e-06	-2.184752e-09	-1.431964e+01	-1.466023e+02
1.400000e-06	-1.983295e-06	-2.172915e-09	-1.401362e+01	-1.461220e+02
1.410000e-06	-1.939835e-06	-2.162152e-09	-1.370653e+01	-1.456266e+02
1.420000e-06	-1.896338e-06	-2.150165e-09	-1.339919e+01	-1.451153e+02
1.430000e-06	-1.852736e-06	-2.138851e-09	-1.309111e+01	-1.445875e+02
1.440000e-06	-1.808989e-06	-2.129949e-09	-1.278200e+01	-1.440426e+02
1.450000e-06	-1.765127e-06	-2.122809e-09	-1.247208e+01	-1.434800e+02
1.460000e-06	-1.721200e-06	-2.113066e-09	-1.216170e+01	-1.428993e+02
1.470000e-06	-1.677160e-06	-2.098420e-09	-1.185052e+01	-1.423002e+02
1.480000e-06	-1.633010e-06	-2.084484e-09	-1.153856e+01	-1.416825e+02
1.490000e-06	-1.588818e-06	-2.072649e-09	-1.122631e+01	-1.410462e+02
1.500000e-06	-1.544547e-06	-2.060845e-09	-1.091349e+01	-1.403911e+02
1.510000e-06	-1.500238e-06	-2.046250e-09	-1.060041e+01	-1.397174e+02
1.520000e-06	-1.455837e-06	-2.032723e-09	-1.028669e+01	-1.390252e+02
1.530000e-06	-1.411283e-06	-2.023655e-09	-9.971880e+00	-1.383147e+02
1.540000e-06	-1.366711e-06	-2.015172e-09	-9.656943e+00	-1.375861e+02
1.550000e-06	-1.322095e-06	-2.007531e-09	-9.341692e+00	-1.368396e+02
1.560000e-06	-1.277389e-06	-2.001411e-09	-9.025806e+00	-1.360754e+02
1.570000e-06	-1.232524e-06	-1.993766e-09	-8.708802e+00	-1.352937e+02
1.580000e-06	-1.187572e-06	-1.978622e-09	-8.391173e+00	-1.344948e+02
1.590000e-06	-1.142613e-06	-1.958321e-09	-8.073506e+00	-1.336786e+02
1.600000e-06	-1.097553e-06	-1.940347e-09	-7.755119e+00	-1.328452e+02
1.610000e-06	-1.052463e-06	-1.927982e-09	-7.436520e+00	-1.319944e+02
1.620000e-06	-1.007221e-06	-1.918209e-09	-7.116845e+00	-1.311259e+02
1.630000e-06	-9.617407e-07	-1.908618e-09	-6.795491e+00	-1.302395e+02
1.640000e-06	-9.162846e-07	-1.899314e-09	-6.474306e+00	-1.293345e+02
1.650000e-06	-8.707794e-07	-1.891353e-09	-6.152774e+00	-1.284102e+02
1.660000e-06	-8.251775e-07	-1.879391e-09	-5.830560e+00	-1.274657e+02
1.670000e-06	-7.794989e-07	-1.860104e-09	-5.507802e+00	-1.265000e+02
1.680000e-06	-7.337045e-07	-1.835968e-09	-5.184227e+00	-1.255118e+02
1.690000e-06	-6.879396e-07	-1.816467e-09	-4.860860e+00	-1.244998e+02
1.700000e-06	-6.421818e-07	-1.801599e-09	-4.537544e+00	-1.234623e+02
1.710000e-06	-5.963444e-07	-1.785649e-09	-4.213665e+00	-1.223976e+02
1.720000e-06	-5.504327e-07	-1.768781e-09	-3.889261e+00	-1.213038e+02
1.730000e-06	-5.044798e-07	-1.755744e-09	-3.564566e+00	-1.201790e+02
1.740000e-06	-4.584745e-07	-1.745216e-09	-3.239500e+00	-1.190210e+02
1.750000e-06	-4.124221e-07	-1.729986e-09	-2.914102e+00	-1.178276e+02
1.760000e-06	-3.663851e-07	-1.709307e-09	-2.588813e+00	-1.165966e+02
1.770000e-06	-3.203695e-07	-1.689516e-09	-2.263675e+00	-1.153257e+02
1.780000e-06	-2.743267e-07	-1.672300e-09	-1.938344e+00	-1.140124e+02
1.790000e-06	-2.282790e-07	-1.651488e-09	-1.612979e+00	-1.126544e+02
1.800000e-06	-1.821991e-07	-1.624785e-09	-1.287387e+00	-1.112494e+02
1.810000e-06	-1.361334e-07	-1.599145e-09	-9.618948e-01	-1.097952e+02
1.820000e-06	-9.009986e-08	-1.577656e-09	-6.366298e-01	-1.082894e+02
1.830000e-06	-4.406593e-08	-1.556900e-09	-3.113621e-01	-1.067299e+02
1.840000e-06	2.002528e-09	-1.533909e-09	1.414951e-02	-1.051147e+02
1.850000e-06	4.807000e-08	-1.505783e-09	3.396542e-01	-1.034417e+02
1.860000e-06	9.410774e-08	-1.478997e-09	6.649487e-01	-1.017092e+02
1.870000e-06	1.401270e-07	-1.451219e-09	9.901130e-01	-9.991530e+01
1.880000e-06	1.860937e-07	-1.421284e-09	1.314906e+00	-9.805854e+01
1.890000e-06	2.321264e-07	-1.390554e-09	1.640164e+00	-9.613742e+01
1.900000e-06	2.782078e-07	-1.362879e-09	1.965767e+00	-9.415061e+01
1.910000e-06	3.242813e-07	-1.334368e-09	2.291315e+00	-9.209693e+01
1.920000e-06	3.702705e-07	-1.301274e-09	2.616266e+00	-8.997532e+01
1.930000e-06	4.161748e-07	-1.265560e-09	2.940618e+00	-8.778486e+01
1.940000e-06	4.621349e-07	-1.230097e-09	3.265364e+00	-8.552476e+01
1.950000e-06	5.081344e-07	-1.196587e-09	3.590389e+00	-8.319435e+01
1.960000e-06	5.540990e-07	-1.162862e-09	3.915166e+00	-8.079309e+01
1.970000e-06	5.999642e-07	-1.126766e-09	4.239242e+00	-7.832054e+01
1.980000e-06	6.457441e-07	-1.090711e-09	4.562714e+00	-7.577639e+01
1.990000e-06	6.914300e-07	-1.053692e-09	4.885523e+00	-7.316042e+01
2.000000e-06	7.370414e-07	-1.012066e-09	5.207805e+00	-7.047256e+01
2.010000e-06	7.826439e-07	-9.667189e-10	5.530025e+00	-6.771283e+01
2.020000e-06	8.282453e-07	-9.224394e-10	5.852236e+00	-6.488137e+01
2.030000e-06	8.737762e-07	-8.816304e-10	6.173949e+00	-6.197847e+01
2.040000e-06	9.191194e-07	-8.406377e-10	6.494336e+00	-5.900452e+01
2.050000e-06	9.644399e-07	-7.966225e-10	6.814563e+00	-5.596009e+01
2.060000e-06	1.009800e-06	-7.514592e-10	7.135071e+00	-5.284591e+01
2.070000e-06	1.055070e-06	-7.064289e-10	7.454940e+00	-4.966287e+01
2.080000e-06	1.100401e-06	-6.573036e-10	7.775239e+00	-4.641207e+01
2.090000e-06	1.145548e-06	-6.048737e-10	8.094241e+00	-4.309484e+01
2.100000e-06	1.190436e-06	-5.519914e-10	8.411410e+00	-3.971272e+01
2.110000e-06	1.235295e-06	-5.010768e-10	8.728377e+00	-3.626751e+01
2.120000e-06	1.280022e-06	-4.491441e-10	9.044411e+00	-3.276132e+01
2.130000e-06	1.324687e-06	-3.929880e-10	9.360003e+00	-2.919651e+01
2.140000e-06	1.369278e-06	-3.350824e-10	9.675080e+00	-2.557578e+01
2.150000e-06	1.413766e-06	-2.795702e-10	9.989424e+00	-2.190216e+01
2.160000e-06	1.458189e-06	-2.237449e-10	1.030330e+01	-1.817902e+01
2.170000e-06	1.502504e-06	-1.652387e-10	1.061643e+01	-1.441007e+01
2.180000e-06	1.546724e-06	-1.058883e-10	1.092888e+01	-1.059937e+01
2.190000e-06	1.590893e-06	-4.855694e-11	1.124097e+01	-6.751359e+00
2.200000e-06	1.634988e-06	8.600127e-12	1.155254e+01	-2.870806e+00
2.210000e-06	1.678979e-06	6.775655e-11	1.186337e+01	1.037180e+00
2.220000e-06	1.722942e-06	1.301418e-10	1.217400e+01	4.967166e+00
2.230000e-06	1.766875e-06	1.936736e-10	1.248443e+01	8.913423e+00
2.240000e-06	1.810719e-06	2.551819e-10	1.279422e+01	1.286995e+01
2.250000e-06	1.854506e-06	3.159308e-10	1.310361e+01	1.683052e+01
2.260000e-06	1.898245e-06	3.777520e-10	1.341267e+01	2.078870e+01
2.270000e-06	1.941848e-06	4.374912e-10	1.372076e+01	2.473792e+01
2.280000e-06	1.985229e-06	4.930692e-10	1.402728e+01	2.867150e+01
2.290000e-06	2.028473e-06	5.477497e-10	1.433283e+01	3.258271e+01
2.300000e-06	2.071667e-06	6.048930e-10	1.463803e+01	3.646484e+01
2.310000e-06	2.114720e-06	6.619598e-10	1.494224e+01	4.031125e+01
2.320000e-06	2.157457e-06	7.177145e-10	1.524421e+01	4.411543e+01
2.330000e-06	2.199812e-06	7.738561e-10	1.554349e+01	4.787104e+01
2.340000e-06	2.241787e-06	8.308197e-10	1.584007e+01	5.157203e+01
2.350000e-06	2.283391e-06	8.871118e-10	1.613404e+01	5.521261e+01
2.360000e-06	2.324707e-06	9.382374e-10	1.642597e+01	5.878740e+01
2.370000e-06	2.365822e-06	9.841864e-10	1.671648e+01	6.229138e+01
2.380000e-06	2.406743e-06	1.030201e-09	1.700563e+01	6.572004e+01
2.390000e-06	2.447483e-06	1.077867e-09	1.729349e+01	6.906935e+01
2.400000e-06	2.488125e-06	1.122198e-09	1.758066e+01	7.233579e+01
2.410000e-06	2.528562e-06	1.165931e-09	1.786637e+01	7.551645e+01
2.420000e-06	2.568785e-06	1.211480e-09	1.815059e+01	7.860895e+01
2.430000e-06	2.608878e-06	1.258780e-09	1.843388e+01	8.161153e+01
2.440000e-06	2.648835e-06	1.304811e-09	1.871620e+01	8.452301e+01
2.450000e-06	2.688723e-06	1.343052e-09	1.899804e+01	8.734280e+01
2.460000e-06	2.728503e-06	1.378018e-09	1.927912e+01	9.007086e+01
2.470000e-06	2.768178e-06	1.413757e-09	1.955946e+01	9.270773e+01
2.480000e-06	2.807681e-06	1.447992e-09	1.983858e+01	9.525443e+01
2.490000e-06	2.846921e-06	1.482231e-09	2.011585e+01	9.771248e+01
2.500000e-06	2.886017e-06	1.518418e-09	2.039209e+01	1.000838e+02
2.510000e-06	2.924898e-06	1.556022e-09	2.066682e+01	1.023708e+02
2.520000e-06	2.963549e-06	1.590182e-09	2.093992e+01	1.045761e+02
2.530000e-06	3.002076e-06	1.617604e-09	2.121214e+01	1.067026e+02
2.540000e-06	3.040327e-06	1.643064e-09	2.148242e+01	1.087535e+02
2.550000e-06	3.078338e-06	1.671541e-09	2.175099e+01	1.107320e+02
2.560000e-06	3.116126e-06	1.701267e-09	2.201800e+01	1.126415e+02
2.570000e-06	3.153634e-06	1.728283e-09	2.228303e+01	1.144855e+02
2.580000e-06	3.190967e-06	1.753938e-09	2.254681e+01	1.162674e+02
2.590000e-06	3.228205e-06	1.780563e-09	2.280993e+01	1.179903e+02
2.600000e-06	3.265224e-06	1.806450e-09	2.307150e+01	1.196576e+02
2.610000e-06	3.301899e-06	1.827234e-09	2.333064e+01	1.212721e+02
2.620000e-06	3.338339e-06	1.847319e-09	2.358812e+01	1.228367e+02
2.630000e-06	3.374629e-06	1.871997e-09	2.384454e+01	1.243539e+02
2.640000e-06	3.410756e-06	1.898099e-09	2.409981e+01	1.258260e+02
2.650000e-06	3.446691e-06	1.919525e-09	2.435371e+01	1.272549e+02
2.660000e-06	3.482467e-06	1.938923e-09	2.460650e+01	1.286424e+02
2.670000e-06	3.518104e-06	1.960433e-09	2.485830e+01	1.299897e+02
2.680000e-06	3.553527e-06	1.980022e-09	2.510860e+01	1.312982e+02
2.690000e-06	3.588697e-06	1.993977e-09	2.535710e+01	1.325685e+02
2.700000e-06	3.623550e-06	2.004945e-09	2.560337e+01	1.338012e+02
2.710000e-06	3.658026e-06	2.020405e-09	2.584697e+01	1.349968e+02
2.720000e-06	3.691994e-06	2.041052e-09	2.608698e+01	1.361554e+02
2.730000e-06	3.725447e-06	2.060378e-09	2.632336e+01	1.372770e+02
2.740000e-06	3.758515e-06	2.076579e-09	2.655701e+01	1.383615e+02
2.750000e-06	3.791169e-06	2.093527e-09	2.678773e+01	1.394087e+02
2.760000e-06	3.823558e-06	2.110048e-09	2.701659e+01	1.404183e+02
2.770000e-06	3.855734e-06	2.123545e-09	2.724394e+01	1.413901e+02
2.780000e-06	3.887723e-06	2.135198e-09	2.746997e+01	1.423240e+02
2.790000e-06	3.919583e-06	2.148605e-09	2.769508e+01	1.432198e+02
2.800000e-06	3.951258e-06	2.164033e-09	2.791889e+01	1.440775e+02
2.810000e-06	3.982805e-06	2.177049e-09	2.814180e+01	1.448972e+02
2.820000e-06	4.014143e-06	2.185910e-09	2.836323e+01	1.456792e+02
2.830000e-06	4.045135e-06	2.193026e-09	2.858221e+01	1.464241e+02
2.840000e-06	4.075834e-06	2.202474e-09	2.879913e+01	1.471325e+02
2.850000e-06	4.106236e-06	2.214768e-09	2.901394e+01	1.478052e+02
2.860000e-06	4.136237e-06	2.226897e-09	2.922592e+01	1.484435e+02
2.870000e-06	4.165889e-06	2.238973e-09	2.943544e+01	1.490486e+02
2.880000e-06	4.195319e-06	2.249965e-09	2.964339e+01	1.496219e+02
2.890000e-06	4.224503e-06	2.257132e-09	2.984960e+01	1.501652e+02
2.900000e-06	4.253403e-06	2.258094e-09	3.005380e+01	1.506803e+02
