# Temperatura_=_-2.06
# Concentracion g/m^3_=_4090.0
# C_Vs_to_Am_M_A/Vsm_=_65563218390.804596
# pendiente_HvsI_1/m_=_3716.3
# ordenada_HvsI_A/m_=_1297.0
# frecuencia_Hz_=_135082.79799504176

Tiempo_(s)	Campo_(V.s)	Magnetizacion_(V.s)	Campo_(kA/m)	Magnetizacion_(A/m)
0.000000e+00	-5.407903e-06	-2.549270e-09	-3.838992e+01	-1.626678e+02
1.000000e-08	-5.408044e-06	-2.549377e-09	-3.839093e+01	-1.626827e+02
2.000000e-08	-5.407915e-06	-2.548226e-09	-3.839001e+01	-1.627001e+02
3.000000e-08	-5.407565e-06	-2.545619e-09	-3.838752e+01	-1.627205e+02
4.000000e-08	-5.406923e-06	-2.544118e-09	-3.838297e+01	-1.627443e+02
5.000000e-08	-5.405732e-06	-2.543552e-09	-3.837451e+01	-1.627720e+02
6.000000e-08	-5.403991e-06	-2.548102e-09	-3.836215e+01	-1.628038e+02
7.000000e-08	-5.401690e-06	-2.563137e-09	-3.834582e+01	-1.628400e+02
8.000000e-08	-5.398747e-06	-2.543049e-09	-3.832493e+01	-1.628808e+02
9.000000e-08	-5.395161e-06	-2.501320e-09	-3.829947e+01	-1.629265e+02
1.000000e-07	-5.391095e-06	-2.523229e-09	-3.827060e+01	-1.629770e+02
1.100000e-07	-5.386770e-06	-2.585129e-09	-3.823990e+01	-1.630325e+02
1.200000e-07	-5.382325e-06	-2.549104e-09	-3.820835e+01	-1.630929e+02
1.300000e-07	-5.377747e-06	-2.471284e-09	-3.817584e+01	-1.631580e+02
1.400000e-07	-5.372721e-06	-2.500931e-09	-3.814017e+01	-1.632278e+02
1.500000e-07	-5.367172e-06	-2.603530e-09	-3.810078e+01	-1.633019e+02
1.600000e-07	-5.361299e-06	-2.542309e-09	-3.805909e+01	-1.633801e+02
1.700000e-07	-5.355107e-06	-2.444642e-09	-3.801513e+01	-1.634619e+02
1.800000e-07	-5.348450e-06	-2.465241e-09	-3.796787e+01	-1.635471e+02
1.900000e-07	-5.341411e-06	-2.597009e-09	-3.791790e+01	-1.636352e+02
2.000000e-07	-5.334019e-06	-2.539003e-09	-3.786543e+01	-1.637255e+02
2.100000e-07	-5.326370e-06	-2.459830e-09	-3.781113e+01	-1.638177e+02
2.200000e-07	-5.318544e-06	-2.488070e-09	-3.775558e+01	-1.639111e+02
2.300000e-07	-5.310440e-06	-2.560726e-09	-3.769805e+01	-1.640051e+02
2.400000e-07	-5.301977e-06	-2.496089e-09	-3.763797e+01	-1.640991e+02
2.500000e-07	-5.292975e-06	-2.467116e-09	-3.757406e+01	-1.641925e+02
2.600000e-07	-5.283290e-06	-2.540188e-09	-3.750531e+01	-1.642847e+02
2.700000e-07	-5.272965e-06	-2.550922e-09	-3.743201e+01	-1.643750e+02
2.800000e-07	-5.262123e-06	-2.482897e-09	-3.735505e+01	-1.644628e+02
2.900000e-07	-5.250828e-06	-2.496693e-09	-3.727487e+01	-1.645473e+02
3.000000e-07	-5.239037e-06	-2.554075e-09	-3.719117e+01	-1.646281e+02
3.100000e-07	-5.226907e-06	-2.494105e-09	-3.710506e+01	-1.647044e+02
3.200000e-07	-5.214474e-06	-2.472253e-09	-3.701680e+01	-1.647757e+02
3.300000e-07	-5.201581e-06	-2.524557e-09	-3.692527e+01	-1.648414e+02
3.400000e-07	-5.188407e-06	-2.567916e-09	-3.683175e+01	-1.649008e+02
3.500000e-07	-5.174940e-06	-2.508847e-09	-3.673615e+01	-1.649536e+02
3.600000e-07	-5.161044e-06	-2.529426e-09	-3.663751e+01	-1.649991e+02
3.700000e-07	-5.146765e-06	-2.535431e-09	-3.653614e+01	-1.650369e+02
3.800000e-07	-5.132043e-06	-2.519709e-09	-3.643163e+01	-1.650666e+02
3.900000e-07	-5.116648e-06	-2.493941e-09	-3.632234e+01	-1.650876e+02
4.000000e-07	-5.100591e-06	-2.523366e-09	-3.620836e+01	-1.650997e+02
4.100000e-07	-5.084127e-06	-2.498923e-09	-3.609148e+01	-1.651025e+02
4.200000e-07	-5.067243e-06	-2.503906e-09	-3.597162e+01	-1.650958e+02
4.300000e-07	-5.049953e-06	-2.531986e-09	-3.584888e+01	-1.650792e+02
4.400000e-07	-5.032415e-06	-2.536181e-09	-3.572438e+01	-1.650526e+02
4.500000e-07	-5.014635e-06	-2.482997e-09	-3.559817e+01	-1.650159e+02
4.600000e-07	-4.996541e-06	-2.493478e-09	-3.546972e+01	-1.649690e+02
4.700000e-07	-4.978127e-06	-2.507887e-09	-3.533900e+01	-1.649120e+02
4.800000e-07	-4.959278e-06	-2.494529e-09	-3.520520e+01	-1.648447e+02
4.900000e-07	-4.939948e-06	-2.474424e-09	-3.506798e+01	-1.647675e+02
5.000000e-07	-4.920383e-06	-2.491788e-09	-3.492909e+01	-1.646804e+02
5.100000e-07	-4.900619e-06	-2.499112e-09	-3.478879e+01	-1.645838e+02
5.200000e-07	-4.880598e-06	-2.499672e-09	-3.464666e+01	-1.644780e+02
5.300000e-07	-4.860332e-06	-2.488113e-09	-3.450280e+01	-1.643633e+02
5.400000e-07	-4.839804e-06	-2.469305e-09	-3.435707e+01	-1.642403e+02
5.500000e-07	-4.818929e-06	-2.467629e-09	-3.420888e+01	-1.641095e+02
5.600000e-07	-4.797663e-06	-2.479267e-09	-3.405792e+01	-1.639715e+02
5.700000e-07	-4.776099e-06	-2.474381e-09	-3.390484e+01	-1.638269e+02
5.800000e-07	-4.754304e-06	-2.455180e-09	-3.375011e+01	-1.636764e+02
5.900000e-07	-4.732241e-06	-2.462541e-09	-3.359349e+01	-1.635208e+02
6.000000e-07	-4.709841e-06	-2.474080e-09	-3.343448e+01	-1.633609e+02
6.100000e-07	-4.687043e-06	-2.470527e-09	-3.327264e+01	-1.631974e+02
6.200000e-07	-4.663748e-06	-2.445734e-09	-3.310727e+01	-1.630312e+02
6.300000e-07	-4.640089e-06	-2.440589e-09	-3.293932e+01	-1.628631e+02
6.400000e-07	-4.616294e-06	-2.442382e-09	-3.277040e+01	-1.626938e+02
6.500000e-07	-4.592377e-06	-2.449926e-09	-3.260062e+01	-1.625242e+02
6.600000e-07	-4.568228e-06	-2.434963e-09	-3.242919e+01	-1.623549e+02
6.700000e-07	-4.543797e-06	-2.430892e-09	-3.225575e+01	-1.621866e+02
6.800000e-07	-4.519011e-06	-2.432335e-09	-3.207980e+01	-1.620200e+02
6.900000e-07	-4.493780e-06	-2.441519e-09	-3.190070e+01	-1.618555e+02
7.000000e-07	-4.467999e-06	-2.423600e-09	-3.171768e+01	-1.616937e+02
7.100000e-07	-4.441618e-06	-2.412245e-09	-3.153040e+01	-1.615348e+02
7.200000e-07	-4.414715e-06	-2.406825e-09	-3.133943e+01	-1.613791e+02
7.300000e-07	-4.387416e-06	-2.419284e-09	-3.114563e+01	-1.612267e+02
7.400000e-07	-4.359880e-06	-2.415076e-09	-3.095015e+01	-1.610777e+02
7.500000e-07	-4.332155e-06	-2.406453e-09	-3.075334e+01	-1.609319e+02
7.600000e-07	-4.304272e-06	-2.398808e-09	-3.055541e+01	-1.607891e+02
7.700000e-07	-4.276180e-06	-2.406865e-09	-3.035599e+01	-1.606489e+02
7.800000e-07	-4.247849e-06	-2.405568e-09	-3.015487e+01	-1.605108e+02
7.900000e-07	-4.219355e-06	-2.398826e-09	-2.995259e+01	-1.603743e+02
8.000000e-07	-4.190490e-06	-2.389796e-09	-2.974768e+01	-1.602388e+02
8.100000e-07	-4.161118e-06	-2.392407e-09	-2.953918e+01	-1.601033e+02
8.200000e-07	-4.131434e-06	-2.394859e-09	-2.932845e+01	-1.599672e+02
8.300000e-07	-4.101535e-06	-2.388971e-09	-2.911621e+01	-1.598295e+02
8.400000e-07	-4.071336e-06	-2.380181e-09	-2.890183e+01	-1.596892e+02
8.500000e-07	-4.040883e-06	-2.378009e-09	-2.868564e+01	-1.595454e+02
8.600000e-07	-4.010190e-06	-2.379022e-09	-2.846776e+01	-1.593971e+02
8.700000e-07	-3.979294e-06	-2.373633e-09	-2.824844e+01	-1.592435e+02
8.800000e-07	-3.948210e-06	-2.368242e-09	-2.802777e+01	-1.590834e+02
8.900000e-07	-3.916843e-06	-2.367444e-09	-2.780511e+01	-1.589162e+02
9.000000e-07	-3.885146e-06	-2.373584e-09	-2.758009e+01	-1.587409e+02
9.100000e-07	-3.853267e-06	-2.370286e-09	-2.735379e+01	-1.585569e+02
9.200000e-07	-3.821265e-06	-2.363585e-09	-2.712661e+01	-1.583636e+02
9.300000e-07	-3.789026e-06	-2.356762e-09	-2.689775e+01	-1.581605e+02
9.400000e-07	-3.756609e-06	-2.359716e-09	-2.666763e+01	-1.579472e+02
9.500000e-07	-3.723932e-06	-2.357147e-09	-2.643565e+01	-1.577236e+02
9.600000e-07	-3.690918e-06	-2.351289e-09	-2.620130e+01	-1.574896e+02
9.700000e-07	-3.657446e-06	-2.342424e-09	-2.596368e+01	-1.572452e+02
9.800000e-07	-3.623471e-06	-2.346068e-09	-2.572250e+01	-1.569906e+02
9.900000e-07	-3.589006e-06	-2.346402e-09	-2.547783e+01	-1.567264e+02
1.000000e-06	-3.554255e-06	-2.343023e-09	-2.523114e+01	-1.564529e+02
1.010000e-06	-3.519294e-06	-2.336724e-09	-2.498296e+01	-1.561708e+02
1.020000e-06	-3.483906e-06	-2.338394e-09	-2.473175e+01	-1.558808e+02
1.030000e-06	-3.448230e-06	-2.334596e-09	-2.447848e+01	-1.555839e+02
1.040000e-06	-3.412399e-06	-2.327255e-09	-2.422413e+01	-1.552809e+02
1.050000e-06	-3.376402e-06	-2.315852e-09	-2.396859e+01	-1.549729e+02
1.060000e-06	-3.340234e-06	-2.311594e-09	-2.371184e+01	-1.546609e+02
1.070000e-06	-3.303962e-06	-2.307780e-09	-2.345435e+01	-1.543459e+02
1.080000e-06	-3.267444e-06	-2.302140e-09	-2.319511e+01	-1.540289e+02
1.090000e-06	-3.230654e-06	-2.291276e-09	-2.293394e+01	-1.537111e+02
1.100000e-06	-3.193670e-06	-2.285332e-09	-2.267140e+01	-1.533933e+02
1.110000e-06	-3.156413e-06	-2.281655e-09	-2.240692e+01	-1.530765e+02
1.120000e-06	-3.118961e-06	-2.277205e-09	-2.214105e+01	-1.527614e+02
1.130000e-06	-3.081322e-06	-2.274017e-09	-2.187386e+01	-1.524487e+02
1.140000e-06	-3.043423e-06	-2.271630e-09	-2.160482e+01	-1.521389e+02
1.150000e-06	-3.005271e-06	-2.268461e-09	-2.133398e+01	-1.518324e+02
1.160000e-06	-2.966974e-06	-2.261641e-09	-2.106212e+01	-1.515295e+02
1.170000e-06	-2.928589e-06	-2.251994e-09	-2.078963e+01	-1.512301e+02
1.180000e-06	-2.889965e-06	-2.241436e-09	-2.051545e+01	-1.509341e+02
1.190000e-06	-2.851085e-06	-2.236277e-09	-2.023944e+01	-1.506413e+02
1.200000e-06	-2.811925e-06	-2.235533e-09	-1.996145e+01	-1.503512e+02
1.210000e-06	-2.772516e-06	-2.233607e-09	-1.968169e+01	-1.500632e+02
1.220000e-06	-2.732928e-06	-2.224512e-09	-1.940066e+01	-1.497763e+02
1.230000e-06	-2.693199e-06	-2.215173e-09	-1.911863e+01	-1.494898e+02
1.240000e-06	-2.653371e-06	-2.207842e-09	-1.883590e+01	-1.492026e+02
1.250000e-06	-2.613417e-06	-2.203003e-09	-1.855227e+01	-1.489134e+02
1.260000e-06	-2.573440e-06	-2.194859e-09	-1.826848e+01	-1.486210e+02
1.270000e-06	-2.533401e-06	-2.192105e-09	-1.798425e+01	-1.483242e+02
1.280000e-06	-2.493230e-06	-2.189978e-09	-1.769908e+01	-1.480215e+02
1.290000e-06	-2.452852e-06	-2.187997e-09	-1.741244e+01	-1.477117e+02
1.300000e-06	-2.412308e-06	-2.178635e-09	-1.712463e+01	-1.473932e+02
1.310000e-06	-2.371667e-06	-2.169123e-09	-1.683612e+01	-1.470648e+02
1.320000e-06	-2.330723e-06	-2.160265e-09	-1.654547e+01	-1.467253e+02
1.330000e-06	-2.289496e-06	-2.152952e-09	-1.625280e+01	-1.463734e+02
1.340000e-06	-2.248075e-06	-2.146766e-09	-1.595876e+01	-1.460081e+02
1.350000e-06	-2.206401e-06	-2.143716e-09	-1.566292e+01	-1.456285e+02
1.360000e-06	-2.164358e-06	-2.138694e-09	-1.536447e+01	-1.452335e+02
1.370000e-06	-2.121975e-06	-2.130975e-09	-1.506359e+01	-1.448227e+02
1.380000e-06	-2.079464e-06	-2.118203e-09	-1.476181e+01	-1.443954e+02
1.390000e-06	-2.036732e-06	-2.102228e-09	-1.445846e+01	-1.439513e+02
1.400000e-06	-1.993755e-06	-2.089590e-09	-1.415338e+01	-1.434901e+02
1.410000e-06	-1.950574e-06	-2.082697e-09	-1.384685e+01	-1.430118e+02
1.420000e-06	-1.907276e-06	-2.076384e-09	-1.353948e+01	-1.425163e+02
1.430000e-06	-1.863853e-06	-2.070206e-09	-1.323123e+01	-1.420040e+02
1.440000e-06	-1.820276e-06	-2.064079e-09	-1.292188e+01	-1.414750e+02
1.450000e-06	-1.776578e-06	-2.056261e-09	-1.261167e+01	-1.409299e+02
1.460000e-06	-1.732765e-06	-2.045514e-09	-1.230065e+01	-1.403690e+02
1.470000e-06	-1.688906e-06	-2.030504e-09	-1.198930e+01	-1.397930e+02
1.480000e-06	-1.644995e-06	-2.015428e-09	-1.167758e+01	-1.392024e+02
1.490000e-06	-1.600964e-06	-2.004555e-09	-1.136501e+01	-1.385978e+02
1.500000e-06	-1.556845e-06	-1.998420e-09	-1.105181e+01	-1.379797e+02
1.510000e-06	-1.512683e-06	-1.988981e-09	-1.073832e+01	-1.373488e+02
1.520000e-06	-1.468437e-06	-1.976879e-09	-1.042422e+01	-1.367053e+02
1.530000e-06	-1.424126e-06	-1.967024e-09	-1.010966e+01	-1.360497e+02
1.540000e-06	-1.379750e-06	-1.959974e-09	-9.794649e+00	-1.353823e+02
1.550000e-06	-1.335313e-06	-1.951122e-09	-9.479196e+00	-1.347032e+02
1.560000e-06	-1.290826e-06	-1.939618e-09	-9.163388e+00	-1.340123e+02
1.570000e-06	-1.246225e-06	-1.928766e-09	-8.846769e+00	-1.333095e+02
1.580000e-06	-1.201477e-06	-1.921182e-09	-8.529114e+00	-1.325944e+02
1.590000e-06	-1.156621e-06	-1.911860e-09	-8.210686e+00	-1.318666e+02
1.600000e-06	-1.111662e-06	-1.899084e-09	-7.891529e+00	-1.311252e+02
1.610000e-06	-1.066619e-06	-1.884172e-09	-7.571777e+00	-1.303695e+02
1.620000e-06	-1.021526e-06	-1.873511e-09	-7.251668e+00	-1.295984e+02
1.630000e-06	-9.764069e-07	-1.864887e-09	-6.931372e+00	-1.288107e+02
1.640000e-06	-9.311775e-07	-1.853048e-09	-6.610294e+00	-1.280049e+02
1.650000e-06	-8.858648e-07	-1.837641e-09	-6.288626e+00	-1.271797e+02
1.660000e-06	-8.405444e-07	-1.824206e-09	-5.966903e+00	-1.263333e+02
1.670000e-06	-7.952041e-07	-1.814420e-09	-5.645039e+00	-1.254640e+02
1.680000e-06	-7.497609e-07	-1.803439e-09	-5.322444e+00	-1.245700e+02
1.690000e-06	-7.042269e-07	-1.785854e-09	-4.999205e+00	-1.236493e+02
1.700000e-06	-6.586851e-07	-1.771265e-09	-4.675911e+00	-1.227000e+02
1.710000e-06	-6.130330e-07	-1.761061e-09	-4.351832e+00	-1.217202e+02
1.720000e-06	-5.673368e-07	-1.748217e-09	-4.027442e+00	-1.207077e+02
1.730000e-06	-5.216370e-07	-1.729244e-09	-3.703025e+00	-1.196606e+02
1.740000e-06	-4.758753e-07	-1.710020e-09	-3.378170e+00	-1.185770e+02
1.750000e-06	-4.300985e-07	-1.694032e-09	-3.053207e+00	-1.174548e+02
1.760000e-06	-3.843410e-07	-1.679881e-09	-2.728381e+00	-1.162921e+02
1.770000e-06	-3.385854e-07	-1.665693e-09	-2.403568e+00	-1.150871e+02
1.780000e-06	-2.927305e-07	-1.652251e-09	-2.078051e+00	-1.138381e+02
1.790000e-06	-2.468324e-07	-1.637844e-09	-1.752227e+00	-1.125432e+02
1.800000e-06	-2.009592e-07	-1.617451e-09	-1.426581e+00	-1.112008e+02
1.810000e-06	-1.551174e-07	-1.591806e-09	-1.101156e+00	-1.098092e+02
1.820000e-06	-1.092284e-07	-1.567627e-09	-7.753967e-01	-1.083670e+02
1.830000e-06	-6.330798e-08	-1.546399e-09	-4.494142e-01	-1.068725e+02
1.840000e-06	-1.744642e-08	-1.524713e-09	-1.238496e-01	-1.053244e+02
1.850000e-06	2.836960e-08	-1.500716e-09	2.013917e-01	-1.037210e+02
1.860000e-06	7.421285e-08	-1.475131e-09	5.268263e-01	-1.020611e+02
1.870000e-06	1.201518e-07	-1.451005e-09	8.529402e-01	-1.003431e+02
1.880000e-06	1.661101e-07	-1.425121e-09	1.179192e+00	-9.856564e+01
1.890000e-06	2.119934e-07	-1.396281e-09	1.504911e+00	-9.672715e+01
1.900000e-06	2.577969e-07	-1.366304e-09	1.830063e+00	-9.482615e+01
1.910000e-06	3.035774e-07	-1.337664e-09	2.155052e+00	-9.286109e+01
1.920000e-06	3.493667e-07	-1.304830e-09	2.480104e+00	-9.083037e+01
1.930000e-06	3.951729e-07	-1.270816e-09	2.805275e+00	-8.873236e+01
1.940000e-06	4.409247e-07	-1.238070e-09	3.130061e+00	-8.656537e+01
1.950000e-06	4.866750e-07	-1.205692e-09	3.454835e+00	-8.432770e+01
1.960000e-06	5.325007e-07	-1.172239e-09	3.780145e+00	-8.201760e+01
1.970000e-06	5.782819e-07	-1.135261e-09	4.105139e+00	-7.963332e+01
1.980000e-06	6.238832e-07	-1.096456e-09	4.428857e+00	-7.717312e+01
1.990000e-06	6.693745e-07	-1.057656e-09	4.751793e+00	-7.463530e+01
2.000000e-06	7.148900e-07	-1.020361e-09	5.074901e+00	-7.201821e+01
2.010000e-06	7.603850e-07	-9.820619e-10	5.397863e+00	-6.932031e+01
2.020000e-06	8.058081e-07	-9.406682e-10	5.720315e+00	-6.654018e+01
2.030000e-06	8.511341e-07	-8.989470e-10	6.042078e+00	-6.367656e+01
2.040000e-06	8.963854e-07	-8.544239e-10	6.363310e+00	-6.072843e+01
2.050000e-06	9.416423e-07	-8.050242e-10	6.684583e+00	-5.769500e+01
2.060000e-06	9.868199e-07	-7.535716e-10	7.005292e+00	-5.457578e+01
2.070000e-06	1.031907e-06	-7.052712e-10	7.325356e+00	-5.137062e+01
2.080000e-06	1.076867e-06	-6.617910e-10	7.644525e+00	-4.807975e+01
2.090000e-06	1.121657e-06	-6.200372e-10	7.962483e+00	-4.470384e+01
2.100000e-06	1.166406e-06	-5.741140e-10	8.280148e+00	-4.124400e+01
2.110000e-06	1.211121e-06	-5.232061e-10	8.597570e+00	-3.770184e+01
2.120000e-06	1.255681e-06	-4.680033e-10	8.913898e+00	-3.407949e+01
2.130000e-06	1.300130e-06	-4.085008e-10	9.229438e+00	-3.037963e+01
2.140000e-06	1.344564e-06	-3.451891e-10	9.544864e+00	-2.660550e+01
2.150000e-06	1.388945e-06	-2.821068e-10	9.859920e+00	-2.276092e+01
2.160000e-06	1.433259e-06	-2.245971e-10	1.017450e+01	-1.885026e+01
2.170000e-06	1.477462e-06	-1.718609e-10	1.048829e+01	-1.487848e+01
2.180000e-06	1.521604e-06	-1.171783e-10	1.080165e+01	-1.085111e+01
2.190000e-06	1.565763e-06	-5.735004e-11	1.111513e+01	-6.774168e+00
2.200000e-06	1.609864e-06	5.597846e-12	1.142819e+01	-2.654217e+00
2.210000e-06	1.653894e-06	7.082376e-11	1.174076e+01	1.501734e+00
2.220000e-06	1.697895e-06	1.399747e-10	1.205311e+01	5.686257e+00
2.230000e-06	1.741837e-06	2.101513e-10	1.236505e+01	9.891556e+00
2.240000e-06	1.785708e-06	2.769061e-10	1.267648e+01	1.410953e+01
2.250000e-06	1.829433e-06	3.390520e-10	1.298688e+01	1.833185e+01
2.260000e-06	1.872981e-06	3.975396e-10	1.329602e+01	2.255000e+01
2.270000e-06	1.916426e-06	4.564464e-10	1.360443e+01	2.675538e+01
2.280000e-06	1.959748e-06	5.155060e-10	1.391197e+01	3.093937e+01
2.290000e-06	2.002809e-06	5.748049e-10	1.421765e+01	3.509343e+01
2.300000e-06	2.045658e-06	6.366793e-10	1.452183e+01	3.920913e+01
2.310000e-06	2.088282e-06	7.005416e-10	1.482441e+01	4.327828e+01
2.320000e-06	2.130604e-06	7.633429e-10	1.512485e+01	4.729298e+01
2.330000e-06	2.172569e-06	8.246606e-10	1.542275e+01	5.124570e+01
2.340000e-06	2.214167e-06	8.807093e-10	1.571805e+01	5.512935e+01
2.350000e-06	2.255554e-06	9.340225e-10	1.601185e+01	5.893733e+01
2.360000e-06	2.296651e-06	9.864335e-10	1.630360e+01	6.266359e+01
2.370000e-06	2.337447e-06	1.036326e-09	1.659320e+01	6.630270e+01
2.380000e-06	2.378065e-06	1.085064e-09	1.688154e+01	6.984987e+01
2.390000e-06	2.418577e-06	1.136030e-09	1.716913e+01	7.330097e+01
2.400000e-06	2.458982e-06	1.186386e-09	1.745596e+01	7.665258e+01
2.410000e-06	2.499221e-06	1.233036e-09	1.774161e+01	7.990200e+01
2.420000e-06	2.539351e-06	1.276961e-09	1.802649e+01	8.304722e+01
2.430000e-06	2.579384e-06	1.319458e-09	1.831067e+01	8.608695e+01
2.440000e-06	2.619319e-06	1.363165e-09	1.859416e+01	8.902061e+01
2.450000e-06	2.659211e-06	1.403619e-09	1.887736e+01	9.184825e+01
2.460000e-06	2.698937e-06	1.441733e-09	1.915936e+01	9.457059e+01
2.470000e-06	2.738477e-06	1.481052e-09	1.944005e+01	9.718893e+01
2.480000e-06	2.777815e-06	1.519470e-09	1.971931e+01	9.970512e+01
2.490000e-06	2.816941e-06	1.554423e-09	1.999706e+01	1.021215e+02
2.500000e-06	2.855891e-06	1.585612e-09	2.027356e+01	1.044409e+02
2.510000e-06	2.894670e-06	1.617096e-09	2.054884e+01	1.066663e+02
2.520000e-06	2.933217e-06	1.646397e-09	2.082249e+01	1.088014e+02
2.530000e-06	2.971592e-06	1.672896e-09	2.109490e+01	1.108499e+02
2.540000e-06	3.009801e-06	1.698269e-09	2.136614e+01	1.128155e+02
2.550000e-06	3.047796e-06	1.727604e-09	2.163586e+01	1.147024e+02
2.560000e-06	3.085604e-06	1.761048e-09	2.190425e+01	1.165146e+02
2.570000e-06	3.123118e-06	1.792039e-09	2.217056e+01	1.182562e+02
2.580000e-06	3.160260e-06	1.818159e-09	2.243423e+01	1.199311e+02
2.590000e-06	3.197200e-06	1.840479e-09	2.269646e+01	1.215434e+02
2.600000e-06	3.234004e-06	1.860495e-09	2.295773e+01	1.230966e+02
2.610000e-06	3.270565e-06	1.878052e-09	2.321727e+01	1.245944e+02
2.620000e-06	3.306989e-06	1.894781e-09	2.347584e+01	1.260400e+02
2.630000e-06	3.343317e-06	1.914931e-09	2.373373e+01	1.274364e+02
2.640000e-06	3.379502e-06	1.938168e-09	2.399059e+01	1.287866e+02
2.650000e-06	3.415523e-06	1.962753e-09	2.424630e+01	1.300929e+02
2.660000e-06	3.451395e-06	1.985541e-09	2.450095e+01	1.313574e+02
2.670000e-06	3.487073e-06	2.005488e-09	2.475423e+01	1.325823e+02
2.680000e-06	3.522545e-06	2.023074e-09	2.500604e+01	1.337689e+02
2.690000e-06	3.557826e-06	2.036766e-09	2.525649e+01	1.349187e+02
2.700000e-06	3.592728e-06	2.047952e-09	2.550426e+01	1.360328e+02
2.710000e-06	3.627039e-06	2.059084e-09	2.574782e+01	1.371119e+02
2.720000e-06	3.660804e-06	2.073962e-09	2.598752e+01	1.381569e+02
2.730000e-06	3.694206e-06	2.090222e-09	2.622463e+01	1.391680e+02
2.740000e-06	3.727187e-06	2.107340e-09	2.645876e+01	1.401457e+02
2.750000e-06	3.759733e-06	2.125329e-09	2.668980e+01	1.410902e+02
2.760000e-06	3.792087e-06	2.142438e-09	2.691948e+01	1.420017e+02
2.770000e-06	3.824263e-06	2.158325e-09	2.714789e+01	1.428802e+02
2.780000e-06	3.856264e-06	2.168068e-09	2.737506e+01	1.437258e+02
2.790000e-06	3.888155e-06	2.173990e-09	2.760145e+01	1.445386e+02
2.800000e-06	3.919858e-06	2.183663e-09	2.782651e+01	1.453187e+02
2.810000e-06	3.951336e-06	2.193889e-09	2.804996e+01	1.460664e+02
2.820000e-06	3.982522e-06	2.202935e-09	2.827135e+01	1.467820e+02
2.830000e-06	4.013393e-06	2.208376e-09	2.849050e+01	1.474658e+02
2.840000e-06	4.043955e-06	2.215901e-09	2.870745e+01	1.481184e+02
2.850000e-06	4.074235e-06	2.225771e-09	2.892240e+01	1.487403e+02
2.860000e-06	4.104303e-06	2.236438e-09	2.913585e+01	1.493324e+02
2.870000e-06	4.134113e-06	2.248101e-09	2.934747e+01	1.498955e+02
2.880000e-06	4.163644e-06	2.260676e-09	2.955711e+01	1.504307e+02
2.890000e-06	4.192861e-06	2.270164e-09	2.976451e+01	1.509390e+02
2.900000e-06	4.221795e-06	2.271539e-09	2.996991e+01	1.514217e+02
