# Temperatura_=_-1.5
# Concentracion g/m^3_=_4090.0
# C_Vs_to_Am_M_A/Vsm_=_65563218390.804596
# pendiente_HvsI_1/m_=_3716.3
# ordenada_HvsI_A/m_=_1297.0
# frecuencia_Hz_=_135084.16886503124

Tiempo_(s)	Campo_(V.s)	Magnetizacion_(V.s)	Campo_(kA/m)	Magnetizacion_(A/m)
0.000000e+00	-5.399742e-06	-2.522555e-09	-3.839241e+01	-1.621515e+02
1.000000e-08	-5.399810e-06	-2.521049e-09	-3.839289e+01	-1.621303e+02
2.000000e-08	-5.399671e-06	-2.516090e-09	-3.839190e+01	-1.621121e+02
3.000000e-08	-5.399228e-06	-2.512612e-09	-3.838875e+01	-1.620987e+02
4.000000e-08	-5.398319e-06	-2.511077e-09	-3.838229e+01	-1.620919e+02
5.000000e-08	-5.396739e-06	-2.513478e-09	-3.837106e+01	-1.620935e+02
6.000000e-08	-5.394528e-06	-2.528739e-09	-3.835534e+01	-1.621052e+02
7.000000e-08	-5.391777e-06	-2.530909e-09	-3.833578e+01	-1.621288e+02
8.000000e-08	-5.388436e-06	-2.508478e-09	-3.831202e+01	-1.621657e+02
9.000000e-08	-5.384643e-06	-2.485075e-09	-3.828505e+01	-1.622173e+02
1.000000e-07	-5.380501e-06	-2.521102e-09	-3.825560e+01	-1.622847e+02
1.100000e-07	-5.376099e-06	-2.520504e-09	-3.822431e+01	-1.623689e+02
1.200000e-07	-5.371577e-06	-2.535158e-09	-3.819215e+01	-1.624705e+02
1.300000e-07	-5.366725e-06	-2.461088e-09	-3.815766e+01	-1.625898e+02
1.400000e-07	-5.361375e-06	-2.508806e-09	-3.811962e+01	-1.627271e+02
1.500000e-07	-5.355636e-06	-2.508169e-09	-3.807881e+01	-1.628820e+02
1.600000e-07	-5.349583e-06	-2.524654e-09	-3.803578e+01	-1.630540e+02
1.700000e-07	-5.343047e-06	-2.483088e-09	-3.798931e+01	-1.632424e+02
1.800000e-07	-5.336161e-06	-2.494847e-09	-3.794035e+01	-1.634460e+02
1.900000e-07	-5.329030e-06	-2.548624e-09	-3.788964e+01	-1.636634e+02
2.000000e-07	-5.321592e-06	-2.547123e-09	-3.783676e+01	-1.638930e+02
2.100000e-07	-5.313864e-06	-2.547024e-09	-3.778181e+01	-1.641329e+02
2.200000e-07	-5.305965e-06	-2.532139e-09	-3.772565e+01	-1.643810e+02
2.300000e-07	-5.297850e-06	-2.581539e-09	-3.766796e+01	-1.646352e+02
2.400000e-07	-5.289171e-06	-2.548809e-09	-3.760624e+01	-1.648929e+02
2.500000e-07	-5.279728e-06	-2.563753e-09	-3.753910e+01	-1.651517e+02
2.600000e-07	-5.269577e-06	-2.562104e-09	-3.746693e+01	-1.654091e+02
2.700000e-07	-5.258972e-06	-2.599107e-09	-3.739153e+01	-1.656626e+02
2.800000e-07	-5.247915e-06	-2.560093e-09	-3.731291e+01	-1.659095e+02
2.900000e-07	-5.236503e-06	-2.574830e-09	-3.723178e+01	-1.661475e+02
3.000000e-07	-5.224670e-06	-2.577855e-09	-3.714764e+01	-1.663742e+02
3.100000e-07	-5.212321e-06	-2.599210e-09	-3.705984e+01	-1.665874e+02
3.200000e-07	-5.199596e-06	-2.554902e-09	-3.696937e+01	-1.667851e+02
3.300000e-07	-5.186642e-06	-2.565807e-09	-3.687726e+01	-1.669655e+02
3.400000e-07	-5.173297e-06	-2.572659e-09	-3.678237e+01	-1.671269e+02
3.500000e-07	-5.159450e-06	-2.593970e-09	-3.668393e+01	-1.672681e+02
3.600000e-07	-5.145211e-06	-2.566483e-09	-3.658268e+01	-1.673881e+02
3.700000e-07	-5.130632e-06	-2.579328e-09	-3.647902e+01	-1.674859e+02
3.800000e-07	-5.115550e-06	-2.573857e-09	-3.637180e+01	-1.675613e+02
3.900000e-07	-5.099746e-06	-2.572996e-09	-3.625943e+01	-1.676139e+02
4.000000e-07	-5.083366e-06	-2.560358e-09	-3.614296e+01	-1.676439e+02
4.100000e-07	-5.066663e-06	-2.561318e-09	-3.602420e+01	-1.676516e+02
4.200000e-07	-5.049656e-06	-2.555229e-09	-3.590328e+01	-1.676376e+02
4.300000e-07	-5.032397e-06	-2.555929e-09	-3.578057e+01	-1.676029e+02
4.400000e-07	-5.014876e-06	-2.570918e-09	-3.565599e+01	-1.675485e+02
4.500000e-07	-4.996935e-06	-2.552110e-09	-3.552844e+01	-1.674756e+02
4.600000e-07	-4.978627e-06	-2.544124e-09	-3.539826e+01	-1.673857e+02
4.700000e-07	-4.960015e-06	-2.542674e-09	-3.526593e+01	-1.672804e+02
4.800000e-07	-4.941081e-06	-2.562152e-09	-3.513131e+01	-1.671613e+02
4.900000e-07	-4.921709e-06	-2.540679e-09	-3.499358e+01	-1.670301e+02
5.000000e-07	-4.902029e-06	-2.547349e-09	-3.485365e+01	-1.668887e+02
5.100000e-07	-4.882207e-06	-2.541334e-09	-3.471271e+01	-1.667387e+02
5.200000e-07	-4.862149e-06	-2.553049e-09	-3.457010e+01	-1.665819e+02
5.300000e-07	-4.841815e-06	-2.533482e-09	-3.442553e+01	-1.664199e+02
5.400000e-07	-4.821172e-06	-2.535770e-09	-3.427875e+01	-1.662545e+02
5.500000e-07	-4.800138e-06	-2.514481e-09	-3.412920e+01	-1.660869e+02
5.600000e-07	-4.778753e-06	-2.525670e-09	-3.397715e+01	-1.659186e+02
5.700000e-07	-4.757084e-06	-2.520894e-09	-3.382308e+01	-1.657508e+02
5.800000e-07	-4.735020e-06	-2.524622e-09	-3.366621e+01	-1.655846e+02
5.900000e-07	-4.712663e-06	-2.508230e-09	-3.350725e+01	-1.654207e+02
6.000000e-07	-4.690086e-06	-2.519543e-09	-3.334672e+01	-1.652599e+02
6.100000e-07	-4.667042e-06	-2.511989e-09	-3.318288e+01	-1.651027e+02
6.200000e-07	-4.643616e-06	-2.507257e-09	-3.301632e+01	-1.649496e+02
6.300000e-07	-4.620055e-06	-2.489340e-09	-3.284880e+01	-1.648006e+02
6.400000e-07	-4.596333e-06	-2.489122e-09	-3.268014e+01	-1.646557e+02
6.500000e-07	-4.572302e-06	-2.485045e-09	-3.250928e+01	-1.645150e+02
6.600000e-07	-4.547984e-06	-2.488471e-09	-3.233637e+01	-1.643780e+02
6.700000e-07	-4.523318e-06	-2.481278e-09	-3.216100e+01	-1.642445e+02
6.800000e-07	-4.498193e-06	-2.480480e-09	-3.198235e+01	-1.641139e+02
6.900000e-07	-4.472533e-06	-2.482640e-09	-3.179991e+01	-1.639856e+02
7.000000e-07	-4.446369e-06	-2.480480e-09	-3.161389e+01	-1.638591e+02
7.100000e-07	-4.419776e-06	-2.471695e-09	-3.142480e+01	-1.637337e+02
7.200000e-07	-4.392747e-06	-2.464115e-09	-3.123263e+01	-1.636085e+02
7.300000e-07	-4.365350e-06	-2.467102e-09	-3.103783e+01	-1.634829e+02
7.400000e-07	-4.337703e-06	-2.464797e-09	-3.084127e+01	-1.633563e+02
7.500000e-07	-4.309876e-06	-2.461641e-09	-3.064341e+01	-1.632277e+02
7.600000e-07	-4.281847e-06	-2.449887e-09	-3.044413e+01	-1.630967e+02
7.700000e-07	-4.253653e-06	-2.450596e-09	-3.024367e+01	-1.629625e+02
7.800000e-07	-4.225235e-06	-2.447910e-09	-3.004161e+01	-1.628246e+02
7.900000e-07	-4.196491e-06	-2.448856e-09	-2.983724e+01	-1.626824e+02
8.000000e-07	-4.167389e-06	-2.437980e-09	-2.963032e+01	-1.625356e+02
8.100000e-07	-4.137985e-06	-2.440452e-09	-2.942126e+01	-1.623836e+02
8.200000e-07	-4.108219e-06	-2.439162e-09	-2.920962e+01	-1.622263e+02
8.300000e-07	-4.078118e-06	-2.443190e-09	-2.899561e+01	-1.620633e+02
8.400000e-07	-4.047868e-06	-2.430941e-09	-2.878052e+01	-1.618946e+02
8.500000e-07	-4.017384e-06	-2.426385e-09	-2.856378e+01	-1.617199e+02
8.600000e-07	-3.986613e-06	-2.417049e-09	-2.834500e+01	-1.615393e+02
8.700000e-07	-3.955518e-06	-2.417647e-09	-2.812391e+01	-1.613527e+02
8.800000e-07	-3.924123e-06	-2.407046e-09	-2.790069e+01	-1.611602e+02
8.900000e-07	-3.892613e-06	-2.404805e-09	-2.767666e+01	-1.609619e+02
9.000000e-07	-3.860959e-06	-2.404688e-09	-2.745160e+01	-1.607580e+02
9.100000e-07	-3.829132e-06	-2.412277e-09	-2.722530e+01	-1.605485e+02
9.200000e-07	-3.797094e-06	-2.407242e-09	-2.699751e+01	-1.603336e+02
9.300000e-07	-3.764767e-06	-2.403162e-09	-2.676766e+01	-1.601136e+02
9.400000e-07	-3.732189e-06	-2.396072e-09	-2.653603e+01	-1.598886e+02
9.500000e-07	-3.699319e-06	-2.393256e-09	-2.630232e+01	-1.596588e+02
9.600000e-07	-3.666082e-06	-2.385778e-09	-2.606601e+01	-1.594244e+02
9.700000e-07	-3.632391e-06	-2.378890e-09	-2.582647e+01	-1.591855e+02
9.800000e-07	-3.598137e-06	-2.375414e-09	-2.558292e+01	-1.589423e+02
9.900000e-07	-3.563489e-06	-2.378893e-09	-2.533657e+01	-1.586951e+02
1.000000e-06	-3.528586e-06	-2.382124e-09	-2.508841e+01	-1.584438e+02
1.010000e-06	-3.493409e-06	-2.381083e-09	-2.483830e+01	-1.581887e+02
1.020000e-06	-3.457965e-06	-2.377246e-09	-2.458629e+01	-1.579298e+02
1.030000e-06	-3.422273e-06	-2.368643e-09	-2.433251e+01	-1.576672e+02
1.040000e-06	-3.386429e-06	-2.360304e-09	-2.407766e+01	-1.574011e+02
1.050000e-06	-3.350484e-06	-2.347759e-09	-2.382209e+01	-1.571314e+02
1.060000e-06	-3.314350e-06	-2.339947e-09	-2.356518e+01	-1.568582e+02
1.070000e-06	-3.278022e-06	-2.335464e-09	-2.330689e+01	-1.565817e+02
1.080000e-06	-3.241530e-06	-2.337790e-09	-2.304742e+01	-1.563017e+02
1.090000e-06	-3.204749e-06	-2.334144e-09	-2.278591e+01	-1.560184e+02
1.100000e-06	-3.167614e-06	-2.329669e-09	-2.252188e+01	-1.557318e+02
1.110000e-06	-3.130296e-06	-2.320412e-09	-2.225654e+01	-1.554419e+02
1.120000e-06	-3.092850e-06	-2.318412e-09	-2.199030e+01	-1.551486e+02
1.130000e-06	-3.055171e-06	-2.312873e-09	-2.172241e+01	-1.548521e+02
1.140000e-06	-3.017291e-06	-2.307580e-09	-2.145307e+01	-1.545523e+02
1.150000e-06	-2.979210e-06	-2.297507e-09	-2.118232e+01	-1.542491e+02
1.160000e-06	-2.940932e-06	-2.292054e-09	-2.091016e+01	-1.539426e+02
1.170000e-06	-2.902464e-06	-2.285819e-09	-2.063665e+01	-1.536327e+02
1.180000e-06	-2.863712e-06	-2.283152e-09	-2.036113e+01	-1.533192e+02
1.190000e-06	-2.824614e-06	-2.277662e-09	-2.008313e+01	-1.530022e+02
1.200000e-06	-2.785351e-06	-2.276120e-09	-1.980397e+01	-1.526813e+02
1.210000e-06	-2.745976e-06	-2.270586e-09	-1.952402e+01	-1.523565e+02
1.220000e-06	-2.706470e-06	-2.262358e-09	-1.924313e+01	-1.520276e+02
1.230000e-06	-2.666865e-06	-2.249910e-09	-1.896153e+01	-1.516943e+02
1.240000e-06	-2.627097e-06	-2.240432e-09	-1.867878e+01	-1.513563e+02
1.250000e-06	-2.587245e-06	-2.229149e-09	-1.839543e+01	-1.510132e+02
1.260000e-06	-2.547341e-06	-2.220231e-09	-1.811171e+01	-1.506647e+02
1.270000e-06	-2.507326e-06	-2.213975e-09	-1.782720e+01	-1.503104e+02
1.280000e-06	-2.467183e-06	-2.210454e-09	-1.754178e+01	-1.499497e+02
1.290000e-06	-2.426895e-06	-2.208313e-09	-1.725534e+01	-1.495821e+02
1.300000e-06	-2.386461e-06	-2.203373e-09	-1.696785e+01	-1.492072e+02
1.310000e-06	-2.345882e-06	-2.197577e-09	-1.667933e+01	-1.488242e+02
1.320000e-06	-2.305085e-06	-2.188012e-09	-1.638926e+01	-1.484327e+02
1.330000e-06	-2.263978e-06	-2.176623e-09	-1.609699e+01	-1.480319e+02
1.340000e-06	-2.222503e-06	-2.164794e-09	-1.580210e+01	-1.476211e+02
1.350000e-06	-2.180706e-06	-2.155525e-09	-1.550492e+01	-1.471998e+02
1.360000e-06	-2.138639e-06	-2.147139e-09	-1.520582e+01	-1.467672e+02
1.370000e-06	-2.096203e-06	-2.142295e-09	-1.490410e+01	-1.463228e+02
1.380000e-06	-2.053502e-06	-2.134505e-09	-1.460049e+01	-1.458657e+02
1.390000e-06	-2.010701e-06	-2.126984e-09	-1.429618e+01	-1.453955e+02
1.400000e-06	-1.967681e-06	-2.120870e-09	-1.399030e+01	-1.449116e+02
1.410000e-06	-1.924460e-06	-2.116769e-09	-1.368300e+01	-1.444133e+02
1.420000e-06	-1.881152e-06	-2.105702e-09	-1.337508e+01	-1.439001e+02
1.430000e-06	-1.837716e-06	-2.092588e-09	-1.306624e+01	-1.433717e+02
1.440000e-06	-1.794191e-06	-2.080092e-09	-1.275678e+01	-1.428275e+02
1.450000e-06	-1.750577e-06	-2.073194e-09	-1.244669e+01	-1.422673e+02
1.460000e-06	-1.706820e-06	-2.064514e-09	-1.213557e+01	-1.416906e+02
1.470000e-06	-1.662975e-06	-2.052225e-09	-1.182383e+01	-1.410972e+02
1.480000e-06	-1.619089e-06	-2.039933e-09	-1.151179e+01	-1.404869e+02
1.490000e-06	-1.575162e-06	-2.034192e-09	-1.119947e+01	-1.398595e+02
1.500000e-06	-1.531194e-06	-2.026990e-09	-1.088686e+01	-1.392148e+02
1.510000e-06	-1.487169e-06	-2.015559e-09	-1.057384e+01	-1.385528e+02
1.520000e-06	-1.443043e-06	-2.001344e-09	-1.026010e+01	-1.378732e+02
1.530000e-06	-1.398813e-06	-1.989980e-09	-9.945627e+00	-1.371761e+02
1.540000e-06	-1.354491e-06	-1.982019e-09	-9.630490e+00	-1.364612e+02
1.550000e-06	-1.310032e-06	-1.971226e-09	-9.314388e+00	-1.357286e+02
1.560000e-06	-1.265547e-06	-1.959177e-09	-8.998093e+00	-1.349779e+02
1.570000e-06	-1.221016e-06	-1.951229e-09	-8.681476e+00	-1.342090e+02
1.580000e-06	-1.176382e-06	-1.943558e-09	-8.364130e+00	-1.334217e+02
1.590000e-06	-1.131628e-06	-1.932521e-09	-8.045923e+00	-1.326156e+02
1.600000e-06	-1.086784e-06	-1.917594e-09	-7.727085e+00	-1.317904e+02
1.610000e-06	-1.041843e-06	-1.904432e-09	-7.407551e+00	-1.309455e+02
1.620000e-06	-9.967599e-07	-1.892851e-09	-7.087008e+00	-1.300803e+02
1.630000e-06	-9.516272e-07	-1.876347e-09	-6.766112e+00	-1.291942e+02
1.640000e-06	-9.063876e-07	-1.857968e-09	-6.444457e+00	-1.282864e+02
1.650000e-06	-8.610193e-07	-1.843506e-09	-6.121886e+00	-1.273559e+02
1.660000e-06	-8.156132e-07	-1.832592e-09	-5.799047e+00	-1.264017e+02
1.670000e-06	-7.702102e-07	-1.819705e-09	-5.476230e+00	-1.254227e+02
1.680000e-06	-7.247795e-07	-1.803546e-09	-5.153215e+00	-1.244176e+02
1.690000e-06	-6.793531e-07	-1.785259e-09	-4.830231e+00	-1.233851e+02
1.700000e-06	-6.338568e-07	-1.771097e-09	-4.506750e+00	-1.223237e+02
1.710000e-06	-5.882538e-07	-1.754715e-09	-4.182511e+00	-1.212318e+02
1.720000e-06	-5.426314e-07	-1.733924e-09	-3.858134e+00	-1.201079e+02
1.730000e-06	-4.970299e-07	-1.712277e-09	-3.533905e+00	-1.189501e+02
1.740000e-06	-4.514442e-07	-1.693322e-09	-3.209789e+00	-1.177567e+02
1.750000e-06	-4.057449e-07	-1.674246e-09	-2.884865e+00	-1.165260e+02
1.760000e-06	-3.599504e-07	-1.655739e-09	-2.559263e+00	-1.152560e+02
1.770000e-06	-3.141897e-07	-1.638011e-09	-2.233903e+00	-1.139450e+02
1.780000e-06	-2.684018e-07	-1.623543e-09	-1.908349e+00	-1.125910e+02
1.790000e-06	-2.225180e-07	-1.606252e-09	-1.582113e+00	-1.111923e+02
1.800000e-06	-1.766581e-07	-1.581920e-09	-1.256047e+00	-1.097469e+02
1.810000e-06	-1.308551e-07	-1.555769e-09	-9.303859e-01	-1.082532e+02
1.820000e-06	-8.501969e-08	-1.532315e-09	-6.044938e-01	-1.067094e+02
1.830000e-06	-3.921119e-08	-1.507842e-09	-2.787933e-01	-1.051138e+02
1.840000e-06	6.532741e-09	-1.480450e-09	4.644808e-02	-1.034648e+02
1.850000e-06	5.233620e-08	-1.452746e-09	3.721128e-01	-1.017610e+02
1.860000e-06	9.816467e-08	-1.428610e-09	6.979553e-01	-1.000008e+02
1.870000e-06	1.439862e-07	-1.405502e-09	1.023749e+00	-9.818295e+01
1.880000e-06	1.898722e-07	-1.379079e-09	1.350000e+00	-9.630618e+01
1.890000e-06	2.357319e-07	-1.348740e-09	1.676064e+00	-9.436931e+01
1.900000e-06	2.814812e-07	-1.317278e-09	2.001344e+00	-9.237128e+01
1.910000e-06	3.272210e-07	-1.284830e-09	2.326556e+00	-9.031110e+01
1.920000e-06	3.729949e-07	-1.251499e-09	2.652011e+00	-8.818788e+01
1.930000e-06	4.187343e-07	-1.219432e-09	2.977220e+00	-8.600083e+01
1.940000e-06	4.644924e-07	-1.187748e-09	3.302562e+00	-8.374923e+01
1.950000e-06	5.101877e-07	-1.155624e-09	3.627458e+00	-8.143245e+01
1.960000e-06	5.557640e-07	-1.121858e-09	3.951507e+00	-7.904996e+01
1.970000e-06	6.013101e-07	-1.085442e-09	4.275342e+00	-7.660130e+01
1.980000e-06	6.467820e-07	-1.046069e-09	4.598650e+00	-7.408611e+01
1.990000e-06	6.922319e-07	-1.008102e-09	4.921800e+00	-7.150410e+01
2.000000e-06	7.376615e-07	-9.705019e-10	5.244807e+00	-6.885509e+01
2.010000e-06	7.830453e-07	-9.312452e-10	5.567487e+00	-6.613900e+01
2.020000e-06	8.283513e-07	-8.889966e-10	5.889615e+00	-6.335583e+01
2.030000e-06	8.735130e-07	-8.458182e-10	6.210717e+00	-6.050574e+01
2.040000e-06	9.186342e-07	-8.010788e-10	6.531531e+00	-5.758898e+01
2.050000e-06	9.637064e-07	-7.547033e-10	6.851996e+00	-5.460596e+01
2.060000e-06	1.008749e-06	-7.086794e-10	7.172248e+00	-5.155725e+01
2.070000e-06	1.053724e-06	-6.654399e-10	7.492028e+00	-4.844358e+01
2.080000e-06	1.098564e-06	-6.225130e-10	7.810838e+00	-4.526589e+01
2.090000e-06	1.143254e-06	-5.785893e-10	8.128589e+00	-4.202531e+01
2.100000e-06	1.187774e-06	-5.344287e-10	8.445128e+00	-3.872321e+01
2.110000e-06	1.232231e-06	-4.875760e-10	8.761218e+00	-3.536121e+01
2.120000e-06	1.276702e-06	-4.350725e-10	9.077407e+00	-3.194119e+01
2.130000e-06	1.321115e-06	-3.771807e-10	9.393191e+00	-2.846534e+01
2.140000e-06	1.365408e-06	-3.183271e-10	9.708115e+00	-2.493610e+01
2.150000e-06	1.409616e-06	-2.638070e-10	1.002243e+01	-2.135627e+01
2.160000e-06	1.453731e-06	-2.121748e-10	1.033609e+01	-1.772895e+01
2.170000e-06	1.497748e-06	-1.605861e-10	1.064905e+01	-1.405757e+01
2.180000e-06	1.541712e-06	-1.083750e-10	1.096164e+01	-1.034590e+01
2.190000e-06	1.585615e-06	-5.466238e-11	1.127379e+01	-6.598041e+00
2.200000e-06	1.629475e-06	9.207956e-13	1.158564e+01	-2.818418e+00
2.210000e-06	1.673294e-06	5.988935e-11	1.189720e+01	9.882264e-01
2.220000e-06	1.717059e-06	1.209080e-10	1.220837e+01	4.816851e+00
2.230000e-06	1.760812e-06	1.797483e-10	1.251945e+01	8.662134e+00
2.240000e-06	1.804480e-06	2.351710e-10	1.282994e+01	1.251850e+01
2.250000e-06	1.848015e-06	2.924032e-10	1.313947e+01	1.638015e+01
2.260000e-06	1.891463e-06	3.515149e-10	1.344839e+01	2.024110e+01
2.270000e-06	1.934833e-06	4.087007e-10	1.375675e+01	2.409522e+01
2.280000e-06	1.978077e-06	4.639271e-10	1.406422e+01	2.793628e+01
2.290000e-06	2.021055e-06	5.193218e-10	1.436979e+01	3.175798e+01
2.300000e-06	2.063730e-06	5.760356e-10	1.467322e+01	3.555404e+01
2.310000e-06	2.106189e-06	6.306584e-10	1.497510e+01	3.931819e+01
2.320000e-06	2.148348e-06	6.834126e-10	1.527485e+01	4.304431e+01
2.330000e-06	2.190239e-06	7.374591e-10	1.557270e+01	4.672639e+01
2.340000e-06	2.231959e-06	7.919858e-10	1.586933e+01	5.035865e+01
2.350000e-06	2.273409e-06	8.466311e-10	1.616404e+01	5.393558e+01
2.360000e-06	2.314425e-06	8.988466e-10	1.645566e+01	5.745196e+01
2.370000e-06	2.355131e-06	9.482440e-10	1.674509e+01	6.090292e+01
2.380000e-06	2.395611e-06	9.962035e-10	1.703291e+01	6.428403e+01
2.390000e-06	2.435854e-06	1.041224e-09	1.731903e+01	6.759126e+01
2.400000e-06	2.476023e-06	1.080664e-09	1.760464e+01	7.082107e+01
2.410000e-06	2.516112e-06	1.119495e-09	1.788967e+01	7.397041e+01
2.420000e-06	2.556070e-06	1.161702e-09	1.817378e+01	7.703674e+01
2.430000e-06	2.595954e-06	1.208170e-09	1.845735e+01	8.001806e+01
2.440000e-06	2.635780e-06	1.254014e-09	1.874052e+01	8.291292e+01
2.450000e-06	2.675499e-06	1.294064e-09	1.902292e+01	8.572038e+01
2.460000e-06	2.715064e-06	1.333201e-09	1.930423e+01	8.844004e+01
2.470000e-06	2.754459e-06	1.370431e-09	1.958433e+01	9.107201e+01
2.480000e-06	2.793659e-06	1.405045e-09	1.986304e+01	9.361688e+01
2.490000e-06	2.832552e-06	1.437499e-09	2.013957e+01	9.607570e+01
2.500000e-06	2.871236e-06	1.473041e-09	2.041462e+01	9.844996e+01
2.510000e-06	2.909841e-06	1.510952e-09	2.068910e+01	1.007415e+02
2.520000e-06	2.948209e-06	1.544656e-09	2.096190e+01	1.029526e+02
2.530000e-06	2.986325e-06	1.573006e-09	2.123291e+01	1.050856e+02
2.540000e-06	3.024309e-06	1.597643e-09	2.150298e+01	1.071434e+02
2.550000e-06	3.062184e-06	1.625980e-09	2.177227e+01	1.091288e+02
2.560000e-06	3.099846e-06	1.656758e-09	2.204004e+01	1.110449e+02
2.570000e-06	3.137288e-06	1.686633e-09	2.230626e+01	1.128948e+02
2.580000e-06	3.174493e-06	1.715476e-09	2.257079e+01	1.146817e+02
2.590000e-06	3.211359e-06	1.744705e-09	2.283291e+01	1.164087e+02
2.600000e-06	3.247927e-06	1.771951e-09	2.309291e+01	1.180789e+02
2.610000e-06	3.284247e-06	1.791810e-09	2.335115e+01	1.196952e+02
2.620000e-06	3.320414e-06	1.808020e-09	2.360829e+01	1.212604e+02
2.630000e-06	3.356447e-06	1.827861e-09	2.386449e+01	1.227773e+02
2.640000e-06	3.392357e-06	1.851199e-09	2.411981e+01	1.242481e+02
2.650000e-06	3.428148e-06	1.873811e-09	2.437429e+01	1.256750e+02
2.660000e-06	3.463781e-06	1.896713e-09	2.462764e+01	1.270601e+02
2.670000e-06	3.499260e-06	1.921821e-09	2.487990e+01	1.284049e+02
2.680000e-06	3.534545e-06	1.944959e-09	2.513077e+01	1.297110e+02
2.690000e-06	3.569526e-06	1.961595e-09	2.537949e+01	1.309794e+02
2.700000e-06	3.604096e-06	1.971685e-09	2.562529e+01	1.322112e+02
2.710000e-06	3.638218e-06	1.983620e-09	2.586789e+01	1.334070e+02
2.720000e-06	3.671918e-06	2.000349e-09	2.610750e+01	1.345674e+02
2.730000e-06	3.705160e-06	2.018640e-09	2.634386e+01	1.356926e+02
2.740000e-06	3.737945e-06	2.036878e-09	2.657696e+01	1.367829e+02
2.750000e-06	3.770336e-06	2.056681e-09	2.680726e+01	1.378383e+02
2.760000e-06	3.802462e-06	2.076640e-09	2.703567e+01	1.388588e+02
2.770000e-06	3.834407e-06	2.090107e-09	2.726281e+01	1.398443e+02
2.780000e-06	3.866200e-06	2.099842e-09	2.748886e+01	1.407947e+02
2.790000e-06	3.897866e-06	2.112443e-09	2.771400e+01	1.417099e+02
2.800000e-06	3.929359e-06	2.125723e-09	2.793792e+01	1.425899e+02
2.810000e-06	3.960686e-06	2.134382e-09	2.816066e+01	1.434347e+02
2.820000e-06	3.991730e-06	2.142116e-09	2.838138e+01	1.442445e+02
2.830000e-06	4.022326e-06	2.153784e-09	2.859892e+01	1.450196e+02
2.840000e-06	4.052657e-06	2.168591e-09	2.881457e+01	1.457602e+02
2.850000e-06	4.082796e-06	2.181532e-09	2.902887e+01	1.464671e+02
2.860000e-06	4.112624e-06	2.192653e-09	2.924094e+01	1.471409e+02
2.870000e-06	4.142226e-06	2.203834e-09	2.945141e+01	1.477825e+02
2.880000e-06	4.171650e-06	2.212837e-09	2.966062e+01	1.483930e+02
2.890000e-06	4.200769e-06	2.217218e-09	2.986766e+01	1.489735e+02
2.900000e-06	4.229543e-06	2.219783e-09	3.007224e+01	1.495255e+02
