# Temperatura_=_-1.1
# Concentracion g/m^3_=_4090.0
# C_Vs_to_Am_M_A/Vsm_=_65563218390.804596
# pendiente_HvsI_1/m_=_3716.3
# ordenada_HvsI_A/m_=_1297.0
# frecuencia_Hz_=_135070.7520717081

Tiempo_(s)	Campo_(V.s)	Magnetizacion_(V.s)	Campo_(kA/m)	Magnetizacion_(A/m)
0.000000e+00	-5.398210e-06	-2.714978e-09	-3.840320e+01	-1.711080e+02
1.000000e-08	-5.398353e-06	-2.717961e-09	-3.840422e+01	-1.711186e+02
2.000000e-08	-5.398263e-06	-2.716091e-09	-3.840357e+01	-1.711345e+02
3.000000e-08	-5.397919e-06	-2.710660e-09	-3.840113e+01	-1.711569e+02
4.000000e-08	-5.397230e-06	-2.706584e-09	-3.839623e+01	-1.711870e+02
5.000000e-08	-5.396111e-06	-2.706846e-09	-3.838827e+01	-1.712260e+02
6.000000e-08	-5.394364e-06	-2.722422e-09	-3.837584e+01	-1.712749e+02
7.000000e-08	-5.391969e-06	-2.740301e-09	-3.835880e+01	-1.713346e+02
8.000000e-08	-5.389045e-06	-2.701412e-09	-3.833800e+01	-1.714061e+02
9.000000e-08	-5.385608e-06	-2.637478e-09	-3.831355e+01	-1.714900e+02
1.000000e-07	-5.381680e-06	-2.719834e-09	-3.828560e+01	-1.715868e+02
1.100000e-07	-5.377347e-06	-2.835529e-09	-3.825478e+01	-1.716968e+02
1.200000e-07	-5.372772e-06	-2.741253e-09	-3.822223e+01	-1.718201e+02
1.300000e-07	-5.368122e-06	-2.572225e-09	-3.818915e+01	-1.719567e+02
1.400000e-07	-5.363325e-06	-2.653463e-09	-3.815502e+01	-1.721063e+02
1.500000e-07	-5.358024e-06	-2.846702e-09	-3.811731e+01	-1.722684e+02
1.600000e-07	-5.352125e-06	-2.760227e-09	-3.807535e+01	-1.724422e+02
1.700000e-07	-5.345800e-06	-2.544881e-09	-3.803035e+01	-1.726268e+02
1.800000e-07	-5.339223e-06	-2.657173e-09	-3.798356e+01	-1.728211e+02
1.900000e-07	-5.332301e-06	-2.841524e-09	-3.793432e+01	-1.730239e+02
2.000000e-07	-5.325034e-06	-2.762623e-09	-3.788262e+01	-1.732336e+02
2.100000e-07	-5.317591e-06	-2.604606e-09	-3.782967e+01	-1.734486e+02
2.200000e-07	-5.309902e-06	-2.717087e-09	-3.777497e+01	-1.736673e+02
2.300000e-07	-5.301821e-06	-2.787222e-09	-3.771748e+01	-1.738878e+02
2.400000e-07	-5.293327e-06	-2.651167e-09	-3.765706e+01	-1.741083e+02
2.500000e-07	-5.284432e-06	-2.620011e-09	-3.759378e+01	-1.743268e+02
2.600000e-07	-5.275047e-06	-2.771836e-09	-3.752701e+01	-1.745414e+02
2.700000e-07	-5.264970e-06	-2.763796e-09	-3.745532e+01	-1.747503e+02
2.800000e-07	-5.254177e-06	-2.631421e-09	-3.737854e+01	-1.749516e+02
2.900000e-07	-5.242939e-06	-2.708283e-09	-3.729859e+01	-1.751435e+02
3.000000e-07	-5.231277e-06	-2.804019e-09	-3.721563e+01	-1.753243e+02
3.100000e-07	-5.219199e-06	-2.670376e-09	-3.712970e+01	-1.754926e+02
3.200000e-07	-5.206816e-06	-2.578943e-09	-3.704161e+01	-1.756469e+02
3.300000e-07	-5.194048e-06	-2.730046e-09	-3.695078e+01	-1.757861e+02
3.400000e-07	-5.180891e-06	-2.759942e-09	-3.685718e+01	-1.759090e+02
3.500000e-07	-5.167418e-06	-2.658811e-09	-3.676133e+01	-1.760148e+02
3.600000e-07	-5.153574e-06	-2.669072e-09	-3.666285e+01	-1.761029e+02
3.700000e-07	-5.139308e-06	-2.749515e-09	-3.656136e+01	-1.761727e+02
3.800000e-07	-5.124522e-06	-2.689312e-09	-3.645617e+01	-1.762241e+02
3.900000e-07	-5.109221e-06	-2.670962e-09	-3.634732e+01	-1.762569e+02
4.000000e-07	-5.093416e-06	-2.699491e-09	-3.623488e+01	-1.762713e+02
4.100000e-07	-5.077044e-06	-2.665321e-09	-3.611840e+01	-1.762676e+02
4.200000e-07	-5.060263e-06	-2.646571e-09	-3.599902e+01	-1.762462e+02
4.300000e-07	-5.043133e-06	-2.731959e-09	-3.587716e+01	-1.762077e+02
4.400000e-07	-5.025655e-06	-2.719042e-09	-3.575282e+01	-1.761528e+02
4.500000e-07	-5.008035e-06	-2.642070e-09	-3.562747e+01	-1.760825e+02
4.600000e-07	-4.990171e-06	-2.667061e-09	-3.550039e+01	-1.759976e+02
4.700000e-07	-4.971834e-06	-2.723426e-09	-3.536994e+01	-1.758992e+02
4.800000e-07	-4.953091e-06	-2.676096e-09	-3.523659e+01	-1.757882e+02
4.900000e-07	-4.934022e-06	-2.637620e-09	-3.510094e+01	-1.756659e+02
5.000000e-07	-4.914589e-06	-2.659985e-09	-3.496269e+01	-1.755331e+02
5.100000e-07	-4.894805e-06	-2.681775e-09	-3.482195e+01	-1.753911e+02
5.200000e-07	-4.874785e-06	-2.682619e-09	-3.467952e+01	-1.752408e+02
5.300000e-07	-4.854569e-06	-2.666242e-09	-3.453570e+01	-1.750833e+02
5.400000e-07	-4.834094e-06	-2.644740e-09	-3.439004e+01	-1.749194e+02
5.500000e-07	-4.813371e-06	-2.660862e-09	-3.424262e+01	-1.747501e+02
5.600000e-07	-4.792281e-06	-2.685486e-09	-3.409258e+01	-1.745761e+02
5.700000e-07	-4.770746e-06	-2.655610e-09	-3.393938e+01	-1.743980e+02
5.800000e-07	-4.748920e-06	-2.628008e-09	-3.378411e+01	-1.742166e+02
5.900000e-07	-4.726815e-06	-2.638606e-09	-3.362685e+01	-1.740323e+02
6.000000e-07	-4.704376e-06	-2.653282e-09	-3.346722e+01	-1.738455e+02
6.100000e-07	-4.681616e-06	-2.642009e-09	-3.330530e+01	-1.736566e+02
6.200000e-07	-4.658467e-06	-2.626063e-09	-3.314062e+01	-1.734658e+02
6.300000e-07	-4.635009e-06	-2.613915e-09	-3.297374e+01	-1.732733e+02
6.400000e-07	-4.611367e-06	-2.634764e-09	-3.280555e+01	-1.730792e+02
6.500000e-07	-4.587483e-06	-2.644403e-09	-3.263564e+01	-1.728836e+02
6.600000e-07	-4.563376e-06	-2.616981e-09	-3.246414e+01	-1.726863e+02
6.700000e-07	-4.539019e-06	-2.591482e-09	-3.229086e+01	-1.724875e+02
6.800000e-07	-4.514276e-06	-2.610474e-09	-3.211484e+01	-1.722871e+02
6.900000e-07	-4.489012e-06	-2.616091e-09	-3.193511e+01	-1.720848e+02
7.000000e-07	-4.463246e-06	-2.595888e-09	-3.175181e+01	-1.718807e+02
7.100000e-07	-4.437081e-06	-2.575532e-09	-3.156567e+01	-1.716746e+02
7.200000e-07	-4.410496e-06	-2.582218e-09	-3.137654e+01	-1.714665e+02
7.300000e-07	-4.383470e-06	-2.592500e-09	-3.118428e+01	-1.712562e+02
7.400000e-07	-4.356046e-06	-2.588380e-09	-3.098918e+01	-1.710436e+02
7.500000e-07	-4.328313e-06	-2.561253e-09	-3.079188e+01	-1.708288e+02
7.600000e-07	-4.300319e-06	-2.553455e-09	-3.059274e+01	-1.706115e+02
7.700000e-07	-4.272129e-06	-2.566321e-09	-3.039219e+01	-1.703919e+02
7.800000e-07	-4.243790e-06	-2.567263e-09	-3.019059e+01	-1.701700e+02
7.900000e-07	-4.215206e-06	-2.548394e-09	-2.998723e+01	-1.699456e+02
8.000000e-07	-4.186329e-06	-2.542834e-09	-2.978180e+01	-1.697189e+02
8.100000e-07	-4.157127e-06	-2.549992e-09	-2.957406e+01	-1.694898e+02
8.200000e-07	-4.127533e-06	-2.548690e-09	-2.936353e+01	-1.692585e+02
8.300000e-07	-4.097669e-06	-2.532411e-09	-2.915107e+01	-1.690249e+02
8.400000e-07	-4.067630e-06	-2.515781e-09	-2.893737e+01	-1.687891e+02
8.500000e-07	-4.037361e-06	-2.518341e-09	-2.872204e+01	-1.685510e+02
8.600000e-07	-4.006798e-06	-2.525994e-09	-2.850461e+01	-1.683107e+02
8.700000e-07	-3.975919e-06	-2.519063e-09	-2.828493e+01	-1.680680e+02
8.800000e-07	-3.944733e-06	-2.503370e-09	-2.806307e+01	-1.678231e+02
8.900000e-07	-3.913311e-06	-2.501080e-09	-2.783954e+01	-1.675757e+02
9.000000e-07	-3.881752e-06	-2.504905e-09	-2.761502e+01	-1.673258e+02
9.100000e-07	-3.849950e-06	-2.501229e-09	-2.738879e+01	-1.670731e+02
9.200000e-07	-3.817879e-06	-2.487705e-09	-2.716063e+01	-1.668176e+02
9.300000e-07	-3.785647e-06	-2.485347e-09	-2.693132e+01	-1.665589e+02
9.400000e-07	-3.753254e-06	-2.492503e-09	-2.670088e+01	-1.662969e+02
9.500000e-07	-3.720613e-06	-2.495678e-09	-2.646867e+01	-1.660314e+02
9.600000e-07	-3.687645e-06	-2.480702e-09	-2.623414e+01	-1.657619e+02
9.700000e-07	-3.654361e-06	-2.466965e-09	-2.599735e+01	-1.654883e+02
9.800000e-07	-3.620560e-06	-2.462099e-09	-2.575689e+01	-1.652102e+02
9.900000e-07	-3.586281e-06	-2.461642e-09	-2.551302e+01	-1.649273e+02
1.000000e-06	-3.551703e-06	-2.453162e-09	-2.526704e+01	-1.646395e+02
1.010000e-06	-3.516777e-06	-2.448439e-09	-2.501857e+01	-1.643464e+02
1.020000e-06	-3.481450e-06	-2.450895e-09	-2.476725e+01	-1.640478e+02
1.030000e-06	-3.445820e-06	-2.454928e-09	-2.451377e+01	-1.637436e+02
1.040000e-06	-3.410016e-06	-2.447600e-09	-2.425907e+01	-1.634335e+02
1.050000e-06	-3.374021e-06	-2.434704e-09	-2.400299e+01	-1.631175e+02
1.060000e-06	-3.337934e-06	-2.424874e-09	-2.374627e+01	-1.627955e+02
1.070000e-06	-3.301711e-06	-2.420747e-09	-2.348858e+01	-1.624676e+02
1.080000e-06	-3.265328e-06	-2.413702e-09	-2.322974e+01	-1.621337e+02
1.090000e-06	-3.228782e-06	-2.404037e-09	-2.296975e+01	-1.617941e+02
1.100000e-06	-3.191958e-06	-2.398761e-09	-2.270778e+01	-1.614487e+02
1.110000e-06	-3.154908e-06	-2.398877e-09	-2.244421e+01	-1.610979e+02
1.120000e-06	-3.117584e-06	-2.396663e-09	-2.217869e+01	-1.607419e+02
1.130000e-06	-3.079892e-06	-2.388994e-09	-2.191054e+01	-1.603808e+02
1.140000e-06	-3.042004e-06	-2.379844e-09	-2.164100e+01	-1.600152e+02
1.150000e-06	-3.003992e-06	-2.372413e-09	-2.137058e+01	-1.596451e+02
1.160000e-06	-2.965792e-06	-2.366665e-09	-2.109883e+01	-1.592710e+02
1.170000e-06	-2.927421e-06	-2.357663e-09	-2.082585e+01	-1.588931e+02
1.180000e-06	-2.888927e-06	-2.347709e-09	-2.055201e+01	-1.585117e+02
1.190000e-06	-2.850243e-06	-2.341568e-09	-2.027680e+01	-1.581271e+02
1.200000e-06	-2.811265e-06	-2.341282e-09	-1.999952e+01	-1.577393e+02
1.210000e-06	-2.772071e-06	-2.338390e-09	-1.972068e+01	-1.573486e+02
1.220000e-06	-2.732713e-06	-2.331881e-09	-1.944069e+01	-1.569550e+02
1.230000e-06	-2.693193e-06	-2.322936e-09	-1.915954e+01	-1.565585e+02
1.240000e-06	-2.653509e-06	-2.314682e-09	-1.887723e+01	-1.561589e+02
1.250000e-06	-2.613629e-06	-2.303997e-09	-1.859352e+01	-1.557562e+02
1.260000e-06	-2.573641e-06	-2.292116e-09	-1.830904e+01	-1.553499e+02
1.270000e-06	-2.533641e-06	-2.279055e-09	-1.802448e+01	-1.549397e+02
1.280000e-06	-2.493556e-06	-2.272375e-09	-1.773931e+01	-1.545250e+02
1.290000e-06	-2.453307e-06	-2.268903e-09	-1.745298e+01	-1.541054e+02
1.300000e-06	-2.412924e-06	-2.262935e-09	-1.716569e+01	-1.536801e+02
1.310000e-06	-2.372430e-06	-2.254652e-09	-1.687762e+01	-1.532483e+02
1.320000e-06	-2.331721e-06	-2.248328e-09	-1.658801e+01	-1.528093e+02
1.330000e-06	-2.290670e-06	-2.241049e-09	-1.629597e+01	-1.523621e+02
1.340000e-06	-2.249412e-06	-2.230149e-09	-1.600246e+01	-1.519057e+02
1.350000e-06	-2.208000e-06	-2.217444e-09	-1.570785e+01	-1.514392e+02
1.360000e-06	-2.166282e-06	-2.207359e-09	-1.541106e+01	-1.509615e+02
1.370000e-06	-2.124235e-06	-2.200657e-09	-1.511194e+01	-1.504717e+02
1.380000e-06	-2.081976e-06	-2.194141e-09	-1.481131e+01	-1.499686e+02
1.390000e-06	-2.039458e-06	-2.183405e-09	-1.450883e+01	-1.494514e+02
1.400000e-06	-1.996684e-06	-2.172949e-09	-1.420453e+01	-1.489190e+02
1.410000e-06	-1.953688e-06	-2.164968e-09	-1.389866e+01	-1.483706e+02
1.420000e-06	-1.910456e-06	-2.156176e-09	-1.359110e+01	-1.478054e+02
1.430000e-06	-1.867078e-06	-2.143664e-09	-1.328251e+01	-1.472225e+02
1.440000e-06	-1.823622e-06	-2.130692e-09	-1.297336e+01	-1.466213e+02
1.450000e-06	-1.780020e-06	-2.120891e-09	-1.266317e+01	-1.460012e+02
1.460000e-06	-1.736209e-06	-2.111056e-09	-1.235150e+01	-1.453618e+02
1.470000e-06	-1.692391e-06	-2.097914e-09	-1.203977e+01	-1.447025e+02
1.480000e-06	-1.648566e-06	-2.082824e-09	-1.172800e+01	-1.440232e+02
1.490000e-06	-1.604602e-06	-2.070060e-09	-1.141523e+01	-1.433237e+02
1.500000e-06	-1.560549e-06	-2.059984e-09	-1.110184e+01	-1.426037e+02
1.510000e-06	-1.516448e-06	-2.050758e-09	-1.078810e+01	-1.418633e+02
1.520000e-06	-1.472286e-06	-2.038520e-09	-1.047393e+01	-1.411023e+02
1.530000e-06	-1.428041e-06	-2.025332e-09	-1.015917e+01	-1.403210e+02
1.540000e-06	-1.383717e-06	-2.014503e-09	-9.843845e+00	-1.395192e+02
1.550000e-06	-1.339370e-06	-2.003212e-09	-9.528363e+00	-1.386972e+02
1.560000e-06	-1.294991e-06	-1.988172e-09	-9.212645e+00	-1.378550e+02
1.570000e-06	-1.250541e-06	-1.972747e-09	-8.896428e+00	-1.369926e+02
1.580000e-06	-1.205973e-06	-1.959914e-09	-8.579366e+00	-1.361100e+02
1.590000e-06	-1.161253e-06	-1.948798e-09	-8.261228e+00	-1.352071e+02
1.600000e-06	-1.116466e-06	-1.934324e-09	-7.942607e+00	-1.342838e+02
1.610000e-06	-1.071593e-06	-1.918650e-09	-7.623376e+00	-1.333398e+02
1.620000e-06	-1.026602e-06	-1.906077e-09	-7.303310e+00	-1.323746e+02
1.630000e-06	-9.815403e-07	-1.893904e-09	-6.982739e+00	-1.313878e+02
1.640000e-06	-9.364055e-07	-1.877455e-09	-6.661646e+00	-1.303787e+02
1.650000e-06	-8.912157e-07	-1.858442e-09	-6.340164e+00	-1.293464e+02
1.660000e-06	-8.459530e-07	-1.841369e-09	-6.018162e+00	-1.282899e+02
1.670000e-06	-8.006039e-07	-1.828468e-09	-5.695546e+00	-1.272082e+02
1.680000e-06	-7.552435e-07	-1.813577e-09	-5.372849e+00	-1.260999e+02
1.690000e-06	-7.098754e-07	-1.793351e-09	-5.050097e+00	-1.249636e+02
1.700000e-06	-6.644659e-07	-1.773093e-09	-4.727051e+00	-1.237976e+02
1.710000e-06	-6.189861e-07	-1.755784e-09	-4.403505e+00	-1.226003e+02
1.720000e-06	-5.734542e-07	-1.737750e-09	-4.079589e+00	-1.213697e+02
1.730000e-06	-5.278286e-07	-1.717715e-09	-3.755006e+00	-1.201041e+02
1.740000e-06	-4.821234e-07	-1.697391e-09	-3.429856e+00	-1.188012e+02
1.750000e-06	-4.364930e-07	-1.678321e-09	-3.105238e+00	-1.174591e+02
1.760000e-06	-3.908758e-07	-1.658788e-09	-2.780715e+00	-1.160757e+02
1.770000e-06	-3.451644e-07	-1.637734e-09	-2.455521e+00	-1.146488e+02
1.780000e-06	-2.993760e-07	-1.616335e-09	-2.129779e+00	-1.131764e+02
1.790000e-06	-2.535412e-07	-1.595925e-09	-1.803708e+00	-1.116564e+02
1.800000e-06	-2.077540e-07	-1.574554e-09	-1.477975e+00	-1.100868e+02
1.810000e-06	-1.620293e-07	-1.550877e-09	-1.152686e+00	-1.084657e+02
1.820000e-06	-1.162288e-07	-1.526836e-09	-8.268586e-01	-1.067913e+02
1.830000e-06	-7.038661e-08	-1.501818e-09	-5.007347e-01	-1.050620e+02
1.840000e-06	-2.456848e-08	-1.474904e-09	-1.747817e-01	-1.032763e+02
1.850000e-06	2.123656e-08	-1.444965e-09	1.510782e-01	-1.014328e+02
1.860000e-06	6.706469e-08	-1.412761e-09	4.771023e-01	-9.953039e+01
1.870000e-06	1.129115e-07	-1.382493e-09	8.032596e-01	-9.756808e+01
1.880000e-06	1.587960e-07	-1.353599e-09	1.129685e+00	-9.554508e+01
1.890000e-06	2.046227e-07	-1.321856e-09	1.455698e+00	-9.346078e+01
1.900000e-06	2.502641e-07	-1.288502e-09	1.780394e+00	-9.131479e+01
1.910000e-06	2.958935e-07	-1.254566e-09	2.105004e+00	-8.910688e+01
1.920000e-06	3.415898e-07	-1.218136e-09	2.430091e+00	-8.683702e+01
1.930000e-06	3.873015e-07	-1.180276e-09	2.755287e+00	-8.450535e+01
1.940000e-06	4.330363e-07	-1.144552e-09	3.080647e+00	-8.211216e+01
1.950000e-06	4.787205e-07	-1.111850e-09	3.405647e+00	-7.965791e+01
1.960000e-06	5.243596e-07	-1.080372e-09	3.730326e+00	-7.714316e+01
1.970000e-06	5.699760e-07	-1.045024e-09	4.054844e+00	-7.456862e+01
1.980000e-06	6.155163e-07	-1.004959e-09	4.378821e+00	-7.193509e+01
1.990000e-06	6.609929e-07	-9.633098e-10	4.702344e+00	-6.924348e+01
2.000000e-06	7.064057e-07	-9.219491e-10	5.025414e+00	-6.649476e+01
2.010000e-06	7.516879e-07	-8.793059e-10	5.347554e+00	-6.368995e+01
2.020000e-06	7.969000e-07	-8.359877e-10	5.669196e+00	-6.083017e+01
2.030000e-06	8.421142e-07	-7.932217e-10	5.990852e+00	-5.791654e+01
2.040000e-06	8.872462e-07	-7.501677e-10	6.311924e+00	-5.495024e+01
2.050000e-06	9.322523e-07	-7.051810e-10	6.632101e+00	-5.193248e+01
2.060000e-06	9.771971e-07	-6.584618e-10	6.951840e+00	-4.886450e+01
2.070000e-06	1.022099e-06	-6.143570e-10	7.271278e+00	-4.574760e+01
2.080000e-06	1.066972e-06	-5.739089e-10	7.590507e+00	-4.258308e+01
2.090000e-06	1.111809e-06	-5.309324e-10	7.909477e+00	-3.937233e+01
2.100000e-06	1.156510e-06	-4.798632e-10	8.227483e+00	-3.611677e+01
2.110000e-06	1.201105e-06	-4.246043e-10	8.544736e+00	-3.281789e+01
2.120000e-06	1.245625e-06	-3.706610e-10	8.861450e+00	-2.947729e+01
2.130000e-06	1.290024e-06	-3.184988e-10	9.177308e+00	-2.609664e+01
2.140000e-06	1.334316e-06	-2.661008e-10	9.492404e+00	-2.267775e+01
2.150000e-06	1.378560e-06	-2.146037e-10	9.807161e+00	-1.922254e+01
2.160000e-06	1.422800e-06	-1.670574e-10	1.012189e+01	-1.573310e+01
2.170000e-06	1.467010e-06	-1.214878e-10	1.043640e+01	-1.221167e+01
2.180000e-06	1.511142e-06	-6.968311e-11	1.075036e+01	-8.660699e+00
2.190000e-06	1.555178e-06	-1.011871e-11	1.106363e+01	-5.082796e+00
2.200000e-06	1.599181e-06	5.068150e-11	1.137667e+01	-1.480792e+00
2.210000e-06	1.643148e-06	1.090447e-10	1.168945e+01	2.142272e+00
2.220000e-06	1.687055e-06	1.661989e-10	1.200181e+01	5.783140e+00
2.230000e-06	1.730889e-06	2.221562e-10	1.231365e+01	9.438340e+00
2.240000e-06	1.774635e-06	2.737522e-10	1.262487e+01	1.310419e+01
2.250000e-06	1.818303e-06	3.205819e-10	1.293552e+01	1.677679e+01
2.260000e-06	1.861811e-06	3.674694e-10	1.324504e+01	2.045208e+01
2.270000e-06	1.905117e-06	4.219596e-10	1.355312e+01	2.412579e+01
2.280000e-06	1.948272e-06	4.819472e-10	1.386013e+01	2.779352e+01
2.290000e-06	1.991312e-06	5.384337e-10	1.416632e+01	3.145074e+01
2.300000e-06	2.034175e-06	5.944705e-10	1.447124e+01	3.509282e+01
2.310000e-06	2.076689e-06	6.520285e-10	1.477369e+01	3.871506e+01
2.320000e-06	2.118813e-06	7.068970e-10	1.507337e+01	4.231275e+01
2.330000e-06	2.160722e-06	7.549232e-10	1.537151e+01	4.588117e+01
2.340000e-06	2.202398e-06	8.005432e-10	1.566800e+01	4.941567e+01
2.350000e-06	2.243834e-06	8.504024e-10	1.596277e+01	5.291169e+01
2.360000e-06	2.284984e-06	9.052726e-10	1.625551e+01	5.636478e+01
2.370000e-06	2.325798e-06	9.580021e-10	1.654587e+01	5.977070e+01
2.380000e-06	2.366447e-06	1.003115e-09	1.683505e+01	6.312542e+01
2.390000e-06	2.406976e-06	1.048259e-09	1.712338e+01	6.642514e+01
2.400000e-06	2.447302e-06	1.095869e-09	1.741026e+01	6.966636e+01
2.410000e-06	2.487451e-06	1.139978e-09	1.769588e+01	7.284592e+01
2.420000e-06	2.527508e-06	1.180501e-09	1.798085e+01	7.596099e+01
2.430000e-06	2.567481e-06	1.223889e-09	1.826522e+01	7.900911e+01
2.440000e-06	2.607411e-06	1.273363e-09	1.854929e+01	8.198821e+01
2.450000e-06	2.647255e-06	1.321342e-09	1.883273e+01	8.489663e+01
2.460000e-06	2.686995e-06	1.361990e-09	1.911545e+01	8.773311e+01
2.470000e-06	2.726521e-06	1.397979e-09	1.939664e+01	9.049679e+01
2.480000e-06	2.765708e-06	1.433393e-09	1.967542e+01	9.318722e+01
2.490000e-06	2.804668e-06	1.468565e-09	1.995258e+01	9.580434e+01
2.500000e-06	2.843481e-06	1.500897e-09	2.022870e+01	9.834846e+01
2.510000e-06	2.882121e-06	1.536347e-09	2.050358e+01	1.008202e+02
2.520000e-06	2.920575e-06	1.578143e-09	2.077715e+01	1.032207e+02
2.530000e-06	2.958840e-06	1.619041e-09	2.104937e+01	1.055510e+02
2.540000e-06	2.996932e-06	1.650354e-09	2.132036e+01	1.078128e+02
2.550000e-06	3.034876e-06	1.676672e-09	2.159029e+01	1.100078e+02
2.560000e-06	3.072653e-06	1.704486e-09	2.185904e+01	1.121380e+02
2.570000e-06	3.110189e-06	1.731538e-09	2.212607e+01	1.142053e+02
2.580000e-06	3.147453e-06	1.755979e-09	2.239117e+01	1.162119e+02
2.590000e-06	3.184514e-06	1.782772e-09	2.265483e+01	1.181601e+02
2.600000e-06	3.221370e-06	1.815831e-09	2.291702e+01	1.200520e+02
2.610000e-06	3.257952e-06	1.851204e-09	2.317727e+01	1.218898e+02
2.620000e-06	3.294273e-06	1.881556e-09	2.343566e+01	1.236757e+02
2.630000e-06	3.330456e-06	1.907511e-09	2.369307e+01	1.254117e+02
2.640000e-06	3.366543e-06	1.931296e-09	2.394980e+01	1.270995e+02
2.650000e-06	3.402534e-06	1.950508e-09	2.420583e+01	1.287411e+02
2.660000e-06	3.438393e-06	1.964989e-09	2.446094e+01	1.303379e+02
2.670000e-06	3.474030e-06	1.981678e-09	2.471446e+01	1.318913e+02
2.680000e-06	3.509480e-06	2.006416e-09	2.496666e+01	1.334025e+02
2.690000e-06	3.544592e-06	2.035603e-09	2.521645e+01	1.348725e+02
2.700000e-06	3.579223e-06	2.061434e-09	2.546281e+01	1.363020e+02
2.710000e-06	3.613427e-06	2.081970e-09	2.570614e+01	1.376917e+02
2.720000e-06	3.647239e-06	2.100583e-09	2.594669e+01	1.390419e+02
2.730000e-06	3.680565e-06	2.118193e-09	2.618377e+01	1.403530e+02
2.740000e-06	3.713380e-06	2.133448e-09	2.641721e+01	1.416250e+02
2.750000e-06	3.745948e-06	2.147181e-09	2.664890e+01	1.428579e+02
2.760000e-06	3.778292e-06	2.163935e-09	2.687900e+01	1.440516e+02
2.770000e-06	3.810426e-06	2.185694e-09	2.710760e+01	1.452060e+02
2.780000e-06	3.842472e-06	2.208261e-09	2.733558e+01	1.463208e+02
2.790000e-06	3.874415e-06	2.227537e-09	2.756282e+01	1.473959e+02
2.800000e-06	3.906186e-06	2.243797e-09	2.778885e+01	1.484310e+02
2.810000e-06	3.937680e-06	2.257463e-09	2.801290e+01	1.494261e+02
2.820000e-06	3.968866e-06	2.268395e-09	2.823476e+01	1.503810e+02
2.830000e-06	3.999827e-06	2.275778e-09	2.845502e+01	1.512958e+02
2.840000e-06	4.030445e-06	2.283021e-09	2.867284e+01	1.521707e+02
2.850000e-06	4.060703e-06	2.294087e-09	2.888809e+01	1.530059e+02
2.860000e-06	4.090697e-06	2.309037e-09	2.910147e+01	1.538021e+02
2.870000e-06	4.120420e-06	2.325756e-09	2.931292e+01	1.545597e+02
2.880000e-06	4.149877e-06	2.341163e-09	2.952248e+01	1.552796e+02
2.890000e-06	4.179052e-06	2.350345e-09	2.973004e+01	1.559628e+02
2.900000e-06	4.207956e-06	2.352523e-09	2.993566e+01	1.566104e+02
