# Temperatura_=_13.71
# Concentracion g/m^3_=_4090.0
# C_Vs_to_Am_M_A/Vsm_=_65563218390.804596
# pendiente_HvsI_1/m_=_3716.3
# ordenada_HvsI_A/m_=_1297.0
# frecuencia_Hz_=_135082.62092287958

Tiempo_(s)	Campo_(V.s)	Magnetizacion_(V.s)	Campo_(kA/m)	Magnetizacion_(A/m)
0.000000e+00	-5.423826e-06	-2.657096e-09	-3.839071e+01	-1.728765e+02
1.000000e-08	-5.423803e-06	-2.653506e-09	-3.839056e+01	-1.728486e+02
2.000000e-08	-5.423670e-06	-2.651028e-09	-3.838961e+01	-1.728207e+02
3.000000e-08	-5.423310e-06	-2.652964e-09	-3.838707e+01	-1.727938e+02
4.000000e-08	-5.422589e-06	-2.653233e-09	-3.838196e+01	-1.727693e+02
5.000000e-08	-5.421352e-06	-2.647348e-09	-3.837321e+01	-1.727484e+02
6.000000e-08	-5.419514e-06	-2.644151e-09	-3.836020e+01	-1.727325e+02
7.000000e-08	-5.416951e-06	-2.656543e-09	-3.834205e+01	-1.727228e+02
8.000000e-08	-5.413595e-06	-2.654192e-09	-3.831830e+01	-1.727207e+02
9.000000e-08	-5.409643e-06	-2.636524e-09	-3.829033e+01	-1.727272e+02
1.000000e-07	-5.405383e-06	-2.638828e-09	-3.826018e+01	-1.727436e+02
1.100000e-07	-5.401066e-06	-2.673124e-09	-3.822961e+01	-1.727707e+02
1.200000e-07	-5.396577e-06	-2.662004e-09	-3.819784e+01	-1.728094e+02
1.300000e-07	-5.391750e-06	-2.608018e-09	-3.816367e+01	-1.728603e+02
1.400000e-07	-5.386428e-06	-2.606393e-09	-3.812601e+01	-1.729240e+02
1.500000e-07	-5.380741e-06	-2.656874e-09	-3.808576e+01	-1.730008e+02
1.600000e-07	-5.374818e-06	-2.643094e-09	-3.804383e+01	-1.730906e+02
1.700000e-07	-5.368497e-06	-2.607462e-09	-3.799909e+01	-1.731933e+02
1.800000e-07	-5.361664e-06	-2.603380e-09	-3.795072e+01	-1.733085e+02
1.900000e-07	-5.354433e-06	-2.672949e-09	-3.789954e+01	-1.734355e+02
2.000000e-07	-5.347005e-06	-2.643470e-09	-3.784696e+01	-1.735736e+02
2.100000e-07	-5.339300e-06	-2.610921e-09	-3.779242e+01	-1.737217e+02
2.200000e-07	-5.331309e-06	-2.615560e-09	-3.773587e+01	-1.738784e+02
2.300000e-07	-5.323080e-06	-2.664220e-09	-3.767762e+01	-1.740424e+02
2.400000e-07	-5.314400e-06	-2.648335e-09	-3.761618e+01	-1.742119e+02
2.500000e-07	-5.305092e-06	-2.634908e-09	-3.755030e+01	-1.743853e+02
2.600000e-07	-5.295085e-06	-2.677390e-09	-3.747947e+01	-1.745606e+02
2.700000e-07	-5.284490e-06	-2.701798e-09	-3.740447e+01	-1.747358e+02
2.800000e-07	-5.273493e-06	-2.664013e-09	-3.732664e+01	-1.749090e+02
2.900000e-07	-5.262026e-06	-2.656918e-09	-3.724547e+01	-1.750781e+02
3.000000e-07	-5.250123e-06	-2.707973e-09	-3.716122e+01	-1.752410e+02
3.100000e-07	-5.237875e-06	-2.693129e-09	-3.707453e+01	-1.753958e+02
3.200000e-07	-5.225215e-06	-2.676070e-09	-3.698492e+01	-1.755405e+02
3.300000e-07	-5.212139e-06	-2.685399e-09	-3.689236e+01	-1.756732e+02
3.400000e-07	-5.198745e-06	-2.709071e-09	-3.679756e+01	-1.757923e+02
3.500000e-07	-5.184996e-06	-2.676037e-09	-3.670024e+01	-1.758962e+02
3.600000e-07	-5.170852e-06	-2.694423e-09	-3.660013e+01	-1.759836e+02
3.700000e-07	-5.156272e-06	-2.702741e-09	-3.649692e+01	-1.760532e+02
3.800000e-07	-5.141134e-06	-2.694414e-09	-3.638978e+01	-1.761041e+02
3.900000e-07	-5.125417e-06	-2.678597e-09	-3.627853e+01	-1.761356e+02
4.000000e-07	-5.109048e-06	-2.698373e-09	-3.616267e+01	-1.761470e+02
4.100000e-07	-5.092132e-06	-2.675045e-09	-3.604293e+01	-1.761381e+02
4.200000e-07	-5.075054e-06	-2.655351e-09	-3.592205e+01	-1.761088e+02
4.300000e-07	-5.057845e-06	-2.664044e-09	-3.580024e+01	-1.760592e+02
4.400000e-07	-5.040359e-06	-2.682788e-09	-3.567647e+01	-1.759897e+02
4.500000e-07	-5.022577e-06	-2.662802e-09	-3.555061e+01	-1.759009e+02
4.600000e-07	-5.004396e-06	-2.668071e-09	-3.542192e+01	-1.757934e+02
4.700000e-07	-4.985780e-06	-2.678138e-09	-3.529016e+01	-1.756683e+02
4.800000e-07	-4.966731e-06	-2.677954e-09	-3.515533e+01	-1.755264e+02
4.900000e-07	-4.947262e-06	-2.662468e-09	-3.501752e+01	-1.753690e+02
5.000000e-07	-4.927454e-06	-2.659264e-09	-3.487731e+01	-1.751974e+02
5.100000e-07	-4.907415e-06	-2.651077e-09	-3.473548e+01	-1.750128e+02
5.200000e-07	-4.887232e-06	-2.655411e-09	-3.459262e+01	-1.748166e+02
5.300000e-07	-4.866838e-06	-2.664790e-09	-3.444826e+01	-1.746103e+02
5.400000e-07	-4.846178e-06	-2.663692e-09	-3.430203e+01	-1.743951e+02
5.500000e-07	-4.825174e-06	-2.654532e-09	-3.415336e+01	-1.741725e+02
5.600000e-07	-4.803770e-06	-2.655364e-09	-3.400186e+01	-1.739439e+02
5.700000e-07	-4.782006e-06	-2.653021e-09	-3.384781e+01	-1.737103e+02
5.800000e-07	-4.759961e-06	-2.638015e-09	-3.369177e+01	-1.734730e+02
5.900000e-07	-4.737663e-06	-2.629374e-09	-3.353394e+01	-1.732331e+02
6.000000e-07	-4.714955e-06	-2.629482e-09	-3.337322e+01	-1.729916e+02
6.100000e-07	-4.691757e-06	-2.636427e-09	-3.320901e+01	-1.727492e+02
6.200000e-07	-4.668287e-06	-2.632322e-09	-3.304289e+01	-1.725067e+02
6.300000e-07	-4.644606e-06	-2.626204e-09	-3.287527e+01	-1.722647e+02
6.400000e-07	-4.620681e-06	-2.616383e-09	-3.270593e+01	-1.720236e+02
6.500000e-07	-4.596625e-06	-2.614835e-09	-3.253565e+01	-1.717838e+02
6.600000e-07	-4.572376e-06	-2.605667e-09	-3.236401e+01	-1.715455e+02
6.700000e-07	-4.547799e-06	-2.598713e-09	-3.219006e+01	-1.713087e+02
6.800000e-07	-4.522703e-06	-2.589418e-09	-3.201242e+01	-1.710736e+02
6.900000e-07	-4.496973e-06	-2.591046e-09	-3.183030e+01	-1.708399e+02
7.000000e-07	-4.470643e-06	-2.586328e-09	-3.164393e+01	-1.706074e+02
7.100000e-07	-4.443887e-06	-2.582261e-09	-3.145455e+01	-1.703760e+02
7.200000e-07	-4.416753e-06	-2.570092e-09	-3.126249e+01	-1.701451e+02
7.300000e-07	-4.389233e-06	-2.567743e-09	-3.106770e+01	-1.699145e+02
7.400000e-07	-4.361434e-06	-2.562527e-09	-3.087094e+01	-1.696836e+02
7.500000e-07	-4.333486e-06	-2.559061e-09	-3.067312e+01	-1.694520e+02
7.600000e-07	-4.305421e-06	-2.551272e-09	-3.047447e+01	-1.692193e+02
7.700000e-07	-4.277112e-06	-2.551957e-09	-3.027409e+01	-1.689848e+02
7.800000e-07	-4.248531e-06	-2.550284e-09	-3.007179e+01	-1.687480e+02
7.900000e-07	-4.219604e-06	-2.546873e-09	-2.986704e+01	-1.685086e+02
8.000000e-07	-4.190267e-06	-2.534218e-09	-2.965939e+01	-1.682658e+02
8.100000e-07	-4.160640e-06	-2.522850e-09	-2.944968e+01	-1.680194e+02
8.200000e-07	-4.130818e-06	-2.516988e-09	-2.923860e+01	-1.677687e+02
8.300000e-07	-4.100752e-06	-2.517256e-09	-2.902578e+01	-1.675134e+02
8.400000e-07	-4.070445e-06	-2.514365e-09	-2.881126e+01	-1.672530e+02
8.500000e-07	-4.039850e-06	-2.509245e-09	-2.859471e+01	-1.669871e+02
8.600000e-07	-4.008940e-06	-2.506662e-09	-2.837593e+01	-1.667154e+02
8.700000e-07	-3.977752e-06	-2.504498e-09	-2.815517e+01	-1.664376e+02
8.800000e-07	-3.946324e-06	-2.496600e-09	-2.793272e+01	-1.661532e+02
8.900000e-07	-3.914780e-06	-2.481759e-09	-2.770944e+01	-1.658621e+02
9.000000e-07	-3.883079e-06	-2.471962e-09	-2.748506e+01	-1.655640e+02
9.100000e-07	-3.851099e-06	-2.468669e-09	-2.725870e+01	-1.652586e+02
9.200000e-07	-3.818916e-06	-2.470850e-09	-2.703090e+01	-1.649456e+02
9.300000e-07	-3.786524e-06	-2.469577e-09	-2.680163e+01	-1.646250e+02
9.400000e-07	-3.753796e-06	-2.469163e-09	-2.656997e+01	-1.642964e+02
9.500000e-07	-3.720763e-06	-2.465728e-09	-2.633616e+01	-1.639599e+02
9.600000e-07	-3.687423e-06	-2.459724e-09	-2.610018e+01	-1.636151e+02
9.700000e-07	-3.653675e-06	-2.446473e-09	-2.586130e+01	-1.632621e+02
9.800000e-07	-3.619493e-06	-2.435329e-09	-2.561935e+01	-1.629007e+02
9.900000e-07	-3.584856e-06	-2.426368e-09	-2.537419e+01	-1.625309e+02
1.000000e-06	-3.549742e-06	-2.426234e-09	-2.512564e+01	-1.621527e+02
1.010000e-06	-3.514223e-06	-2.425418e-09	-2.487424e+01	-1.617661e+02
1.020000e-06	-3.478458e-06	-2.421519e-09	-2.462109e+01	-1.613711e+02
1.030000e-06	-3.442551e-06	-2.411844e-09	-2.436694e+01	-1.609678e+02
1.040000e-06	-3.406504e-06	-2.404653e-09	-2.411178e+01	-1.605565e+02
1.050000e-06	-3.370408e-06	-2.394717e-09	-2.385629e+01	-1.601371e+02
1.060000e-06	-3.334238e-06	-2.383734e-09	-2.360027e+01	-1.597100e+02
1.070000e-06	-3.297858e-06	-2.372024e-09	-2.334277e+01	-1.592754e+02
1.080000e-06	-3.261208e-06	-2.364598e-09	-2.308336e+01	-1.588336e+02
1.090000e-06	-3.224294e-06	-2.359437e-09	-2.282208e+01	-1.583850e+02
1.100000e-06	-3.187121e-06	-2.355509e-09	-2.255896e+01	-1.579298e+02
1.110000e-06	-3.149758e-06	-2.348524e-09	-2.229449e+01	-1.574686e+02
1.120000e-06	-3.112225e-06	-2.340869e-09	-2.202883e+01	-1.570017e+02
1.130000e-06	-3.074419e-06	-2.332818e-09	-2.176123e+01	-1.565296e+02
1.140000e-06	-3.036349e-06	-2.324728e-09	-2.149177e+01	-1.560527e+02
1.150000e-06	-2.998074e-06	-2.316072e-09	-2.122085e+01	-1.555714e+02
1.160000e-06	-2.959662e-06	-2.307725e-09	-2.094897e+01	-1.550862e+02
1.170000e-06	-2.921057e-06	-2.298771e-09	-2.067571e+01	-1.545974e+02
1.180000e-06	-2.882182e-06	-2.288897e-09	-2.040055e+01	-1.541054e+02
1.190000e-06	-2.843114e-06	-2.279456e-09	-2.012402e+01	-1.536104e+02
1.200000e-06	-2.803887e-06	-2.269140e-09	-1.984637e+01	-1.531129e+02
1.210000e-06	-2.764450e-06	-2.260474e-09	-1.956722e+01	-1.526127e+02
1.220000e-06	-2.724778e-06	-2.251064e-09	-1.928642e+01	-1.521102e+02
1.230000e-06	-2.684964e-06	-2.241785e-09	-1.900461e+01	-1.516051e+02
1.240000e-06	-2.645096e-06	-2.230795e-09	-1.872242e+01	-1.510975e+02
1.250000e-06	-2.605102e-06	-2.219322e-09	-1.843933e+01	-1.505870e+02
1.260000e-06	-2.564973e-06	-2.207349e-09	-1.815530e+01	-1.500733e+02
1.270000e-06	-2.524712e-06	-2.199795e-09	-1.787032e+01	-1.495560e+02
1.280000e-06	-2.484356e-06	-2.190354e-09	-1.758467e+01	-1.490343e+02
1.290000e-06	-2.443854e-06	-2.180232e-09	-1.729799e+01	-1.485077e+02
1.300000e-06	-2.403173e-06	-2.171341e-09	-1.701005e+01	-1.479753e+02
1.310000e-06	-2.362291e-06	-2.166729e-09	-1.672067e+01	-1.474362e+02
1.320000e-06	-2.321060e-06	-2.159828e-09	-1.642884e+01	-1.468894e+02
1.330000e-06	-2.279589e-06	-2.146788e-09	-1.613530e+01	-1.463337e+02
1.340000e-06	-2.237962e-06	-2.131409e-09	-1.584066e+01	-1.457679e+02
1.350000e-06	-2.196067e-06	-2.120825e-09	-1.554411e+01	-1.451909e+02
1.360000e-06	-2.153901e-06	-2.112584e-09	-1.524566e+01	-1.446015e+02
1.370000e-06	-2.111504e-06	-2.102860e-09	-1.494557e+01	-1.439982e+02
1.380000e-06	-2.068887e-06	-2.090122e-09	-1.464392e+01	-1.433798e+02
1.390000e-06	-2.026004e-06	-2.077614e-09	-1.434038e+01	-1.427451e+02
1.400000e-06	-1.982777e-06	-2.067929e-09	-1.403442e+01	-1.420929e+02
1.410000e-06	-1.939381e-06	-2.058132e-09	-1.372725e+01	-1.414219e+02
1.420000e-06	-1.895839e-06	-2.043206e-09	-1.341905e+01	-1.407311e+02
1.430000e-06	-1.852140e-06	-2.026179e-09	-1.310975e+01	-1.400195e+02
1.440000e-06	-1.808317e-06	-2.013238e-09	-1.279956e+01	-1.392861e+02
1.450000e-06	-1.764393e-06	-2.003163e-09	-1.248866e+01	-1.385303e+02
1.460000e-06	-1.720445e-06	-1.991021e-09	-1.217759e+01	-1.377513e+02
1.470000e-06	-1.676466e-06	-1.976115e-09	-1.186630e+01	-1.369487e+02
1.480000e-06	-1.632420e-06	-1.962838e-09	-1.155453e+01	-1.361219e+02
1.490000e-06	-1.588221e-06	-1.951110e-09	-1.124168e+01	-1.352708e+02
1.500000e-06	-1.543946e-06	-1.937825e-09	-1.092830e+01	-1.343951e+02
1.510000e-06	-1.499623e-06	-1.921075e-09	-1.061458e+01	-1.334949e+02
1.520000e-06	-1.455192e-06	-1.905445e-09	-1.030009e+01	-1.325701e+02
1.530000e-06	-1.410698e-06	-1.894727e-09	-9.985146e+00	-1.316209e+02
1.540000e-06	-1.366149e-06	-1.885673e-09	-9.669823e+00	-1.306476e+02
1.550000e-06	-1.321551e-06	-1.873733e-09	-9.354152e+00	-1.296503e+02
1.560000e-06	-1.276880e-06	-1.858945e-09	-9.037963e+00	-1.286294e+02
1.570000e-06	-1.232114e-06	-1.843515e-09	-8.721104e+00	-1.275850e+02
1.580000e-06	-1.187343e-06	-1.827606e-09	-8.404207e+00	-1.265173e+02
1.590000e-06	-1.142429e-06	-1.808200e-09	-8.086295e+00	-1.254267e+02
1.600000e-06	-1.097365e-06	-1.788974e-09	-7.767329e+00	-1.243130e+02
1.610000e-06	-1.052269e-06	-1.773332e-09	-7.448127e+00	-1.231764e+02
1.620000e-06	-1.007044e-06	-1.760927e-09	-7.128018e+00	-1.220165e+02
1.630000e-06	-9.617007e-07	-1.746124e-09	-6.807073e+00	-1.208331e+02
1.640000e-06	-9.162820e-07	-1.724403e-09	-6.485592e+00	-1.196256e+02
1.650000e-06	-8.707954e-07	-1.700757e-09	-6.163630e+00	-1.183933e+02
1.660000e-06	-8.253101e-07	-1.680655e-09	-5.841678e+00	-1.171352e+02
1.670000e-06	-7.797630e-07	-1.660933e-09	-5.519288e+00	-1.158503e+02
1.680000e-06	-7.341189e-07	-1.639354e-09	-5.196212e+00	-1.145372e+02
1.690000e-06	-6.884053e-07	-1.619682e-09	-4.872644e+00	-1.131942e+02
1.700000e-06	-6.426595e-07	-1.606733e-09	-4.548848e+00	-1.118196e+02
1.710000e-06	-5.969535e-07	-1.593356e-09	-4.225333e+00	-1.104113e+02
1.720000e-06	-5.512364e-07	-1.572329e-09	-3.901741e+00	-1.089672e+02
1.730000e-06	-5.054332e-07	-1.546221e-09	-3.577538e+00	-1.074849e+02
1.740000e-06	-4.594649e-07	-1.520568e-09	-3.252167e+00	-1.059619e+02
1.750000e-06	-4.135087e-07	-1.495462e-09	-2.926881e+00	-1.043955e+02
1.760000e-06	-3.675292e-07	-1.470537e-09	-2.601431e+00	-1.027831e+02
1.770000e-06	-3.213865e-07	-1.445762e-09	-2.274826e+00	-1.011221e+02
1.780000e-06	-2.753283e-07	-1.424179e-09	-1.948818e+00	-9.940949e+01
1.790000e-06	-2.294165e-07	-1.402886e-09	-1.623847e+00	-9.764277e+01
1.800000e-06	-1.834987e-07	-1.376109e-09	-1.298833e+00	-9.581928e+01
1.810000e-06	-1.375650e-07	-1.343964e-09	-9.737075e-01	-9.393654e+01
1.820000e-06	-9.157003e-08	-1.312190e-09	-6.481474e-01	-9.199223e+01
1.830000e-06	-4.551364e-08	-1.283035e-09	-3.221529e-01	-8.998422e+01
1.840000e-06	5.914984e-10	-1.252134e-09	4.186721e-03	-8.791064e+01
1.850000e-06	4.670709e-08	-1.218376e-09	3.306003e-01	-8.576989e+01
1.860000e-06	9.275002e-08	-1.184555e-09	6.564996e-01	-8.356065e+01
1.870000e-06	1.387903e-07	-1.153596e-09	9.823805e-01	-8.128196e+01
1.880000e-06	1.848199e-07	-1.120262e-09	1.308185e+00	-7.893321e+01
1.890000e-06	2.307946e-07	-1.082869e-09	1.633601e+00	-7.651414e+01
1.900000e-06	2.767317e-07	-1.046186e-09	1.958752e+00	-7.402488e+01
1.910000e-06	3.226176e-07	-1.009506e-09	2.283539e+00	-7.146595e+01
1.920000e-06	3.685225e-07	-9.676021e-10	2.608462e+00	-6.883823e+01
1.930000e-06	4.144816e-07	-9.236032e-10	2.933767e+00	-6.614299e+01
1.940000e-06	4.603496e-07	-8.831009e-10	3.258429e+00	-6.338187e+01
1.950000e-06	5.061930e-07	-8.465692e-10	3.582916e+00	-6.055682e+01
1.960000e-06	5.519971e-07	-8.072574e-10	3.907125e+00	-5.767014e+01
1.970000e-06	5.976743e-07	-7.621392e-10	4.230435e+00	-5.472441e+01
1.980000e-06	6.433356e-07	-7.136386e-10	4.553634e+00	-5.172249e+01
1.990000e-06	6.889462e-07	-6.667526e-10	4.876473e+00	-4.866743e+01
2.000000e-06	7.345051e-07	-6.211795e-10	5.198945e+00	-4.556250e+01
2.010000e-06	7.800104e-07	-5.752285e-10	5.521039e+00	-4.241113e+01
2.020000e-06	8.254294e-07	-5.281909e-10	5.842522e+00	-3.921682e+01
2.030000e-06	8.708011e-07	-4.825583e-10	6.163671e+00	-3.598319e+01
2.040000e-06	9.160953e-07	-4.366947e-10	6.484270e+00	-3.271387e+01
2.050000e-06	9.613478e-07	-3.855889e-10	6.804575e+00	-2.941249e+01
2.060000e-06	1.006571e-06	-3.322905e-10	7.124671e+00	-2.608265e+01
2.070000e-06	1.051755e-06	-2.820029e-10	7.444491e+00	-2.272789e+01
2.080000e-06	1.096868e-06	-2.352888e-10	7.763807e+00	-1.935164e+01
2.090000e-06	1.141881e-06	-1.911982e-10	8.082416e+00	-1.595723e+01
2.100000e-06	1.186789e-06	-1.478681e-10	8.400282e+00	-1.254784e+01
2.110000e-06	1.231546e-06	-1.011148e-10	8.717079e+00	-9.126507e+00
2.120000e-06	1.276181e-06	-4.979956e-11	9.033013e+00	-5.696103e+00
2.130000e-06	1.320783e-06	6.326005e-12	9.348718e+00	-2.259340e+00
2.140000e-06	1.365293e-06	6.448838e-11	9.663767e+00	1.181236e+00
2.150000e-06	1.409643e-06	1.210665e-10	9.977681e+00	4.623237e+00
2.160000e-06	1.453940e-06	1.718890e-10	1.029122e+01	8.064421e+00
2.170000e-06	1.498216e-06	2.185663e-10	1.060462e+01	1.150269e+01
2.180000e-06	1.542456e-06	2.636938e-10	1.091775e+01	1.493605e+01
2.190000e-06	1.586658e-06	3.094246e-10	1.123062e+01	1.836262e+01
2.200000e-06	1.630835e-06	3.572719e-10	1.154332e+01	2.178058e+01
2.210000e-06	1.674923e-06	4.104804e-10	1.185537e+01	2.518820e+01
2.220000e-06	1.718897e-06	4.673525e-10	1.216663e+01	2.858374e+01
2.230000e-06	1.762779e-06	5.206991e-10	1.247724e+01	3.196548e+01
2.240000e-06	1.806557e-06	5.695270e-10	1.278710e+01	3.533170e+01
2.250000e-06	1.850200e-06	6.162075e-10	1.309602e+01	3.868063e+01
2.260000e-06	1.893712e-06	6.607852e-10	1.340400e+01	4.201044e+01
2.270000e-06	1.937127e-06	7.035306e-10	1.371130e+01	4.531924e+01
2.280000e-06	1.980431e-06	7.464520e-10	1.401781e+01	4.860506e+01
2.290000e-06	2.023648e-06	7.923127e-10	1.432370e+01	5.186582e+01
2.300000e-06	2.066577e-06	8.419809e-10	1.462757e+01	5.509935e+01
2.310000e-06	2.109073e-06	8.911799e-10	1.492836e+01	5.830339e+01
2.320000e-06	2.151304e-06	9.369693e-10	1.522728e+01	6.147557e+01
2.330000e-06	2.193379e-06	9.804947e-10	1.552509e+01	6.461346e+01
2.340000e-06	2.235302e-06	1.022164e-09	1.582183e+01	6.771453e+01
2.350000e-06	2.277015e-06	1.064169e-09	1.611708e+01	7.077621e+01
2.360000e-06	2.318415e-06	1.108203e-09	1.641012e+01	7.379590e+01
2.370000e-06	2.359442e-06	1.149033e-09	1.670051e+01	7.677098e+01
2.380000e-06	2.400263e-06	1.186681e-09	1.698945e+01	7.969886e+01
2.390000e-06	2.440926e-06	1.225410e-09	1.727727e+01	8.257697e+01
2.400000e-06	2.481331e-06	1.264195e-09	1.756326e+01	8.540285e+01
2.410000e-06	2.521608e-06	1.303172e-09	1.784835e+01	8.817413e+01
2.420000e-06	2.561813e-06	1.341288e-09	1.813292e+01	9.088858e+01
2.430000e-06	2.601903e-06	1.380347e-09	1.841669e+01	9.354414e+01
2.440000e-06	2.641901e-06	1.421161e-09	1.869980e+01	9.613895e+01
2.450000e-06	2.681767e-06	1.458876e-09	1.898198e+01	9.867137e+01
2.460000e-06	2.721470e-06	1.494775e-09	1.926300e+01	1.011400e+02
2.470000e-06	2.761000e-06	1.528948e-09	1.954281e+01	1.035438e+02
2.480000e-06	2.800294e-06	1.558779e-09	1.982093e+01	1.058819e+02
2.490000e-06	2.839321e-06	1.586151e-09	2.009717e+01	1.081537e+02
2.500000e-06	2.878159e-06	1.615150e-09	2.037208e+01	1.103590e+02
2.510000e-06	2.916856e-06	1.649904e-09	2.064598e+01	1.124979e+02
2.520000e-06	2.955295e-06	1.687028e-09	2.091805e+01	1.145708e+02
2.530000e-06	2.993577e-06	1.717361e-09	2.118902e+01	1.165784e+02
2.540000e-06	3.031808e-06	1.742798e-09	2.145963e+01	1.185216e+02
2.550000e-06	3.069843e-06	1.769071e-09	2.172885e+01	1.204016e+02
2.560000e-06	3.107687e-06	1.795566e-09	2.199671e+01	1.222199e+02
2.570000e-06	3.145315e-06	1.817316e-09	2.226305e+01	1.239781e+02
2.580000e-06	3.182577e-06	1.835359e-09	2.252679e+01	1.256782e+02
2.590000e-06	3.219570e-06	1.857664e-09	2.278864e+01	1.273221e+02
2.600000e-06	3.256329e-06	1.886929e-09	2.304882e+01	1.289119e+02
2.610000e-06	3.292899e-06	1.914998e-09	2.330767e+01	1.304500e+02
2.620000e-06	3.329302e-06	1.938673e-09	2.356534e+01	1.319384e+02
2.630000e-06	3.365486e-06	1.963522e-09	2.382145e+01	1.333795e+02
2.640000e-06	3.401591e-06	1.990849e-09	2.407701e+01	1.347756e+02
2.650000e-06	3.437614e-06	2.011567e-09	2.433199e+01	1.361288e+02
2.660000e-06	3.473463e-06	2.023739e-09	2.458573e+01	1.374412e+02
2.670000e-06	3.509071e-06	2.037118e-09	2.483777e+01	1.387148e+02
2.680000e-06	3.544406e-06	2.055414e-09	2.508788e+01	1.399515e+02
2.690000e-06	3.579541e-06	2.074278e-09	2.533657e+01	1.411528e+02
2.700000e-06	3.614390e-06	2.090599e-09	2.558323e+01	1.423204e+02
2.710000e-06	3.648796e-06	2.107141e-09	2.582677e+01	1.434555e+02
2.720000e-06	3.682711e-06	2.127218e-09	2.606683e+01	1.445593e+02
2.730000e-06	3.716207e-06	2.147650e-09	2.630391e+01	1.456326e+02
2.740000e-06	3.749324e-06	2.163619e-09	2.653832e+01	1.466763e+02
2.750000e-06	3.782041e-06	2.178445e-09	2.676990e+01	1.476909e+02
2.760000e-06	3.814462e-06	2.193873e-09	2.699938e+01	1.486768e+02
2.770000e-06	3.846731e-06	2.208183e-09	2.722778e+01	1.496342e+02
2.780000e-06	3.878869e-06	2.219556e-09	2.745526e+01	1.505633e+02
2.790000e-06	3.910782e-06	2.230902e-09	2.768114e+01	1.514641e+02
2.800000e-06	3.942395e-06	2.246333e-09	2.790491e+01	1.523364e+02
2.810000e-06	3.973769e-06	2.263088e-09	2.812698e+01	1.531801e+02
2.820000e-06	4.004923e-06	2.275641e-09	2.834749e+01	1.539951e+02
2.830000e-06	4.035780e-06	2.284662e-09	2.856590e+01	1.547813e+02
2.840000e-06	4.066285e-06	2.294452e-09	2.878182e+01	1.555383e+02
2.850000e-06	4.096530e-06	2.305707e-09	2.899590e+01	1.562663e+02
2.860000e-06	4.126637e-06	2.315906e-09	2.920901e+01	1.569650e+02
2.870000e-06	4.156520e-06	2.324749e-09	2.942052e+01	1.576347e+02
2.880000e-06	4.186080e-06	2.334905e-09	2.962975e+01	1.582755e+02
2.890000e-06	4.215321e-06	2.344063e-09	2.983672e+01	1.588876e+02
2.900000e-06	4.244312e-06	2.350989e-09	3.004193e+01	1.594716e+02
