# Temperatura_=_-2.52
# Concentracion g/m^3_=_4090.0
# C_Vs_to_Am_M_A/Vsm_=_65563218390.804596
# pendiente_HvsI_1/m_=_3716.3
# ordenada_HvsI_A/m_=_1297.0
# frecuencia_Hz_=_135077.344547871

Tiempo_(s)	Campo_(V.s)	Magnetizacion_(V.s)	Campo_(kA/m)	Magnetizacion_(A/m)
0.000000e+00	-5.385658e-06	-2.458599e-09	-3.839133e+01	-1.603445e+02
1.000000e-08	-5.385885e-06	-2.455578e-09	-3.839295e+01	-1.603336e+02
2.000000e-08	-5.385955e-06	-2.453770e-09	-3.839345e+01	-1.603253e+02
3.000000e-08	-5.385850e-06	-2.453021e-09	-3.839270e+01	-1.603208e+02
4.000000e-08	-5.385382e-06	-2.454118e-09	-3.838937e+01	-1.603209e+02
5.000000e-08	-5.384356e-06	-2.453714e-09	-3.838205e+01	-1.603269e+02
6.000000e-08	-5.382676e-06	-2.452445e-09	-3.837007e+01	-1.603394e+02
7.000000e-08	-5.380425e-06	-2.446968e-09	-3.835403e+01	-1.603594e+02
8.000000e-08	-5.377604e-06	-2.436804e-09	-3.833392e+01	-1.603876e+02
9.000000e-08	-5.374158e-06	-2.456715e-09	-3.830936e+01	-1.604246e+02
1.000000e-07	-5.370228e-06	-2.503457e-09	-3.828134e+01	-1.604707e+02
1.100000e-07	-5.365956e-06	-2.480854e-09	-3.825089e+01	-1.605263e+02
1.200000e-07	-5.361551e-06	-2.384095e-09	-3.821949e+01	-1.605916e+02
1.300000e-07	-5.357098e-06	-2.416964e-09	-3.818775e+01	-1.606664e+02
1.400000e-07	-5.352292e-06	-2.471939e-09	-3.815348e+01	-1.607505e+02
1.500000e-07	-5.346866e-06	-2.472725e-09	-3.811480e+01	-1.608436e+02
1.600000e-07	-5.341055e-06	-2.352445e-09	-3.807338e+01	-1.609451e+02
1.700000e-07	-5.335048e-06	-2.397775e-09	-3.803057e+01	-1.610543e+02
1.800000e-07	-5.328510e-06	-2.526356e-09	-3.798396e+01	-1.611705e+02
1.900000e-07	-5.321448e-06	-2.505441e-09	-3.793362e+01	-1.612926e+02
2.000000e-07	-5.314210e-06	-2.421571e-09	-3.788202e+01	-1.614196e+02
2.100000e-07	-5.306861e-06	-2.424195e-09	-3.782963e+01	-1.615502e+02
2.200000e-07	-5.299288e-06	-2.512076e-09	-3.777565e+01	-1.616834e+02
2.300000e-07	-5.291401e-06	-2.452946e-09	-3.771943e+01	-1.618176e+02
2.400000e-07	-5.283248e-06	-2.434370e-09	-3.766131e+01	-1.619517e+02
2.500000e-07	-5.274784e-06	-2.488586e-09	-3.760097e+01	-1.620842e+02
2.600000e-07	-5.265553e-06	-2.540454e-09	-3.753518e+01	-1.622138e+02
2.700000e-07	-5.255463e-06	-2.468765e-09	-3.746325e+01	-1.623391e+02
2.800000e-07	-5.244903e-06	-2.494019e-09	-3.738797e+01	-1.624590e+02
2.900000e-07	-5.233869e-06	-2.546649e-09	-3.730931e+01	-1.625721e+02
3.000000e-07	-5.222360e-06	-2.507169e-09	-3.722727e+01	-1.626773e+02
3.100000e-07	-5.210475e-06	-2.439175e-09	-3.714256e+01	-1.627736e+02
3.200000e-07	-5.198293e-06	-2.520227e-09	-3.705572e+01	-1.628600e+02
3.300000e-07	-5.185714e-06	-2.563378e-09	-3.696605e+01	-1.629356e+02
3.400000e-07	-5.172684e-06	-2.492174e-09	-3.687316e+01	-1.629999e+02
3.500000e-07	-5.159233e-06	-2.470942e-09	-3.677727e+01	-1.630521e+02
3.600000e-07	-5.145358e-06	-2.533450e-09	-3.667837e+01	-1.630918e+02
3.700000e-07	-5.131215e-06	-2.519386e-09	-3.657755e+01	-1.631188e+02
3.800000e-07	-5.116727e-06	-2.484157e-09	-3.647428e+01	-1.631327e+02
3.900000e-07	-5.101459e-06	-2.503572e-09	-3.636544e+01	-1.631335e+02
4.000000e-07	-5.085357e-06	-2.501596e-09	-3.625065e+01	-1.631212e+02
4.100000e-07	-5.068922e-06	-2.478192e-09	-3.613350e+01	-1.630961e+02
4.200000e-07	-5.052325e-06	-2.507308e-09	-3.601519e+01	-1.630583e+02
4.300000e-07	-5.035358e-06	-2.517119e-09	-3.589424e+01	-1.630082e+02
4.400000e-07	-5.018164e-06	-2.462057e-09	-3.577168e+01	-1.629462e+02
4.500000e-07	-5.000777e-06	-2.476942e-09	-3.564774e+01	-1.628729e+02
4.600000e-07	-4.983047e-06	-2.511731e-09	-3.552135e+01	-1.627888e+02
4.700000e-07	-4.964922e-06	-2.494482e-09	-3.539214e+01	-1.626945e+02
4.800000e-07	-4.946355e-06	-2.457102e-09	-3.525979e+01	-1.625907e+02
4.900000e-07	-4.927348e-06	-2.487993e-09	-3.512430e+01	-1.624780e+02
5.000000e-07	-4.907949e-06	-2.488526e-09	-3.498602e+01	-1.623572e+02
5.100000e-07	-4.888322e-06	-2.480059e-09	-3.484610e+01	-1.622290e+02
5.200000e-07	-4.868484e-06	-2.467816e-09	-3.470469e+01	-1.620941e+02
5.300000e-07	-4.848475e-06	-2.470932e-09	-3.456206e+01	-1.619531e+02
5.400000e-07	-4.828309e-06	-2.470317e-09	-3.441831e+01	-1.618068e+02
5.500000e-07	-4.807834e-06	-2.500875e-09	-3.427235e+01	-1.616559e+02
5.600000e-07	-4.786892e-06	-2.480964e-09	-3.412306e+01	-1.615009e+02
5.700000e-07	-4.765534e-06	-2.455601e-09	-3.397082e+01	-1.613425e+02
5.800000e-07	-4.743966e-06	-2.453608e-09	-3.381707e+01	-1.611812e+02
5.900000e-07	-4.722146e-06	-2.464450e-09	-3.366153e+01	-1.610177e+02
6.000000e-07	-4.699938e-06	-2.440571e-09	-3.350322e+01	-1.608523e+02
6.100000e-07	-4.677316e-06	-2.442290e-09	-3.334196e+01	-1.606855e+02
6.200000e-07	-4.654364e-06	-2.455785e-09	-3.317835e+01	-1.605179e+02
6.300000e-07	-4.631195e-06	-2.471458e-09	-3.301319e+01	-1.603496e+02
6.400000e-07	-4.607723e-06	-2.472906e-09	-3.284587e+01	-1.601811e+02
6.500000e-07	-4.583991e-06	-2.454567e-09	-3.267670e+01	-1.600127e+02
6.600000e-07	-4.560080e-06	-2.425668e-09	-3.250625e+01	-1.598445e+02
6.700000e-07	-4.535921e-06	-2.423032e-09	-3.233404e+01	-1.596769e+02
6.800000e-07	-4.511440e-06	-2.430678e-09	-3.215952e+01	-1.595100e+02
6.900000e-07	-4.486524e-06	-2.424719e-09	-3.198191e+01	-1.593439e+02
7.000000e-07	-4.461002e-06	-2.424981e-09	-3.179998e+01	-1.591788e+02
7.100000e-07	-4.434855e-06	-2.440041e-09	-3.161359e+01	-1.590146e+02
7.200000e-07	-4.408214e-06	-2.450387e-09	-3.142368e+01	-1.588513e+02
7.300000e-07	-4.381132e-06	-2.435086e-09	-3.123063e+01	-1.586890e+02
7.400000e-07	-4.353681e-06	-2.414831e-09	-3.103495e+01	-1.585276e+02
7.500000e-07	-4.325994e-06	-2.397699e-09	-3.083759e+01	-1.583669e+02
7.600000e-07	-4.298183e-06	-2.400610e-09	-3.063933e+01	-1.582068e+02
7.700000e-07	-4.270233e-06	-2.398526e-09	-3.044009e+01	-1.580471e+02
7.800000e-07	-4.242072e-06	-2.397608e-09	-3.023935e+01	-1.578875e+02
7.900000e-07	-4.213655e-06	-2.400206e-09	-3.003678e+01	-1.577279e+02
8.000000e-07	-4.184969e-06	-2.416384e-09	-2.983230e+01	-1.575679e+02
8.100000e-07	-4.155873e-06	-2.410778e-09	-2.962488e+01	-1.574072e+02
8.200000e-07	-4.126410e-06	-2.396694e-09	-2.941486e+01	-1.572454e+02
8.300000e-07	-4.096767e-06	-2.380250e-09	-2.920355e+01	-1.570822e+02
8.400000e-07	-4.066937e-06	-2.382694e-09	-2.899091e+01	-1.569171e+02
8.500000e-07	-4.036839e-06	-2.383638e-09	-2.877636e+01	-1.567497e+02
8.600000e-07	-4.006451e-06	-2.381983e-09	-2.855974e+01	-1.565796e+02
8.700000e-07	-3.975797e-06	-2.371189e-09	-2.834122e+01	-1.564064e+02
8.800000e-07	-3.944855e-06	-2.374122e-09	-2.812066e+01	-1.562296e+02
8.900000e-07	-3.913560e-06	-2.376196e-09	-2.789758e+01	-1.560488e+02
9.000000e-07	-3.881966e-06	-2.371098e-09	-2.767236e+01	-1.558637e+02
9.100000e-07	-3.850243e-06	-2.355852e-09	-2.744622e+01	-1.556738e+02
9.200000e-07	-3.818426e-06	-2.354016e-09	-2.721942e+01	-1.554789e+02
9.300000e-07	-3.786444e-06	-2.360316e-09	-2.699143e+01	-1.552785e+02
9.400000e-07	-3.754335e-06	-2.362958e-09	-2.676255e+01	-1.550725e+02
9.500000e-07	-3.722074e-06	-2.354370e-09	-2.653257e+01	-1.548606e+02
9.600000e-07	-3.689487e-06	-2.348306e-09	-2.630028e+01	-1.546427e+02
9.700000e-07	-3.656502e-06	-2.348681e-09	-2.606515e+01	-1.544187e+02
9.800000e-07	-3.623005e-06	-2.346590e-09	-2.582637e+01	-1.541884e+02
9.900000e-07	-3.588918e-06	-2.336884e-09	-2.558338e+01	-1.539521e+02
1.000000e-06	-3.554414e-06	-2.329929e-09	-2.533742e+01	-1.537096e+02
1.010000e-06	-3.519557e-06	-2.335635e-09	-2.508895e+01	-1.534611e+02
1.020000e-06	-3.484301e-06	-2.342581e-09	-2.483762e+01	-1.532069e+02
1.030000e-06	-3.448774e-06	-2.340323e-09	-2.458438e+01	-1.529472e+02
1.040000e-06	-3.413105e-06	-2.326951e-09	-2.433011e+01	-1.526822e+02
1.050000e-06	-3.377327e-06	-2.320229e-09	-2.407507e+01	-1.524123e+02
1.060000e-06	-3.341424e-06	-2.314755e-09	-2.381914e+01	-1.521378e+02
1.070000e-06	-3.305424e-06	-2.306306e-09	-2.356251e+01	-1.518591e+02
1.080000e-06	-3.269311e-06	-2.293096e-09	-2.330508e+01	-1.515766e+02
1.090000e-06	-3.232887e-06	-2.290499e-09	-2.304544e+01	-1.512906e+02
1.100000e-06	-3.196158e-06	-2.292874e-09	-2.278362e+01	-1.510017e+02
1.110000e-06	-3.159177e-06	-2.292913e-09	-2.252000e+01	-1.507101e+02
1.120000e-06	-3.121918e-06	-2.281126e-09	-2.225440e+01	-1.504163e+02
1.130000e-06	-3.084478e-06	-2.273085e-09	-2.198751e+01	-1.501204e+02
1.140000e-06	-3.046896e-06	-2.271361e-09	-2.171961e+01	-1.498227e+02
1.150000e-06	-3.009072e-06	-2.273916e-09	-2.144999e+01	-1.495236e+02
1.160000e-06	-2.971013e-06	-2.266901e-09	-2.117869e+01	-1.492230e+02
1.170000e-06	-2.932758e-06	-2.257243e-09	-2.090599e+01	-1.489212e+02
1.180000e-06	-2.894366e-06	-2.250003e-09	-2.063231e+01	-1.486180e+02
1.190000e-06	-2.855842e-06	-2.249267e-09	-2.035770e+01	-1.483134e+02
1.200000e-06	-2.816902e-06	-2.245877e-09	-2.008012e+01	-1.480073e+02
1.210000e-06	-2.777660e-06	-2.237780e-09	-1.980038e+01	-1.476994e+02
1.220000e-06	-2.738354e-06	-2.226770e-09	-1.952019e+01	-1.473894e+02
1.230000e-06	-2.698888e-06	-2.223018e-09	-1.923886e+01	-1.470770e+02
1.240000e-06	-2.659244e-06	-2.219248e-09	-1.895626e+01	-1.467617e+02
1.250000e-06	-2.619505e-06	-2.211221e-09	-1.867298e+01	-1.464431e+02
1.260000e-06	-2.579695e-06	-2.201208e-09	-1.838920e+01	-1.461205e+02
1.270000e-06	-2.539807e-06	-2.193728e-09	-1.810486e+01	-1.457934e+02
1.280000e-06	-2.499843e-06	-2.189058e-09	-1.781998e+01	-1.454611e+02
1.290000e-06	-2.459798e-06	-2.183195e-09	-1.753452e+01	-1.451230e+02
1.300000e-06	-2.419658e-06	-2.177577e-09	-1.724838e+01	-1.447785e+02
1.310000e-06	-2.379412e-06	-2.173347e-09	-1.696149e+01	-1.444268e+02
1.320000e-06	-2.338967e-06	-2.171464e-09	-1.667318e+01	-1.440674e+02
1.330000e-06	-2.298295e-06	-2.164416e-09	-1.638326e+01	-1.436996e+02
1.340000e-06	-2.257315e-06	-2.152312e-09	-1.609114e+01	-1.433228e+02
1.350000e-06	-2.215999e-06	-2.140859e-09	-1.579661e+01	-1.429364e+02
1.360000e-06	-2.174358e-06	-2.135301e-09	-1.549978e+01	-1.425400e+02
1.370000e-06	-2.132398e-06	-2.128085e-09	-1.520067e+01	-1.421331e+02
1.380000e-06	-2.090359e-06	-2.120002e-09	-1.490100e+01	-1.417152e+02
1.390000e-06	-2.048077e-06	-2.113041e-09	-1.459959e+01	-1.412859e+02
1.400000e-06	-2.005386e-06	-2.110075e-09	-1.429527e+01	-1.408451e+02
1.410000e-06	-1.962518e-06	-2.104788e-09	-1.398969e+01	-1.403924e+02
1.420000e-06	-1.919506e-06	-2.093723e-09	-1.368308e+01	-1.399277e+02
1.430000e-06	-1.876240e-06	-2.079796e-09	-1.337466e+01	-1.394507e+02
1.440000e-06	-1.832808e-06	-2.072031e-09	-1.306506e+01	-1.389615e+02
1.450000e-06	-1.789319e-06	-2.065759e-09	-1.275505e+01	-1.384598e+02
1.460000e-06	-1.745715e-06	-2.057530e-09	-1.244422e+01	-1.379456e+02
1.470000e-06	-1.701987e-06	-2.046329e-09	-1.213251e+01	-1.374190e+02
1.480000e-06	-1.658200e-06	-2.040185e-09	-1.182038e+01	-1.368797e+02
1.490000e-06	-1.614375e-06	-2.036565e-09	-1.150798e+01	-1.363278e+02
1.500000e-06	-1.570497e-06	-2.028327e-09	-1.119519e+01	-1.357632e+02
1.510000e-06	-1.526541e-06	-2.014476e-09	-1.088186e+01	-1.351857e+02
1.520000e-06	-1.482527e-06	-2.000547e-09	-1.056810e+01	-1.345951e+02
1.530000e-06	-1.438413e-06	-1.988771e-09	-1.025364e+01	-1.339913e+02
1.540000e-06	-1.394196e-06	-1.978741e-09	-9.938440e+00	-1.333740e+02
1.550000e-06	-1.349990e-06	-1.968594e-09	-9.623318e+00	-1.327427e+02
1.560000e-06	-1.305802e-06	-1.959293e-09	-9.308332e+00	-1.320970e+02
1.570000e-06	-1.261520e-06	-1.952940e-09	-8.992667e+00	-1.314364e+02
1.580000e-06	-1.217083e-06	-1.946757e-09	-8.675899e+00	-1.307603e+02
1.590000e-06	-1.172528e-06	-1.936339e-09	-8.358296e+00	-1.300680e+02
1.600000e-06	-1.127959e-06	-1.920603e-09	-8.040589e+00	-1.293587e+02
1.610000e-06	-1.083389e-06	-1.904631e-09	-7.722875e+00	-1.286315e+02
1.620000e-06	-1.038659e-06	-1.892503e-09	-7.404020e+00	-1.278854e+02
1.630000e-06	-9.938151e-07	-1.881743e-09	-7.084350e+00	-1.271196e+02
1.640000e-06	-9.488856e-07	-1.870313e-09	-6.764073e+00	-1.263327e+02
1.650000e-06	-9.037980e-07	-1.858998e-09	-6.442668e+00	-1.255238e+02
1.660000e-06	-8.586183e-07	-1.848627e-09	-6.120608e+00	-1.246915e+02
1.670000e-06	-8.134104e-07	-1.836927e-09	-5.798346e+00	-1.238348e+02
1.680000e-06	-7.681841e-07	-1.819907e-09	-5.475953e+00	-1.229522e+02
1.690000e-06	-7.228909e-07	-1.802062e-09	-5.153083e+00	-1.220425e+02
1.700000e-06	-6.775584e-07	-1.787161e-09	-4.829933e+00	-1.211044e+02
1.710000e-06	-6.321639e-07	-1.775002e-09	-4.506342e+00	-1.201366e+02
1.720000e-06	-5.866780e-07	-1.760027e-09	-4.182098e+00	-1.191377e+02
1.730000e-06	-5.411593e-07	-1.743883e-09	-3.857621e+00	-1.181065e+02
1.740000e-06	-4.955896e-07	-1.728444e-09	-3.532780e+00	-1.170415e+02
1.750000e-06	-4.499363e-07	-1.713767e-09	-3.207343e+00	-1.159416e+02
1.760000e-06	-4.043109e-07	-1.697822e-09	-2.882105e+00	-1.148053e+02
1.770000e-06	-3.587265e-07	-1.681654e-09	-2.557160e+00	-1.136313e+02
1.780000e-06	-3.130362e-07	-1.664315e-09	-2.231460e+00	-1.124184e+02
1.790000e-06	-2.673107e-07	-1.648904e-09	-1.905508e+00	-1.111652e+02
1.800000e-06	-2.215912e-07	-1.632266e-09	-1.579599e+00	-1.098703e+02
1.810000e-06	-1.758553e-07	-1.612003e-09	-1.253574e+00	-1.085323e+02
1.820000e-06	-1.301568e-07	-1.591287e-09	-9.278150e-01	-1.071498e+02
1.830000e-06	-8.441239e-08	-1.571961e-09	-6.017286e-01	-1.057211e+02
1.840000e-06	-3.866282e-08	-1.551143e-09	-2.756056e-01	-1.042448e+02
1.850000e-06	7.017997e-09	-1.527043e-09	5.002736e-02	-1.027192e+02
1.860000e-06	5.277230e-08	-1.501105e-09	3.761841e-01	-1.011424e+02
1.870000e-06	9.856254e-08	-1.475147e-09	7.025970e-01	-9.951263e+01
1.880000e-06	1.442657e-07	-1.447721e-09	1.028389e+00	-9.782782e+01
1.890000e-06	1.899570e-07	-1.419515e-09	1.354097e+00	-9.608586e+01
1.900000e-06	2.356881e-07	-1.393359e-09	1.680088e+00	-9.428450e+01
1.910000e-06	2.813681e-07	-1.369417e-09	2.005715e+00	-9.242137e+01
1.920000e-06	3.269885e-07	-1.343365e-09	2.330918e+00	-9.049397e+01
1.930000e-06	3.726172e-07	-1.313399e-09	2.656179e+00	-8.849970e+01
1.940000e-06	4.182266e-07	-1.282790e-09	2.981303e+00	-8.643587e+01
1.950000e-06	4.638228e-07	-1.251200e-09	3.306332e+00	-8.429972e+01
1.960000e-06	5.093435e-07	-1.218730e-09	3.630824e+00	-8.208842e+01
1.970000e-06	5.548501e-07	-1.183670e-09	3.955215e+00	-7.979916e+01
1.980000e-06	6.003596e-07	-1.144787e-09	4.279627e+00	-7.742911e+01
1.990000e-06	6.457694e-07	-1.105065e-09	4.603327e+00	-7.497552e+01
2.000000e-06	6.910398e-07	-1.070183e-09	4.926035e+00	-7.243573e+01
2.010000e-06	7.362788e-07	-1.035906e-09	5.248519e+00	-6.980723e+01
2.020000e-06	7.815532e-07	-9.982659e-10	5.571254e+00	-6.708769e+01
2.030000e-06	8.267637e-07	-9.561193e-10	5.893534e+00	-6.427505e+01
2.040000e-06	8.719664e-07	-9.114653e-10	6.215759e+00	-6.136756e+01
2.050000e-06	9.170862e-07	-8.651508e-10	6.537393e+00	-5.836378e+01
2.060000e-06	9.620627e-07	-8.164221e-10	6.858005e+00	-5.526274e+01
2.070000e-06	1.006962e-06	-7.673254e-10	7.178067e+00	-5.206390e+01
2.080000e-06	1.051666e-06	-7.224887e-10	7.496736e+00	-4.876722e+01
2.090000e-06	1.096216e-06	-6.793129e-10	7.814307e+00	-4.537325e+01
2.100000e-06	1.140732e-06	-6.329182e-10	8.131639e+00	-4.188312e+01
2.110000e-06	1.185194e-06	-5.815794e-10	8.448586e+00	-3.829861e+01
2.120000e-06	1.229636e-06	-5.257698e-10	8.765385e+00	-3.462213e+01
2.130000e-06	1.273990e-06	-4.657814e-10	9.081561e+00	-3.085681e+01
2.140000e-06	1.318225e-06	-4.029850e-10	9.396884e+00	-2.700646e+01
2.150000e-06	1.362408e-06	-3.401265e-10	9.711839e+00	-2.307560e+01
2.160000e-06	1.406509e-06	-2.808412e-10	1.002621e+01	-1.906944e+01
2.170000e-06	1.450534e-06	-2.249707e-10	1.034004e+01	-1.499388e+01
2.180000e-06	1.494517e-06	-1.673790e-10	1.065357e+01	-1.085546e+01
2.190000e-06	1.538445e-06	-1.053755e-10	1.096671e+01	-6.661356e+00
2.200000e-06	1.582342e-06	-3.806176e-11	1.127963e+01	-2.419319e+00
2.210000e-06	1.626213e-06	3.281446e-11	1.159236e+01	1.862379e+00
2.220000e-06	1.669995e-06	1.044711e-10	1.190446e+01	6.175000e+00
2.230000e-06	1.713703e-06	1.746157e-10	1.221603e+01	1.050942e+01
2.240000e-06	1.757406e-06	2.411625e-10	1.252756e+01	1.485619e+01
2.250000e-06	1.801088e-06	3.049806e-10	1.283895e+01	1.920563e+01
2.260000e-06	1.844641e-06	3.691830e-10	1.314941e+01	2.354794e+01
2.270000e-06	1.888063e-06	4.330518e-10	1.345894e+01	2.787324e+01
2.280000e-06	1.931389e-06	4.980980e-10	1.376779e+01	3.217169e+01
2.290000e-06	1.974486e-06	5.656487e-10	1.407500e+01	3.643361e+01
2.300000e-06	2.017247e-06	6.326417e-10	1.437982e+01	4.064953e+01
2.310000e-06	2.059733e-06	6.981587e-10	1.468268e+01	4.481031e+01
2.320000e-06	2.102031e-06	7.606243e-10	1.498420e+01	4.890721e+01
2.330000e-06	2.144119e-06	8.171228e-10	1.528422e+01	5.293199e+01
2.340000e-06	2.185892e-06	8.718114e-10	1.558200e+01	5.687698e+01
2.350000e-06	2.227258e-06	9.257282e-10	1.587687e+01	6.073513e+01
2.360000e-06	2.268234e-06	9.802408e-10	1.616897e+01	6.450010e+01
2.370000e-06	2.308922e-06	1.033914e-09	1.645901e+01	6.816631e+01
2.380000e-06	2.349440e-06	1.086770e-09	1.674784e+01	7.172894e+01
2.390000e-06	2.389812e-06	1.138960e-09	1.703563e+01	7.518401e+01
2.400000e-06	2.430062e-06	1.185780e-09	1.732255e+01	7.852837e+01
2.410000e-06	2.470160e-06	1.225271e-09	1.760838e+01	8.175969e+01
2.420000e-06	2.510099e-06	1.262333e-09	1.789309e+01	8.487651e+01
2.430000e-06	2.549936e-06	1.303030e-09	1.817706e+01	8.787817e+01
2.440000e-06	2.589730e-06	1.347386e-09	1.846073e+01	9.076479e+01
2.450000e-06	2.629489e-06	1.390987e-09	1.874415e+01	9.353728e+01
2.460000e-06	2.669128e-06	1.430120e-09	1.902672e+01	9.619721e+01
2.470000e-06	2.708609e-06	1.469403e-09	1.930815e+01	9.874685e+01
2.480000e-06	2.747952e-06	1.505119e-09	1.958861e+01	1.011890e+02
2.490000e-06	2.787123e-06	1.532011e-09	1.986783e+01	1.035270e+02
2.500000e-06	2.826061e-06	1.554329e-09	2.014541e+01	1.057647e+02
2.510000e-06	2.864747e-06	1.578266e-09	2.042117e+01	1.079063e+02
2.520000e-06	2.903155e-06	1.610398e-09	2.069496e+01	1.099561e+02
2.530000e-06	2.941360e-06	1.646424e-09	2.096731e+01	1.119187e+02
2.540000e-06	2.979419e-06	1.676596e-09	2.123861e+01	1.137991e+02
2.550000e-06	3.017286e-06	1.704177e-09	2.150854e+01	1.156019e+02
2.560000e-06	3.054999e-06	1.732900e-09	2.177738e+01	1.173320e+02
2.570000e-06	3.092512e-06	1.757027e-09	2.204478e+01	1.189941e+02
2.580000e-06	3.129739e-06	1.772919e-09	2.231016e+01	1.205926e+02
2.590000e-06	3.166755e-06	1.785780e-09	2.257402e+01	1.221319e+02
2.600000e-06	3.203526e-06	1.805358e-09	2.283614e+01	1.236160e+02
2.610000e-06	3.239968e-06	1.830289e-09	2.309591e+01	1.250487e+02
2.620000e-06	3.276180e-06	1.854548e-09	2.335405e+01	1.264334e+02
2.630000e-06	3.312282e-06	1.878826e-09	2.361140e+01	1.277730e+02
2.640000e-06	3.348267e-06	1.905647e-09	2.386792e+01	1.290703e+02
2.650000e-06	3.384195e-06	1.928713e-09	2.412402e+01	1.303275e+02
2.660000e-06	3.420036e-06	1.940797e-09	2.437952e+01	1.315466e+02
2.670000e-06	3.455683e-06	1.947982e-09	2.463362e+01	1.327289e+02
2.680000e-06	3.491070e-06	1.959454e-09	2.488588e+01	1.338758e+02
2.690000e-06	3.526130e-06	1.975231e-09	2.513580e+01	1.349881e+02
2.700000e-06	3.560873e-06	1.990824e-09	2.538347e+01	1.360664e+02
2.710000e-06	3.595282e-06	2.004907e-09	2.562875e+01	1.371110e+02
2.720000e-06	3.629180e-06	2.022360e-09	2.587039e+01	1.381219e+02
2.730000e-06	3.662551e-06	2.045184e-09	2.610827e+01	1.390993e+02
2.740000e-06	3.695471e-06	2.064326e-09	2.634294e+01	1.400428e+02
2.750000e-06	3.728052e-06	2.074775e-09	2.657519e+01	1.409523e+02
2.760000e-06	3.760380e-06	2.082112e-09	2.680564e+01	1.418274e+02
2.770000e-06	3.792485e-06	2.093684e-09	2.703449e+01	1.426680e+02
2.780000e-06	3.824467e-06	2.108992e-09	2.726248e+01	1.434737e+02
2.790000e-06	3.856313e-06	2.122433e-09	2.748949e+01	1.442445e+02
2.800000e-06	3.888041e-06	2.134895e-09	2.771566e+01	1.449804e+02
2.810000e-06	3.919601e-06	2.149359e-09	2.794064e+01	1.456814e+02
2.820000e-06	3.950895e-06	2.163053e-09	2.816371e+01	1.463480e+02
2.830000e-06	3.981823e-06	2.171163e-09	2.838418e+01	1.469806e+02
2.840000e-06	4.012342e-06	2.174095e-09	2.860173e+01	1.475800e+02
2.850000e-06	4.042573e-06	2.178658e-09	2.881724e+01	1.481470e+02
2.860000e-06	4.072585e-06	2.187022e-09	2.903117e+01	1.486828e+02
2.870000e-06	4.102402e-06	2.198519e-09	2.924372e+01	1.491886e+02
2.880000e-06	4.131987e-06	2.209634e-09	2.945462e+01	1.496659e+02
2.890000e-06	4.161211e-06	2.216975e-09	2.966294e+01	1.501163e+02
2.900000e-06	4.190049e-06	2.220242e-09	2.986851e+01	1.505416e+02
