# Temperatura_=_14.22
# Concentracion g/m^3_=_4090.0
# C_Vs_to_Am_M_A/Vsm_=_65563218390.804596
# pendiente_HvsI_1/m_=_3716.3
# ordenada_HvsI_A/m_=_1297.0
# frecuencia_Hz_=_135081.18406898965

Tiempo_(s)	Campo_(V.s)	Magnetizacion_(V.s)	Campo_(kA/m)	Magnetizacion_(A/m)
0.000000e+00	-5.442353e-06	-2.650568e-09	-3.839700e+01	-1.724432e+02
1.000000e-08	-5.442420e-06	-2.649343e-09	-3.839748e+01	-1.724086e+02
2.000000e-08	-5.442226e-06	-2.645047e-09	-3.839610e+01	-1.723695e+02
3.000000e-08	-5.441874e-06	-2.643557e-09	-3.839362e+01	-1.723274e+02
4.000000e-08	-5.441255e-06	-2.643891e-09	-3.838925e+01	-1.722837e+02
5.000000e-08	-5.440138e-06	-2.638978e-09	-3.838137e+01	-1.722403e+02
6.000000e-08	-5.438426e-06	-2.635833e-09	-3.836930e+01	-1.721988e+02
7.000000e-08	-5.436074e-06	-2.640806e-09	-3.835270e+01	-1.721611e+02
8.000000e-08	-5.432938e-06	-2.626799e-09	-3.833058e+01	-1.721291e+02
9.000000e-08	-5.429179e-06	-2.630978e-09	-3.830405e+01	-1.721047e+02
1.000000e-07	-5.425077e-06	-2.678841e-09	-3.827512e+01	-1.720895e+02
1.100000e-07	-5.420661e-06	-2.671140e-09	-3.824396e+01	-1.720853e+02
1.200000e-07	-5.416097e-06	-2.610843e-09	-3.821176e+01	-1.720935e+02
1.300000e-07	-5.411459e-06	-2.585665e-09	-3.817904e+01	-1.721154e+02
1.400000e-07	-5.406432e-06	-2.649759e-09	-3.814357e+01	-1.721522e+02
1.500000e-07	-5.400836e-06	-2.667245e-09	-3.810409e+01	-1.722047e+02
1.600000e-07	-5.394870e-06	-2.560663e-09	-3.806200e+01	-1.722734e+02
1.700000e-07	-5.388559e-06	-2.564295e-09	-3.801748e+01	-1.723586e+02
1.800000e-07	-5.381842e-06	-2.633642e-09	-3.797008e+01	-1.724602e+02
1.900000e-07	-5.374813e-06	-2.685279e-09	-3.792049e+01	-1.725779e+02
2.000000e-07	-5.367391e-06	-2.581438e-09	-3.786813e+01	-1.727110e+02
2.100000e-07	-5.359729e-06	-2.595925e-09	-3.781407e+01	-1.728585e+02
2.200000e-07	-5.351857e-06	-2.646413e-09	-3.775853e+01	-1.730190e+02
2.300000e-07	-5.343658e-06	-2.659850e-09	-3.770069e+01	-1.731910e+02
2.400000e-07	-5.335231e-06	-2.604499e-09	-3.764123e+01	-1.733727e+02
2.500000e-07	-5.326351e-06	-2.653530e-09	-3.757858e+01	-1.735619e+02
2.600000e-07	-5.316655e-06	-2.711045e-09	-3.751018e+01	-1.737564e+02
2.700000e-07	-5.306196e-06	-2.692810e-09	-3.743639e+01	-1.739537e+02
2.800000e-07	-5.295212e-06	-2.686169e-09	-3.735889e+01	-1.741514e+02
2.900000e-07	-5.283808e-06	-2.734025e-09	-3.727843e+01	-1.743467e+02
3.000000e-07	-5.271986e-06	-2.728021e-09	-3.719503e+01	-1.745371e+02
3.100000e-07	-5.259808e-06	-2.664225e-09	-3.710911e+01	-1.747199e+02
3.200000e-07	-5.247298e-06	-2.705703e-09	-3.702085e+01	-1.748925e+02
3.300000e-07	-5.234367e-06	-2.736520e-09	-3.692962e+01	-1.750526e+02
3.400000e-07	-5.221028e-06	-2.713979e-09	-3.683551e+01	-1.751977e+02
3.500000e-07	-5.207364e-06	-2.671361e-09	-3.673910e+01	-1.753259e+02
3.600000e-07	-5.193415e-06	-2.715982e-09	-3.664069e+01	-1.754351e+02
3.700000e-07	-5.179173e-06	-2.701591e-09	-3.654021e+01	-1.755237e+02
3.800000e-07	-5.164368e-06	-2.685970e-09	-3.643575e+01	-1.755904e+02
3.900000e-07	-5.148731e-06	-2.675159e-09	-3.632543e+01	-1.756341e+02
4.000000e-07	-5.132513e-06	-2.690025e-09	-3.621101e+01	-1.756539e+02
4.100000e-07	-5.115857e-06	-2.666431e-09	-3.609350e+01	-1.756495e+02
4.200000e-07	-5.098865e-06	-2.689589e-09	-3.597362e+01	-1.756206e+02
4.300000e-07	-5.081677e-06	-2.683444e-09	-3.585235e+01	-1.755674e+02
4.400000e-07	-5.064114e-06	-2.666217e-09	-3.572844e+01	-1.754904e+02
4.500000e-07	-5.046241e-06	-2.645795e-09	-3.560234e+01	-1.753902e+02
4.600000e-07	-5.028132e-06	-2.672703e-09	-3.547458e+01	-1.752680e+02
4.700000e-07	-5.009606e-06	-2.657260e-09	-3.534388e+01	-1.751247e+02
4.800000e-07	-4.990645e-06	-2.646190e-09	-3.521010e+01	-1.749620e+02
4.900000e-07	-4.971286e-06	-2.644812e-09	-3.507352e+01	-1.747813e+02
5.000000e-07	-4.951573e-06	-2.665748e-09	-3.493444e+01	-1.745844e+02
5.100000e-07	-4.931635e-06	-2.658927e-09	-3.479378e+01	-1.743731e+02
5.200000e-07	-4.911508e-06	-2.647535e-09	-3.465178e+01	-1.741493e+02
5.300000e-07	-4.891133e-06	-2.637127e-09	-3.450802e+01	-1.739148e+02
5.400000e-07	-4.870524e-06	-2.644926e-09	-3.436262e+01	-1.736716e+02
5.500000e-07	-4.849583e-06	-2.643234e-09	-3.421488e+01	-1.734214e+02
5.600000e-07	-4.828260e-06	-2.628648e-09	-3.406444e+01	-1.731661e+02
5.700000e-07	-4.806532e-06	-2.622362e-09	-3.391115e+01	-1.729073e+02
5.800000e-07	-4.784394e-06	-2.627893e-09	-3.375495e+01	-1.726465e+02
5.900000e-07	-4.761945e-06	-2.628481e-09	-3.359657e+01	-1.723852e+02
6.000000e-07	-4.739315e-06	-2.619633e-09	-3.343691e+01	-1.721244e+02
6.100000e-07	-4.716439e-06	-2.616954e-09	-3.327552e+01	-1.718652e+02
6.200000e-07	-4.693175e-06	-2.604378e-09	-3.311138e+01	-1.716084e+02
6.300000e-07	-4.669580e-06	-2.603926e-09	-3.294492e+01	-1.713547e+02
6.400000e-07	-4.645682e-06	-2.597451e-09	-3.277631e+01	-1.711044e+02
6.500000e-07	-4.621539e-06	-2.588471e-09	-3.260598e+01	-1.708578e+02
6.600000e-07	-4.597239e-06	-2.574519e-09	-3.243454e+01	-1.706149e+02
6.700000e-07	-4.572694e-06	-2.583602e-09	-3.226137e+01	-1.703756e+02
6.800000e-07	-4.547713e-06	-2.575956e-09	-3.208512e+01	-1.701396e+02
6.900000e-07	-4.522274e-06	-2.567618e-09	-3.190564e+01	-1.699065e+02
7.000000e-07	-4.496396e-06	-2.556919e-09	-3.172307e+01	-1.696756e+02
7.100000e-07	-4.469937e-06	-2.563423e-09	-3.153639e+01	-1.694464e+02
7.200000e-07	-4.442937e-06	-2.557144e-09	-3.134590e+01	-1.692181e+02
7.300000e-07	-4.415528e-06	-2.557713e-09	-3.115252e+01	-1.689899e+02
7.400000e-07	-4.387759e-06	-2.544691e-09	-3.095661e+01	-1.687609e+02
7.500000e-07	-4.359801e-06	-2.539673e-09	-3.075936e+01	-1.685304e+02
7.600000e-07	-4.331699e-06	-2.530909e-09	-3.056109e+01	-1.682975e+02
7.700000e-07	-4.303399e-06	-2.528702e-09	-3.036143e+01	-1.680614e+02
7.800000e-07	-4.274891e-06	-2.519436e-09	-3.016030e+01	-1.678212e+02
7.900000e-07	-4.246110e-06	-2.525421e-09	-2.995724e+01	-1.675764e+02
8.000000e-07	-4.217005e-06	-2.527485e-09	-2.975190e+01	-1.673262e+02
8.100000e-07	-4.187562e-06	-2.522411e-09	-2.954417e+01	-1.670700e+02
8.200000e-07	-4.157840e-06	-2.509677e-09	-2.933448e+01	-1.668074e+02
8.300000e-07	-4.127874e-06	-2.501569e-09	-2.912306e+01	-1.665380e+02
8.400000e-07	-4.097599e-06	-2.492315e-09	-2.890947e+01	-1.662614e+02
8.500000e-07	-4.067001e-06	-2.484688e-09	-2.869359e+01	-1.659775e+02
8.600000e-07	-4.036203e-06	-2.478305e-09	-2.847630e+01	-1.656860e+02
8.700000e-07	-4.005070e-06	-2.477251e-09	-2.825665e+01	-1.653870e+02
8.800000e-07	-3.973573e-06	-2.479605e-09	-2.803444e+01	-1.650805e+02
8.900000e-07	-3.941935e-06	-2.476790e-09	-2.781122e+01	-1.647664e+02
9.000000e-07	-3.910068e-06	-2.471038e-09	-2.758639e+01	-1.644451e+02
9.100000e-07	-3.877998e-06	-2.461687e-09	-2.736014e+01	-1.641166e+02
9.200000e-07	-3.845805e-06	-2.458411e-09	-2.713300e+01	-1.637812e+02
9.300000e-07	-3.813407e-06	-2.451797e-09	-2.690443e+01	-1.634391e+02
9.400000e-07	-3.780717e-06	-2.444336e-09	-2.667379e+01	-1.630906e+02
9.500000e-07	-3.747743e-06	-2.431812e-09	-2.644115e+01	-1.627361e+02
9.600000e-07	-3.714503e-06	-2.427797e-09	-2.620664e+01	-1.623757e+02
9.700000e-07	-3.680798e-06	-2.425461e-09	-2.596884e+01	-1.620097e+02
9.800000e-07	-3.646422e-06	-2.427771e-09	-2.572631e+01	-1.616385e+02
9.900000e-07	-3.611563e-06	-2.421172e-09	-2.548038e+01	-1.612622e+02
1.000000e-06	-3.576498e-06	-2.418829e-09	-2.523298e+01	-1.608810e+02
1.010000e-06	-3.541171e-06	-2.414705e-09	-2.498374e+01	-1.604953e+02
1.020000e-06	-3.505489e-06	-2.411977e-09	-2.473200e+01	-1.601051e+02
1.030000e-06	-3.469579e-06	-2.398468e-09	-2.447865e+01	-1.597106e+02
1.040000e-06	-3.433560e-06	-2.386593e-09	-2.422452e+01	-1.593119e+02
1.050000e-06	-3.397448e-06	-2.375728e-09	-2.396974e+01	-1.589092e+02
1.060000e-06	-3.361225e-06	-2.370928e-09	-2.371418e+01	-1.585024e+02
1.070000e-06	-3.324820e-06	-2.364862e-09	-2.345734e+01	-1.580918e+02
1.080000e-06	-3.288179e-06	-2.362968e-09	-2.319883e+01	-1.576772e+02
1.090000e-06	-3.251305e-06	-2.358372e-09	-2.293867e+01	-1.572588e+02
1.100000e-06	-3.214104e-06	-2.353139e-09	-2.267621e+01	-1.568366e+02
1.110000e-06	-3.176618e-06	-2.342784e-09	-2.241174e+01	-1.564106e+02
1.120000e-06	-3.138988e-06	-2.331983e-09	-2.214625e+01	-1.559807e+02
1.130000e-06	-3.101131e-06	-2.322919e-09	-2.187917e+01	-1.555471e+02
1.140000e-06	-3.063049e-06	-2.316108e-09	-2.161049e+01	-1.551096e+02
1.150000e-06	-3.024761e-06	-2.311693e-09	-2.134036e+01	-1.546682e+02
1.160000e-06	-2.986242e-06	-2.310770e-09	-2.106860e+01	-1.542228e+02
1.170000e-06	-2.947595e-06	-2.309975e-09	-2.079593e+01	-1.537735e+02
1.180000e-06	-2.908714e-06	-2.302609e-09	-2.052162e+01	-1.533201e+02
1.190000e-06	-2.869524e-06	-2.291796e-09	-2.024513e+01	-1.528624e+02
1.200000e-06	-2.830124e-06	-2.280931e-09	-1.996715e+01	-1.524004e+02
1.210000e-06	-2.790548e-06	-2.269329e-09	-1.968793e+01	-1.519339e+02
1.220000e-06	-2.750837e-06	-2.254359e-09	-1.940776e+01	-1.514625e+02
1.230000e-06	-2.711001e-06	-2.245193e-09	-1.912671e+01	-1.509860e+02
1.240000e-06	-2.671011e-06	-2.240848e-09	-1.884457e+01	-1.505041e+02
1.250000e-06	-2.630945e-06	-2.237999e-09	-1.856190e+01	-1.500163e+02
1.260000e-06	-2.590839e-06	-2.226505e-09	-1.827894e+01	-1.495221e+02
1.270000e-06	-2.550633e-06	-2.213993e-09	-1.799528e+01	-1.490211e+02
1.280000e-06	-2.510269e-06	-2.201162e-09	-1.771050e+01	-1.485126e+02
1.290000e-06	-2.469822e-06	-2.189437e-09	-1.742514e+01	-1.479958e+02
1.300000e-06	-2.429164e-06	-2.174313e-09	-1.713829e+01	-1.474702e+02
1.310000e-06	-2.388231e-06	-2.166307e-09	-1.684950e+01	-1.469347e+02
1.320000e-06	-2.347119e-06	-2.160624e-09	-1.655944e+01	-1.463887e+02
1.330000e-06	-2.305681e-06	-2.152242e-09	-1.626709e+01	-1.458311e+02
1.340000e-06	-2.263944e-06	-2.137213e-09	-1.597262e+01	-1.452610e+02
1.350000e-06	-2.221940e-06	-2.123201e-09	-1.567627e+01	-1.446774e+02
1.360000e-06	-2.179585e-06	-2.111517e-09	-1.537745e+01	-1.440792e+02
1.370000e-06	-2.136888e-06	-2.103661e-09	-1.507622e+01	-1.434656e+02
1.380000e-06	-2.093960e-06	-2.095543e-09	-1.477335e+01	-1.428355e+02
1.390000e-06	-2.050799e-06	-2.083962e-09	-1.446884e+01	-1.421878e+02
1.400000e-06	-2.007428e-06	-2.073371e-09	-1.416284e+01	-1.415217e+02
1.410000e-06	-1.963914e-06	-2.066175e-09	-1.385585e+01	-1.408363e+02
1.420000e-06	-1.920308e-06	-2.054714e-09	-1.354820e+01	-1.401307e+02
1.430000e-06	-1.876580e-06	-2.037440e-09	-1.323969e+01	-1.394042e+02
1.440000e-06	-1.832744e-06	-2.021971e-09	-1.293041e+01	-1.386562e+02
1.450000e-06	-1.788898e-06	-2.013562e-09	-1.262107e+01	-1.378860e+02
1.460000e-06	-1.744978e-06	-2.004251e-09	-1.231121e+01	-1.370931e+02
1.470000e-06	-1.700941e-06	-1.985282e-09	-1.200052e+01	-1.362773e+02
1.480000e-06	-1.656819e-06	-1.965415e-09	-1.168922e+01	-1.354382e+02
1.490000e-06	-1.612602e-06	-1.952500e-09	-1.137726e+01	-1.345756e+02
1.500000e-06	-1.568297e-06	-1.942196e-09	-1.106468e+01	-1.336896e+02
1.510000e-06	-1.523902e-06	-1.924665e-09	-1.075146e+01	-1.327800e+02
1.520000e-06	-1.479417e-06	-1.903141e-09	-1.043761e+01	-1.318471e+02
1.530000e-06	-1.434892e-06	-1.886740e-09	-1.012348e+01	-1.308909e+02
1.540000e-06	-1.390292e-06	-1.875926e-09	-9.808818e+00	-1.299116e+02
1.550000e-06	-1.345633e-06	-1.859698e-09	-9.493736e+00	-1.289094e+02
1.560000e-06	-1.300848e-06	-1.837596e-09	-9.177771e+00	-1.278845e+02
1.570000e-06	-1.255963e-06	-1.819807e-09	-8.861096e+00	-1.268371e+02
1.580000e-06	-1.210982e-06	-1.808592e-09	-8.543748e+00	-1.257674e+02
1.590000e-06	-1.165792e-06	-1.793600e-09	-8.224920e+00	-1.246753e+02
1.600000e-06	-1.120494e-06	-1.775255e-09	-7.905335e+00	-1.235608e+02
1.610000e-06	-1.075209e-06	-1.758426e-09	-7.585837e+00	-1.224237e+02
1.620000e-06	-1.029887e-06	-1.746978e-09	-7.266078e+00	-1.212638e+02
1.630000e-06	-9.845210e-07	-1.732273e-09	-6.946013e+00	-1.200805e+02
1.640000e-06	-9.390604e-07	-1.709269e-09	-6.625278e+00	-1.188732e+02
1.650000e-06	-8.934849e-07	-1.686011e-09	-6.303733e+00	-1.176410e+02
1.660000e-06	-8.478827e-07	-1.670032e-09	-5.982000e+00	-1.163828e+02
1.670000e-06	-8.022065e-07	-1.656074e-09	-5.659744e+00	-1.150974e+02
1.680000e-06	-7.564712e-07	-1.636365e-09	-5.337072e+00	-1.137832e+02
1.690000e-06	-7.107280e-07	-1.613434e-09	-5.014343e+00	-1.124385e+02
1.700000e-06	-6.649897e-07	-1.596219e-09	-4.691649e+00	-1.110614e+02
1.710000e-06	-6.191852e-07	-1.579277e-09	-4.368488e+00	-1.096497e+02
1.720000e-06	-5.733175e-07	-1.554696e-09	-4.044882e+00	-1.082012e+02
1.730000e-06	-5.274444e-07	-1.526558e-09	-3.721237e+00	-1.067135e+02
1.740000e-06	-4.815219e-07	-1.504553e-09	-3.397244e+00	-1.051839e+02
1.750000e-06	-4.354883e-07	-1.485341e-09	-3.072466e+00	-1.036098e+02
1.760000e-06	-3.894377e-07	-1.462224e-09	-2.747569e+00	-1.019884e+02
1.770000e-06	-3.434239e-07	-1.435198e-09	-2.422931e+00	-1.003170e+02
1.780000e-06	-2.973680e-07	-1.410152e-09	-2.097997e+00	-9.859282e+01
1.790000e-06	-2.512142e-07	-1.388002e-09	-1.772372e+00	-9.681321e+01
1.800000e-06	-2.050056e-07	-1.360258e-09	-1.446360e+00	-9.497557e+01
1.810000e-06	-1.588426e-07	-1.327404e-09	-1.120669e+00	-9.307743e+01
1.820000e-06	-1.127739e-07	-1.296878e-09	-7.956450e-01	-9.111653e+01
1.830000e-06	-6.657980e-08	-1.269848e-09	-4.697352e-01	-8.909082e+01
1.840000e-06	-2.033206e-08	-1.240985e-09	-1.434472e-01	-8.699849e+01
1.850000e-06	2.579000e-08	-1.206641e-09	1.819542e-01	-8.483804e+01
1.860000e-06	7.191095e-08	-1.171693e-09	5.073476e-01	-8.260826e+01
1.870000e-06	1.180041e-07	-1.143030e-09	8.325450e-01	-8.030831e+01
1.880000e-06	1.641180e-07	-1.111648e-09	1.157888e+00	-7.793770e+01
1.890000e-06	2.102963e-07	-1.071981e-09	1.483687e+00	-7.549629e+01
1.900000e-06	2.564174e-07	-1.028971e-09	1.809081e+00	-7.298436e+01
1.910000e-06	3.024097e-07	-9.894955e-10	2.133567e+00	-7.040255e+01
1.920000e-06	3.483955e-07	-9.494177e-10	2.458007e+00	-6.775190e+01
1.930000e-06	3.944047e-07	-9.065690e-10	2.782612e+00	-6.503380e+01
1.940000e-06	4.404222e-07	-8.624650e-10	3.107276e+00	-6.225001e+01
1.950000e-06	4.864549e-07	-8.247263e-10	3.432047e+00	-5.940263e+01
1.960000e-06	5.324102e-07	-7.891340e-10	3.756271e+00	-5.649405e+01
1.970000e-06	5.782971e-07	-7.455821e-10	4.080014e+00	-5.352695e+01
1.980000e-06	6.241945e-07	-6.951219e-10	4.403830e+00	-5.050427e+01
1.990000e-06	6.700441e-07	-6.436584e-10	4.727309e+00	-4.742914e+01
2.000000e-06	7.157822e-07	-5.964057e-10	5.050002e+00	-4.430487e+01
2.010000e-06	7.614859e-07	-5.491871e-10	5.372451e+00	-4.113491e+01
2.020000e-06	8.071425e-07	-5.007277e-10	5.694569e+00	-3.792278e+01
2.030000e-06	8.527513e-07	-4.561318e-10	6.016349e+00	-3.467209e+01
2.040000e-06	8.983318e-07	-4.156574e-10	6.337929e+00	-3.138643e+01
2.050000e-06	9.438143e-07	-3.711885e-10	6.658818e+00	-2.806939e+01
2.060000e-06	9.892240e-07	-3.191181e-10	6.979194e+00	-2.472449e+01
2.070000e-06	1.034532e-06	-2.641397e-10	7.298851e+00	-2.135518e+01
2.080000e-06	1.079762e-06	-2.119047e-10	7.617963e+00	-1.796479e+01
2.090000e-06	1.124903e-06	-1.637183e-10	7.936442e+00	-1.455654e+01
2.100000e-06	1.169938e-06	-1.156858e-10	8.254173e+00	-1.113348e+01
2.110000e-06	1.214896e-06	-6.722486e-11	8.571360e+00	-7.698530e+00
2.120000e-06	1.259837e-06	-1.928976e-11	8.888428e+00	-4.254423e+00
2.130000e-06	1.304711e-06	2.944443e-11	9.205024e+00	-8.037454e-01
2.140000e-06	1.349390e-06	8.222096e-11	9.520242e+00	2.651075e+00
2.150000e-06	1.394001e-06	1.391816e-10	9.834986e+00	6.107760e+00
2.160000e-06	1.438494e-06	1.947563e-10	1.014889e+01	9.564163e+00
2.170000e-06	1.482883e-06	2.461597e-10	1.046207e+01	1.301825e+01
2.180000e-06	1.527219e-06	2.989163e-10	1.077487e+01	1.646810e+01
2.190000e-06	1.571540e-06	3.526221e-10	1.108756e+01	1.991183e+01
2.200000e-06	1.615814e-06	4.008284e-10	1.139992e+01	2.334764e+01
2.210000e-06	1.659938e-06	4.455961e-10	1.171123e+01	2.677373e+01
2.220000e-06	1.703970e-06	4.923655e-10	1.202188e+01	3.018831e+01
2.230000e-06	1.747918e-06	5.427686e-10	1.233195e+01	3.358955e+01
2.240000e-06	1.791853e-06	5.932569e-10	1.264192e+01	3.697559e+01
2.250000e-06	1.835779e-06	6.438270e-10	1.295183e+01	4.034447e+01
2.260000e-06	1.879560e-06	6.946170e-10	1.326071e+01	4.369416e+01
2.270000e-06	1.923224e-06	7.469077e-10	1.356877e+01	4.702252e+01
2.280000e-06	1.966815e-06	7.971778e-10	1.387631e+01	5.032732e+01
2.290000e-06	2.010325e-06	8.400431e-10	1.418329e+01	5.360618e+01
2.300000e-06	2.053674e-06	8.819725e-10	1.448912e+01	5.685664e+01
2.310000e-06	2.096666e-06	9.263232e-10	1.479244e+01	6.007608e+01
2.320000e-06	2.139398e-06	9.721083e-10	1.509392e+01	6.326184e+01
2.330000e-06	2.181865e-06	1.016115e-09	1.539354e+01	6.641113e+01
2.340000e-06	2.224094e-06	1.055865e-09	1.569147e+01	6.952110e+01
2.350000e-06	2.266103e-06	1.098803e-09	1.598786e+01	7.258889e+01
2.360000e-06	2.307821e-06	1.146299e-09	1.628219e+01	7.561159e+01
2.370000e-06	2.349215e-06	1.191162e-09	1.657423e+01	7.858633e+01
2.380000e-06	2.390310e-06	1.230539e-09	1.686416e+01	8.151029e+01
2.390000e-06	2.431167e-06	1.270914e-09	1.715242e+01	8.438072e+01
2.400000e-06	2.471856e-06	1.310292e-09	1.743949e+01	8.719502e+01
2.410000e-06	2.512439e-06	1.343940e-09	1.772581e+01	8.995073e+01
2.420000e-06	2.552792e-06	1.374256e-09	1.801051e+01	9.264560e+01
2.430000e-06	2.593005e-06	1.408907e-09	1.829422e+01	9.527761e+01
2.440000e-06	2.633194e-06	1.450190e-09	1.857777e+01	9.784497e+01
2.450000e-06	2.673280e-06	1.492379e-09	1.886058e+01	1.003462e+02
2.460000e-06	2.713210e-06	1.530608e-09	1.914229e+01	1.027802e+02
2.470000e-06	2.753017e-06	1.565748e-09	1.942314e+01	1.051460e+02
2.480000e-06	2.792718e-06	1.597627e-09	1.970324e+01	1.074432e+02
2.490000e-06	2.832206e-06	1.623502e-09	1.998184e+01	1.096716e+02
2.500000e-06	2.871436e-06	1.645759e-09	2.025861e+01	1.118314e+02
2.510000e-06	2.910460e-06	1.672339e-09	2.053394e+01	1.139232e+02
2.520000e-06	2.949242e-06	1.705229e-09	2.080756e+01	1.159478e+02
2.530000e-06	2.987776e-06	1.739225e-09	2.107942e+01	1.179064e+02
2.540000e-06	3.026115e-06	1.768734e-09	2.134991e+01	1.198005e+02
2.550000e-06	3.064286e-06	1.796761e-09	2.161921e+01	1.216319e+02
2.560000e-06	3.102267e-06	1.825989e-09	2.188718e+01	1.234026e+02
2.570000e-06	3.140044e-06	1.850079e-09	2.215370e+01	1.251147e+02
2.580000e-06	3.177606e-06	1.867632e-09	2.241871e+01	1.267706e+02
2.590000e-06	3.214877e-06	1.885155e-09	2.268167e+01	1.283727e+02
2.600000e-06	3.251894e-06	1.908636e-09	2.294283e+01	1.299236e+02
2.610000e-06	3.288697e-06	1.933020e-09	2.320248e+01	1.314259e+02
2.620000e-06	3.325263e-06	1.954743e-09	2.346046e+01	1.328819e+02
2.630000e-06	3.361649e-06	1.978284e-09	2.371718e+01	1.342944e+02
2.640000e-06	3.397893e-06	2.005511e-09	2.397289e+01	1.356656e+02
2.650000e-06	3.433978e-06	2.029023e-09	2.422748e+01	1.369978e+02
2.660000e-06	3.469948e-06	2.044198e-09	2.448125e+01	1.382930e+02
2.670000e-06	3.505835e-06	2.056928e-09	2.473444e+01	1.395533e+02
2.680000e-06	3.541519e-06	2.073628e-09	2.498620e+01	1.407802e+02
2.690000e-06	3.576917e-06	2.090423e-09	2.523594e+01	1.419751e+02
2.700000e-06	3.611991e-06	2.103658e-09	2.548339e+01	1.431394e+02
2.710000e-06	3.646672e-06	2.117132e-09	2.572808e+01	1.442739e+02
2.720000e-06	3.680926e-06	2.137125e-09	2.596974e+01	1.453793e+02
2.730000e-06	3.714754e-06	2.159152e-09	2.620841e+01	1.464562e+02
2.740000e-06	3.748107e-06	2.175086e-09	2.644372e+01	1.475047e+02
2.750000e-06	3.781012e-06	2.189072e-09	2.667588e+01	1.485249e+02
2.760000e-06	3.813578e-06	2.208484e-09	2.690563e+01	1.495167e+02
2.770000e-06	3.845998e-06	2.229774e-09	2.713436e+01	1.504797e+02
2.780000e-06	3.878267e-06	2.244715e-09	2.736203e+01	1.514135e+02
2.790000e-06	3.910320e-06	2.252819e-09	2.758817e+01	1.523177e+02
2.800000e-06	3.942207e-06	2.262642e-09	2.781314e+01	1.531917e+02
2.810000e-06	3.973932e-06	2.276237e-09	2.803697e+01	1.540349e+02
2.820000e-06	4.005343e-06	2.287571e-09	2.825858e+01	1.548468e+02
2.830000e-06	4.036397e-06	2.295156e-09	2.847767e+01	1.556270e+02
2.840000e-06	4.067155e-06	2.304507e-09	2.869468e+01	1.563749e+02
2.850000e-06	4.097662e-06	2.319855e-09	2.890991e+01	1.570905e+02
2.860000e-06	4.127888e-06	2.334808e-09	2.912316e+01	1.577735e+02
2.870000e-06	4.157816e-06	2.343468e-09	2.933431e+01	1.584240e+02
2.880000e-06	4.187589e-06	2.349057e-09	2.954437e+01	1.590424e+02
2.890000e-06	4.217086e-06	2.354371e-09	2.975248e+01	1.596291e+02
2.900000e-06	4.246285e-06	2.358872e-09	2.995848e+01	1.601848e+02
