# Temperatura_=_6.81
# Concentracion g/m^3_=_4090.0
# C_Vs_to_Am_M_A/Vsm_=_65563218390.804596
# pendiente_HvsI_1/m_=_3716.3
# ordenada_HvsI_A/m_=_1297.0
# frecuencia_Hz_=_135083.01015823727

Tiempo_(s)	Campo_(V.s)	Magnetizacion_(V.s)	Campo_(kA/m)	Magnetizacion_(A/m)
0.000000e+00	-5.427970e-06	-2.580003e-09	-3.839171e+01	-1.665492e+02
1.000000e-08	-5.428034e-06	-2.582206e-09	-3.839216e+01	-1.664998e+02
2.000000e-08	-5.427850e-06	-2.590901e-09	-3.839086e+01	-1.664493e+02
3.000000e-08	-5.427329e-06	-2.600144e-09	-3.838717e+01	-1.663995e+02
4.000000e-08	-5.426401e-06	-2.602424e-09	-3.838061e+01	-1.663521e+02
5.000000e-08	-5.424983e-06	-2.603675e-09	-3.837058e+01	-1.663089e+02
6.000000e-08	-5.422903e-06	-2.605428e-09	-3.835587e+01	-1.662719e+02
7.000000e-08	-5.420182e-06	-2.578373e-09	-3.833662e+01	-1.662430e+02
8.000000e-08	-5.416911e-06	-2.514410e-09	-3.831349e+01	-1.662238e+02
9.000000e-08	-5.413107e-06	-2.523607e-09	-3.828658e+01	-1.662162e+02
1.000000e-07	-5.408868e-06	-2.639120e-09	-3.825660e+01	-1.662217e+02
1.100000e-07	-5.404352e-06	-2.667827e-09	-3.822466e+01	-1.662418e+02
1.200000e-07	-5.399736e-06	-2.532731e-09	-3.819201e+01	-1.662777e+02
1.300000e-07	-5.394949e-06	-2.495949e-09	-3.815815e+01	-1.663303e+02
1.400000e-07	-5.389713e-06	-2.637471e-09	-3.812112e+01	-1.664005e+02
1.500000e-07	-5.383993e-06	-2.687145e-09	-3.808066e+01	-1.664887e+02
1.600000e-07	-5.377949e-06	-2.493888e-09	-3.803791e+01	-1.665951e+02
1.700000e-07	-5.371567e-06	-2.405941e-09	-3.799277e+01	-1.667195e+02
1.800000e-07	-5.364773e-06	-2.598401e-09	-3.794472e+01	-1.668615e+02
1.900000e-07	-5.357566e-06	-2.668144e-09	-3.789374e+01	-1.670203e+02
2.000000e-07	-5.350154e-06	-2.549762e-09	-3.784132e+01	-1.671948e+02
2.100000e-07	-5.342626e-06	-2.512336e-09	-3.778807e+01	-1.673838e+02
2.200000e-07	-5.334820e-06	-2.637786e-09	-3.773286e+01	-1.675854e+02
2.300000e-07	-5.326647e-06	-2.602800e-09	-3.767506e+01	-1.677979e+02
2.400000e-07	-5.318053e-06	-2.518885e-09	-3.761427e+01	-1.680192e+02
2.500000e-07	-5.308829e-06	-2.589596e-09	-3.754903e+01	-1.682468e+02
2.600000e-07	-5.298845e-06	-2.669266e-09	-3.747841e+01	-1.684784e+02
2.700000e-07	-5.288199e-06	-2.593835e-09	-3.740312e+01	-1.687114e+02
2.800000e-07	-5.277046e-06	-2.587299e-09	-3.732423e+01	-1.689431e+02
2.900000e-07	-5.265558e-06	-2.704402e-09	-3.724298e+01	-1.691709e+02
3.000000e-07	-5.253710e-06	-2.682162e-09	-3.715918e+01	-1.693920e+02
3.100000e-07	-5.241461e-06	-2.557470e-09	-3.707254e+01	-1.696039e+02
3.200000e-07	-5.228835e-06	-2.599247e-09	-3.698324e+01	-1.698040e+02
3.300000e-07	-5.215856e-06	-2.710053e-09	-3.689143e+01	-1.699900e+02
3.400000e-07	-5.202494e-06	-2.649617e-09	-3.679693e+01	-1.701597e+02
3.500000e-07	-5.188680e-06	-2.591653e-09	-3.669922e+01	-1.703111e+02
3.600000e-07	-5.174476e-06	-2.647077e-09	-3.659876e+01	-1.704425e+02
3.700000e-07	-5.159902e-06	-2.669955e-09	-3.649568e+01	-1.705524e+02
3.800000e-07	-5.144832e-06	-2.615882e-09	-3.638909e+01	-1.706396e+02
3.900000e-07	-5.129169e-06	-2.627755e-09	-3.627831e+01	-1.707033e+02
4.000000e-07	-5.112922e-06	-2.624910e-09	-3.616339e+01	-1.707428e+02
4.100000e-07	-5.096313e-06	-2.599062e-09	-3.604592e+01	-1.707579e+02
4.200000e-07	-5.079364e-06	-2.632889e-09	-3.592604e+01	-1.707487e+02
4.300000e-07	-5.062037e-06	-2.672606e-09	-3.580348e+01	-1.707154e+02
4.400000e-07	-5.044477e-06	-2.605874e-09	-3.567928e+01	-1.706588e+02
4.500000e-07	-5.026629e-06	-2.583069e-09	-3.555304e+01	-1.705797e+02
4.600000e-07	-5.008335e-06	-2.631663e-09	-3.542365e+01	-1.704793e+02
4.700000e-07	-4.989621e-06	-2.632973e-09	-3.529129e+01	-1.703589e+02
4.800000e-07	-4.970567e-06	-2.579374e-09	-3.515652e+01	-1.702201e+02
4.900000e-07	-4.951174e-06	-2.588479e-09	-3.501936e+01	-1.700646e+02
5.000000e-07	-4.931506e-06	-2.615094e-09	-3.488024e+01	-1.698941e+02
5.100000e-07	-4.911577e-06	-2.621756e-09	-3.473929e+01	-1.697107e+02
5.200000e-07	-4.891426e-06	-2.608508e-09	-3.459677e+01	-1.695162e+02
5.300000e-07	-4.871049e-06	-2.581713e-09	-3.445264e+01	-1.693126e+02
5.400000e-07	-4.850329e-06	-2.566282e-09	-3.430608e+01	-1.691018e+02
5.500000e-07	-4.829239e-06	-2.592611e-09	-3.415692e+01	-1.688856e+02
5.600000e-07	-4.807728e-06	-2.594642e-09	-3.400477e+01	-1.686658e+02
5.700000e-07	-4.785937e-06	-2.561320e-09	-3.385065e+01	-1.684440e+02
5.800000e-07	-4.763895e-06	-2.558470e-09	-3.369474e+01	-1.682218e+02
5.900000e-07	-4.741590e-06	-2.583265e-09	-3.353698e+01	-1.680004e+02
6.000000e-07	-4.718959e-06	-2.581919e-09	-3.337691e+01	-1.677810e+02
6.100000e-07	-4.695806e-06	-2.555475e-09	-3.321315e+01	-1.675644e+02
6.200000e-07	-4.672307e-06	-2.536485e-09	-3.304694e+01	-1.673515e+02
6.300000e-07	-4.648646e-06	-2.535651e-09	-3.287959e+01	-1.671428e+02
6.400000e-07	-4.624812e-06	-2.551205e-09	-3.271102e+01	-1.669385e+02
6.500000e-07	-4.600709e-06	-2.546187e-09	-3.254054e+01	-1.667388e+02
6.600000e-07	-4.576347e-06	-2.526616e-09	-3.236823e+01	-1.665436e+02
6.700000e-07	-4.551645e-06	-2.524256e-09	-3.219352e+01	-1.663526e+02
6.800000e-07	-4.526489e-06	-2.541407e-09	-3.201559e+01	-1.661654e+02
6.900000e-07	-4.500813e-06	-2.532553e-09	-3.183398e+01	-1.659815e+02
7.000000e-07	-4.474677e-06	-2.508430e-09	-3.164912e+01	-1.658001e+02
7.100000e-07	-4.448074e-06	-2.494554e-09	-3.146096e+01	-1.656205e+02
7.200000e-07	-4.420932e-06	-2.505838e-09	-3.126899e+01	-1.654417e+02
7.300000e-07	-4.393453e-06	-2.512194e-09	-3.107463e+01	-1.652630e+02
7.400000e-07	-4.365756e-06	-2.503874e-09	-3.087873e+01	-1.650832e+02
7.500000e-07	-4.337879e-06	-2.487901e-09	-3.068156e+01	-1.649015e+02
7.600000e-07	-4.309845e-06	-2.491051e-09	-3.048328e+01	-1.647169e+02
7.700000e-07	-4.281568e-06	-2.492773e-09	-3.028327e+01	-1.645285e+02
7.800000e-07	-4.252939e-06	-2.480699e-09	-3.008078e+01	-1.643355e+02
7.900000e-07	-4.224019e-06	-2.464340e-09	-2.987623e+01	-1.641372e+02
8.000000e-07	-4.194831e-06	-2.466204e-09	-2.966979e+01	-1.639327e+02
8.100000e-07	-4.165302e-06	-2.471216e-09	-2.946093e+01	-1.637217e+02
8.200000e-07	-4.135481e-06	-2.468449e-09	-2.925001e+01	-1.635035e+02
8.300000e-07	-4.105421e-06	-2.454822e-09	-2.903740e+01	-1.632779e+02
8.400000e-07	-4.075044e-06	-2.447264e-09	-2.882254e+01	-1.630446e+02
8.500000e-07	-4.044358e-06	-2.447939e-09	-2.860550e+01	-1.628034e+02
8.600000e-07	-4.013323e-06	-2.445455e-09	-2.838599e+01	-1.625544e+02
8.700000e-07	-3.982056e-06	-2.434260e-09	-2.816484e+01	-1.622977e+02
8.800000e-07	-3.950660e-06	-2.427126e-09	-2.794278e+01	-1.620334e+02
8.900000e-07	-3.918991e-06	-2.430952e-09	-2.771879e+01	-1.617618e+02
9.000000e-07	-3.887169e-06	-2.434118e-09	-2.749371e+01	-1.614832e+02
9.100000e-07	-3.855255e-06	-2.426759e-09	-2.726799e+01	-1.611981e+02
9.200000e-07	-3.823124e-06	-2.416394e-09	-2.704073e+01	-1.609068e+02
9.300000e-07	-3.790655e-06	-2.417695e-09	-2.681108e+01	-1.606100e+02
9.400000e-07	-3.757944e-06	-2.419647e-09	-2.657971e+01	-1.603080e+02
9.500000e-07	-3.724871e-06	-2.411969e-09	-2.634579e+01	-1.600015e+02
9.600000e-07	-3.691359e-06	-2.398515e-09	-2.610876e+01	-1.596908e+02
9.700000e-07	-3.657437e-06	-2.396453e-09	-2.586883e+01	-1.593764e+02
9.800000e-07	-3.623090e-06	-2.401976e-09	-2.562590e+01	-1.590588e+02
9.900000e-07	-3.588397e-06	-2.402753e-09	-2.538052e+01	-1.587384e+02
1.000000e-06	-3.553303e-06	-2.394283e-09	-2.513230e+01	-1.584155e+02
1.010000e-06	-3.517822e-06	-2.392211e-09	-2.488134e+01	-1.580904e+02
1.020000e-06	-3.482103e-06	-2.392299e-09	-2.462870e+01	-1.577633e+02
1.030000e-06	-3.446322e-06	-2.387314e-09	-2.437563e+01	-1.574342e+02
1.040000e-06	-3.410450e-06	-2.372749e-09	-2.412191e+01	-1.571034e+02
1.050000e-06	-3.374413e-06	-2.359729e-09	-2.386702e+01	-1.567707e+02
1.060000e-06	-3.338183e-06	-2.355047e-09	-2.361077e+01	-1.564361e+02
1.070000e-06	-3.301719e-06	-2.354111e-09	-2.335286e+01	-1.560995e+02
1.080000e-06	-3.265023e-06	-2.344415e-09	-2.309331e+01	-1.557606e+02
1.090000e-06	-3.228139e-06	-2.335454e-09	-2.283243e+01	-1.554192e+02
1.100000e-06	-3.190954e-06	-2.332889e-09	-2.256943e+01	-1.550749e+02
1.110000e-06	-3.153410e-06	-2.334111e-09	-2.230388e+01	-1.547275e+02
1.120000e-06	-3.115674e-06	-2.329740e-09	-2.203698e+01	-1.543764e+02
1.130000e-06	-3.077791e-06	-2.320936e-09	-2.176903e+01	-1.540214e+02
1.140000e-06	-3.039734e-06	-2.312332e-09	-2.149985e+01	-1.536619e+02
1.150000e-06	-3.001555e-06	-2.308147e-09	-2.122982e+01	-1.532975e+02
1.160000e-06	-2.963166e-06	-2.300489e-09	-2.095830e+01	-1.529277e+02
1.170000e-06	-2.924508e-06	-2.286511e-09	-2.068487e+01	-1.525521e+02
1.180000e-06	-2.885652e-06	-2.275566e-09	-2.041004e+01	-1.521702e+02
1.190000e-06	-2.846618e-06	-2.273620e-09	-2.013396e+01	-1.517816e+02
1.200000e-06	-2.807355e-06	-2.273121e-09	-1.985625e+01	-1.513858e+02
1.210000e-06	-2.767835e-06	-2.267046e-09	-1.957673e+01	-1.509823e+02
1.220000e-06	-2.728178e-06	-2.258231e-09	-1.929624e+01	-1.505709e+02
1.230000e-06	-2.688426e-06	-2.249365e-09	-1.901507e+01	-1.501511e+02
1.240000e-06	-2.648572e-06	-2.239151e-09	-1.873319e+01	-1.497225e+02
1.250000e-06	-2.608599e-06	-2.222816e-09	-1.845047e+01	-1.492847e+02
1.260000e-06	-2.568499e-06	-2.207553e-09	-1.816684e+01	-1.488376e+02
1.270000e-06	-2.528269e-06	-2.198279e-09	-1.788230e+01	-1.483806e+02
1.280000e-06	-2.487891e-06	-2.196856e-09	-1.759670e+01	-1.479135e+02
1.290000e-06	-2.447396e-06	-2.192957e-09	-1.731028e+01	-1.474361e+02
1.300000e-06	-2.406692e-06	-2.182161e-09	-1.702238e+01	-1.469479e+02
1.310000e-06	-2.365729e-06	-2.170780e-09	-1.673266e+01	-1.464488e+02
1.320000e-06	-2.324515e-06	-2.163133e-09	-1.644115e+01	-1.459383e+02
1.330000e-06	-2.283049e-06	-2.150605e-09	-1.614787e+01	-1.454163e+02
1.340000e-06	-2.241255e-06	-2.133565e-09	-1.585226e+01	-1.448823e+02
1.350000e-06	-2.199167e-06	-2.120075e-09	-1.555458e+01	-1.443362e+02
1.360000e-06	-2.156729e-06	-2.115417e-09	-1.525442e+01	-1.437775e+02
1.370000e-06	-2.114004e-06	-2.111616e-09	-1.495222e+01	-1.432060e+02
1.380000e-06	-2.071197e-06	-2.102365e-09	-1.464945e+01	-1.426213e+02
1.390000e-06	-2.028146e-06	-2.089470e-09	-1.434496e+01	-1.420231e+02
1.400000e-06	-1.984875e-06	-2.081749e-09	-1.403890e+01	-1.414110e+02
1.410000e-06	-1.941502e-06	-2.073905e-09	-1.373213e+01	-1.407847e+02
1.420000e-06	-1.898020e-06	-2.057049e-09	-1.342458e+01	-1.401438e+02
1.430000e-06	-1.854414e-06	-2.036257e-09	-1.311616e+01	-1.394879e+02
1.440000e-06	-1.810644e-06	-2.023453e-09	-1.280658e+01	-1.388167e+02
1.450000e-06	-1.766769e-06	-2.017655e-09	-1.249625e+01	-1.381298e+02
1.460000e-06	-1.722839e-06	-2.008558e-09	-1.218553e+01	-1.374268e+02
1.470000e-06	-1.678836e-06	-1.993974e-09	-1.187430e+01	-1.367073e+02
1.480000e-06	-1.634827e-06	-1.982198e-09	-1.156303e+01	-1.359709e+02
1.490000e-06	-1.590779e-06	-1.975800e-09	-1.125149e+01	-1.352172e+02
1.500000e-06	-1.546626e-06	-1.966523e-09	-1.093919e+01	-1.344458e+02
1.510000e-06	-1.502331e-06	-1.948858e-09	-1.062589e+01	-1.336564e+02
1.520000e-06	-1.457949e-06	-1.929552e-09	-1.031199e+01	-1.328484e+02
1.530000e-06	-1.413519e-06	-1.918870e-09	-9.997737e+00	-1.320214e+02
1.540000e-06	-1.368889e-06	-1.914079e-09	-9.682068e+00	-1.311751e+02
1.550000e-06	-1.324136e-06	-1.904127e-09	-9.365531e+00	-1.303088e+02
1.560000e-06	-1.279430e-06	-1.891164e-09	-9.049330e+00	-1.294221e+02
1.570000e-06	-1.234732e-06	-1.880210e-09	-8.733185e+00	-1.285143e+02
1.580000e-06	-1.189865e-06	-1.867745e-09	-8.415845e+00	-1.275850e+02
1.590000e-06	-1.144807e-06	-1.852767e-09	-8.097148e+00	-1.266334e+02
1.600000e-06	-1.099593e-06	-1.834891e-09	-7.777357e+00	-1.256588e+02
1.610000e-06	-1.054234e-06	-1.819889e-09	-7.456535e+00	-1.246604e+02
1.620000e-06	-1.008867e-06	-1.806538e-09	-7.135657e+00	-1.236374e+02
1.630000e-06	-9.633915e-07	-1.791860e-09	-6.814010e+00	-1.225889e+02
1.640000e-06	-9.177693e-07	-1.772816e-09	-6.491327e+00	-1.215137e+02
1.650000e-06	-8.722128e-07	-1.752957e-09	-6.169109e+00	-1.204109e+02
1.660000e-06	-8.266694e-07	-1.736669e-09	-5.846983e+00	-1.192792e+02
1.670000e-06	-7.810367e-07	-1.722595e-09	-5.524226e+00	-1.181173e+02
1.680000e-06	-7.353666e-07	-1.703173e-09	-5.201204e+00	-1.169239e+02
1.690000e-06	-6.896508e-07	-1.682718e-09	-4.877858e+00	-1.156976e+02
1.700000e-06	-6.439109e-07	-1.667237e-09	-4.554343e+00	-1.144368e+02
1.710000e-06	-5.981809e-07	-1.649370e-09	-4.230898e+00	-1.131399e+02
1.720000e-06	-5.524640e-07	-1.623249e-09	-3.907544e+00	-1.118052e+02
1.730000e-06	-5.067138e-07	-1.597098e-09	-3.583957e+00	-1.104311e+02
1.740000e-06	-4.608881e-07	-1.577524e-09	-3.259834e+00	-1.090158e+02
1.750000e-06	-4.149834e-07	-1.559870e-09	-2.935153e+00	-1.075574e+02
1.760000e-06	-3.690113e-07	-1.540158e-09	-2.609995e+00	-1.060542e+02
1.770000e-06	-3.230601e-07	-1.519292e-09	-2.284985e+00	-1.045044e+02
1.780000e-06	-2.771481e-07	-1.498444e-09	-1.960252e+00	-1.029062e+02
1.790000e-06	-2.311808e-07	-1.476073e-09	-1.635128e+00	-1.012577e+02
1.800000e-06	-1.851521e-07	-1.446771e-09	-1.309569e+00	-9.955746e+01
1.810000e-06	-1.391397e-07	-1.413435e-09	-9.841270e-01	-9.780366e+01
1.820000e-06	-9.313801e-08	-1.384998e-09	-6.587595e-01	-9.599482e+01
1.830000e-06	-4.712845e-08	-1.358028e-09	-3.333367e-01	-9.412949e+01
1.840000e-06	-1.118235e-09	-1.331552e-09	-7.909212e-03	-9.220636e+01
1.850000e-06	4.483509e-08	-1.303751e-09	3.171159e-01	-9.022425e+01
1.860000e-06	9.079340e-08	-1.276099e-09	6.421763e-01	-8.818215e+01
1.870000e-06	1.368252e-07	-1.248101e-09	9.677561e-01	-8.607920e+01
1.880000e-06	1.828483e-07	-1.213569e-09	1.293275e+00	-8.391470e+01
1.890000e-06	2.288847e-07	-1.172466e-09	1.618888e+00	-8.168817e+01
1.900000e-06	2.749191e-07	-1.131560e-09	1.944486e+00	-7.939929e+01
1.910000e-06	3.208235e-07	-1.092708e-09	2.269165e+00	-7.704796e+01
1.920000e-06	3.666669e-07	-1.055089e-09	2.593413e+00	-7.463426e+01
1.930000e-06	4.125670e-07	-1.021334e-09	2.918061e+00	-7.215848e+01
1.940000e-06	4.584888e-07	-9.914744e-10	3.242864e+00	-6.962110e+01
1.950000e-06	5.043997e-07	-9.639307e-10	3.567589e+00	-6.702281e+01
1.960000e-06	5.502642e-07	-9.292892e-10	3.891986e+00	-6.436448e+01
1.970000e-06	5.960266e-07	-8.813877e-10	4.215660e+00	-6.164715e+01
1.980000e-06	6.417204e-07	-8.258094e-10	4.538850e+00	-5.887206e+01
1.990000e-06	6.874398e-07	-7.744848e-10	4.862221e+00	-5.604059e+01
2.000000e-06	7.332132e-07	-7.312758e-10	5.185973e+00	-5.315430e+01
2.010000e-06	7.789654e-07	-6.915411e-10	5.509576e+00	-5.021486e+01
2.020000e-06	8.245861e-07	-6.544559e-10	5.832248e+00	-4.722412e+01
2.030000e-06	8.700894e-07	-6.195511e-10	6.154090e+00	-4.418401e+01
2.040000e-06	9.155448e-07	-5.796688e-10	6.475593e+00	-4.109660e+01
2.050000e-06	9.608899e-07	-5.274749e-10	6.796317e+00	-3.796405e+01
2.060000e-06	1.006126e-06	-4.688850e-10	7.116270e+00	-3.478861e+01
2.070000e-06	1.051389e-06	-4.154190e-10	7.436414e+00	-3.157263e+01
2.080000e-06	1.096636e-06	-3.681264e-10	7.756441e+00	-2.831852e+01
2.090000e-06	1.141666e-06	-3.231700e-10	8.074936e+00	-2.502876e+01
2.100000e-06	1.186584e-06	-2.806823e-10	8.392636e+00	-2.170592e+01
2.110000e-06	1.231484e-06	-2.399645e-10	8.710211e+00	-1.835260e+01
2.120000e-06	1.276232e-06	-1.947027e-10	9.026713e+00	-1.497148e+01
2.130000e-06	1.320830e-06	-1.387500e-10	9.342152e+00	-1.156528e+01
2.140000e-06	1.365309e-06	-7.742563e-11	9.656746e+00	-8.136791e+00
2.150000e-06	1.409694e-06	-1.971426e-11	9.970684e+00	-4.688851e+00
2.160000e-06	1.454026e-06	3.120798e-11	1.028424e+01	-1.224358e+00
2.170000e-06	1.498295e-06	7.911807e-11	1.059735e+01	2.253736e+00
2.180000e-06	1.542475e-06	1.277225e-10	1.090983e+01	5.742419e+00
2.190000e-06	1.586597e-06	1.773678e-10	1.122191e+01	9.238621e+00
2.200000e-06	1.630652e-06	2.279406e-10	1.153350e+01	1.273921e+01
2.210000e-06	1.674613e-06	2.820899e-10	1.184444e+01	1.624101e+01
2.220000e-06	1.718521e-06	3.407796e-10	1.215500e+01	1.974078e+01
2.230000e-06	1.762360e-06	3.979265e-10	1.246507e+01	2.323521e+01
2.240000e-06	1.806106e-06	4.484534e-10	1.277448e+01	2.672098e+01
2.250000e-06	1.849790e-06	4.948266e-10	1.308345e+01	3.019469e+01
2.260000e-06	1.893425e-06	5.420750e-10	1.339208e+01	3.365294e+01
2.270000e-06	1.936941e-06	5.917956e-10	1.369987e+01	3.709227e+01
2.280000e-06	1.980339e-06	6.396921e-10	1.400682e+01	4.050926e+01
2.290000e-06	2.023607e-06	6.856193e-10	1.431285e+01	4.390044e+01
2.300000e-06	2.066692e-06	7.347376e-10	1.461759e+01	4.726238e+01
2.310000e-06	2.109585e-06	7.853018e-10	1.492097e+01	5.059171e+01
2.320000e-06	2.152278e-06	8.323632e-10	1.522293e+01	5.388508e+01
2.330000e-06	2.194625e-06	8.756787e-10	1.552245e+01	5.713922e+01
2.340000e-06	2.236574e-06	9.202873e-10	1.581915e+01	6.035098e+01
2.350000e-06	2.278225e-06	9.683124e-10	1.611375e+01	6.351731e+01
2.360000e-06	2.319616e-06	1.015518e-09	1.640650e+01	6.663530e+01
2.370000e-06	2.360767e-06	1.058582e-09	1.669756e+01	6.970222e+01
2.380000e-06	2.401697e-06	1.100569e-09	1.698706e+01	7.271548e+01
2.390000e-06	2.442391e-06	1.143315e-09	1.727488e+01	7.567274e+01
2.400000e-06	2.482873e-06	1.182377e-09	1.756121e+01	7.857186e+01
2.410000e-06	2.523169e-06	1.217115e-09	1.784622e+01	8.141094e+01
2.420000e-06	2.563285e-06	1.252854e-09	1.812996e+01	8.418831e+01
2.430000e-06	2.603309e-06	1.294153e-09	1.841305e+01	8.690261e+01
2.440000e-06	2.643222e-06	1.338009e-09	1.869535e+01	8.955270e+01
2.450000e-06	2.683044e-06	1.376839e-09	1.897701e+01	9.213774e+01
2.460000e-06	2.722773e-06	1.413464e-09	1.925801e+01	9.465717e+01
2.470000e-06	2.762366e-06	1.450363e-09	1.953805e+01	9.711070e+01
2.480000e-06	2.801850e-06	1.481258e-09	1.981732e+01	9.949830e+01
2.490000e-06	2.841195e-06	1.506147e-09	2.009560e+01	1.018202e+02
2.500000e-06	2.880274e-06	1.534999e-09	2.037200e+01	1.040770e+02
2.510000e-06	2.919112e-06	1.573254e-09	2.064670e+01	1.062692e+02
2.520000e-06	2.957743e-06	1.615679e-09	2.091994e+01	1.083979e+02
2.530000e-06	2.996119e-06	1.648763e-09	2.119137e+01	1.104642e+02
2.540000e-06	3.034242e-06	1.677165e-09	2.146101e+01	1.124693e+02
2.550000e-06	3.072116e-06	1.708095e-09	2.172889e+01	1.144147e+02
2.560000e-06	3.109795e-06	1.735181e-09	2.199539e+01	1.163019e+02
2.570000e-06	3.147318e-06	1.753709e-09	2.226079e+01	1.181326e+02
2.580000e-06	3.184743e-06	1.769820e-09	2.252550e+01	1.199084e+02
2.590000e-06	3.221999e-06	1.796687e-09	2.278901e+01	1.216311e+02
2.600000e-06	3.258864e-06	1.830134e-09	2.304975e+01	1.233023e+02
2.610000e-06	3.295442e-06	1.861580e-09	2.330847e+01	1.249238e+02
2.620000e-06	3.331893e-06	1.889989e-09	2.356628e+01	1.264971e+02
2.630000e-06	3.368098e-06	1.919700e-09	2.382235e+01	1.280238e+02
2.640000e-06	3.404128e-06	1.946255e-09	2.407720e+01	1.295055e+02
2.650000e-06	3.440087e-06	1.960017e-09	2.433153e+01	1.309434e+02
2.660000e-06	3.475955e-06	1.964665e-09	2.458522e+01	1.323388e+02
2.670000e-06	3.511646e-06	1.977449e-09	2.483766e+01	1.336929e+02
2.680000e-06	3.547076e-06	2.002338e-09	2.508826e+01	1.350066e+02
2.690000e-06	3.582324e-06	2.029919e-09	2.533756e+01	1.362807e+02
2.700000e-06	3.617307e-06	2.052059e-09	2.558499e+01	1.375160e+02
2.710000e-06	3.651894e-06	2.072719e-09	2.582963e+01	1.387132e+02
2.720000e-06	3.685878e-06	2.096919e-09	2.607000e+01	1.398726e+02
2.730000e-06	3.719344e-06	2.115173e-09	2.630669e+01	1.409947e+02
2.740000e-06	3.752451e-06	2.121453e-09	2.654086e+01	1.420797e+02
2.750000e-06	3.785181e-06	2.127270e-09	2.677235e+01	1.431280e+02
2.760000e-06	3.817634e-06	2.142882e-09	2.700190e+01	1.441396e+02
2.770000e-06	3.849812e-06	2.163706e-09	2.722949e+01	1.451148e+02
2.780000e-06	3.881783e-06	2.179418e-09	2.745562e+01	1.460537e+02
2.790000e-06	3.913630e-06	2.192746e-09	2.768087e+01	1.469565e+02
2.800000e-06	3.945334e-06	2.209791e-09	2.790511e+01	1.478234e+02
2.810000e-06	3.976794e-06	2.225359e-09	2.812762e+01	1.486546e+02
2.820000e-06	4.008047e-06	2.233065e-09	2.834868e+01	1.494506e+02
2.830000e-06	4.039026e-06	2.235863e-09	2.856779e+01	1.502118e+02
2.840000e-06	4.069689e-06	2.242683e-09	2.878467e+01	1.509386e+02
2.850000e-06	4.100061e-06	2.254926e-09	2.899948e+01	1.516320e+02
2.860000e-06	4.130042e-06	2.268106e-09	2.921154e+01	1.522925e+02
2.870000e-06	4.159752e-06	2.280000e-09	2.942168e+01	1.529212e+02
2.880000e-06	4.189278e-06	2.291255e-09	2.963052e+01	1.535192e+02
2.890000e-06	4.218575e-06	2.299441e-09	2.983773e+01	1.540876e+02
2.900000e-06	4.247510e-06	2.304052e-09	3.004239e+01	1.546278e+02
