# Temperatura_=_-3.37
# Concentracion g/m^3_=_4090.0
# C_Vs_to_Am_M_A/Vsm_=_65563218390.804596
# pendiente_HvsI_1/m_=_3716.3
# ordenada_HvsI_A/m_=_1297.0
# frecuencia_Hz_=_135078.31804253673

Tiempo_(s)	Campo_(V.s)	Magnetizacion_(V.s)	Campo_(kA/m)	Magnetizacion_(A/m)
0.000000e+00	-5.411864e-06	-2.381836e-09	-3.839485e+01	-1.545734e+02
1.000000e-08	-5.411879e-06	-2.381432e-09	-3.839495e+01	-1.545774e+02
2.000000e-08	-5.411734e-06	-2.379833e-09	-3.839393e+01	-1.545834e+02
3.000000e-08	-5.411398e-06	-2.378417e-09	-3.839154e+01	-1.545921e+02
4.000000e-08	-5.410690e-06	-2.377585e-09	-3.838652e+01	-1.546043e+02
5.000000e-08	-5.409558e-06	-2.375798e-09	-3.837849e+01	-1.546205e+02
6.000000e-08	-5.407808e-06	-2.383379e-09	-3.836608e+01	-1.546414e+02
7.000000e-08	-5.405518e-06	-2.413734e-09	-3.834982e+01	-1.546676e+02
8.000000e-08	-5.402695e-06	-2.402876e-09	-3.832980e+01	-1.546997e+02
9.000000e-08	-5.399239e-06	-2.320887e-09	-3.830528e+01	-1.547381e+02
1.000000e-07	-5.395343e-06	-2.289961e-09	-3.827764e+01	-1.547834e+02
1.100000e-07	-5.391186e-06	-2.370435e-09	-3.824815e+01	-1.548357e+02
1.200000e-07	-5.386796e-06	-2.443526e-09	-3.821700e+01	-1.548955e+02
1.300000e-07	-5.382091e-06	-2.358218e-09	-3.818362e+01	-1.549627e+02
1.400000e-07	-5.376998e-06	-2.269230e-09	-3.814749e+01	-1.550376e+02
1.500000e-07	-5.371562e-06	-2.388456e-09	-3.810892e+01	-1.551200e+02
1.600000e-07	-5.365822e-06	-2.463741e-09	-3.806820e+01	-1.552098e+02
1.700000e-07	-5.359768e-06	-2.387751e-09	-3.802525e+01	-1.553066e+02
1.800000e-07	-5.353199e-06	-2.244772e-09	-3.797865e+01	-1.554102e+02
1.900000e-07	-5.346174e-06	-2.316131e-09	-3.792881e+01	-1.555201e+02
2.000000e-07	-5.338901e-06	-2.403882e-09	-3.787721e+01	-1.556356e+02
2.100000e-07	-5.331275e-06	-2.379074e-09	-3.782311e+01	-1.557560e+02
2.200000e-07	-5.323381e-06	-2.339561e-09	-3.776710e+01	-1.558807e+02
2.300000e-07	-5.315384e-06	-2.392379e-09	-3.771037e+01	-1.560087e+02
2.400000e-07	-5.307048e-06	-2.413170e-09	-3.765122e+01	-1.561390e+02
2.500000e-07	-5.298173e-06	-2.353159e-09	-3.758826e+01	-1.562708e+02
2.600000e-07	-5.288709e-06	-2.371436e-09	-3.752111e+01	-1.564030e+02
2.700000e-07	-5.278683e-06	-2.428402e-09	-3.744998e+01	-1.565344e+02
2.800000e-07	-5.268146e-06	-2.407227e-09	-3.737523e+01	-1.566639e+02
2.900000e-07	-5.257017e-06	-2.367949e-09	-3.729627e+01	-1.567904e+02
3.000000e-07	-5.245450e-06	-2.445312e-09	-3.721421e+01	-1.569129e+02
3.100000e-07	-5.233522e-06	-2.464223e-09	-3.712959e+01	-1.570301e+02
3.200000e-07	-5.221107e-06	-2.397520e-09	-3.704151e+01	-1.571409e+02
3.300000e-07	-5.208307e-06	-2.352303e-09	-3.695070e+01	-1.572443e+02
3.400000e-07	-5.195233e-06	-2.422019e-09	-3.685795e+01	-1.573392e+02
3.500000e-07	-5.181742e-06	-2.442193e-09	-3.676223e+01	-1.574247e+02
3.600000e-07	-5.167809e-06	-2.424826e-09	-3.666339e+01	-1.574999e+02
3.700000e-07	-5.153536e-06	-2.410011e-09	-3.656213e+01	-1.575640e+02
3.800000e-07	-5.138819e-06	-2.425699e-09	-3.645772e+01	-1.576162e+02
3.900000e-07	-5.123359e-06	-2.421152e-09	-3.634803e+01	-1.576559e+02
4.000000e-07	-5.107367e-06	-2.422620e-09	-3.623458e+01	-1.576826e+02
4.100000e-07	-5.091056e-06	-2.395653e-09	-3.611885e+01	-1.576958e+02
4.200000e-07	-5.074261e-06	-2.376056e-09	-3.599970e+01	-1.576952e+02
4.300000e-07	-5.057069e-06	-2.395273e-09	-3.587773e+01	-1.576806e+02
4.400000e-07	-5.039711e-06	-2.445772e-09	-3.575459e+01	-1.576519e+02
4.500000e-07	-5.022145e-06	-2.426796e-09	-3.562996e+01	-1.576090e+02
4.600000e-07	-5.004178e-06	-2.384125e-09	-3.550249e+01	-1.575523e+02
4.700000e-07	-4.985802e-06	-2.391036e-09	-3.537213e+01	-1.574817e+02
4.800000e-07	-4.967057e-06	-2.418465e-09	-3.523914e+01	-1.573978e+02
4.900000e-07	-4.947973e-06	-2.398389e-09	-3.510374e+01	-1.573010e+02
5.000000e-07	-4.928479e-06	-2.369673e-09	-3.496544e+01	-1.571917e+02
5.100000e-07	-4.908618e-06	-2.383464e-09	-3.482453e+01	-1.570706e+02
5.200000e-07	-4.888593e-06	-2.411652e-09	-3.468247e+01	-1.569385e+02
5.300000e-07	-4.868413e-06	-2.420100e-09	-3.453930e+01	-1.567960e+02
5.400000e-07	-4.847940e-06	-2.397513e-09	-3.439405e+01	-1.566441e+02
5.500000e-07	-4.827191e-06	-2.374551e-09	-3.424685e+01	-1.564835e+02
5.600000e-07	-4.806127e-06	-2.376783e-09	-3.409741e+01	-1.563153e+02
5.700000e-07	-4.784637e-06	-2.400859e-09	-3.394495e+01	-1.561403e+02
5.800000e-07	-4.762775e-06	-2.385918e-09	-3.378984e+01	-1.559596e+02
5.900000e-07	-4.740585e-06	-2.359429e-09	-3.363242e+01	-1.557740e+02
6.000000e-07	-4.718078e-06	-2.365371e-09	-3.347274e+01	-1.555846e+02
6.100000e-07	-4.695220e-06	-2.391931e-09	-3.331057e+01	-1.553923e+02
6.200000e-07	-4.672081e-06	-2.372438e-09	-3.314641e+01	-1.551979e+02
6.300000e-07	-4.648662e-06	-2.342597e-09	-3.298026e+01	-1.550024e+02
6.400000e-07	-4.624945e-06	-2.333449e-09	-3.281200e+01	-1.548065e+02
6.500000e-07	-4.601036e-06	-2.351475e-09	-3.264237e+01	-1.546109e+02
6.600000e-07	-4.576899e-06	-2.356686e-09	-3.247113e+01	-1.544164e+02
6.700000e-07	-4.552484e-06	-2.349056e-09	-3.229792e+01	-1.542234e+02
6.800000e-07	-4.527689e-06	-2.331285e-09	-3.212201e+01	-1.540326e+02
6.900000e-07	-4.502440e-06	-2.337107e-09	-3.194288e+01	-1.538442e+02
7.000000e-07	-4.476683e-06	-2.342461e-09	-3.176014e+01	-1.536586e+02
7.100000e-07	-4.450343e-06	-2.327846e-09	-3.157327e+01	-1.534760e+02
7.200000e-07	-4.423586e-06	-2.302721e-09	-3.138344e+01	-1.532965e+02
7.300000e-07	-4.396449e-06	-2.309125e-09	-3.119091e+01	-1.531200e+02
7.400000e-07	-4.368892e-06	-2.327776e-09	-3.099541e+01	-1.529465e+02
7.500000e-07	-4.341050e-06	-2.328912e-09	-3.079789e+01	-1.527758e+02
7.600000e-07	-4.312996e-06	-2.313694e-09	-3.059885e+01	-1.526075e+02
7.700000e-07	-4.284827e-06	-2.309150e-09	-3.039900e+01	-1.524412e+02
7.800000e-07	-4.256484e-06	-2.315544e-09	-3.019792e+01	-1.522765e+02
7.900000e-07	-4.227875e-06	-2.312554e-09	-2.999496e+01	-1.521129e+02
8.000000e-07	-4.198914e-06	-2.294935e-09	-2.978949e+01	-1.519497e+02
8.100000e-07	-4.169617e-06	-2.283413e-09	-2.958164e+01	-1.517863e+02
8.200000e-07	-4.140061e-06	-2.291406e-09	-2.937195e+01	-1.516219e+02
8.300000e-07	-4.110186e-06	-2.298473e-09	-2.916000e+01	-1.514560e+02
8.400000e-07	-4.080043e-06	-2.291505e-09	-2.894615e+01	-1.512877e+02
8.500000e-07	-4.049680e-06	-2.280323e-09	-2.873074e+01	-1.511162e+02
8.600000e-07	-4.019160e-06	-2.281363e-09	-2.851421e+01	-1.509409e+02
8.700000e-07	-3.988468e-06	-2.283508e-09	-2.829647e+01	-1.507611e+02
8.800000e-07	-3.957438e-06	-2.277145e-09	-2.807632e+01	-1.505761e+02
8.900000e-07	-3.925994e-06	-2.260713e-09	-2.785324e+01	-1.503852e+02
9.000000e-07	-3.894232e-06	-2.257664e-09	-2.762790e+01	-1.501879e+02
9.100000e-07	-3.862327e-06	-2.265106e-09	-2.740155e+01	-1.499837e+02
9.200000e-07	-3.830294e-06	-2.269062e-09	-2.717429e+01	-1.497721e+02
9.300000e-07	-3.798043e-06	-2.258736e-09	-2.694548e+01	-1.495529e+02
9.400000e-07	-3.765503e-06	-2.253922e-09	-2.671463e+01	-1.493257e+02
9.500000e-07	-3.732730e-06	-2.255095e-09	-2.648211e+01	-1.490905e+02
9.600000e-07	-3.699759e-06	-2.256427e-09	-2.624820e+01	-1.488470e+02
9.700000e-07	-3.666364e-06	-2.246462e-09	-2.601128e+01	-1.485953e+02
9.800000e-07	-3.632499e-06	-2.238830e-09	-2.577102e+01	-1.483356e+02
9.900000e-07	-3.598267e-06	-2.237344e-09	-2.552816e+01	-1.480680e+02
1.000000e-06	-3.563662e-06	-2.239797e-09	-2.528265e+01	-1.477927e+02
1.010000e-06	-3.528688e-06	-2.237024e-09	-2.503452e+01	-1.475102e+02
1.020000e-06	-3.493307e-06	-2.233361e-09	-2.478351e+01	-1.472209e+02
1.030000e-06	-3.457623e-06	-2.230476e-09	-2.453035e+01	-1.469251e+02
1.040000e-06	-3.421814e-06	-2.229028e-09	-2.427630e+01	-1.466235e+02
1.050000e-06	-3.385864e-06	-2.221331e-09	-2.402125e+01	-1.463166e+02
1.060000e-06	-3.349757e-06	-2.209277e-09	-2.376509e+01	-1.460050e+02
1.070000e-06	-3.313524e-06	-2.199793e-09	-2.350803e+01	-1.456892e+02
1.080000e-06	-3.277173e-06	-2.194176e-09	-2.325013e+01	-1.453699e+02
1.090000e-06	-3.240582e-06	-2.188945e-09	-2.299054e+01	-1.450476e+02
1.100000e-06	-3.203670e-06	-2.184316e-09	-2.272867e+01	-1.447229e+02
1.110000e-06	-3.166518e-06	-2.182247e-09	-2.246508e+01	-1.443962e+02
1.120000e-06	-3.129071e-06	-2.180204e-09	-2.219942e+01	-1.440682e+02
1.130000e-06	-3.091391e-06	-2.176954e-09	-2.193209e+01	-1.437391e+02
1.140000e-06	-3.053569e-06	-2.168804e-09	-2.166376e+01	-1.434093e+02
1.150000e-06	-3.015603e-06	-2.158412e-09	-2.139441e+01	-1.430790e+02
1.160000e-06	-2.977473e-06	-2.147090e-09	-2.112389e+01	-1.427485e+02
1.170000e-06	-2.939134e-06	-2.139015e-09	-2.085189e+01	-1.424179e+02
1.180000e-06	-2.900537e-06	-2.132940e-09	-2.057807e+01	-1.420871e+02
1.190000e-06	-2.861734e-06	-2.130199e-09	-2.030277e+01	-1.417561e+02
1.200000e-06	-2.822716e-06	-2.128393e-09	-2.002596e+01	-1.414247e+02
1.210000e-06	-2.783462e-06	-2.126590e-09	-1.974747e+01	-1.410927e+02
1.220000e-06	-2.744024e-06	-2.119745e-09	-1.946767e+01	-1.407597e+02
1.230000e-06	-2.704335e-06	-2.112757e-09	-1.918609e+01	-1.404254e+02
1.240000e-06	-2.664431e-06	-2.102676e-09	-1.890299e+01	-1.400892e+02
1.250000e-06	-2.624484e-06	-2.091738e-09	-1.861959e+01	-1.397506e+02
1.260000e-06	-2.584472e-06	-2.081164e-09	-1.833572e+01	-1.394090e+02
1.270000e-06	-2.544317e-06	-2.075310e-09	-1.805083e+01	-1.390638e+02
1.280000e-06	-2.504088e-06	-2.069942e-09	-1.776543e+01	-1.387144e+02
1.290000e-06	-2.463801e-06	-2.065072e-09	-1.747961e+01	-1.383599e+02
1.300000e-06	-2.423442e-06	-2.059964e-09	-1.719328e+01	-1.379997e+02
1.310000e-06	-2.382881e-06	-2.056692e-09	-1.690552e+01	-1.376331e+02
1.320000e-06	-2.341999e-06	-2.053463e-09	-1.661548e+01	-1.372594e+02
1.330000e-06	-2.300906e-06	-2.045332e-09	-1.632394e+01	-1.368779e+02
1.340000e-06	-2.259600e-06	-2.032468e-09	-1.603089e+01	-1.364879e+02
1.350000e-06	-2.218071e-06	-2.020463e-09	-1.573626e+01	-1.360887e+02
1.360000e-06	-2.176244e-06	-2.012716e-09	-1.543952e+01	-1.356797e+02
1.370000e-06	-2.133983e-06	-2.006635e-09	-1.513969e+01	-1.352604e+02
1.380000e-06	-2.091431e-06	-2.000855e-09	-1.483780e+01	-1.348303e+02
1.390000e-06	-2.048586e-06	-1.995689e-09	-1.453384e+01	-1.343887e+02
1.400000e-06	-2.005537e-06	-1.992214e-09	-1.422843e+01	-1.339354e+02
1.410000e-06	-1.962394e-06	-1.986614e-09	-1.392234e+01	-1.334698e+02
1.420000e-06	-1.919084e-06	-1.975709e-09	-1.361508e+01	-1.329917e+02
1.430000e-06	-1.875691e-06	-1.960638e-09	-1.330722e+01	-1.325006e+02
1.440000e-06	-1.832193e-06	-1.949308e-09	-1.299862e+01	-1.319963e+02
1.450000e-06	-1.788480e-06	-1.941475e-09	-1.268849e+01	-1.314786e+02
1.460000e-06	-1.744616e-06	-1.933668e-09	-1.237730e+01	-1.309472e+02
1.470000e-06	-1.700699e-06	-1.924384e-09	-1.206573e+01	-1.304018e+02
1.480000e-06	-1.656720e-06	-1.915860e-09	-1.175371e+01	-1.298424e+02
1.490000e-06	-1.612653e-06	-1.906326e-09	-1.144108e+01	-1.292685e+02
1.500000e-06	-1.568552e-06	-1.897995e-09	-1.112821e+01	-1.286802e+02
1.510000e-06	-1.524422e-06	-1.889299e-09	-1.081512e+01	-1.280770e+02
1.520000e-06	-1.480204e-06	-1.878067e-09	-1.050141e+01	-1.274589e+02
1.530000e-06	-1.435888e-06	-1.866510e-09	-1.018701e+01	-1.268254e+02
1.540000e-06	-1.391524e-06	-1.856254e-09	-9.872266e+00	-1.261765e+02
1.550000e-06	-1.347136e-06	-1.846509e-09	-9.557351e+00	-1.255116e+02
1.560000e-06	-1.302699e-06	-1.835604e-09	-9.242089e+00	-1.248306e+02
1.570000e-06	-1.258158e-06	-1.823233e-09	-8.926091e+00	-1.241329e+02
1.580000e-06	-1.213464e-06	-1.811961e-09	-8.609006e+00	-1.234182e+02
1.590000e-06	-1.168589e-06	-1.801684e-09	-8.290639e+00	-1.226860e+02
1.600000e-06	-1.123589e-06	-1.793518e-09	-7.971379e+00	-1.219358e+02
1.610000e-06	-1.078523e-06	-1.785235e-09	-7.651659e+00	-1.211670e+02
1.620000e-06	-1.033388e-06	-1.774157e-09	-7.331441e+00	-1.203790e+02
1.630000e-06	-9.882298e-07	-1.760127e-09	-7.011066e+00	-1.195712e+02
1.640000e-06	-9.430834e-07	-1.746384e-09	-6.690772e+00	-1.187430e+02
1.650000e-06	-8.978073e-07	-1.734306e-09	-6.369557e+00	-1.178936e+02
1.660000e-06	-8.524054e-07	-1.722804e-09	-6.047450e+00	-1.170223e+02
1.670000e-06	-8.069686e-07	-1.711394e-09	-5.725096e+00	-1.161282e+02
1.680000e-06	-7.614746e-07	-1.699652e-09	-5.402335e+00	-1.152106e+02
1.690000e-06	-7.159811e-07	-1.685451e-09	-5.079579e+00	-1.142687e+02
1.700000e-06	-6.704309e-07	-1.668487e-09	-4.756419e+00	-1.133014e+02
1.710000e-06	-6.248308e-07	-1.653077e-09	-4.432906e+00	-1.123079e+02
1.720000e-06	-5.791839e-07	-1.638503e-09	-4.109061e+00	-1.112872e+02
1.730000e-06	-5.334631e-07	-1.622861e-09	-3.784692e+00	-1.102383e+02
1.740000e-06	-4.876928e-07	-1.606959e-09	-3.459971e+00	-1.091600e+02
1.750000e-06	-4.418565e-07	-1.589640e-09	-3.134782e+00	-1.080513e+02
1.760000e-06	-3.960035e-07	-1.572214e-09	-2.809474e+00	-1.069109e+02
1.770000e-06	-3.500816e-07	-1.554548e-09	-2.483679e+00	-1.057375e+02
1.780000e-06	-3.041014e-07	-1.535369e-09	-2.157469e+00	-1.045297e+02
1.790000e-06	-2.581701e-07	-1.517391e-09	-1.831606e+00	-1.032862e+02
1.800000e-06	-2.122416e-07	-1.500678e-09	-1.505763e+00	-1.020053e+02
1.810000e-06	-1.663000e-07	-1.485164e-09	-1.179827e+00	-1.006854e+02
1.820000e-06	-1.204398e-07	-1.468126e-09	-8.544687e-01	-9.932463e+01
1.830000e-06	-7.461476e-08	-1.447342e-09	-5.293597e-01	-9.792118e+01
1.840000e-06	-2.874746e-08	-1.424380e-09	-2.039509e-01	-9.647300e+01
1.850000e-06	1.713363e-08	-1.401750e-09	1.215557e-01	-9.497792e+01
1.860000e-06	6.303865e-08	-1.376884e-09	4.472322e-01	-9.343367e+01
1.870000e-06	1.089683e-07	-1.349156e-09	7.730831e-01	-9.183784e+01
1.880000e-06	1.549053e-07	-1.320970e-09	1.098986e+00	-9.018789e+01
1.890000e-06	2.008494e-07	-1.296522e-09	1.424940e+00	-8.848119e+01
1.900000e-06	2.467040e-07	-1.275288e-09	1.750259e+00	-8.671498e+01
1.910000e-06	2.924754e-07	-1.252720e-09	2.074987e+00	-8.488645e+01
1.920000e-06	3.382727e-07	-1.224430e-09	2.399900e+00	-8.299270e+01
1.930000e-06	3.841038e-07	-1.192990e-09	2.725051e+00	-8.103078e+01
1.940000e-06	4.299230e-07	-1.160301e-09	3.050119e+00	-7.899775e+01
1.950000e-06	4.756876e-07	-1.125827e-09	3.374799e+00	-7.689066e+01
1.960000e-06	5.213423e-07	-1.091645e-09	3.698699e+00	-7.470662e+01
1.970000e-06	5.668986e-07	-1.058622e-09	4.021902e+00	-7.244283e+01
1.980000e-06	6.123895e-07	-1.025627e-09	4.344640e+00	-7.009661e+01
1.990000e-06	6.579072e-07	-9.901489e-10	4.667569e+00	-6.766544e+01
2.000000e-06	7.034445e-07	-9.515846e-10	4.990637e+00	-6.514704e+01
2.010000e-06	7.489401e-07	-9.129486e-10	5.313408e+00	-6.253935e+01
2.020000e-06	7.943759e-07	-8.751070e-10	5.635756e+00	-5.984066e+01
2.030000e-06	8.397032e-07	-8.344796e-10	5.957334e+00	-5.704958e+01
2.040000e-06	8.849405e-07	-7.901480e-10	6.278273e+00	-5.416513e+01
2.050000e-06	9.301395e-07	-7.447535e-10	6.598940e+00	-5.118676e+01
2.060000e-06	9.753423e-07	-6.998964e-10	6.919635e+00	-4.811442e+01
2.070000e-06	1.020521e-06	-6.543692e-10	7.240158e+00	-4.494856e+01
2.080000e-06	1.065621e-06	-6.064146e-10	7.560123e+00	-4.169020e+01
2.090000e-06	1.110567e-06	-5.577341e-10	7.878999e+00	-3.834092e+01
2.100000e-06	1.155349e-06	-5.112093e-10	8.196702e+00	-3.490293e+01
2.110000e-06	1.200041e-06	-4.634725e-10	8.513774e+00	-3.137903e+01
2.120000e-06	1.244688e-06	-4.091282e-10	8.830528e+00	-2.777268e+01
2.130000e-06	1.289238e-06	-3.489584e-10	9.146591e+00	-2.408796e+01
2.140000e-06	1.333651e-06	-2.895821e-10	9.461682e+00	-2.032957e+01
2.150000e-06	1.377990e-06	-2.303148e-10	9.776245e+00	-1.650284e+01
2.160000e-06	1.422318e-06	-1.686911e-10	1.009073e+01	-1.261368e+01
2.170000e-06	1.466652e-06	-1.075066e-10	1.040526e+01	-8.668579e+00
2.180000e-06	1.510918e-06	-4.897426e-11	1.071932e+01	-4.674540e+00
2.190000e-06	1.555031e-06	9.159695e-12	1.103228e+01	-6.390569e-01
2.200000e-06	1.599094e-06	6.932433e-11	1.134488e+01	3.429947e+00
2.210000e-06	1.643152e-06	1.328800e-10	1.165746e+01	7.524176e+00
2.220000e-06	1.687109e-06	1.978761e-10	1.196931e+01	1.163502e+01
2.230000e-06	1.730955e-06	2.618801e-10	1.228038e+01	1.575365e+01
2.240000e-06	1.774786e-06	3.250712e-10	1.259134e+01	1.987104e+01
2.250000e-06	1.818620e-06	3.893702e-10	1.290233e+01	2.397810e+01
2.260000e-06	1.862326e-06	4.523931e-10	1.321240e+01	2.806573e+01
2.270000e-06	1.905799e-06	5.114266e-10	1.352082e+01	3.212489e+01
2.280000e-06	1.949034e-06	5.694722e-10	1.382756e+01	3.614670e+01
2.290000e-06	1.992139e-06	6.291599e-10	1.413337e+01	4.012251e+01
2.300000e-06	2.035082e-06	6.893610e-10	1.443803e+01	4.404400e+01
2.310000e-06	2.077691e-06	7.462595e-10	1.474033e+01	4.790320e+01
2.320000e-06	2.120083e-06	7.997942e-10	1.504108e+01	5.169262e+01
2.330000e-06	2.162305e-06	8.525326e-10	1.534062e+01	5.540527e+01
2.340000e-06	2.204234e-06	9.048950e-10	1.563809e+01	5.903476e+01
2.350000e-06	2.245777e-06	9.544145e-10	1.593283e+01	6.257530e+01
2.360000e-06	2.287023e-06	1.003224e-09	1.622544e+01	6.602179e+01
2.370000e-06	2.328081e-06	1.052811e-09	1.651673e+01	6.936983e+01
2.380000e-06	2.368925e-06	1.100460e-09	1.680650e+01	7.261572e+01
2.390000e-06	2.409492e-06	1.144937e-09	1.709431e+01	7.575655e+01
2.400000e-06	2.449842e-06	1.184523e-09	1.738058e+01	7.879013e+01
2.410000e-06	2.490139e-06	1.220000e-09	1.766647e+01	8.171502e+01
2.420000e-06	2.530324e-06	1.255834e-09	1.795157e+01	8.453053e+01
2.430000e-06	2.570364e-06	1.294293e-09	1.823563e+01	8.723667e+01
2.440000e-06	2.610344e-06	1.335413e-09	1.851927e+01	8.983414e+01
2.450000e-06	2.650261e-06	1.374900e-09	1.880247e+01	9.232428e+01
2.460000e-06	2.690075e-06	1.410455e-09	1.908492e+01	9.470904e+01
2.470000e-06	2.729695e-06	1.443215e-09	1.936602e+01	9.699092e+01
2.480000e-06	2.769100e-06	1.472223e-09	1.964558e+01	9.917290e+01
2.490000e-06	2.808358e-06	1.497154e-09	1.992409e+01	1.012584e+02
2.500000e-06	2.847384e-06	1.520259e-09	2.020097e+01	1.032512e+02
2.510000e-06	2.886164e-06	1.545918e-09	2.047609e+01	1.051555e+02
2.520000e-06	2.924752e-06	1.575768e-09	2.074986e+01	1.069754e+02
2.530000e-06	2.963115e-06	1.605144e-09	2.102203e+01	1.087156e+02
2.540000e-06	3.001315e-06	1.630090e-09	2.129304e+01	1.103805e+02
2.550000e-06	3.039370e-06	1.653777e-09	2.156302e+01	1.119748e+02
2.560000e-06	3.077228e-06	1.678472e-09	2.183161e+01	1.135031e+02
2.570000e-06	3.114845e-06	1.700975e-09	2.209849e+01	1.149699e+02
2.580000e-06	3.152232e-06	1.719350e-09	2.236373e+01	1.163794e+02
2.590000e-06	3.189425e-06	1.735832e-09	2.262760e+01	1.177360e+02
2.600000e-06	3.226345e-06	1.754346e-09	2.288953e+01	1.190434e+02
2.610000e-06	3.262985e-06	1.775193e-09	2.314948e+01	1.203053e+02
2.620000e-06	3.299418e-06	1.794359e-09	2.340795e+01	1.215252e+02
2.630000e-06	3.335645e-06	1.811814e-09	2.366497e+01	1.227060e+02
2.640000e-06	3.371724e-06	1.830362e-09	2.392093e+01	1.238505e+02
2.650000e-06	3.407744e-06	1.849447e-09	2.417648e+01	1.249610e+02
2.660000e-06	3.443598e-06	1.865040e-09	2.443085e+01	1.260396e+02
2.670000e-06	3.479274e-06	1.877767e-09	2.468395e+01	1.270879e+02
2.680000e-06	3.514818e-06	1.890852e-09	2.493612e+01	1.281074e+02
2.690000e-06	3.550093e-06	1.903420e-09	2.518638e+01	1.290991e+02
2.700000e-06	3.585058e-06	1.914262e-09	2.543445e+01	1.300639e+02
2.710000e-06	3.619604e-06	1.925532e-09	2.567954e+01	1.310023e+02
2.720000e-06	3.653565e-06	1.938109e-09	2.592047e+01	1.319145e+02
2.730000e-06	3.686980e-06	1.953671e-09	2.615754e+01	1.328009e+02
2.740000e-06	3.720014e-06	1.971266e-09	2.639190e+01	1.336613e+02
2.750000e-06	3.752838e-06	1.987501e-09	2.662477e+01	1.344956e+02
2.760000e-06	3.785474e-06	2.001534e-09	2.685631e+01	1.353035e+02
2.770000e-06	3.817837e-06	2.013016e-09	2.708591e+01	1.360850e+02
2.780000e-06	3.849965e-06	2.022101e-09	2.731385e+01	1.368396e+02
2.790000e-06	3.881935e-06	2.030284e-09	2.754066e+01	1.375671e+02
2.800000e-06	3.913710e-06	2.040101e-09	2.776609e+01	1.382673e+02
2.810000e-06	3.945210e-06	2.052062e-09	2.798957e+01	1.389401e+02
2.820000e-06	3.976438e-06	2.064501e-09	2.821112e+01	1.395854e+02
2.830000e-06	4.007438e-06	2.074027e-09	2.843105e+01	1.402033e+02
2.840000e-06	4.038068e-06	2.080445e-09	2.864836e+01	1.407940e+02
2.850000e-06	4.068306e-06	2.086947e-09	2.886289e+01	1.413579e+02
2.860000e-06	4.098347e-06	2.096348e-09	2.907601e+01	1.418954e+02
2.870000e-06	4.128201e-06	2.107223e-09	2.928781e+01	1.424073e+02
2.880000e-06	4.157819e-06	2.115363e-09	2.949794e+01	1.428942e+02
2.890000e-06	4.187241e-06	2.118831e-09	2.970667e+01	1.433570e+02
2.900000e-06	4.216331e-06	2.122549e-09	2.991306e+01	1.437969e+02
