# Temperatura_=_-1.17
# Concentracion g/m^3_=_4090.0
# C_Vs_to_Am_M_A/Vsm_=_65563218390.804596
# pendiente_HvsI_1/m_=_3716.3
# ordenada_HvsI_A/m_=_1297.0
# frecuencia_Hz_=_135074.88392995895

Tiempo_(s)	Campo_(V.s)	Magnetizacion_(V.s)	Campo_(kA/m)	Magnetizacion_(A/m)
0.000000e+00	-5.385352e-06	-2.681931e-09	-3.839320e+01	-1.707941e+02
1.000000e-08	-5.385499e-06	-2.681949e-09	-3.839424e+01	-1.707872e+02
2.000000e-08	-5.385587e-06	-2.683934e-09	-3.839487e+01	-1.707840e+02
3.000000e-08	-5.385426e-06	-2.688034e-09	-3.839373e+01	-1.707862e+02
4.000000e-08	-5.384795e-06	-2.692848e-09	-3.838922e+01	-1.707953e+02
5.000000e-08	-5.383653e-06	-2.693799e-09	-3.838108e+01	-1.708129e+02
6.000000e-08	-5.381995e-06	-2.691436e-09	-3.836926e+01	-1.708405e+02
7.000000e-08	-5.379675e-06	-2.682273e-09	-3.835272e+01	-1.708795e+02
8.000000e-08	-5.376684e-06	-2.670056e-09	-3.833140e+01	-1.709312e+02
9.000000e-08	-5.373112e-06	-2.678944e-09	-3.830593e+01	-1.709967e+02
1.000000e-07	-5.369040e-06	-2.709141e-09	-3.827690e+01	-1.710770e+02
1.100000e-07	-5.364691e-06	-2.681358e-09	-3.824590e+01	-1.711729e+02
1.200000e-07	-5.360266e-06	-2.684403e-09	-3.821435e+01	-1.712848e+02
1.300000e-07	-5.355720e-06	-2.664499e-09	-3.818194e+01	-1.714130e+02
1.400000e-07	-5.350763e-06	-2.692638e-09	-3.814661e+01	-1.715574e+02
1.500000e-07	-5.345268e-06	-2.666218e-09	-3.810743e+01	-1.717179e+02
1.600000e-07	-5.339449e-06	-2.633918e-09	-3.806595e+01	-1.718938e+02
1.700000e-07	-5.333319e-06	-2.658646e-09	-3.802224e+01	-1.720842e+02
1.800000e-07	-5.326764e-06	-2.684069e-09	-3.797551e+01	-1.722882e+02
1.900000e-07	-5.319805e-06	-2.696381e-09	-3.792590e+01	-1.725042e+02
2.000000e-07	-5.312553e-06	-2.667340e-09	-3.787420e+01	-1.727307e+02
2.100000e-07	-5.304974e-06	-2.695973e-09	-3.782016e+01	-1.729659e+02
2.200000e-07	-5.297130e-06	-2.678353e-09	-3.776425e+01	-1.732077e+02
2.300000e-07	-5.289143e-06	-2.664844e-09	-3.770731e+01	-1.734539e+02
2.400000e-07	-5.280903e-06	-2.654064e-09	-3.764856e+01	-1.737024e+02
2.500000e-07	-5.272170e-06	-2.692604e-09	-3.758630e+01	-1.739505e+02
2.600000e-07	-5.262654e-06	-2.665086e-09	-3.751846e+01	-1.741960e+02
2.700000e-07	-5.252573e-06	-2.658633e-09	-3.744659e+01	-1.744364e+02
2.800000e-07	-5.241876e-06	-2.670811e-09	-3.737033e+01	-1.746692e+02
2.900000e-07	-5.230575e-06	-2.671871e-09	-3.728976e+01	-1.748921e+02
3.000000e-07	-5.218913e-06	-2.628976e-09	-3.720662e+01	-1.751027e+02
3.100000e-07	-5.206921e-06	-2.632466e-09	-3.712113e+01	-1.752991e+02
3.200000e-07	-5.194595e-06	-2.658052e-09	-3.703325e+01	-1.754793e+02
3.300000e-07	-5.181883e-06	-2.658025e-09	-3.694263e+01	-1.756414e+02
3.400000e-07	-5.168723e-06	-2.640591e-09	-3.684880e+01	-1.757841e+02
3.500000e-07	-5.155147e-06	-2.652831e-09	-3.675202e+01	-1.759060e+02
3.600000e-07	-5.141304e-06	-2.657388e-09	-3.665333e+01	-1.760062e+02
3.700000e-07	-5.127185e-06	-2.648107e-09	-3.655268e+01	-1.760839e+02
3.800000e-07	-5.112632e-06	-2.643934e-09	-3.644892e+01	-1.761387e+02
3.900000e-07	-5.097459e-06	-2.636192e-09	-3.634075e+01	-1.761705e+02
4.000000e-07	-5.081619e-06	-2.624752e-09	-3.622783e+01	-1.761794e+02
4.100000e-07	-5.065248e-06	-2.627480e-09	-3.611111e+01	-1.761658e+02
4.200000e-07	-5.048472e-06	-2.647441e-09	-3.599151e+01	-1.761303e+02
4.300000e-07	-5.031427e-06	-2.630431e-09	-3.587000e+01	-1.760739e+02
4.400000e-07	-5.014180e-06	-2.629514e-09	-3.574704e+01	-1.759977e+02
4.500000e-07	-4.996655e-06	-2.634836e-09	-3.562210e+01	-1.759029e+02
4.600000e-07	-4.978834e-06	-2.643666e-09	-3.549505e+01	-1.757911e+02
4.700000e-07	-4.960604e-06	-2.620895e-09	-3.536509e+01	-1.756638e+02
4.800000e-07	-4.941896e-06	-2.620242e-09	-3.523171e+01	-1.755228e+02
4.900000e-07	-4.922755e-06	-2.616224e-09	-3.509526e+01	-1.753698e+02
5.000000e-07	-4.903303e-06	-2.628537e-09	-3.495658e+01	-1.752067e+02
5.100000e-07	-4.883596e-06	-2.625084e-09	-3.481608e+01	-1.750352e+02
5.200000e-07	-4.863682e-06	-2.632339e-09	-3.467411e+01	-1.748570e+02
5.300000e-07	-4.843607e-06	-2.630298e-09	-3.453099e+01	-1.746740e+02
5.400000e-07	-4.823315e-06	-2.642081e-09	-3.438632e+01	-1.744878e+02
5.500000e-07	-4.802618e-06	-2.628745e-09	-3.423877e+01	-1.742999e+02
5.600000e-07	-4.781533e-06	-2.615570e-09	-3.408845e+01	-1.741116e+02
5.700000e-07	-4.760135e-06	-2.602990e-09	-3.393591e+01	-1.739242e+02
5.800000e-07	-4.738395e-06	-2.605249e-09	-3.378092e+01	-1.737388e+02
5.900000e-07	-4.716393e-06	-2.604166e-09	-3.362406e+01	-1.735564e+02
6.000000e-07	-4.694093e-06	-2.609558e-09	-3.346508e+01	-1.733775e+02
6.100000e-07	-4.671479e-06	-2.608389e-09	-3.330386e+01	-1.732029e+02
6.200000e-07	-4.648582e-06	-2.611511e-09	-3.314062e+01	-1.730327e+02
6.300000e-07	-4.625302e-06	-2.614607e-09	-3.297466e+01	-1.728673e+02
6.400000e-07	-4.601696e-06	-2.606544e-09	-3.280636e+01	-1.727067e+02
6.500000e-07	-4.577899e-06	-2.589141e-09	-3.263671e+01	-1.725506e+02
6.600000e-07	-4.553939e-06	-2.582769e-09	-3.246589e+01	-1.723989e+02
6.700000e-07	-4.529736e-06	-2.584434e-09	-3.229335e+01	-1.722511e+02
6.800000e-07	-4.505186e-06	-2.578578e-09	-3.211833e+01	-1.721066e+02
6.900000e-07	-4.480179e-06	-2.579654e-09	-3.194005e+01	-1.719649e+02
7.000000e-07	-4.454630e-06	-2.580448e-09	-3.175790e+01	-1.718253e+02
7.100000e-07	-4.428578e-06	-2.581582e-09	-3.157217e+01	-1.716870e+02
7.200000e-07	-4.401940e-06	-2.575662e-09	-3.138227e+01	-1.715492e+02
7.300000e-07	-4.374739e-06	-2.571074e-09	-3.118834e+01	-1.714112e+02
7.400000e-07	-4.347226e-06	-2.557078e-09	-3.099220e+01	-1.712720e+02
7.500000e-07	-4.319522e-06	-2.553019e-09	-3.079469e+01	-1.711310e+02
7.600000e-07	-4.291694e-06	-2.546890e-09	-3.059630e+01	-1.709872e+02
7.700000e-07	-4.263762e-06	-2.544667e-09	-3.039717e+01	-1.708401e+02
7.800000e-07	-4.235607e-06	-2.540083e-09	-3.019644e+01	-1.706889e+02
7.900000e-07	-4.207131e-06	-2.544636e-09	-2.999343e+01	-1.705330e+02
8.000000e-07	-4.178320e-06	-2.540587e-09	-2.978803e+01	-1.703719e+02
8.100000e-07	-4.149181e-06	-2.536775e-09	-2.958029e+01	-1.702050e+02
8.200000e-07	-4.119729e-06	-2.527722e-09	-2.937033e+01	-1.700320e+02
8.300000e-07	-4.090006e-06	-2.524529e-09	-2.915843e+01	-1.698526e+02
8.400000e-07	-4.060009e-06	-2.517959e-09	-2.894457e+01	-1.696664e+02
8.500000e-07	-4.029742e-06	-2.512800e-09	-2.872879e+01	-1.694732e+02
8.600000e-07	-3.999182e-06	-2.503567e-09	-2.851092e+01	-1.692730e+02
8.700000e-07	-3.968393e-06	-2.502725e-09	-2.829143e+01	-1.690657e+02
8.800000e-07	-3.937389e-06	-2.502208e-09	-2.807039e+01	-1.688513e+02
8.900000e-07	-3.906154e-06	-2.500720e-09	-2.784771e+01	-1.686297e+02
9.000000e-07	-3.874592e-06	-2.494682e-09	-2.762270e+01	-1.684012e+02
9.100000e-07	-3.842741e-06	-2.491015e-09	-2.739563e+01	-1.681657e+02
9.200000e-07	-3.810790e-06	-2.488025e-09	-2.716785e+01	-1.679234e+02
9.300000e-07	-3.778762e-06	-2.486197e-09	-2.693951e+01	-1.676745e+02
9.400000e-07	-3.746601e-06	-2.481786e-09	-2.671023e+01	-1.674192e+02
9.500000e-07	-3.714153e-06	-2.476743e-09	-2.647890e+01	-1.671576e+02
9.600000e-07	-3.681303e-06	-2.474709e-09	-2.624471e+01	-1.668900e+02
9.700000e-07	-3.648000e-06	-2.471449e-09	-2.600728e+01	-1.666166e+02
9.800000e-07	-3.614290e-06	-2.468011e-09	-2.576696e+01	-1.663375e+02
9.900000e-07	-3.580180e-06	-2.462302e-09	-2.552378e+01	-1.660529e+02
1.000000e-06	-3.545636e-06	-2.459085e-09	-2.527751e+01	-1.657632e+02
1.010000e-06	-3.510631e-06	-2.456231e-09	-2.502795e+01	-1.654683e+02
1.020000e-06	-3.475298e-06	-2.453770e-09	-2.477606e+01	-1.651687e+02
1.030000e-06	-3.439784e-06	-2.446268e-09	-2.452287e+01	-1.648643e+02
1.040000e-06	-3.404098e-06	-2.440181e-09	-2.426846e+01	-1.645555e+02
1.050000e-06	-3.368266e-06	-2.432026e-09	-2.401301e+01	-1.642425e+02
1.060000e-06	-3.332313e-06	-2.426828e-09	-2.375669e+01	-1.639253e+02
1.070000e-06	-3.296229e-06	-2.420144e-09	-2.349944e+01	-1.636043e+02
1.080000e-06	-3.259989e-06	-2.415065e-09	-2.324108e+01	-1.632795e+02
1.090000e-06	-3.223552e-06	-2.409208e-09	-2.298132e+01	-1.629512e+02
1.100000e-06	-3.186878e-06	-2.405398e-09	-2.271985e+01	-1.626195e+02
1.110000e-06	-3.149880e-06	-2.399447e-09	-2.245609e+01	-1.622847e+02
1.120000e-06	-3.112592e-06	-2.395307e-09	-2.219026e+01	-1.619468e+02
1.130000e-06	-3.075110e-06	-2.392607e-09	-2.192304e+01	-1.616061e+02
1.140000e-06	-3.037424e-06	-2.393639e-09	-2.165437e+01	-1.612626e+02
1.150000e-06	-2.999552e-06	-2.390628e-09	-2.138437e+01	-1.609164e+02
1.160000e-06	-2.961487e-06	-2.384240e-09	-2.111300e+01	-1.605677e+02
1.170000e-06	-2.923244e-06	-2.372184e-09	-2.084036e+01	-1.602165e+02
1.180000e-06	-2.884758e-06	-2.363120e-09	-2.056598e+01	-1.598627e+02
1.190000e-06	-2.846079e-06	-2.356592e-09	-2.029024e+01	-1.595063e+02
1.200000e-06	-2.807186e-06	-2.352876e-09	-2.001296e+01	-1.591472e+02
1.210000e-06	-2.768026e-06	-2.349296e-09	-1.973378e+01	-1.587853e+02
1.220000e-06	-2.728719e-06	-2.346459e-09	-1.945356e+01	-1.584202e+02
1.230000e-06	-2.689258e-06	-2.340547e-09	-1.917223e+01	-1.580517e+02
1.240000e-06	-2.649624e-06	-2.330141e-09	-1.888967e+01	-1.576795e+02
1.250000e-06	-2.609901e-06	-2.319030e-09	-1.860648e+01	-1.573029e+02
1.260000e-06	-2.570080e-06	-2.308860e-09	-1.832259e+01	-1.569216e+02
1.270000e-06	-2.530175e-06	-2.301608e-09	-1.803810e+01	-1.565348e+02
1.280000e-06	-2.490211e-06	-2.298218e-09	-1.775319e+01	-1.561420e+02
1.290000e-06	-2.450066e-06	-2.296116e-09	-1.746698e+01	-1.557423e+02
1.300000e-06	-2.409732e-06	-2.291029e-09	-1.717943e+01	-1.553350e+02
1.310000e-06	-2.369263e-06	-2.286375e-09	-1.689092e+01	-1.549191e+02
1.320000e-06	-2.328557e-06	-2.278694e-09	-1.660073e+01	-1.544937e+02
1.330000e-06	-2.287593e-06	-2.266638e-09	-1.630868e+01	-1.540579e+02
1.340000e-06	-2.246496e-06	-2.250221e-09	-1.601569e+01	-1.536107e+02
1.350000e-06	-2.205151e-06	-2.237527e-09	-1.572094e+01	-1.531511e+02
1.360000e-06	-2.163584e-06	-2.230547e-09	-1.542460e+01	-1.526780e+02
1.370000e-06	-2.121842e-06	-2.228619e-09	-1.512701e+01	-1.521906e+02
1.380000e-06	-2.079753e-06	-2.224457e-09	-1.482695e+01	-1.516878e+02
1.390000e-06	-2.037305e-06	-2.215660e-09	-1.452433e+01	-1.511687e+02
1.400000e-06	-1.994632e-06	-2.204652e-09	-1.422011e+01	-1.506325e+02
1.410000e-06	-1.951750e-06	-2.195601e-09	-1.391440e+01	-1.500784e+02
1.420000e-06	-1.908646e-06	-2.183378e-09	-1.360710e+01	-1.495056e+02
1.430000e-06	-1.865484e-06	-2.167289e-09	-1.329939e+01	-1.489136e+02
1.440000e-06	-1.822237e-06	-2.151244e-09	-1.299107e+01	-1.483019e+02
1.450000e-06	-1.778786e-06	-2.141416e-09	-1.268130e+01	-1.476699e+02
1.460000e-06	-1.735171e-06	-2.132042e-09	-1.237037e+01	-1.470173e+02
1.470000e-06	-1.691462e-06	-2.121044e-09	-1.205875e+01	-1.463440e+02
1.480000e-06	-1.647657e-06	-2.110032e-09	-1.174646e+01	-1.456497e+02
1.490000e-06	-1.603774e-06	-2.100468e-09	-1.143361e+01	-1.449345e+02
1.500000e-06	-1.559834e-06	-2.090886e-09	-1.112035e+01	-1.441985e+02
1.510000e-06	-1.515838e-06	-2.077252e-09	-1.080669e+01	-1.434416e+02
1.520000e-06	-1.471800e-06	-2.058505e-09	-1.049274e+01	-1.426642e+02
1.530000e-06	-1.427679e-06	-2.043033e-09	-1.017820e+01	-1.418664e+02
1.540000e-06	-1.383496e-06	-2.032892e-09	-9.863208e+00	-1.410485e+02
1.550000e-06	-1.339324e-06	-2.023195e-09	-9.548297e+00	-1.402108e+02
1.560000e-06	-1.295173e-06	-2.012118e-09	-9.233536e+00	-1.393536e+02
1.570000e-06	-1.250891e-06	-1.999694e-09	-8.917840e+00	-1.384771e+02
1.580000e-06	-1.206435e-06	-1.986975e-09	-8.600906e+00	-1.375814e+02
1.590000e-06	-1.161837e-06	-1.972117e-09	-8.282955e+00	-1.366667e+02
1.600000e-06	-1.117132e-06	-1.954635e-09	-7.964247e+00	-1.357331e+02
1.610000e-06	-1.072374e-06	-1.937911e-09	-7.645159e+00	-1.347803e+02
1.620000e-06	-1.027526e-06	-1.924335e-09	-7.325425e+00	-1.338083e+02
1.630000e-06	-9.825660e-07	-1.911582e-09	-7.004899e+00	-1.328167e+02
1.640000e-06	-9.375502e-07	-1.896560e-09	-6.683973e+00	-1.318050e+02
1.650000e-06	-8.925197e-07	-1.880764e-09	-6.362942e+00	-1.307724e+02
1.660000e-06	-8.473779e-07	-1.867679e-09	-6.041118e+00	-1.297182e+02
1.670000e-06	-8.021716e-07	-1.853201e-09	-5.718833e+00	-1.286414e+02
1.680000e-06	-7.569468e-07	-1.835032e-09	-5.396417e+00	-1.275407e+02
1.690000e-06	-7.116478e-07	-1.815748e-09	-5.073472e+00	-1.264148e+02
1.700000e-06	-6.663124e-07	-1.799326e-09	-4.750268e+00	-1.252622e+02
1.710000e-06	-6.209437e-07	-1.783639e-09	-4.426825e+00	-1.240812e+02
1.720000e-06	-5.755393e-07	-1.766702e-09	-4.103129e+00	-1.228701e+02
1.730000e-06	-5.300846e-07	-1.747804e-09	-3.779073e+00	-1.216268e+02
1.740000e-06	-4.845388e-07	-1.728918e-09	-3.454369e+00	-1.203493e+02
1.750000e-06	-4.389563e-07	-1.707942e-09	-3.129402e+00	-1.190355e+02
1.760000e-06	-3.933744e-07	-1.684584e-09	-2.804441e+00	-1.176833e+02
1.770000e-06	-3.477549e-07	-1.661364e-09	-2.479211e+00	-1.162904e+02
1.780000e-06	-3.020985e-07	-1.643216e-09	-2.153717e+00	-1.148545e+02
1.790000e-06	-2.564179e-07	-1.628625e-09	-1.828051e+00	-1.133736e+02
1.800000e-06	-2.107373e-07	-1.610794e-09	-1.502386e+00	-1.118454e+02
1.810000e-06	-1.650665e-07	-1.586184e-09	-1.176790e+00	-1.102678e+02
1.820000e-06	-1.194346e-07	-1.559087e-09	-8.514718e-01	-1.086389e+02
1.830000e-06	-7.382875e-08	-1.532003e-09	-5.263391e-01	-1.069568e+02
1.840000e-06	-2.816945e-08	-1.503219e-09	-2.008253e-01	-1.052196e+02
1.850000e-06	1.755163e-08	-1.472360e-09	1.251289e-01	-1.034259e+02
1.860000e-06	6.328415e-08	-1.444312e-09	4.511647e-01	-1.015742e+02
1.870000e-06	1.089575e-07	-1.418541e-09	7.767786e-01	-9.966326e+01
1.880000e-06	1.545950e-07	-1.390056e-09	1.102137e+00	-9.769201e+01
1.890000e-06	2.002929e-07	-1.358853e-09	1.427926e+00	-9.565959e+01
1.900000e-06	2.460548e-07	-1.327132e-09	1.754171e+00	-9.356535e+01
1.910000e-06	2.917541e-07	-1.295681e-09	2.079970e+00	-9.140881e+01
1.920000e-06	3.373975e-07	-1.260458e-09	2.405371e+00	-8.918969e+01
1.930000e-06	3.830637e-07	-1.222640e-09	2.730934e+00	-8.690792e+01
1.940000e-06	4.287459e-07	-1.188291e-09	3.056611e+00	-8.456355e+01
1.950000e-06	4.743122e-07	-1.157543e-09	3.381461e+00	-8.215685e+01
1.960000e-06	5.197555e-07	-1.123493e-09	3.705436e+00	-7.968821e+01
1.970000e-06	5.651692e-07	-1.083775e-09	4.029198e+00	-7.715817e+01
1.980000e-06	6.105361e-07	-1.040937e-09	4.352628e+00	-7.456739e+01
1.990000e-06	6.558334e-07	-1.000611e-09	4.675561e+00	-7.191663e+01
2.000000e-06	7.010834e-07	-9.623916e-10	4.998157e+00	-6.920674e+01
2.010000e-06	7.463579e-07	-9.228254e-10	5.320927e+00	-6.643869e+01
2.020000e-06	7.916189e-07	-8.829126e-10	5.643601e+00	-6.361346e+01
2.030000e-06	8.367482e-07	-8.429606e-10	5.965337e+00	-6.073213e+01
2.040000e-06	8.817724e-07	-7.994751e-10	6.286323e+00	-5.779581e+01
2.050000e-06	9.266994e-07	-7.502893e-10	6.606616e+00	-5.480566e+01
2.060000e-06	9.715540e-07	-6.989373e-10	6.926392e+00	-5.176287e+01
2.070000e-06	1.016377e-06	-6.517612e-10	7.245941e+00	-4.866868e+01
2.080000e-06	1.061107e-06	-6.099754e-10	7.564831e+00	-4.552437e+01
2.090000e-06	1.105737e-06	-5.682778e-10	7.883008e+00	-4.233126e+01
2.100000e-06	1.150252e-06	-5.225164e-10	8.200364e+00	-3.909074e+01
2.110000e-06	1.194753e-06	-4.739077e-10	8.517620e+00	-3.580424e+01
2.120000e-06	1.239289e-06	-4.207002e-10	8.835125e+00	-3.247330e+01
2.130000e-06	1.283693e-06	-3.644821e-10	9.151689e+00	-2.909953e+01
2.140000e-06	1.327909e-06	-3.076252e-10	9.466913e+00	-2.568465e+01
2.150000e-06	1.372042e-06	-2.518977e-10	9.781550e+00	-2.223052e+01
2.160000e-06	1.416158e-06	-2.000348e-10	1.009606e+01	-1.873914e+01
2.170000e-06	1.460203e-06	-1.506833e-10	1.041006e+01	-1.521266e+01
2.180000e-06	1.504194e-06	-9.747129e-11	1.072368e+01	-1.165341e+01
2.190000e-06	1.548148e-06	-3.997451e-11	1.103704e+01	-8.063916e+00
2.200000e-06	1.592041e-06	1.698149e-11	1.134996e+01	-4.446913e+00
2.210000e-06	1.635856e-06	7.142111e-11	1.166233e+01	-8.053423e-01
2.220000e-06	1.679633e-06	1.263065e-10	1.197442e+01	2.857631e+00
2.230000e-06	1.723432e-06	1.809864e-10	1.228668e+01	6.538614e+00
2.240000e-06	1.767145e-06	2.341529e-10	1.259831e+01	1.023399e+01
2.250000e-06	1.810707e-06	2.876872e-10	1.290887e+01	1.393992e+01
2.260000e-06	1.854150e-06	3.433171e-10	1.321859e+01	1.765237e+01
2.270000e-06	1.897466e-06	4.016876e-10	1.352740e+01	2.136707e+01
2.280000e-06	1.940594e-06	4.596906e-10	1.383486e+01	2.507961e+01
2.290000e-06	1.983562e-06	5.145971e-10	1.414119e+01	2.878540e+01
2.300000e-06	2.026293e-06	5.648047e-10	1.444582e+01	3.247973e+01
2.310000e-06	2.068698e-06	6.120500e-10	1.474814e+01	3.615779e+01
2.320000e-06	2.110792e-06	6.593010e-10	1.504824e+01	3.981470e+01
2.330000e-06	2.152597e-06	7.111395e-10	1.534627e+01	4.344556e+01
2.340000e-06	2.194225e-06	7.667560e-10	1.564304e+01	4.704548e+01
2.350000e-06	2.235611e-06	8.243369e-10	1.593809e+01	5.060963e+01
2.360000e-06	2.276680e-06	8.814042e-10	1.623088e+01	5.413327e+01
2.370000e-06	2.317516e-06	9.345023e-10	1.652201e+01	5.761179e+01
2.380000e-06	2.358167e-06	9.819179e-10	1.681182e+01	6.104079e+01
2.390000e-06	2.398549e-06	1.024645e-09	1.709971e+01	6.441607e+01
2.400000e-06	2.438703e-06	1.066085e-09	1.738598e+01	6.773369e+01
2.410000e-06	2.478798e-06	1.109264e-09	1.767182e+01	7.099004e+01
2.420000e-06	2.518801e-06	1.155047e-09	1.795701e+01	7.418180e+01
2.430000e-06	2.558681e-06	1.203699e-09	1.824132e+01	7.730602e+01
2.440000e-06	2.598473e-06	1.254319e-09	1.852500e+01	8.036015e+01
2.450000e-06	2.638187e-06	1.303410e-09	1.880814e+01	8.334203e+01
2.460000e-06	2.677815e-06	1.347455e-09	1.909065e+01	8.624989e+01
2.470000e-06	2.717273e-06	1.384528e-09	1.937196e+01	8.908240e+01
2.480000e-06	2.756524e-06	1.416102e-09	1.965178e+01	9.183865e+01
2.490000e-06	2.795579e-06	1.447995e-09	1.993021e+01	9.451813e+01
2.500000e-06	2.834427e-06	1.482645e-09	2.020717e+01	9.712075e+01
2.510000e-06	2.873048e-06	1.521585e-09	2.048250e+01	9.964677e+01
2.520000e-06	2.911435e-06	1.563016e-09	2.075617e+01	1.020969e+02
2.530000e-06	2.949561e-06	1.602533e-09	2.102798e+01	1.044720e+02
2.540000e-06	2.987526e-06	1.637024e-09	2.129864e+01	1.067734e+02
2.550000e-06	3.025360e-06	1.666265e-09	2.156837e+01	1.090027e+02
2.560000e-06	3.062976e-06	1.693801e-09	2.183654e+01	1.111616e+02
2.570000e-06	3.100371e-06	1.720520e-09	2.210313e+01	1.132521e+02
2.580000e-06	3.137589e-06	1.746610e-09	2.236847e+01	1.152764e+02
2.590000e-06	3.174692e-06	1.774985e-09	2.263298e+01	1.172366e+02
2.600000e-06	3.211488e-06	1.805073e-09	2.289530e+01	1.191350e+02
2.610000e-06	3.247908e-06	1.833075e-09	2.315495e+01	1.209739e+02
2.620000e-06	3.284137e-06	1.859035e-09	2.341324e+01	1.227557e+02
2.630000e-06	3.320227e-06	1.885821e-09	2.367053e+01	1.244825e+02
2.640000e-06	3.356173e-06	1.913232e-09	2.392679e+01	1.261565e+02
2.650000e-06	3.392010e-06	1.936738e-09	2.418228e+01	1.277799e+02
2.660000e-06	3.427757e-06	1.956138e-09	2.443713e+01	1.293544e+02
2.670000e-06	3.463282e-06	1.975787e-09	2.469040e+01	1.308820e+02
2.680000e-06	3.498537e-06	1.996459e-09	2.494174e+01	1.323641e+02
2.690000e-06	3.533618e-06	2.016050e-09	2.519183e+01	1.338022e+02
2.700000e-06	3.568360e-06	2.034995e-09	2.543951e+01	1.351975e+02
2.710000e-06	3.602600e-06	2.055583e-09	2.568362e+01	1.365512e+02
2.720000e-06	3.636318e-06	2.076848e-09	2.592400e+01	1.378641e+02
2.730000e-06	3.669519e-06	2.095247e-09	2.616070e+01	1.391370e+02
2.740000e-06	3.702375e-06	2.111338e-09	2.639494e+01	1.403706e+02
2.750000e-06	3.734993e-06	2.129426e-09	2.662747e+01	1.415651e+02
2.760000e-06	3.767328e-06	2.151681e-09	2.685799e+01	1.427212e+02
2.770000e-06	3.799443e-06	2.172686e-09	2.708695e+01	1.438389e+02
2.780000e-06	3.831420e-06	2.188433e-09	2.731492e+01	1.449187e+02
2.790000e-06	3.863206e-06	2.201708e-09	2.754153e+01	1.459607e+02
2.800000e-06	3.894803e-06	2.216066e-09	2.776679e+01	1.469652e+02
2.810000e-06	3.926214e-06	2.228597e-09	2.799072e+01	1.479323e+02
2.820000e-06	3.957345e-06	2.237436e-09	2.821266e+01	1.488624e+02
2.830000e-06	3.988141e-06	2.245840e-09	2.843221e+01	1.497559e+02
2.840000e-06	4.018585e-06	2.258634e-09	2.864926e+01	1.506132e+02
2.850000e-06	4.048757e-06	2.277221e-09	2.886435e+01	1.514349e+02
2.860000e-06	4.078636e-06	2.294696e-09	2.907737e+01	1.522216e+02
2.870000e-06	4.108283e-06	2.308413e-09	2.928873e+01	1.529742e+02
2.880000e-06	4.137803e-06	2.318932e-09	2.949918e+01	1.536937e+02
2.890000e-06	4.167097e-06	2.325673e-09	2.970802e+01	1.543811e+02
2.900000e-06	4.196020e-06	2.328848e-09	2.991422e+01	1.550377e+02
