# Temperatura_=_20.02
# Concentracion g/m^3_=_4090.0
# C_Vs_to_Am_M_A/Vsm_=_65563218390.804596
# pendiente_HvsI_1/m_=_3716.3
# ordenada_HvsI_A/m_=_1297.0
# frecuencia_Hz_=_135074.6184428348

Tiempo_(s)	Campo_(V.s)	Magnetizacion_(V.s)	Campo_(kA/m)	Magnetizacion_(A/m)
0.000000e+00	-5.447256e-06	-2.728660e-09	-3.838680e+01	-1.746127e+02
1.000000e-08	-5.447362e-06	-2.726952e-09	-3.838756e+01	-1.745690e+02
2.000000e-08	-5.447277e-06	-2.722147e-09	-3.838696e+01	-1.745219e+02
3.000000e-08	-5.446930e-06	-2.716201e-09	-3.838451e+01	-1.744723e+02
4.000000e-08	-5.446133e-06	-2.711570e-09	-3.837890e+01	-1.744217e+02
5.000000e-08	-5.444859e-06	-2.707715e-09	-3.836992e+01	-1.743714e+02
6.000000e-08	-5.443049e-06	-2.710563e-09	-3.835716e+01	-1.743229e+02
7.000000e-08	-5.440639e-06	-2.722730e-09	-3.834017e+01	-1.742774e+02
8.000000e-08	-5.437652e-06	-2.721217e-09	-3.831913e+01	-1.742366e+02
9.000000e-08	-5.434057e-06	-2.691343e-09	-3.829380e+01	-1.742018e+02
1.000000e-07	-5.430038e-06	-2.694081e-09	-3.826547e+01	-1.741742e+02
1.100000e-07	-5.425789e-06	-2.707559e-09	-3.823553e+01	-1.741552e+02
1.200000e-07	-5.421332e-06	-2.716850e-09	-3.820412e+01	-1.741458e+02
1.300000e-07	-5.416566e-06	-2.668990e-09	-3.817053e+01	-1.741468e+02
1.400000e-07	-5.411398e-06	-2.668940e-09	-3.813411e+01	-1.741591e+02
1.500000e-07	-5.405857e-06	-2.696225e-09	-3.809507e+01	-1.741832e+02
1.600000e-07	-5.399986e-06	-2.693303e-09	-3.805369e+01	-1.742195e+02
1.700000e-07	-5.393702e-06	-2.631671e-09	-3.800941e+01	-1.742680e+02
1.800000e-07	-5.386933e-06	-2.637099e-09	-3.796171e+01	-1.743286e+02
1.900000e-07	-5.379881e-06	-2.667037e-09	-3.791201e+01	-1.744009e+02
2.000000e-07	-5.372605e-06	-2.673246e-09	-3.786074e+01	-1.744844e+02
2.100000e-07	-5.364979e-06	-2.634371e-09	-3.780700e+01	-1.745781e+02
2.200000e-07	-5.357033e-06	-2.648160e-09	-3.775100e+01	-1.746812e+02
2.300000e-07	-5.348831e-06	-2.664554e-09	-3.769320e+01	-1.747922e+02
2.400000e-07	-5.340405e-06	-2.646065e-09	-3.763383e+01	-1.749098e+02
2.500000e-07	-5.331454e-06	-2.640786e-09	-3.757075e+01	-1.750323e+02
2.600000e-07	-5.321653e-06	-2.669104e-09	-3.750168e+01	-1.751580e+02
2.700000e-07	-5.311160e-06	-2.691486e-09	-3.742774e+01	-1.752851e+02
2.800000e-07	-5.300251e-06	-2.664351e-09	-3.735086e+01	-1.754116e+02
2.900000e-07	-5.288968e-06	-2.667884e-09	-3.727135e+01	-1.755356e+02
3.000000e-07	-5.277268e-06	-2.686763e-09	-3.718890e+01	-1.756550e+02
3.100000e-07	-5.265179e-06	-2.691014e-09	-3.710371e+01	-1.757680e+02
3.200000e-07	-5.252654e-06	-2.655103e-09	-3.701544e+01	-1.758725e+02
3.300000e-07	-5.239704e-06	-2.670020e-09	-3.692419e+01	-1.759669e+02
3.400000e-07	-5.226410e-06	-2.672486e-09	-3.683051e+01	-1.760492e+02
3.500000e-07	-5.212741e-06	-2.683198e-09	-3.673418e+01	-1.761180e+02
3.600000e-07	-5.198649e-06	-2.668799e-09	-3.663487e+01	-1.761719e+02
3.700000e-07	-5.184131e-06	-2.684560e-09	-3.653257e+01	-1.762095e+02
3.800000e-07	-5.169052e-06	-2.661546e-09	-3.642630e+01	-1.762299e+02
3.900000e-07	-5.153365e-06	-2.664487e-09	-3.631576e+01	-1.762321e+02
4.000000e-07	-5.137150e-06	-2.659925e-09	-3.620149e+01	-1.762156e+02
4.100000e-07	-5.120569e-06	-2.657746e-09	-3.608464e+01	-1.761800e+02
4.200000e-07	-5.103606e-06	-2.638457e-09	-3.596511e+01	-1.761251e+02
4.300000e-07	-5.086283e-06	-2.652806e-09	-3.584303e+01	-1.760510e+02
4.400000e-07	-5.068764e-06	-2.663625e-09	-3.571957e+01	-1.759578e+02
4.500000e-07	-5.050950e-06	-2.652864e-09	-3.559404e+01	-1.758461e+02
4.600000e-07	-5.032809e-06	-2.632441e-09	-3.546620e+01	-1.757164e+02
4.700000e-07	-5.014326e-06	-2.637321e-09	-3.533595e+01	-1.755697e+02
4.800000e-07	-4.995319e-06	-2.642706e-09	-3.520201e+01	-1.754067e+02
4.900000e-07	-4.975854e-06	-2.630890e-09	-3.506484e+01	-1.752287e+02
5.000000e-07	-4.956193e-06	-2.623624e-09	-3.492629e+01	-1.750368e+02
5.100000e-07	-4.936380e-06	-2.627942e-09	-3.478666e+01	-1.748321e+02
5.200000e-07	-4.916346e-06	-2.634767e-09	-3.464549e+01	-1.746161e+02
5.300000e-07	-4.896018e-06	-2.625782e-09	-3.450223e+01	-1.743901e+02
5.400000e-07	-4.875375e-06	-2.622699e-09	-3.435676e+01	-1.741553e+02
5.500000e-07	-4.854411e-06	-2.612797e-09	-3.420903e+01	-1.739131e+02
5.600000e-07	-4.833052e-06	-2.609599e-09	-3.405851e+01	-1.736648e+02
5.700000e-07	-4.811336e-06	-2.604585e-09	-3.390548e+01	-1.734115e+02
5.800000e-07	-4.789270e-06	-2.601673e-09	-3.374998e+01	-1.731544e+02
5.900000e-07	-4.766941e-06	-2.581738e-09	-3.359262e+01	-1.728944e+02
6.000000e-07	-4.744394e-06	-2.581657e-09	-3.343374e+01	-1.726326e+02
6.100000e-07	-4.721458e-06	-2.586465e-09	-3.327211e+01	-1.723696e+02
6.200000e-07	-4.698125e-06	-2.584727e-09	-3.310768e+01	-1.721063e+02
6.300000e-07	-4.674513e-06	-2.564547e-09	-3.294129e+01	-1.718430e+02
6.400000e-07	-4.650691e-06	-2.563701e-09	-3.277342e+01	-1.715803e+02
6.500000e-07	-4.626614e-06	-2.561850e-09	-3.260374e+01	-1.713185e+02
6.600000e-07	-4.602293e-06	-2.557044e-09	-3.243235e+01	-1.710576e+02
6.700000e-07	-4.577738e-06	-2.542754e-09	-3.225931e+01	-1.707978e+02
6.800000e-07	-4.552721e-06	-2.538094e-09	-3.208302e+01	-1.705391e+02
6.900000e-07	-4.527178e-06	-2.530909e-09	-3.190302e+01	-1.702811e+02
7.000000e-07	-4.501168e-06	-2.531035e-09	-3.171972e+01	-1.700238e+02
7.100000e-07	-4.474696e-06	-2.523640e-09	-3.153318e+01	-1.697668e+02
7.200000e-07	-4.447711e-06	-2.517393e-09	-3.134301e+01	-1.695097e+02
7.300000e-07	-4.420255e-06	-2.514394e-09	-3.114953e+01	-1.692521e+02
7.400000e-07	-4.392528e-06	-2.517435e-09	-3.095414e+01	-1.689935e+02
7.500000e-07	-4.364644e-06	-2.511157e-09	-3.075764e+01	-1.687335e+02
7.600000e-07	-4.336613e-06	-2.502408e-09	-3.056010e+01	-1.684715e+02
7.700000e-07	-4.308385e-06	-2.496852e-09	-3.036118e+01	-1.682071e+02
7.800000e-07	-4.279950e-06	-2.494206e-09	-3.016080e+01	-1.679397e+02
7.900000e-07	-4.251160e-06	-2.490687e-09	-2.995792e+01	-1.676690e+02
8.000000e-07	-4.221976e-06	-2.483415e-09	-2.975226e+01	-1.673943e+02
8.100000e-07	-4.192469e-06	-2.475416e-09	-2.954432e+01	-1.671154e+02
8.200000e-07	-4.162656e-06	-2.469945e-09	-2.933423e+01	-1.668318e+02
8.300000e-07	-4.132627e-06	-2.468398e-09	-2.912261e+01	-1.665432e+02
8.400000e-07	-4.102366e-06	-2.462767e-09	-2.890937e+01	-1.662493e+02
8.500000e-07	-4.071801e-06	-2.458400e-09	-2.869398e+01	-1.659499e+02
8.600000e-07	-4.040911e-06	-2.449415e-09	-2.847629e+01	-1.656447e+02
8.700000e-07	-4.009817e-06	-2.443536e-09	-2.825717e+01	-1.653336e+02
8.800000e-07	-3.978500e-06	-2.435406e-09	-2.803648e+01	-1.650164e+02
8.900000e-07	-3.946924e-06	-2.429756e-09	-2.781397e+01	-1.646930e+02
9.000000e-07	-3.915175e-06	-2.422705e-09	-2.759023e+01	-1.643634e+02
9.100000e-07	-3.883241e-06	-2.424264e-09	-2.736520e+01	-1.640275e+02
9.200000e-07	-3.851118e-06	-2.424354e-09	-2.713883e+01	-1.636854e+02
9.300000e-07	-3.818741e-06	-2.424149e-09	-2.691066e+01	-1.633370e+02
9.400000e-07	-3.786012e-06	-2.416802e-09	-2.668002e+01	-1.629823e+02
9.500000e-07	-3.752913e-06	-2.410057e-09	-2.644677e+01	-1.626214e+02
9.600000e-07	-3.719456e-06	-2.401016e-09	-2.621100e+01	-1.622543e+02
9.700000e-07	-3.685500e-06	-2.395859e-09	-2.597172e+01	-1.618812e+02
9.800000e-07	-3.651059e-06	-2.390583e-09	-2.572901e+01	-1.615020e+02
9.900000e-07	-3.616244e-06	-2.387108e-09	-2.548367e+01	-1.611169e+02
1.000000e-06	-3.581110e-06	-2.384185e-09	-2.523608e+01	-1.607260e+02
1.010000e-06	-3.545708e-06	-2.386938e-09	-2.498660e+01	-1.603293e+02
1.020000e-06	-3.510090e-06	-2.384672e-09	-2.473560e+01	-1.599268e+02
1.030000e-06	-3.474329e-06	-2.375309e-09	-2.448359e+01	-1.595188e+02
1.040000e-06	-3.438451e-06	-2.364023e-09	-2.423076e+01	-1.591053e+02
1.050000e-06	-3.402431e-06	-2.355377e-09	-2.397693e+01	-1.586865e+02
1.060000e-06	-3.366140e-06	-2.345867e-09	-2.372118e+01	-1.582623e+02
1.070000e-06	-3.329606e-06	-2.336007e-09	-2.346373e+01	-1.578330e+02
1.080000e-06	-3.292851e-06	-2.328056e-09	-2.320472e+01	-1.573986e+02
1.090000e-06	-3.255826e-06	-2.324718e-09	-2.294380e+01	-1.569593e+02
1.100000e-06	-3.218533e-06	-2.322834e-09	-2.268100e+01	-1.565151e+02
1.110000e-06	-3.180962e-06	-2.316468e-09	-2.241623e+01	-1.560663e+02
1.120000e-06	-3.143210e-06	-2.308850e-09	-2.215019e+01	-1.556128e+02
1.130000e-06	-3.105340e-06	-2.303350e-09	-2.188333e+01	-1.551548e+02
1.140000e-06	-3.067246e-06	-2.297802e-09	-2.161488e+01	-1.546923e+02
1.150000e-06	-3.028910e-06	-2.286367e-09	-2.134473e+01	-1.542255e+02
1.160000e-06	-2.990459e-06	-2.274397e-09	-2.107376e+01	-1.537543e+02
1.170000e-06	-2.951811e-06	-2.262315e-09	-2.080141e+01	-1.532787e+02
1.180000e-06	-2.912892e-06	-2.254531e-09	-2.052715e+01	-1.527988e+02
1.190000e-06	-2.873718e-06	-2.245082e-09	-2.025109e+01	-1.523145e+02
1.200000e-06	-2.834299e-06	-2.237300e-09	-1.997330e+01	-1.518255e+02
1.210000e-06	-2.794733e-06	-2.231288e-09	-1.969448e+01	-1.513318e+02
1.220000e-06	-2.755053e-06	-2.227370e-09	-1.941486e+01	-1.508332e+02
1.230000e-06	-2.715253e-06	-2.218081e-09	-1.913439e+01	-1.503292e+02
1.240000e-06	-2.675318e-06	-2.204136e-09	-1.885296e+01	-1.498197e+02
1.250000e-06	-2.635266e-06	-2.189276e-09	-1.857072e+01	-1.493040e+02
1.260000e-06	-2.595126e-06	-2.179504e-09	-1.828785e+01	-1.487818e+02
1.270000e-06	-2.554826e-06	-2.168602e-09	-1.800386e+01	-1.482524e+02
1.280000e-06	-2.514379e-06	-2.158234e-09	-1.771883e+01	-1.477152e+02
1.290000e-06	-2.473819e-06	-2.150177e-09	-1.743300e+01	-1.471694e+02
1.300000e-06	-2.433066e-06	-2.145079e-09	-1.714581e+01	-1.466145e+02
1.310000e-06	-2.392048e-06	-2.140519e-09	-1.685676e+01	-1.460494e+02
1.320000e-06	-2.350841e-06	-2.132119e-09	-1.656637e+01	-1.454733e+02
1.330000e-06	-2.309404e-06	-2.118335e-09	-1.627437e+01	-1.448853e+02
1.340000e-06	-2.267633e-06	-2.104820e-09	-1.598001e+01	-1.442845e+02
1.350000e-06	-2.225443e-06	-2.092217e-09	-1.568270e+01	-1.436698e+02
1.360000e-06	-2.182801e-06	-2.077867e-09	-1.538219e+01	-1.430404e+02
1.370000e-06	-2.139797e-06	-2.064567e-09	-1.507915e+01	-1.423953e+02
1.380000e-06	-2.096503e-06	-2.055134e-09	-1.477405e+01	-1.417335e+02
1.390000e-06	-2.053063e-06	-2.045998e-09	-1.446793e+01	-1.410541e+02
1.400000e-06	-2.009589e-06	-2.035596e-09	-1.416157e+01	-1.403562e+02
1.410000e-06	-1.966041e-06	-2.024347e-09	-1.385469e+01	-1.396391e+02
1.420000e-06	-1.922457e-06	-2.009761e-09	-1.354755e+01	-1.389019e+02
1.430000e-06	-1.878819e-06	-1.994499e-09	-1.324004e+01	-1.381440e+02
1.440000e-06	-1.835027e-06	-1.978759e-09	-1.293144e+01	-1.373647e+02
1.450000e-06	-1.791131e-06	-1.964429e-09	-1.262210e+01	-1.365635e+02
1.460000e-06	-1.747148e-06	-1.950572e-09	-1.231215e+01	-1.357400e+02
1.470000e-06	-1.703132e-06	-1.935140e-09	-1.200197e+01	-1.348938e+02
1.480000e-06	-1.659094e-06	-1.918717e-09	-1.169164e+01	-1.340246e+02
1.490000e-06	-1.614937e-06	-1.905097e-09	-1.138046e+01	-1.331322e+02
1.500000e-06	-1.570641e-06	-1.892333e-09	-1.106831e+01	-1.322163e+02
1.510000e-06	-1.526301e-06	-1.878053e-09	-1.075584e+01	-1.312771e+02
1.520000e-06	-1.481833e-06	-1.859862e-09	-1.044248e+01	-1.303142e+02
1.530000e-06	-1.437209e-06	-1.843590e-09	-1.012801e+01	-1.293278e+02
1.540000e-06	-1.392504e-06	-1.830711e-09	-9.812971e+00	-1.283178e+02
1.550000e-06	-1.347728e-06	-1.819400e-09	-9.497434e+00	-1.272842e+02
1.560000e-06	-1.302910e-06	-1.806186e-09	-9.181604e+00	-1.262268e+02
1.570000e-06	-1.257939e-06	-1.790487e-09	-8.864694e+00	-1.251457e+02
1.580000e-06	-1.212841e-06	-1.774016e-09	-8.546887e+00	-1.240405e+02
1.590000e-06	-1.167694e-06	-1.758146e-09	-8.228741e+00	-1.229111e+02
1.600000e-06	-1.122429e-06	-1.739792e-09	-7.909755e+00	-1.217570e+02
1.610000e-06	-1.077052e-06	-1.720058e-09	-7.589986e+00	-1.205778e+02
1.620000e-06	-1.031625e-06	-1.701629e-09	-7.269857e+00	-1.193727e+02
1.630000e-06	-9.861404e-07	-1.687194e-09	-6.949330e+00	-1.181410e+02
1.640000e-06	-9.405479e-07	-1.671798e-09	-6.628040e+00	-1.168817e+02
1.650000e-06	-8.948371e-07	-1.651823e-09	-6.305916e+00	-1.155936e+02
1.660000e-06	-8.491132e-07	-1.631629e-09	-5.983700e+00	-1.142754e+02
1.670000e-06	-8.034294e-07	-1.612170e-09	-5.661766e+00	-1.129255e+02
1.680000e-06	-7.577294e-07	-1.590719e-09	-5.339718e+00	-1.115423e+02
1.690000e-06	-7.119403e-07	-1.565552e-09	-5.017043e+00	-1.101238e+02
1.700000e-06	-6.660641e-07	-1.540846e-09	-4.693753e+00	-1.086682e+02
1.710000e-06	-6.201398e-07	-1.520269e-09	-4.370124e+00	-1.071731e+02
1.720000e-06	-5.742027e-07	-1.502405e-09	-4.046406e+00	-1.056363e+02
1.730000e-06	-5.282199e-07	-1.482100e-09	-3.722365e+00	-1.040554e+02
1.740000e-06	-4.821948e-07	-1.459244e-09	-3.398026e+00	-1.024279e+02
1.750000e-06	-4.361129e-07	-1.435153e-09	-3.073287e+00	-1.007513e+02
1.760000e-06	-3.899549e-07	-1.409548e-09	-2.748012e+00	-9.902308e+01
1.770000e-06	-3.437974e-07	-1.380266e-09	-2.422740e+00	-9.724079e+01
1.780000e-06	-2.976199e-07	-1.349093e-09	-2.097327e+00	-9.540194e+01
1.790000e-06	-2.513897e-07	-1.320691e-09	-1.771543e+00	-9.350421e+01
1.800000e-06	-2.051162e-07	-1.294422e-09	-1.445454e+00	-9.154538e+01
1.810000e-06	-1.588097e-07	-1.266982e-09	-1.119132e+00	-8.952342e+01
1.820000e-06	-1.126143e-07	-1.237541e-09	-7.935926e-01	-8.743648e+01
1.830000e-06	-6.642500e-08	-1.207037e-09	-4.680969e-01	-8.528297e+01
1.840000e-06	-2.019221e-08	-1.175107e-09	-1.422945e-01	-8.306154e+01
1.850000e-06	2.595065e-08	-1.138305e-09	1.828742e-01	-8.077115e+01
1.860000e-06	7.214010e-08	-1.097008e-09	5.083712e-01	-7.841107e+01
1.870000e-06	1.183759e-07	-1.055063e-09	8.341948e-01	-7.598090e+01
1.880000e-06	1.645911e-07	-1.018149e-09	1.159873e+00	-7.348060e+01
1.890000e-06	2.108334e-07	-9.831809e-10	1.485742e+00	-7.091046e+01
1.900000e-06	2.570506e-07	-9.484243e-10	1.811436e+00	-6.827115e+01
1.910000e-06	3.032399e-07	-9.109575e-10	2.136932e+00	-6.556371e+01
1.920000e-06	3.494423e-07	-8.711759e-10	2.462520e+00	-6.278950e+01
1.930000e-06	3.955545e-07	-8.261960e-10	2.787472e+00	-5.995026e+01
1.940000e-06	4.416293e-07	-7.745682e-10	3.112161e+00	-5.704803e+01
1.950000e-06	4.876560e-07	-7.231014e-10	3.436511e+00	-5.408517e+01
1.960000e-06	5.336078e-07	-6.763223e-10	3.760334e+00	-5.106432e+01
1.970000e-06	5.795655e-07	-6.345650e-10	4.084197e+00	-4.798837e+01
1.980000e-06	6.255579e-07	-5.933244e-10	4.408306e+00	-4.486045e+01
1.990000e-06	6.714421e-07	-5.503097e-10	4.731651e+00	-4.168386e+01
2.000000e-06	7.171816e-07	-5.051655e-10	5.053978e+00	-3.846208e+01
2.010000e-06	7.629375e-07	-4.550274e-10	5.376420e+00	-3.519869e+01
2.020000e-06	8.086953e-07	-4.008366e-10	5.698875e+00	-3.189738e+01
2.030000e-06	8.544171e-07	-3.447894e-10	6.021076e+00	-2.856187e+01
2.040000e-06	9.001197e-07	-2.905387e-10	6.343142e+00	-2.519592e+01
2.050000e-06	9.457368e-07	-2.408843e-10	6.664606e+00	-2.180325e+01
2.060000e-06	9.912639e-07	-1.925815e-10	6.985435e+00	-1.838757e+01
2.070000e-06	1.036676e-06	-1.456529e-10	7.305453e+00	-1.495248e+01
2.080000e-06	1.081957e-06	-1.004473e-10	7.624546e+00	-1.150153e+01
2.090000e-06	1.127194e-06	-5.424771e-11	7.943336e+00	-8.038119e+00
2.100000e-06	1.172338e-06	-4.204791e-12	8.261467e+00	-4.565538e+00
2.110000e-06	1.217347e-06	5.071064e-11	8.578641e+00	-1.086933e+00
2.120000e-06	1.262171e-06	1.104160e-10	8.894520e+00	2.394699e+00
2.130000e-06	1.306881e-06	1.698505e-10	9.209587e+00	5.876508e+00
2.140000e-06	1.351541e-06	2.248756e-10	9.524310e+00	9.355798e+00
2.150000e-06	1.396122e-06	2.746116e-10	9.838469e+00	1.283001e+01
2.160000e-06	1.440618e-06	3.205296e-10	1.015203e+01	1.629674e+01
2.170000e-06	1.484999e-06	3.631444e-10	1.046478e+01	1.975368e+01
2.180000e-06	1.529325e-06	4.081011e-10	1.077715e+01	2.319866e+01
2.190000e-06	1.573647e-06	4.585782e-10	1.108949e+01	2.662960e+01
2.200000e-06	1.617896e-06	5.133728e-10	1.140131e+01	3.004448e+01
2.210000e-06	1.662036e-06	5.684301e-10	1.171237e+01	3.344137e+01
2.220000e-06	1.706074e-06	6.229547e-10	1.202270e+01	3.681836e+01
2.230000e-06	1.750045e-06	6.763682e-10	1.233257e+01	4.017358e+01
2.240000e-06	1.794008e-06	7.260697e-10	1.264237e+01	4.350515e+01
2.250000e-06	1.837935e-06	7.709308e-10	1.295192e+01	4.681119e+01
2.260000e-06	1.881753e-06	8.115304e-10	1.326071e+01	5.008983e+01
2.270000e-06	1.925473e-06	8.535419e-10	1.356881e+01	5.333911e+01
2.280000e-06	1.969140e-06	8.951546e-10	1.387652e+01	5.655709e+01
2.290000e-06	2.012588e-06	9.370735e-10	1.418271e+01	5.974174e+01
2.300000e-06	2.055843e-06	9.828113e-10	1.448752e+01	6.289104e+01
2.310000e-06	2.099008e-06	1.031544e-09	1.479171e+01	6.600287e+01
2.320000e-06	2.141865e-06	1.079076e-09	1.509372e+01	6.907512e+01
2.330000e-06	2.184408e-06	1.123363e-09	1.539352e+01	7.210565e+01
2.340000e-06	2.226753e-06	1.164114e-09	1.569192e+01	7.509229e+01
2.350000e-06	2.268799e-06	1.202255e-09	1.598822e+01	7.803290e+01
2.360000e-06	2.310479e-06	1.239514e-09	1.628194e+01	8.092535e+01
2.370000e-06	2.351878e-06	1.275162e-09	1.657368e+01	8.376755e+01
2.380000e-06	2.393019e-06	1.310346e-09	1.686360e+01	8.655750e+01
2.390000e-06	2.433821e-06	1.350157e-09	1.715113e+01	8.929327e+01
2.400000e-06	2.474366e-06	1.393035e-09	1.743685e+01	9.197305e+01
2.410000e-06	2.514810e-06	1.433275e-09	1.772186e+01	9.459520e+01
2.420000e-06	2.555208e-06	1.470284e-09	1.800655e+01	9.715820e+01
2.430000e-06	2.595459e-06	1.509512e-09	1.829019e+01	9.966075e+01
2.440000e-06	2.635512e-06	1.549177e-09	1.857245e+01	1.021017e+02
2.450000e-06	2.675487e-06	1.580373e-09	1.885416e+01	1.044803e+02
2.460000e-06	2.715374e-06	1.605836e-09	1.913524e+01	1.067957e+02
2.470000e-06	2.755169e-06	1.634835e-09	1.941567e+01	1.090477e+02
2.480000e-06	2.794834e-06	1.668425e-09	1.969519e+01	1.112360e+02
2.490000e-06	2.834274e-06	1.700865e-09	1.997313e+01	1.133609e+02
2.500000e-06	2.873528e-06	1.730783e-09	2.024975e+01	1.154226e+02
2.510000e-06	2.912590e-06	1.762409e-09	2.052502e+01	1.174218e+02
2.520000e-06	2.951403e-06	1.798239e-09	2.079853e+01	1.193595e+02
2.530000e-06	2.989976e-06	1.828896e-09	2.107036e+01	1.212366e+02
2.540000e-06	3.028323e-06	1.848067e-09	2.134059e+01	1.230546e+02
2.550000e-06	3.066492e-06	1.865121e-09	2.160956e+01	1.248148e+02
2.560000e-06	3.104478e-06	1.889001e-09	2.187726e+01	1.265191e+02
2.570000e-06	3.142287e-06	1.915462e-09	2.214369e+01	1.281693e+02
2.580000e-06	3.179909e-06	1.938242e-09	2.240881e+01	1.297671e+02
2.590000e-06	3.217249e-06	1.959792e-09	2.267195e+01	1.313148e+02
2.600000e-06	3.254371e-06	1.985661e-09	2.293355e+01	1.328142e+02
2.610000e-06	3.291285e-06	2.012790e-09	2.319368e+01	1.342676e+02
2.620000e-06	3.327893e-06	2.036268e-09	2.345166e+01	1.356769e+02
2.630000e-06	3.364249e-06	2.055801e-09	2.370786e+01	1.370442e+02
2.640000e-06	3.400457e-06	2.074427e-09	2.396302e+01	1.383714e+02
2.650000e-06	3.436563e-06	2.092269e-09	2.421745e+01	1.396603e+02
2.660000e-06	3.472531e-06	2.107244e-09	2.447092e+01	1.409127e+02
2.670000e-06	3.508338e-06	2.122663e-09	2.472325e+01	1.421302e+02
2.680000e-06	3.544003e-06	2.142674e-09	2.497459e+01	1.433142e+02
2.690000e-06	3.579479e-06	2.165559e-09	2.522458e+01	1.444660e+02
2.700000e-06	3.614658e-06	2.184745e-09	2.547249e+01	1.455866e+02
2.710000e-06	3.649400e-06	2.198619e-09	2.571732e+01	1.466770e+02
2.720000e-06	3.683754e-06	2.212931e-09	2.595941e+01	1.477379e+02
2.730000e-06	3.717735e-06	2.229143e-09	2.619887e+01	1.487698e+02
2.740000e-06	3.751225e-06	2.244652e-09	2.643488e+01	1.497733e+02
2.750000e-06	3.784263e-06	2.258450e-09	2.666770e+01	1.507486e+02
2.760000e-06	3.816959e-06	2.274481e-09	2.689811e+01	1.516958e+02
2.770000e-06	3.849375e-06	2.293290e-09	2.712654e+01	1.526149e+02
2.780000e-06	3.881583e-06	2.307499e-09	2.735351e+01	1.535059e+02
2.790000e-06	3.913620e-06	2.315927e-09	2.757927e+01	1.543688e+02
2.800000e-06	3.945456e-06	2.324104e-09	2.780362e+01	1.552033e+02
2.810000e-06	3.977121e-06	2.336376e-09	2.802677e+01	1.560093e+02
2.820000e-06	4.008567e-06	2.349053e-09	2.824837e+01	1.567866e+02
2.830000e-06	4.039747e-06	2.357646e-09	2.846809e+01	1.575352e+02
2.840000e-06	4.070621e-06	2.364927e-09	2.868566e+01	1.582549e+02
2.850000e-06	4.101146e-06	2.374639e-09	2.890077e+01	1.589460e+02
2.860000e-06	4.131354e-06	2.386156e-09	2.911365e+01	1.596084e+02
2.870000e-06	4.161346e-06	2.397671e-09	2.932500e+01	1.602424e+02
2.880000e-06	4.191102e-06	2.408144e-09	2.953469e+01	1.608485e+02
2.890000e-06	4.220547e-06	2.415174e-09	2.974219e+01	1.614271e+02
2.900000e-06	4.249715e-06	2.418351e-09	2.994774e+01	1.619789e+02
