# Temperatura_=_-1.6
# Concentracion g/m^3_=_4090.0
# C_Vs_to_Am_M_A/Vsm_=_65563218390.804596
# pendiente_HvsI_1/m_=_3716.3
# ordenada_HvsI_A/m_=_1297.0
# frecuencia_Hz_=_135081.4331588816

Tiempo_(s)	Campo_(V.s)	Magnetizacion_(V.s)	Campo_(kA/m)	Magnetizacion_(A/m)
0.000000e+00	-5.449458e-06	-2.545670e-09	-3.839903e+01	-1.635950e+02
1.000000e-08	-5.449609e-06	-2.547044e-09	-3.840009e+01	-1.635982e+02
2.000000e-08	-5.449541e-06	-2.546231e-09	-3.839961e+01	-1.636029e+02
3.000000e-08	-5.449154e-06	-2.545604e-09	-3.839689e+01	-1.636098e+02
4.000000e-08	-5.448368e-06	-2.545935e-09	-3.839135e+01	-1.636200e+02
5.000000e-08	-5.447112e-06	-2.543002e-09	-3.838250e+01	-1.636345e+02
6.000000e-08	-5.445363e-06	-2.536735e-09	-3.837018e+01	-1.636540e+02
7.000000e-08	-5.442988e-06	-2.534526e-09	-3.835344e+01	-1.636795e+02
8.000000e-08	-5.439936e-06	-2.544523e-09	-3.833194e+01	-1.637117e+02
9.000000e-08	-5.436244e-06	-2.548724e-09	-3.830592e+01	-1.637513e+02
1.000000e-07	-5.432011e-06	-2.534557e-09	-3.827609e+01	-1.637988e+02
1.100000e-07	-5.427638e-06	-2.517371e-09	-3.824527e+01	-1.638548e+02
1.200000e-07	-5.423196e-06	-2.587937e-09	-3.821398e+01	-1.639196e+02
1.300000e-07	-5.418429e-06	-2.528263e-09	-3.818039e+01	-1.639933e+02
1.400000e-07	-5.413221e-06	-2.513647e-09	-3.814369e+01	-1.640759e+02
1.500000e-07	-5.407599e-06	-2.479925e-09	-3.810408e+01	-1.641674e+02
1.600000e-07	-5.401747e-06	-2.550169e-09	-3.806284e+01	-1.642676e+02
1.700000e-07	-5.395476e-06	-2.523525e-09	-3.801865e+01	-1.643758e+02
1.800000e-07	-5.388697e-06	-2.465308e-09	-3.797089e+01	-1.644917e+02
1.900000e-07	-5.381548e-06	-2.501988e-09	-3.792051e+01	-1.646144e+02
2.000000e-07	-5.374138e-06	-2.538818e-09	-3.786829e+01	-1.647431e+02
2.100000e-07	-5.366459e-06	-2.533949e-09	-3.781418e+01	-1.648769e+02
2.200000e-07	-5.358578e-06	-2.459877e-09	-3.775865e+01	-1.650147e+02
2.300000e-07	-5.350446e-06	-2.532894e-09	-3.770135e+01	-1.651553e+02
2.400000e-07	-5.341871e-06	-2.553364e-09	-3.764093e+01	-1.652974e+02
2.500000e-07	-5.332731e-06	-2.541259e-09	-3.757653e+01	-1.654398e+02
2.600000e-07	-5.322815e-06	-2.502033e-09	-3.750665e+01	-1.655812e+02
2.700000e-07	-5.312196e-06	-2.599303e-09	-3.743182e+01	-1.657200e+02
2.800000e-07	-5.301084e-06	-2.579091e-09	-3.735353e+01	-1.658551e+02
2.900000e-07	-5.289582e-06	-2.524058e-09	-3.727248e+01	-1.659851e+02
3.000000e-07	-5.277720e-06	-2.535708e-09	-3.718889e+01	-1.661086e+02
3.100000e-07	-5.265505e-06	-2.613869e-09	-3.710282e+01	-1.662244e+02
3.200000e-07	-5.252869e-06	-2.555165e-09	-3.701379e+01	-1.663314e+02
3.300000e-07	-5.239871e-06	-2.529792e-09	-3.692220e+01	-1.664284e+02
3.400000e-07	-5.226519e-06	-2.578027e-09	-3.682812e+01	-1.665145e+02
3.500000e-07	-5.212699e-06	-2.595927e-09	-3.673073e+01	-1.665889e+02
3.600000e-07	-5.198543e-06	-2.529824e-09	-3.663099e+01	-1.666507e+02
3.700000e-07	-5.184104e-06	-2.552967e-09	-3.652924e+01	-1.666993e+02
3.800000e-07	-5.168972e-06	-2.560870e-09	-3.642262e+01	-1.667343e+02
3.900000e-07	-5.153178e-06	-2.526248e-09	-3.631132e+01	-1.667553e+02
4.000000e-07	-5.136843e-06	-2.529874e-09	-3.619622e+01	-1.667621e+02
4.100000e-07	-5.120021e-06	-2.566972e-09	-3.607769e+01	-1.667546e+02
4.200000e-07	-5.102921e-06	-2.532910e-09	-3.595719e+01	-1.667328e+02
4.300000e-07	-5.085620e-06	-2.506533e-09	-3.583528e+01	-1.666970e+02
4.400000e-07	-5.068076e-06	-2.558761e-09	-3.571166e+01	-1.666474e+02
4.500000e-07	-5.050175e-06	-2.539413e-09	-3.558552e+01	-1.665845e+02
4.600000e-07	-5.031964e-06	-2.501546e-09	-3.545720e+01	-1.665088e+02
4.700000e-07	-5.013415e-06	-2.509977e-09	-3.532650e+01	-1.664208e+02
4.800000e-07	-4.994458e-06	-2.549971e-09	-3.519292e+01	-1.663212e+02
4.900000e-07	-4.975030e-06	-2.516996e-09	-3.505602e+01	-1.662109e+02
5.000000e-07	-4.955259e-06	-2.526263e-09	-3.491671e+01	-1.660906e+02
5.100000e-07	-4.935354e-06	-2.521956e-09	-3.477645e+01	-1.659611e+02
5.200000e-07	-4.915297e-06	-2.522749e-09	-3.463512e+01	-1.658234e+02
5.300000e-07	-4.895008e-06	-2.511935e-09	-3.449215e+01	-1.656783e+02
5.400000e-07	-4.874324e-06	-2.527991e-09	-3.434641e+01	-1.655268e+02
5.500000e-07	-4.853146e-06	-2.490996e-09	-3.419718e+01	-1.653697e+02
5.600000e-07	-4.831690e-06	-2.500037e-09	-3.404599e+01	-1.652079e+02
5.700000e-07	-4.809960e-06	-2.514491e-09	-3.389287e+01	-1.650422e+02
5.800000e-07	-4.787890e-06	-2.519490e-09	-3.373736e+01	-1.648735e+02
5.900000e-07	-4.765474e-06	-2.491326e-09	-3.357941e+01	-1.647026e+02
6.000000e-07	-4.742738e-06	-2.502042e-09	-3.341920e+01	-1.645302e+02
6.100000e-07	-4.719704e-06	-2.498306e-09	-3.325689e+01	-1.643570e+02
6.200000e-07	-4.696285e-06	-2.495318e-09	-3.309187e+01	-1.641835e+02
6.300000e-07	-4.672568e-06	-2.479808e-09	-3.292476e+01	-1.640103e+02
6.400000e-07	-4.648701e-06	-2.473056e-09	-3.275658e+01	-1.638379e+02
6.500000e-07	-4.624682e-06	-2.470163e-09	-3.258734e+01	-1.636668e+02
6.600000e-07	-4.600402e-06	-2.478133e-09	-3.241625e+01	-1.634971e+02
6.700000e-07	-4.575604e-06	-2.466817e-09	-3.224151e+01	-1.633292e+02
6.800000e-07	-4.550331e-06	-2.453051e-09	-3.206342e+01	-1.631633e+02
6.900000e-07	-4.524548e-06	-2.454823e-09	-3.188175e+01	-1.629995e+02
7.000000e-07	-4.498195e-06	-2.457559e-09	-3.169605e+01	-1.628379e+02
7.100000e-07	-4.471442e-06	-2.449867e-09	-3.150755e+01	-1.626783e+02
7.200000e-07	-4.444175e-06	-2.434396e-09	-3.131541e+01	-1.625208e+02
7.300000e-07	-4.416546e-06	-2.433687e-09	-3.112072e+01	-1.623652e+02
7.400000e-07	-4.388835e-06	-2.434846e-09	-3.092546e+01	-1.622112e+02
7.500000e-07	-4.360969e-06	-2.438175e-09	-3.072911e+01	-1.620587e+02
7.600000e-07	-4.332888e-06	-2.421201e-09	-3.053124e+01	-1.619072e+02
7.700000e-07	-4.304599e-06	-2.417860e-09	-3.033190e+01	-1.617564e+02
7.800000e-07	-4.276064e-06	-2.417776e-09	-3.013084e+01	-1.616060e+02
7.900000e-07	-4.247284e-06	-2.424493e-09	-2.992804e+01	-1.614554e+02
8.000000e-07	-4.218153e-06	-2.410167e-09	-2.972277e+01	-1.613042e+02
8.100000e-07	-4.188665e-06	-2.403785e-09	-2.951498e+01	-1.611519e+02
8.200000e-07	-4.158872e-06	-2.397110e-09	-2.930505e+01	-1.609980e+02
8.300000e-07	-4.128728e-06	-2.404305e-09	-2.909264e+01	-1.608419e+02
8.400000e-07	-4.098246e-06	-2.393453e-09	-2.887786e+01	-1.606831e+02
8.500000e-07	-4.067505e-06	-2.384883e-09	-2.866124e+01	-1.605211e+02
8.600000e-07	-4.036499e-06	-2.376359e-09	-2.844276e+01	-1.603553e+02
8.700000e-07	-4.005272e-06	-2.385488e-09	-2.822273e+01	-1.601853e+02
8.800000e-07	-3.973803e-06	-2.379765e-09	-2.800098e+01	-1.600105e+02
8.900000e-07	-3.942088e-06	-2.371958e-09	-2.777751e+01	-1.598305e+02
9.000000e-07	-3.910244e-06	-2.362947e-09	-2.755312e+01	-1.596448e+02
9.100000e-07	-3.878245e-06	-2.368844e-09	-2.732765e+01	-1.594531e+02
9.200000e-07	-3.846076e-06	-2.366868e-09	-2.710097e+01	-1.592551e+02
9.300000e-07	-3.813647e-06	-2.359664e-09	-2.687246e+01	-1.590504e+02
9.400000e-07	-3.780920e-06	-2.351356e-09	-2.664185e+01	-1.588389e+02
9.500000e-07	-3.747856e-06	-2.354287e-09	-2.640887e+01	-1.586203e+02
9.600000e-07	-3.714293e-06	-2.355184e-09	-2.617237e+01	-1.583946e+02
9.700000e-07	-3.680100e-06	-2.349968e-09	-2.593144e+01	-1.581618e+02
9.800000e-07	-3.645486e-06	-2.344021e-09	-2.568753e+01	-1.579218e+02
9.900000e-07	-3.610687e-06	-2.344624e-09	-2.544232e+01	-1.576748e+02
1.000000e-06	-3.575496e-06	-2.347431e-09	-2.519436e+01	-1.574209e+02
1.010000e-06	-3.539872e-06	-2.341655e-09	-2.494333e+01	-1.571604e+02
1.020000e-06	-3.504045e-06	-2.335311e-09	-2.469088e+01	-1.568936e+02
1.030000e-06	-3.468119e-06	-2.330021e-09	-2.443774e+01	-1.566207e+02
1.040000e-06	-3.432108e-06	-2.328742e-09	-2.418398e+01	-1.563423e+02
1.050000e-06	-3.396062e-06	-2.318774e-09	-2.392999e+01	-1.560586e+02
1.060000e-06	-3.359882e-06	-2.309105e-09	-2.367506e+01	-1.557701e+02
1.070000e-06	-3.323443e-06	-2.300147e-09	-2.341829e+01	-1.554774e+02
1.080000e-06	-3.286725e-06	-2.299117e-09	-2.315956e+01	-1.551809e+02
1.090000e-06	-3.249696e-06	-2.293329e-09	-2.289864e+01	-1.548810e+02
1.100000e-06	-3.212392e-06	-2.289657e-09	-2.263578e+01	-1.545783e+02
1.110000e-06	-3.174834e-06	-2.284862e-09	-2.237113e+01	-1.542731e+02
1.120000e-06	-3.137120e-06	-2.285858e-09	-2.210539e+01	-1.539660e+02
1.130000e-06	-3.099260e-06	-2.281627e-09	-2.183860e+01	-1.536571e+02
1.140000e-06	-3.061173e-06	-2.276539e-09	-2.157023e+01	-1.533469e+02
1.150000e-06	-3.022874e-06	-2.267899e-09	-2.130036e+01	-1.530356e+02
1.160000e-06	-2.984348e-06	-2.265432e-09	-2.102889e+01	-1.527233e+02
1.170000e-06	-2.945555e-06	-2.256922e-09	-2.075554e+01	-1.524102e+02
1.180000e-06	-2.906568e-06	-2.248314e-09	-2.048083e+01	-1.520961e+02
1.190000e-06	-2.867391e-06	-2.239923e-09	-2.020477e+01	-1.517810e+02
1.200000e-06	-2.827994e-06	-2.240788e-09	-1.992716e+01	-1.514647e+02
1.210000e-06	-2.788315e-06	-2.239748e-09	-1.964756e+01	-1.511469e+02
1.220000e-06	-2.748493e-06	-2.235359e-09	-1.936697e+01	-1.508271e+02
1.230000e-06	-2.708661e-06	-2.225924e-09	-1.908629e+01	-1.505050e+02
1.240000e-06	-2.668681e-06	-2.218400e-09	-1.880458e+01	-1.501798e+02
1.250000e-06	-2.628602e-06	-2.208606e-09	-1.852217e+01	-1.498511e+02
1.260000e-06	-2.588423e-06	-2.196609e-09	-1.823905e+01	-1.495179e+02
1.270000e-06	-2.548141e-06	-2.185780e-09	-1.795521e+01	-1.491795e+02
1.280000e-06	-2.507753e-06	-2.180064e-09	-1.767062e+01	-1.488350e+02
1.290000e-06	-2.467070e-06	-2.180133e-09	-1.738395e+01	-1.484835e+02
1.300000e-06	-2.426178e-06	-2.178571e-09	-1.709581e+01	-1.481242e+02
1.310000e-06	-2.385150e-06	-2.176024e-09	-1.680671e+01	-1.477560e+02
1.320000e-06	-2.343819e-06	-2.168669e-09	-1.651547e+01	-1.473781e+02
1.330000e-06	-2.302201e-06	-2.157913e-09	-1.622222e+01	-1.469894e+02
1.340000e-06	-2.260247e-06	-2.141776e-09	-1.592659e+01	-1.465890e+02
1.350000e-06	-2.217981e-06	-2.127638e-09	-1.562877e+01	-1.461762e+02
1.360000e-06	-2.175435e-06	-2.117444e-09	-1.532898e+01	-1.457501e+02
1.370000e-06	-2.132547e-06	-2.114777e-09	-1.502676e+01	-1.453100e+02
1.380000e-06	-2.089389e-06	-2.113922e-09	-1.472266e+01	-1.448551e+02
1.390000e-06	-2.046062e-06	-2.110258e-09	-1.441736e+01	-1.443850e+02
1.400000e-06	-2.002541e-06	-2.100869e-09	-1.411069e+01	-1.438990e+02
1.410000e-06	-1.958916e-06	-2.089710e-09	-1.380329e+01	-1.433968e+02
1.420000e-06	-1.915218e-06	-2.072773e-09	-1.349538e+01	-1.428782e+02
1.430000e-06	-1.871437e-06	-2.057353e-09	-1.318688e+01	-1.423428e+02
1.440000e-06	-1.827652e-06	-2.046141e-09	-1.287835e+01	-1.417905e+02
1.450000e-06	-1.783791e-06	-2.041471e-09	-1.256929e+01	-1.412213e+02
1.460000e-06	-1.739816e-06	-2.036942e-09	-1.225943e+01	-1.406352e+02
1.470000e-06	-1.695755e-06	-2.030198e-09	-1.194896e+01	-1.400324e+02
1.480000e-06	-1.651637e-06	-2.017727e-09	-1.163809e+01	-1.394130e+02
1.490000e-06	-1.607438e-06	-2.005053e-09	-1.132664e+01	-1.387771e+02
1.500000e-06	-1.563152e-06	-1.992116e-09	-1.101458e+01	-1.381251e+02
1.510000e-06	-1.518841e-06	-1.979030e-09	-1.070235e+01	-1.374571e+02
1.520000e-06	-1.474380e-06	-1.967343e-09	-1.038906e+01	-1.367735e+02
1.530000e-06	-1.429811e-06	-1.961364e-09	-1.007501e+01	-1.360743e+02
1.540000e-06	-1.385212e-06	-1.956717e-09	-9.760753e+00	-1.353599e+02
1.550000e-06	-1.340488e-06	-1.947049e-09	-9.445607e+00	-1.346302e+02
1.560000e-06	-1.295619e-06	-1.933135e-09	-9.129441e+00	-1.338854e+02
1.570000e-06	-1.250691e-06	-1.919919e-09	-8.812860e+00	-1.331255e+02
1.580000e-06	-1.205563e-06	-1.910331e-09	-8.494871e+00	-1.323502e+02
1.590000e-06	-1.160242e-06	-1.901062e-09	-8.175525e+00	-1.315594e+02
1.600000e-06	-1.114877e-06	-1.888620e-09	-7.855860e+00	-1.307526e+02
1.610000e-06	-1.069434e-06	-1.875894e-09	-7.535653e+00	-1.299294e+02
1.620000e-06	-1.024018e-06	-1.864843e-09	-7.215634e+00	-1.290890e+02
1.630000e-06	-9.785426e-07	-1.852894e-09	-6.895197e+00	-1.282308e+02
1.640000e-06	-9.330030e-07	-1.837616e-09	-6.574307e+00	-1.273537e+02
1.650000e-06	-8.873904e-07	-1.822852e-09	-6.252902e+00	-1.264566e+02
1.660000e-06	-8.416507e-07	-1.814613e-09	-5.930602e+00	-1.255384e+02
1.670000e-06	-7.958112e-07	-1.806653e-09	-5.607600e+00	-1.245977e+02
1.680000e-06	-7.499411e-07	-1.793235e-09	-5.284381e+00	-1.236330e+02
1.690000e-06	-7.041064e-07	-1.774203e-09	-4.961411e+00	-1.226427e+02
1.700000e-06	-6.582358e-07	-1.756942e-09	-4.638189e+00	-1.216251e+02
1.710000e-06	-6.123200e-07	-1.740026e-09	-4.314648e+00	-1.205783e+02
1.720000e-06	-5.663776e-07	-1.721091e-09	-3.990920e+00	-1.195006e+02
1.730000e-06	-5.203335e-07	-1.702380e-09	-3.666475e+00	-1.183899e+02
1.740000e-06	-4.742064e-07	-1.690683e-09	-3.341445e+00	-1.172442e+02
1.750000e-06	-4.280950e-07	-1.680440e-09	-3.016526e+00	-1.160615e+02
1.760000e-06	-3.819601e-07	-1.666906e-09	-2.691441e+00	-1.148398e+02
1.770000e-06	-3.357950e-07	-1.646711e-09	-2.366144e+00	-1.135769e+02
1.780000e-06	-2.896529e-07	-1.626843e-09	-2.041009e+00	-1.122710e+02
1.790000e-06	-2.434316e-07	-1.607117e-09	-1.715315e+00	-1.109198e+02
1.800000e-06	-1.972108e-07	-1.583238e-09	-1.389625e+00	-1.095215e+02
1.810000e-06	-1.510867e-07	-1.557352e-09	-1.064616e+00	-1.080740e+02
1.820000e-06	-1.049058e-07	-1.535287e-09	-7.392078e-01	-1.065755e+02
1.830000e-06	-5.871865e-08	-1.515669e-09	-4.137548e-01	-1.050242e+02
1.840000e-06	-1.255675e-08	-1.495773e-09	-8.847984e-02	-1.034183e+02
1.850000e-06	3.365959e-08	-1.472532e-09	2.371787e-01	-1.017560e+02
1.860000e-06	7.983937e-08	-1.443604e-09	5.625797e-01	-1.000358e+02
1.870000e-06	1.259881e-07	-1.414899e-09	8.877621e-01	-9.825618e+01
1.880000e-06	1.721816e-07	-1.385295e-09	1.213260e+00	-9.641557e+01
1.890000e-06	2.183823e-07	-1.352197e-09	1.538808e+00	-9.451261e+01
1.900000e-06	2.645309e-07	-1.319741e-09	1.863989e+00	-9.254599e+01
1.910000e-06	3.107772e-07	-1.289408e-09	2.189859e+00	-9.051446e+01
1.920000e-06	3.570310e-07	-1.258471e-09	2.515781e+00	-8.841685e+01
1.930000e-06	4.031367e-07	-1.228086e-09	2.840660e+00	-8.625205e+01
1.940000e-06	4.492481e-07	-1.195184e-09	3.165579e+00	-8.401906e+01
1.950000e-06	4.953348e-07	-1.159682e-09	3.490324e+00	-8.171691e+01
1.960000e-06	5.413620e-07	-1.121633e-09	3.814650e+00	-7.934473e+01
1.970000e-06	5.873541e-07	-1.080542e-09	4.138729e+00	-7.690175e+01
1.980000e-06	6.332991e-07	-1.038256e-09	4.462475e+00	-7.438725e+01
1.990000e-06	6.791201e-07	-9.974993e-10	4.785348e+00	-7.180065e+01
2.000000e-06	7.248503e-07	-9.593623e-10	5.107581e+00	-6.914143e+01
2.010000e-06	7.706060e-07	-9.210484e-10	5.429994e+00	-6.640923e+01
2.020000e-06	8.163480e-07	-8.808929e-10	5.752310e+00	-6.360380e+01
2.030000e-06	8.620026e-07	-8.398505e-10	6.074011e+00	-6.072507e+01
2.040000e-06	9.075790e-07	-7.969672e-10	6.395160e+00	-5.777309e+01
2.050000e-06	9.530802e-07	-7.518637e-10	6.715779e+00	-5.474814e+01
2.060000e-06	9.985386e-07	-7.043663e-10	7.036097e+00	-5.165068e+01
2.070000e-06	1.043978e-06	-6.558593e-10	7.356283e+00	-4.848144e+01
2.080000e-06	1.089269e-06	-6.051834e-10	7.675420e+00	-4.524135e+01
2.090000e-06	1.134383e-06	-5.556247e-10	7.993312e+00	-4.193165e+01
2.100000e-06	1.179416e-06	-5.069286e-10	8.310634e+00	-3.855387e+01
2.110000e-06	1.224416e-06	-4.591481e-10	8.627719e+00	-3.510983e+01
2.120000e-06	1.269263e-06	-4.103610e-10	8.943724e+00	-3.160171e+01
2.130000e-06	1.313971e-06	-3.596645e-10	9.258757e+00	-2.803203e+01
2.140000e-06	1.358568e-06	-3.044800e-10	9.573005e+00	-2.440367e+01
2.150000e-06	1.403073e-06	-2.443552e-10	9.886606e+00	-2.071987e+01
2.160000e-06	1.447607e-06	-1.846637e-10	1.020041e+01	-1.698426e+01
2.170000e-06	1.492136e-06	-1.263926e-10	1.051418e+01	-1.320084e+01
2.180000e-06	1.536488e-06	-6.758632e-11	1.082670e+01	-9.373977e+00
2.190000e-06	1.580635e-06	-9.244605e-12	1.113777e+01	-5.508417e+00
2.200000e-06	1.624739e-06	4.471908e-11	1.144855e+01	-1.609245e+00
2.210000e-06	1.668821e-06	9.710557e-11	1.175917e+01	2.318118e+00
2.220000e-06	1.712840e-06	1.532997e-10	1.206935e+01	6.267947e+00
2.230000e-06	1.756800e-06	2.118776e-10	1.237911e+01	1.023424e+01
2.240000e-06	1.800701e-06	2.738804e-10	1.268845e+01	1.421074e+01
2.250000e-06	1.844594e-06	3.394855e-10	1.299774e+01	1.819100e+01
2.260000e-06	1.888480e-06	4.032585e-10	1.330697e+01	2.216842e+01
2.270000e-06	1.932244e-06	4.644179e-10	1.361535e+01	2.613627e+01
2.280000e-06	1.975906e-06	5.223143e-10	1.392302e+01	3.008775e+01
2.290000e-06	2.019483e-06	5.761768e-10	1.423007e+01	3.401609e+01
2.300000e-06	2.062891e-06	6.268207e-10	1.453594e+01	3.791453e+01
2.310000e-06	2.106074e-06	6.790402e-10	1.484023e+01	4.177643e+01
2.320000e-06	2.149007e-06	7.334179e-10	1.514275e+01	4.559529e+01
2.330000e-06	2.191696e-06	7.904325e-10	1.544356e+01	4.936484e+01
2.340000e-06	2.234272e-06	8.479638e-10	1.574356e+01	5.307908e+01
2.350000e-06	2.276591e-06	9.047713e-10	1.604176e+01	5.673232e+01
2.360000e-06	2.318499e-06	9.607267e-10	1.633706e+01	6.031923e+01
2.370000e-06	2.360023e-06	1.011216e-09	1.662965e+01	6.383490e+01
2.380000e-06	2.401199e-06	1.055437e-09	1.691980e+01	6.727486e+01
2.390000e-06	2.442138e-06	1.099600e-09	1.720827e+01	7.063514e+01
2.400000e-06	2.482892e-06	1.141852e-09	1.749544e+01	7.391228e+01
2.410000e-06	2.523416e-06	1.182653e-09	1.778098e+01	7.710332e+01
2.420000e-06	2.563654e-06	1.226801e-09	1.806452e+01	8.020589e+01
2.430000e-06	2.603742e-06	1.273065e-09	1.834700e+01	8.321816e+01
2.440000e-06	2.643777e-06	1.317725e-09	1.862910e+01	8.613883e+01
2.450000e-06	2.683738e-06	1.358587e-09	1.891068e+01	8.896719e+01
2.460000e-06	2.723584e-06	1.399080e-09	1.919144e+01	9.170303e+01
2.470000e-06	2.763328e-06	1.438064e-09	1.947150e+01	9.434669e+01
2.480000e-06	2.802958e-06	1.471506e-09	1.975075e+01	9.689895e+01
2.490000e-06	2.842436e-06	1.501629e-09	2.002893e+01	9.936109e+01
2.500000e-06	2.881683e-06	1.532210e-09	2.030547e+01	1.017348e+02
2.510000e-06	2.920624e-06	1.566281e-09	2.057987e+01	1.040221e+02
2.520000e-06	2.959436e-06	1.601602e-09	2.085336e+01	1.062254e+02
2.530000e-06	2.998082e-06	1.632489e-09	2.112567e+01	1.083474e+02
2.540000e-06	3.036356e-06	1.658362e-09	2.139536e+01	1.103909e+02
2.550000e-06	3.074441e-06	1.686761e-09	2.166373e+01	1.123591e+02
2.560000e-06	3.112476e-06	1.719748e-09	2.193173e+01	1.142551e+02
2.570000e-06	3.150344e-06	1.748747e-09	2.219856e+01	1.160822e+02
2.580000e-06	3.187966e-06	1.771281e-09	2.246367e+01	1.178438e+02
2.590000e-06	3.225278e-06	1.794807e-09	2.272658e+01	1.195431e+02
2.600000e-06	3.262399e-06	1.822187e-09	2.298815e+01	1.211833e+02
2.610000e-06	3.299380e-06	1.847434e-09	2.324873e+01	1.227676e+02
2.620000e-06	3.336067e-06	1.867337e-09	2.350724e+01	1.242989e+02
2.630000e-06	3.372432e-06	1.886239e-09	2.376348e+01	1.257800e+02
2.640000e-06	3.408604e-06	1.909329e-09	2.401837e+01	1.272136e+02
2.650000e-06	3.444647e-06	1.934900e-09	2.427234e+01	1.286019e+02
2.660000e-06	3.480554e-06	1.956759e-09	2.452535e+01	1.299472e+02
2.670000e-06	3.516312e-06	1.974701e-09	2.477732e+01	1.312514e+02
2.680000e-06	3.551918e-06	1.992766e-09	2.502822e+01	1.325161e+02
2.690000e-06	3.587389e-06	2.008818e-09	2.527816e+01	1.337428e+02
2.700000e-06	3.622430e-06	2.020390e-09	2.552507e+01	1.349326e+02
2.710000e-06	3.657007e-06	2.027469e-09	2.576871e+01	1.360866e+02
2.720000e-06	3.691244e-06	2.040313e-09	2.600996e+01	1.372054e+02
2.730000e-06	3.724947e-06	2.060999e-09	2.624745e+01	1.382898e+02
2.740000e-06	3.758151e-06	2.082559e-09	2.648141e+01	1.393401e+02
2.750000e-06	3.791039e-06	2.102140e-09	2.671315e+01	1.403566e+02
2.760000e-06	3.823658e-06	2.122016e-09	2.694300e+01	1.413396e+02
2.770000e-06	3.855992e-06	2.141527e-09	2.717084e+01	1.422890e+02
2.780000e-06	3.888084e-06	2.154171e-09	2.739697e+01	1.432051e+02
2.790000e-06	3.920046e-06	2.159168e-09	2.762219e+01	1.440879e+02
2.800000e-06	3.951920e-06	2.163837e-09	2.784678e+01	1.449374e+02
2.810000e-06	3.983627e-06	2.174165e-09	2.807021e+01	1.457538e+02
2.820000e-06	4.015066e-06	2.188727e-09	2.829174e+01	1.465371e+02
2.830000e-06	4.046150e-06	2.202699e-09	2.851077e+01	1.472877e+02
2.840000e-06	4.076952e-06	2.216079e-09	2.872781e+01	1.480059e+02
2.850000e-06	4.107501e-06	2.228732e-09	2.894307e+01	1.486920e+02
2.860000e-06	4.137653e-06	2.239502e-09	2.915553e+01	1.493467e+02
2.870000e-06	4.167534e-06	2.247908e-09	2.936609e+01	1.499706e+02
2.880000e-06	4.197293e-06	2.252147e-09	2.957578e+01	1.505646e+02
2.890000e-06	4.226768e-06	2.254454e-09	2.978348e+01	1.511296e+02
2.900000e-06	4.255828e-06	2.258043e-09	2.998824e+01	1.516666e+02
