# Temperatura_=_20.18
# Concentracion g/m^3_=_4090.0
# C_Vs_to_Am_M_A/Vsm_=_65563218390.804596
# pendiente_HvsI_1/m_=_3716.3
# ordenada_HvsI_A/m_=_1297.0
# frecuencia_Hz_=_135076.4429949404

Tiempo_(s)	Campo_(V.s)	Magnetizacion_(V.s)	Campo_(kA/m)	Magnetizacion_(A/m)
0.000000e+00	-5.399822e-06	-2.779527e-09	-3.839947e+01	-1.773094e+02
1.000000e-08	-5.399683e-06	-2.778356e-09	-3.839848e+01	-1.772642e+02
2.000000e-08	-5.399412e-06	-2.778004e-09	-3.839656e+01	-1.772209e+02
3.000000e-08	-5.398817e-06	-2.775610e-09	-3.839232e+01	-1.771813e+02
4.000000e-08	-5.397771e-06	-2.770469e-09	-3.838489e+01	-1.771473e+02
5.000000e-08	-5.396222e-06	-2.768872e-09	-3.837387e+01	-1.771207e+02
6.000000e-08	-5.394073e-06	-2.780557e-09	-3.835859e+01	-1.771033e+02
7.000000e-08	-5.391307e-06	-2.788861e-09	-3.833892e+01	-1.770967e+02
8.000000e-08	-5.388019e-06	-2.776939e-09	-3.831554e+01	-1.771024e+02
9.000000e-08	-5.384237e-06	-2.755819e-09	-3.828864e+01	-1.771219e+02
1.000000e-07	-5.380054e-06	-2.759909e-09	-3.825890e+01	-1.771563e+02
1.100000e-07	-5.375665e-06	-2.744446e-09	-3.822769e+01	-1.772066e+02
1.200000e-07	-5.371153e-06	-2.759487e-09	-3.819560e+01	-1.772734e+02
1.300000e-07	-5.366361e-06	-2.749406e-09	-3.816152e+01	-1.773573e+02
1.400000e-07	-5.361036e-06	-2.760159e-09	-3.812366e+01	-1.774584e+02
1.500000e-07	-5.355257e-06	-2.727848e-09	-3.808256e+01	-1.775765e+02
1.600000e-07	-5.349260e-06	-2.746296e-09	-3.803991e+01	-1.777111e+02
1.700000e-07	-5.342901e-06	-2.764127e-09	-3.799469e+01	-1.778616e+02
1.800000e-07	-5.336015e-06	-2.765222e-09	-3.794573e+01	-1.780268e+02
1.900000e-07	-5.328766e-06	-2.725875e-09	-3.789417e+01	-1.782054e+02
2.000000e-07	-5.321303e-06	-2.729694e-09	-3.784110e+01	-1.783959e+02
2.100000e-07	-5.313600e-06	-2.778661e-09	-3.778633e+01	-1.785964e+02
2.200000e-07	-5.305683e-06	-2.792446e-09	-3.773003e+01	-1.788048e+02
2.300000e-07	-5.297496e-06	-2.785074e-09	-3.767181e+01	-1.790189e+02
2.400000e-07	-5.288891e-06	-2.781613e-09	-3.761061e+01	-1.792363e+02
2.500000e-07	-5.279490e-06	-2.813403e-09	-3.754376e+01	-1.794546e+02
2.600000e-07	-5.269312e-06	-2.787173e-09	-3.747138e+01	-1.796712e+02
2.700000e-07	-5.258706e-06	-2.777023e-09	-3.739596e+01	-1.798835e+02
2.800000e-07	-5.247650e-06	-2.774841e-09	-3.731734e+01	-1.800890e+02
2.900000e-07	-5.236197e-06	-2.783901e-09	-3.723589e+01	-1.802851e+02
3.000000e-07	-5.224321e-06	-2.752449e-09	-3.715144e+01	-1.804694e+02
3.100000e-07	-5.212049e-06	-2.777312e-09	-3.706417e+01	-1.806396e+02
3.200000e-07	-5.199392e-06	-2.782470e-09	-3.697417e+01	-1.807936e+02
3.300000e-07	-5.186353e-06	-2.749352e-09	-3.688144e+01	-1.809294e+02
3.400000e-07	-5.172945e-06	-2.703869e-09	-3.678609e+01	-1.810454e+02
3.500000e-07	-5.159162e-06	-2.748439e-09	-3.668808e+01	-1.811400e+02
3.600000e-07	-5.145073e-06	-2.761572e-09	-3.658789e+01	-1.812121e+02
3.700000e-07	-5.130537e-06	-2.741056e-09	-3.648452e+01	-1.812607e+02
3.800000e-07	-5.115402e-06	-2.725645e-09	-3.637689e+01	-1.812852e+02
3.900000e-07	-5.099595e-06	-2.760658e-09	-3.626448e+01	-1.812850e+02
4.000000e-07	-5.083229e-06	-2.755548e-09	-3.614810e+01	-1.812602e+02
4.100000e-07	-5.066575e-06	-2.733397e-09	-3.602967e+01	-1.812109e+02
4.200000e-07	-5.049541e-06	-2.712300e-09	-3.590854e+01	-1.811374e+02
4.300000e-07	-5.032191e-06	-2.706032e-09	-3.578516e+01	-1.810404e+02
4.400000e-07	-5.014710e-06	-2.712972e-09	-3.566084e+01	-1.809208e+02
4.500000e-07	-4.996931e-06	-2.724337e-09	-3.553442e+01	-1.807796e+02
4.600000e-07	-4.978794e-06	-2.716648e-09	-3.540544e+01	-1.806179e+02
4.700000e-07	-4.960213e-06	-2.703296e-09	-3.527330e+01	-1.804372e+02
4.800000e-07	-4.941122e-06	-2.724031e-09	-3.513754e+01	-1.802388e+02
4.900000e-07	-4.921699e-06	-2.729243e-09	-3.499942e+01	-1.800244e+02
5.000000e-07	-4.902018e-06	-2.711324e-09	-3.485946e+01	-1.797954e+02
5.100000e-07	-4.882139e-06	-2.688319e-09	-3.471810e+01	-1.795535e+02
5.200000e-07	-4.862114e-06	-2.696833e-09	-3.457570e+01	-1.793002e+02
5.300000e-07	-4.841845e-06	-2.698834e-09	-3.443156e+01	-1.790371e+02
5.400000e-07	-4.821255e-06	-2.700616e-09	-3.428514e+01	-1.787656e+02
5.500000e-07	-4.800271e-06	-2.678899e-09	-3.413592e+01	-1.784872e+02
5.600000e-07	-4.778889e-06	-2.675694e-09	-3.398386e+01	-1.782032e+02
5.700000e-07	-4.757194e-06	-2.684294e-09	-3.382959e+01	-1.779147e+02
5.800000e-07	-4.735183e-06	-2.694450e-09	-3.367306e+01	-1.776229e+02
5.900000e-07	-4.712854e-06	-2.670298e-09	-3.351427e+01	-1.773287e+02
6.000000e-07	-4.690132e-06	-2.663962e-09	-3.335269e+01	-1.770328e+02
6.100000e-07	-4.667039e-06	-2.663898e-09	-3.318847e+01	-1.767359e+02
6.200000e-07	-4.643691e-06	-2.660621e-09	-3.302244e+01	-1.764387e+02
6.300000e-07	-4.620121e-06	-2.639895e-09	-3.285483e+01	-1.761413e+02
6.400000e-07	-4.596340e-06	-2.632240e-09	-3.268571e+01	-1.758442e+02
6.500000e-07	-4.572287e-06	-2.625482e-09	-3.251466e+01	-1.755475e+02
6.600000e-07	-4.548030e-06	-2.632310e-09	-3.234217e+01	-1.752511e+02
6.700000e-07	-4.523512e-06	-2.630538e-09	-3.216782e+01	-1.749551e+02
6.800000e-07	-4.498582e-06	-2.618804e-09	-3.199053e+01	-1.746593e+02
6.900000e-07	-4.473120e-06	-2.606317e-09	-3.180946e+01	-1.743635e+02
7.000000e-07	-4.447069e-06	-2.609846e-09	-3.162421e+01	-1.740675e+02
7.100000e-07	-4.420476e-06	-2.604304e-09	-3.143510e+01	-1.737708e+02
7.200000e-07	-4.393435e-06	-2.589094e-09	-3.124281e+01	-1.734732e+02
7.300000e-07	-4.366108e-06	-2.580353e-09	-3.104847e+01	-1.731743e+02
7.400000e-07	-4.338492e-06	-2.578411e-09	-3.085209e+01	-1.728737e+02
7.500000e-07	-4.310628e-06	-2.573313e-09	-3.065394e+01	-1.725711e+02
7.600000e-07	-4.282617e-06	-2.561648e-09	-3.045475e+01	-1.722660e+02
7.700000e-07	-4.254383e-06	-2.553958e-09	-3.025397e+01	-1.719580e+02
7.800000e-07	-4.225943e-06	-2.553394e-09	-3.005173e+01	-1.716469e+02
7.900000e-07	-4.197175e-06	-2.559211e-09	-2.984715e+01	-1.713322e+02
8.000000e-07	-4.167925e-06	-2.550578e-09	-2.963915e+01	-1.710137e+02
8.100000e-07	-4.138409e-06	-2.536872e-09	-2.942925e+01	-1.706910e+02
8.200000e-07	-4.108678e-06	-2.524766e-09	-2.921783e+01	-1.703638e+02
8.300000e-07	-4.078699e-06	-2.521985e-09	-2.900464e+01	-1.700319e+02
8.400000e-07	-4.048493e-06	-2.514109e-09	-2.878983e+01	-1.696950e+02
8.500000e-07	-4.018106e-06	-2.507866e-09	-2.857374e+01	-1.693529e+02
8.600000e-07	-3.987482e-06	-2.501034e-09	-2.835597e+01	-1.690053e+02
8.700000e-07	-3.956497e-06	-2.504746e-09	-2.813563e+01	-1.686520e+02
8.800000e-07	-3.925206e-06	-2.502481e-09	-2.791311e+01	-1.682927e+02
8.900000e-07	-3.893605e-06	-2.496077e-09	-2.768839e+01	-1.679273e+02
9.000000e-07	-3.861846e-06	-2.482749e-09	-2.746254e+01	-1.675555e+02
9.100000e-07	-3.830027e-06	-2.477573e-09	-2.723627e+01	-1.671771e+02
9.200000e-07	-3.798016e-06	-2.472989e-09	-2.700863e+01	-1.667919e+02
9.300000e-07	-3.765744e-06	-2.468700e-09	-2.677914e+01	-1.663997e+02
9.400000e-07	-3.733088e-06	-2.459235e-09	-2.654692e+01	-1.660002e+02
9.500000e-07	-3.700148e-06	-2.455535e-09	-2.631267e+01	-1.655934e+02
9.600000e-07	-3.666989e-06	-2.453066e-09	-2.607687e+01	-1.651790e+02
9.700000e-07	-3.633329e-06	-2.450112e-09	-2.583750e+01	-1.647569e+02
9.800000e-07	-3.599237e-06	-2.438870e-09	-2.559507e+01	-1.643269e+02
9.900000e-07	-3.564785e-06	-2.428826e-09	-2.535007e+01	-1.638891e+02
1.000000e-06	-3.529813e-06	-2.425419e-09	-2.510137e+01	-1.634433e+02
1.010000e-06	-3.494488e-06	-2.423747e-09	-2.485017e+01	-1.629896e+02
1.020000e-06	-3.458980e-06	-2.413926e-09	-2.459767e+01	-1.625280e+02
1.030000e-06	-3.423289e-06	-2.398969e-09	-2.434385e+01	-1.620586e+02
1.040000e-06	-3.387407e-06	-2.391241e-09	-2.408869e+01	-1.615817e+02
1.050000e-06	-3.351391e-06	-2.387148e-09	-2.383257e+01	-1.610973e+02
1.060000e-06	-3.315302e-06	-2.378510e-09	-2.357593e+01	-1.606058e+02
1.070000e-06	-3.278993e-06	-2.366227e-09	-2.331774e+01	-1.601076e+02
1.080000e-06	-3.242437e-06	-2.359087e-09	-2.305777e+01	-1.596030e+02
1.090000e-06	-3.205725e-06	-2.355593e-09	-2.279670e+01	-1.590924e+02
1.100000e-06	-3.168720e-06	-2.349624e-09	-2.253355e+01	-1.585763e+02
1.110000e-06	-3.131355e-06	-2.334964e-09	-2.226784e+01	-1.580552e+02
1.120000e-06	-3.093825e-06	-2.322691e-09	-2.200096e+01	-1.575296e+02
1.130000e-06	-3.056155e-06	-2.315509e-09	-2.173307e+01	-1.569999e+02
1.140000e-06	-3.018228e-06	-2.311909e-09	-2.146337e+01	-1.564668e+02
1.150000e-06	-2.980076e-06	-2.301470e-09	-2.119206e+01	-1.559306e+02
1.160000e-06	-2.941779e-06	-2.291376e-09	-2.091972e+01	-1.553918e+02
1.170000e-06	-2.903369e-06	-2.285620e-09	-2.064658e+01	-1.548507e+02
1.180000e-06	-2.864718e-06	-2.282767e-09	-2.037172e+01	-1.543077e+02
1.190000e-06	-2.825764e-06	-2.273780e-09	-2.009471e+01	-1.537629e+02
1.200000e-06	-2.786571e-06	-2.259451e-09	-1.981600e+01	-1.532164e+02
1.210000e-06	-2.747179e-06	-2.244914e-09	-1.953587e+01	-1.526682e+02
1.220000e-06	-2.707679e-06	-2.238762e-09	-1.925498e+01	-1.521182e+02
1.230000e-06	-2.668076e-06	-2.232308e-09	-1.897335e+01	-1.515661e+02
1.240000e-06	-2.628295e-06	-2.222321e-09	-1.869046e+01	-1.510114e+02
1.250000e-06	-2.588399e-06	-2.209262e-09	-1.840675e+01	-1.504537e+02
1.260000e-06	-2.548437e-06	-2.199760e-09	-1.812257e+01	-1.498921e+02
1.270000e-06	-2.508393e-06	-2.190279e-09	-1.783781e+01	-1.493259e+02
1.280000e-06	-2.468284e-06	-2.178162e-09	-1.755258e+01	-1.487541e+02
1.290000e-06	-2.428045e-06	-2.165722e-09	-1.726643e+01	-1.481755e+02
1.300000e-06	-2.387654e-06	-2.159077e-09	-1.697920e+01	-1.475889e+02
1.310000e-06	-2.347041e-06	-2.156044e-09	-1.669039e+01	-1.469931e+02
1.320000e-06	-2.306175e-06	-2.147378e-09	-1.639978e+01	-1.463867e+02
1.330000e-06	-2.265086e-06	-2.129636e-09	-1.610759e+01	-1.457682e+02
1.340000e-06	-2.223757e-06	-2.111049e-09	-1.581369e+01	-1.451361e+02
1.350000e-06	-2.182204e-06	-2.098917e-09	-1.551819e+01	-1.444890e+02
1.360000e-06	-2.140277e-06	-2.087427e-09	-1.522004e+01	-1.438255e+02
1.370000e-06	-2.097948e-06	-2.075150e-09	-1.491903e+01	-1.431439e+02
1.380000e-06	-2.055405e-06	-2.063284e-09	-1.461650e+01	-1.424432e+02
1.390000e-06	-2.012796e-06	-2.052567e-09	-1.431349e+01	-1.417218e+02
1.400000e-06	-1.970022e-06	-2.042128e-09	-1.400932e+01	-1.409788e+02
1.410000e-06	-1.927027e-06	-2.026711e-09	-1.370356e+01	-1.402130e+02
1.420000e-06	-1.883819e-06	-2.007384e-09	-1.339631e+01	-1.394236e+02
1.430000e-06	-1.840390e-06	-1.990382e-09	-1.308747e+01	-1.386099e+02
1.440000e-06	-1.796804e-06	-1.975420e-09	-1.277752e+01	-1.377712e+02
1.450000e-06	-1.753136e-06	-1.960563e-09	-1.246698e+01	-1.369072e+02
1.460000e-06	-1.709383e-06	-1.943524e-09	-1.215584e+01	-1.360177e+02
1.470000e-06	-1.665506e-06	-1.928609e-09	-1.184382e+01	-1.351026e+02
1.480000e-06	-1.621589e-06	-1.913873e-09	-1.153152e+01	-1.341621e+02
1.490000e-06	-1.577580e-06	-1.899922e-09	-1.121856e+01	-1.331963e+02
1.500000e-06	-1.533475e-06	-1.885415e-09	-1.090492e+01	-1.322057e+02
1.510000e-06	-1.489339e-06	-1.869333e-09	-1.059106e+01	-1.311907e+02
1.520000e-06	-1.445159e-06	-1.851973e-09	-1.027689e+01	-1.301519e+02
1.530000e-06	-1.400936e-06	-1.835756e-09	-9.962399e+00	-1.290900e+02
1.540000e-06	-1.356668e-06	-1.818690e-09	-9.647601e+00	-1.280054e+02
1.550000e-06	-1.312349e-06	-1.800642e-09	-9.332436e+00	-1.268989e+02
1.560000e-06	-1.267898e-06	-1.784317e-09	-9.016340e+00	-1.257710e+02
1.570000e-06	-1.223345e-06	-1.772330e-09	-8.699510e+00	-1.246222e+02
1.580000e-06	-1.178766e-06	-1.761380e-09	-8.382498e+00	-1.234527e+02
1.590000e-06	-1.134083e-06	-1.748258e-09	-8.064745e+00	-1.222629e+02
1.600000e-06	-1.089289e-06	-1.730748e-09	-7.746205e+00	-1.210527e+02
1.610000e-06	-1.044388e-06	-1.709535e-09	-7.426905e+00	-1.198219e+02
1.620000e-06	-9.994156e-07	-1.685333e-09	-7.107092e+00	-1.185701e+02
1.630000e-06	-9.543027e-07	-1.661755e-09	-6.786283e+00	-1.172965e+02
1.640000e-06	-9.090090e-07	-1.641869e-09	-6.464188e+00	-1.160003e+02
1.650000e-06	-8.636590e-07	-1.623702e-09	-6.141693e+00	-1.146800e+02
1.660000e-06	-8.183816e-07	-1.605240e-09	-5.819714e+00	-1.133342e+02
1.670000e-06	-7.730810e-07	-1.589383e-09	-5.497571e+00	-1.119611e+02
1.680000e-06	-7.276459e-07	-1.573815e-09	-5.174470e+00	-1.105585e+02
1.690000e-06	-6.821760e-07	-1.552978e-09	-4.851122e+00	-1.091240e+02
1.700000e-06	-6.366744e-07	-1.527041e-09	-4.527550e+00	-1.076551e+02
1.710000e-06	-5.910977e-07	-1.498988e-09	-4.203442e+00	-1.061489e+02
1.720000e-06	-5.454521e-07	-1.473239e-09	-3.878845e+00	-1.046025e+02
1.730000e-06	-4.997828e-07	-1.450686e-09	-3.554079e+00	-1.030127e+02
1.740000e-06	-4.540818e-07	-1.428825e-09	-3.229088e+00	-1.013763e+02
1.750000e-06	-4.083263e-07	-1.404419e-09	-2.903709e+00	-9.969009e+01
1.760000e-06	-3.625651e-07	-1.378861e-09	-2.578290e+00	-9.795071e+01
1.770000e-06	-3.167650e-07	-1.352331e-09	-2.252594e+00	-9.615498e+01
1.780000e-06	-2.709290e-07	-1.325035e-09	-1.926644e+00	-9.429982e+01
1.790000e-06	-2.250984e-07	-1.296780e-09	-1.600730e+00	-9.238226e+01
1.800000e-06	-1.793168e-07	-1.267315e-09	-1.275166e+00	-9.039956e+01
1.810000e-06	-1.335589e-07	-1.238601e-09	-9.497707e-01	-8.834924e+01
1.820000e-06	-8.770541e-08	-1.211494e-09	-6.236949e-01	-8.622912e+01
1.830000e-06	-4.183554e-08	-1.180549e-09	-2.975029e-01	-8.403735e+01
1.840000e-06	4.037579e-09	-1.143697e-09	2.871222e-02	-8.177245e+01
1.850000e-06	4.993527e-08	-1.102380e-09	3.551020e-01	-7.943339e+01
1.860000e-06	9.577127e-08	-1.062290e-09	6.810532e-01	-7.701951e+01
1.870000e-06	1.415271e-07	-1.025892e-09	1.006434e+00	-7.453065e+01
1.880000e-06	1.873024e-07	-9.919141e-10	1.331954e+00	-7.196707e+01
1.890000e-06	2.331094e-07	-9.577897e-10	1.657699e+00	-6.932952e+01
1.900000e-06	2.788700e-07	-9.234077e-10	1.983114e+00	-6.661918e+01
1.910000e-06	3.246080e-07	-8.850514e-10	2.308368e+00	-6.383770e+01
1.920000e-06	3.703443e-07	-8.394835e-10	2.633610e+00	-6.098712e+01
1.930000e-06	4.160582e-07	-7.887352e-10	2.958693e+00	-5.806992e+01
1.940000e-06	4.617443e-07	-7.367199e-10	3.283578e+00	-5.508891e+01
1.950000e-06	5.073712e-07	-6.877352e-10	3.608043e+00	-5.204726e+01
1.960000e-06	5.529157e-07	-6.413294e-10	3.931920e+00	-4.894842e+01
1.970000e-06	5.984372e-07	-5.965612e-10	4.255635e+00	-4.579607e+01
1.980000e-06	6.439251e-07	-5.522999e-10	4.579111e+00	-4.259413e+01
1.990000e-06	6.893736e-07	-5.100092e-10	4.902306e+00	-3.934663e+01
2.000000e-06	7.347980e-07	-4.669476e-10	5.225330e+00	-3.605772e+01
2.010000e-06	7.801562e-07	-4.182288e-10	5.547884e+00	-3.273160e+01
2.020000e-06	8.254823e-07	-3.630783e-10	5.870209e+00	-2.937249e+01
2.030000e-06	8.707556e-07	-3.061922e-10	6.192159e+00	-2.598456e+01
2.040000e-06	9.158676e-07	-2.495408e-10	6.512962e+00	-2.257189e+01
2.050000e-06	9.608939e-07	-1.949772e-10	6.833154e+00	-1.913845e+01
2.060000e-06	1.005847e-06	-1.449448e-10	7.152829e+00	-1.568808e+01
2.070000e-06	1.050626e-06	-1.004522e-10	7.471263e+00	-1.222442e+01
2.080000e-06	1.095330e-06	-5.823737e-11	7.789160e+00	-8.750926e+00
2.090000e-06	1.139975e-06	-1.414784e-11	8.106641e+00	-5.270829e+00
2.100000e-06	1.184481e-06	3.362295e-11	8.423139e+00	-1.787146e+00
2.110000e-06	1.228898e-06	8.828132e-11	8.738997e+00	1.697331e+00
2.120000e-06	1.273310e-06	1.479545e-10	9.054826e+00	5.180035e+00
2.130000e-06	1.317724e-06	2.072621e-10	9.370665e+00	8.658611e+00
2.140000e-06	1.362126e-06	2.632745e-10	9.686413e+00	1.213090e+01
2.150000e-06	1.406477e-06	3.143650e-10	1.000181e+01	1.559494e+01
2.160000e-06	1.450675e-06	3.605204e-10	1.031611e+01	1.904891e+01
2.170000e-06	1.494746e-06	4.049275e-10	1.062951e+01	2.249112e+01
2.180000e-06	1.538813e-06	4.512177e-10	1.094288e+01	2.592001e+01
2.190000e-06	1.582852e-06	5.004290e-10	1.125605e+01	2.933407e+01
2.200000e-06	1.626828e-06	5.518722e-10	1.156878e+01	3.273184e+01
2.210000e-06	1.670775e-06	6.064741e-10	1.188129e+01	3.611189e+01
2.220000e-06	1.714606e-06	6.639501e-10	1.219299e+01	3.947277e+01
2.230000e-06	1.758333e-06	7.181251e-10	1.250394e+01	4.281298e+01
2.240000e-06	1.801940e-06	7.664846e-10	1.281404e+01	4.613098e+01
2.250000e-06	1.845405e-06	8.106634e-10	1.312313e+01	4.942513e+01
2.260000e-06	1.888820e-06	8.542709e-10	1.343187e+01	5.269370e+01
2.270000e-06	1.932117e-06	8.992919e-10	1.373976e+01	5.593485e+01
2.280000e-06	1.975178e-06	9.429024e-10	1.404598e+01	5.914662e+01
2.290000e-06	2.017999e-06	9.859917e-10	1.435049e+01	6.232695e+01
2.300000e-06	2.060670e-06	1.031796e-09	1.465393e+01	6.547366e+01
2.310000e-06	2.103117e-06	1.078753e-09	1.495578e+01	6.858445e+01
2.320000e-06	2.145280e-06	1.122598e-09	1.525562e+01	7.165697e+01
2.330000e-06	2.187094e-06	1.163973e-09	1.555297e+01	7.468877e+01
2.340000e-06	2.228563e-06	1.205166e-09	1.584787e+01	7.767737e+01
2.350000e-06	2.269877e-06	1.249418e-09	1.614166e+01	8.062028e+01
2.360000e-06	2.310966e-06	1.292807e-09	1.643385e+01	8.351501e+01
2.370000e-06	2.351754e-06	1.329628e-09	1.672390e+01	8.635913e+01
2.380000e-06	2.392327e-06	1.363854e-09	1.701243e+01	8.915028e+01
2.390000e-06	2.432693e-06	1.400574e-09	1.729949e+01	9.188621e+01
2.400000e-06	2.472902e-06	1.436851e-09	1.758542e+01	9.456483e+01
2.410000e-06	2.513027e-06	1.471068e-09	1.787076e+01	9.718423e+01
2.420000e-06	2.553096e-06	1.507222e-09	1.815570e+01	9.974270e+01
2.430000e-06	2.593100e-06	1.549192e-09	1.844018e+01	1.022388e+02
2.440000e-06	2.632972e-06	1.594091e-09	1.872372e+01	1.046713e+02
2.450000e-06	2.672742e-06	1.631514e-09	1.900653e+01	1.070392e+02
2.460000e-06	2.712331e-06	1.659906e-09	1.928805e+01	1.093421e+02
2.470000e-06	2.751734e-06	1.684552e-09	1.956826e+01	1.115795e+02
2.480000e-06	2.791054e-06	1.708909e-09	1.984788e+01	1.137514e+02
2.490000e-06	2.830105e-06	1.734391e-09	2.012558e+01	1.158583e+02
2.500000e-06	2.868787e-06	1.762131e-09	2.040066e+01	1.179006e+02
2.510000e-06	2.907269e-06	1.794509e-09	2.067431e+01	1.198793e+02
2.520000e-06	2.945572e-06	1.830129e-09	2.094669e+01	1.217955e+02
2.530000e-06	2.983667e-06	1.861508e-09	2.121760e+01	1.236508e+02
2.540000e-06	3.021631e-06	1.885344e-09	2.148757e+01	1.254467e+02
2.550000e-06	3.059439e-06	1.908131e-09	2.175643e+01	1.271851e+02
2.560000e-06	3.097038e-06	1.932021e-09	2.202380e+01	1.288680e+02
2.570000e-06	3.134444e-06	1.953422e-09	2.228981e+01	1.304975e+02
2.580000e-06	3.171599e-06	1.972902e-09	2.255402e+01	1.320758e+02
2.590000e-06	3.208437e-06	1.995613e-09	2.281599e+01	1.336052e+02
2.600000e-06	3.245037e-06	2.023381e-09	2.307627e+01	1.350879e+02
2.610000e-06	3.281482e-06	2.049413e-09	2.333543e+01	1.365262e+02
2.620000e-06	3.317729e-06	2.071126e-09	2.359320e+01	1.379221e+02
2.630000e-06	3.353794e-06	2.092526e-09	2.384966e+01	1.392779e+02
2.640000e-06	3.389760e-06	2.113689e-09	2.410543e+01	1.405953e+02
2.650000e-06	3.425648e-06	2.130208e-09	2.436063e+01	1.418763e+02
2.660000e-06	3.461431e-06	2.143278e-09	2.461509e+01	1.431223e+02
2.670000e-06	3.497019e-06	2.159011e-09	2.486817e+01	1.443347e+02
2.680000e-06	3.532275e-06	2.177308e-09	2.511888e+01	1.455149e+02
2.690000e-06	3.567158e-06	2.193831e-09	2.536695e+01	1.466638e+02
2.700000e-06	3.601658e-06	2.206970e-09	2.561228e+01	1.477822e+02
2.710000e-06	3.635731e-06	2.220797e-09	2.585458e+01	1.488706e+02
2.720000e-06	3.669272e-06	2.238527e-09	2.609310e+01	1.499297e+02
2.730000e-06	3.702312e-06	2.257808e-09	2.632806e+01	1.509595e+02
2.740000e-06	3.735019e-06	2.274960e-09	2.656064e+01	1.519601e+02
2.750000e-06	3.767510e-06	2.290983e-09	2.679170e+01	1.529316e+02
2.760000e-06	3.799788e-06	2.307992e-09	2.702124e+01	1.538739e+02
2.770000e-06	3.831860e-06	2.323967e-09	2.724930e+01	1.547866e+02
2.780000e-06	3.863771e-06	2.334922e-09	2.747624e+01	1.556696e+02
2.790000e-06	3.895464e-06	2.341798e-09	2.770161e+01	1.565226e+02
2.800000e-06	3.926958e-06	2.350540e-09	2.792557e+01	1.573454e+02
2.810000e-06	3.958217e-06	2.363022e-09	2.814786e+01	1.581378e+02
2.820000e-06	3.989163e-06	2.374893e-09	2.836793e+01	1.588997e+02
2.830000e-06	4.019802e-06	2.383333e-09	2.858581e+01	1.596310e+02
2.840000e-06	4.050195e-06	2.393679e-09	2.880194e+01	1.603320e+02
2.850000e-06	4.080406e-06	2.407973e-09	2.901678e+01	1.610029e+02
2.860000e-06	4.110315e-06	2.421712e-09	2.922947e+01	1.616440e+02
2.870000e-06	4.139907e-06	2.431358e-09	2.943990e+01	1.622561e+02
2.880000e-06	4.169288e-06	2.436374e-09	2.964884e+01	1.628397e+02
2.890000e-06	4.198394e-06	2.438900e-09	2.985582e+01	1.633960e+02
2.900000e-06	4.227131e-06	2.441263e-09	3.006017e+01	1.639259e+02
