# Temperatura_=_-3.54
# Concentracion g/m^3_=_4090.0
# C_Vs_to_Am_M_A/Vsm_=_65563218390.804596
# pendiente_HvsI_1/m_=_3716.3
# ordenada_HvsI_A/m_=_1297.0
# frecuencia_Hz_=_135075.66430922877

Tiempo_(s)	Campo_(V.s)	Magnetizacion_(V.s)	Campo_(kA/m)	Magnetizacion_(A/m)
0.000000e+00	-5.400617e-06	-2.412779e-09	-3.839867e+01	-1.539836e+02
1.000000e-08	-5.400719e-06	-2.414996e-09	-3.839940e+01	-1.539740e+02
2.000000e-08	-5.400578e-06	-2.415198e-09	-3.839840e+01	-1.539685e+02
3.000000e-08	-5.400198e-06	-2.413606e-09	-3.839570e+01	-1.539680e+02
4.000000e-08	-5.399454e-06	-2.411451e-09	-3.839041e+01	-1.539737e+02
5.000000e-08	-5.398279e-06	-2.413685e-09	-3.838205e+01	-1.539863e+02
6.000000e-08	-5.396613e-06	-2.437848e-09	-3.837020e+01	-1.540067e+02
7.000000e-08	-5.394250e-06	-2.467837e-09	-3.835341e+01	-1.540358e+02
8.000000e-08	-5.391282e-06	-2.411824e-09	-3.833230e+01	-1.540741e+02
9.000000e-08	-5.387801e-06	-2.300982e-09	-3.830755e+01	-1.541222e+02
1.000000e-07	-5.383859e-06	-2.345472e-09	-3.827953e+01	-1.541805e+02
1.100000e-07	-5.379632e-06	-2.499884e-09	-3.824947e+01	-1.542494e+02
1.200000e-07	-5.375192e-06	-2.469061e-09	-3.821790e+01	-1.543289e+02
1.300000e-07	-5.370488e-06	-2.301230e-09	-3.818445e+01	-1.544191e+02
1.400000e-07	-5.365435e-06	-2.323540e-09	-3.814853e+01	-1.545198e+02
1.500000e-07	-5.359996e-06	-2.522588e-09	-3.810986e+01	-1.546307e+02
1.600000e-07	-5.354102e-06	-2.498229e-09	-3.806795e+01	-1.547514e+02
1.700000e-07	-5.347806e-06	-2.291285e-09	-3.802318e+01	-1.548812e+02
1.800000e-07	-5.341112e-06	-2.291300e-09	-3.797559e+01	-1.550193e+02
1.900000e-07	-5.334044e-06	-2.483110e-09	-3.792534e+01	-1.551650e+02
2.000000e-07	-5.326690e-06	-2.464736e-09	-3.787305e+01	-1.553171e+02
2.100000e-07	-5.319164e-06	-2.354484e-09	-3.781954e+01	-1.554746e+02
2.200000e-07	-5.311419e-06	-2.412736e-09	-3.776447e+01	-1.556362e+02
2.300000e-07	-5.303287e-06	-2.512880e-09	-3.770665e+01	-1.558007e+02
2.400000e-07	-5.294683e-06	-2.410788e-09	-3.764548e+01	-1.559666e+02
2.500000e-07	-5.285634e-06	-2.353658e-09	-3.758114e+01	-1.561325e+02
2.600000e-07	-5.276102e-06	-2.469539e-09	-3.751337e+01	-1.562971e+02
2.700000e-07	-5.266067e-06	-2.480348e-09	-3.744202e+01	-1.564587e+02
2.800000e-07	-5.255561e-06	-2.361098e-09	-3.736732e+01	-1.566161e+02
2.900000e-07	-5.244504e-06	-2.410487e-09	-3.728870e+01	-1.567677e+02
3.000000e-07	-5.232929e-06	-2.521375e-09	-3.720641e+01	-1.569121e+02
3.100000e-07	-5.220917e-06	-2.426540e-09	-3.712100e+01	-1.570480e+02
3.200000e-07	-5.208494e-06	-2.336091e-09	-3.703267e+01	-1.571741e+02
3.300000e-07	-5.195654e-06	-2.416443e-09	-3.694137e+01	-1.572893e+02
3.400000e-07	-5.182443e-06	-2.470838e-09	-3.684745e+01	-1.573924e+02
3.500000e-07	-5.168932e-06	-2.402153e-09	-3.675138e+01	-1.574825e+02
3.600000e-07	-5.154991e-06	-2.419225e-09	-3.665226e+01	-1.575587e+02
3.700000e-07	-5.140490e-06	-2.448631e-09	-3.654916e+01	-1.576203e+02
3.800000e-07	-5.125599e-06	-2.417932e-09	-3.644328e+01	-1.576666e+02
3.900000e-07	-5.110348e-06	-2.407849e-09	-3.633485e+01	-1.576972e+02
4.000000e-07	-5.094508e-06	-2.434749e-09	-3.622222e+01	-1.577118e+02
4.100000e-07	-5.078055e-06	-2.379228e-09	-3.610524e+01	-1.577101e+02
4.200000e-07	-5.061189e-06	-2.365202e-09	-3.598533e+01	-1.576922e+02
4.300000e-07	-5.044083e-06	-2.437555e-09	-3.586370e+01	-1.576580e+02
4.400000e-07	-5.026673e-06	-2.445416e-09	-3.573991e+01	-1.576078e+02
4.500000e-07	-5.008932e-06	-2.373360e-09	-3.561377e+01	-1.575420e+02
4.600000e-07	-4.990891e-06	-2.384679e-09	-3.548550e+01	-1.574609e+02
4.700000e-07	-4.972490e-06	-2.423142e-09	-3.535467e+01	-1.573651e+02
4.800000e-07	-4.953755e-06	-2.405229e-09	-3.522146e+01	-1.572553e+02
4.900000e-07	-4.934707e-06	-2.371888e-09	-3.508603e+01	-1.571323e+02
5.000000e-07	-4.915253e-06	-2.375177e-09	-3.494771e+01	-1.569967e+02
5.100000e-07	-4.895470e-06	-2.388772e-09	-3.480705e+01	-1.568496e+02
5.200000e-07	-4.875481e-06	-2.413262e-09	-3.466493e+01	-1.566919e+02
5.300000e-07	-4.855240e-06	-2.405547e-09	-3.452101e+01	-1.565245e+02
5.400000e-07	-4.834804e-06	-2.368108e-09	-3.437572e+01	-1.563485e+02
5.500000e-07	-4.814111e-06	-2.366793e-09	-3.422858e+01	-1.561649e+02
5.600000e-07	-4.793019e-06	-2.398368e-09	-3.407862e+01	-1.559747e+02
5.700000e-07	-4.771546e-06	-2.386869e-09	-3.392594e+01	-1.557789e+02
5.800000e-07	-4.749748e-06	-2.354591e-09	-3.377096e+01	-1.555786e+02
5.900000e-07	-4.727618e-06	-2.356505e-09	-3.361362e+01	-1.553746e+02
6.000000e-07	-4.705221e-06	-2.374329e-09	-3.345437e+01	-1.551680e+02
6.100000e-07	-4.682565e-06	-2.376604e-09	-3.329329e+01	-1.549596e+02
6.200000e-07	-4.659468e-06	-2.350655e-09	-3.312907e+01	-1.547503e+02
6.300000e-07	-4.635890e-06	-2.324843e-09	-3.296142e+01	-1.545406e+02
6.400000e-07	-4.612096e-06	-2.331017e-09	-3.279225e+01	-1.543314e+02
6.500000e-07	-4.588137e-06	-2.352816e-09	-3.262190e+01	-1.541233e+02
6.600000e-07	-4.563891e-06	-2.338320e-09	-3.244951e+01	-1.539166e+02
6.700000e-07	-4.539385e-06	-2.317338e-09	-3.227527e+01	-1.537118e+02
6.800000e-07	-4.514624e-06	-2.322739e-09	-3.209922e+01	-1.535092e+02
6.900000e-07	-4.489440e-06	-2.339309e-09	-3.192016e+01	-1.533090e+02
7.000000e-07	-4.463820e-06	-2.325716e-09	-3.173799e+01	-1.531113e+02
7.100000e-07	-4.437793e-06	-2.301217e-09	-3.155294e+01	-1.529161e+02
7.200000e-07	-4.411191e-06	-2.290599e-09	-3.136380e+01	-1.527234e+02
7.300000e-07	-4.384061e-06	-2.307062e-09	-3.117091e+01	-1.525329e+02
7.400000e-07	-4.356515e-06	-2.313038e-09	-3.097505e+01	-1.523445e+02
7.500000e-07	-4.328695e-06	-2.298396e-09	-3.077725e+01	-1.521576e+02
7.600000e-07	-4.300696e-06	-2.284683e-09	-3.057818e+01	-1.519721e+02
7.700000e-07	-4.272541e-06	-2.294969e-09	-3.037800e+01	-1.517873e+02
7.800000e-07	-4.244189e-06	-2.297186e-09	-3.017641e+01	-1.516027e+02
7.900000e-07	-4.215556e-06	-2.280933e-09	-2.997283e+01	-1.514177e+02
8.000000e-07	-4.186655e-06	-2.262918e-09	-2.976734e+01	-1.512317e+02
8.100000e-07	-4.157467e-06	-2.265981e-09	-2.955982e+01	-1.510440e+02
8.200000e-07	-4.127954e-06	-2.277099e-09	-2.934998e+01	-1.508540e+02
8.300000e-07	-4.098122e-06	-2.277648e-09	-2.913787e+01	-1.506609e+02
8.400000e-07	-4.067956e-06	-2.265454e-09	-2.892339e+01	-1.504642e+02
8.500000e-07	-4.037511e-06	-2.261488e-09	-2.870692e+01	-1.502631e+02
8.600000e-07	-4.006807e-06	-2.265971e-09	-2.848861e+01	-1.500570e+02
8.700000e-07	-3.975726e-06	-2.259464e-09	-2.826763e+01	-1.498454e+02
8.800000e-07	-3.944452e-06	-2.239789e-09	-2.804527e+01	-1.496277e+02
8.900000e-07	-3.913123e-06	-2.229675e-09	-2.782251e+01	-1.494034e+02
9.000000e-07	-3.881545e-06	-2.237893e-09	-2.759799e+01	-1.491721e+02
9.100000e-07	-3.849697e-06	-2.242681e-09	-2.737155e+01	-1.489335e+02
9.200000e-07	-3.817706e-06	-2.234689e-09	-2.714409e+01	-1.486874e+02
9.300000e-07	-3.785521e-06	-2.224650e-09	-2.691525e+01	-1.484334e+02
9.400000e-07	-3.753126e-06	-2.226265e-09	-2.668493e+01	-1.481717e+02
9.500000e-07	-3.720519e-06	-2.227306e-09	-2.645309e+01	-1.479021e+02
9.600000e-07	-3.687527e-06	-2.216595e-09	-2.621851e+01	-1.476247e+02
9.700000e-07	-3.654173e-06	-2.202390e-09	-2.598136e+01	-1.473398e+02
9.800000e-07	-3.620416e-06	-2.204317e-09	-2.574135e+01	-1.470475e+02
9.900000e-07	-3.586179e-06	-2.210023e-09	-2.549792e+01	-1.467483e+02
1.000000e-06	-3.551490e-06	-2.207132e-09	-2.525129e+01	-1.464424e+02
1.010000e-06	-3.516370e-06	-2.197984e-09	-2.500158e+01	-1.461303e+02
1.020000e-06	-3.481004e-06	-2.197702e-09	-2.475012e+01	-1.458126e+02
1.030000e-06	-3.445442e-06	-2.198806e-09	-2.449728e+01	-1.454898e+02
1.040000e-06	-3.409608e-06	-2.192339e-09	-2.424250e+01	-1.451624e+02
1.050000e-06	-3.373587e-06	-2.177177e-09	-2.398639e+01	-1.448311e+02
1.060000e-06	-3.337462e-06	-2.166592e-09	-2.372953e+01	-1.444964e+02
1.070000e-06	-3.301195e-06	-2.162585e-09	-2.347167e+01	-1.441589e+02
1.080000e-06	-3.264742e-06	-2.158753e-09	-2.321249e+01	-1.438192e+02
1.090000e-06	-3.228075e-06	-2.148465e-09	-2.295178e+01	-1.434777e+02
1.100000e-06	-3.191225e-06	-2.141890e-09	-2.268978e+01	-1.431351e+02
1.110000e-06	-3.154177e-06	-2.141845e-09	-2.242637e+01	-1.427915e+02
1.120000e-06	-3.116749e-06	-2.140762e-09	-2.216025e+01	-1.424476e+02
1.130000e-06	-3.079050e-06	-2.132531e-09	-2.189221e+01	-1.421033e+02
1.140000e-06	-3.041263e-06	-2.122319e-09	-2.162354e+01	-1.417591e+02
1.150000e-06	-3.003360e-06	-2.114788e-09	-2.135405e+01	-1.414149e+02
1.160000e-06	-2.965278e-06	-2.107657e-09	-2.108329e+01	-1.410708e+02
1.170000e-06	-2.926918e-06	-2.097383e-09	-2.081054e+01	-1.407266e+02
1.180000e-06	-2.888274e-06	-2.088737e-09	-2.053578e+01	-1.403821e+02
1.190000e-06	-2.849497e-06	-2.088293e-09	-2.026008e+01	-1.400371e+02
1.200000e-06	-2.810563e-06	-2.090518e-09	-1.998325e+01	-1.396911e+02
1.210000e-06	-2.771281e-06	-2.085076e-09	-1.970395e+01	-1.393436e+02
1.220000e-06	-2.731848e-06	-2.074187e-09	-1.942359e+01	-1.389942e+02
1.230000e-06	-2.692401e-06	-2.066123e-09	-1.914311e+01	-1.386420e+02
1.240000e-06	-2.652738e-06	-2.057763e-09	-1.886111e+01	-1.382866e+02
1.250000e-06	-2.612886e-06	-2.046183e-09	-1.857776e+01	-1.379269e+02
1.260000e-06	-2.572953e-06	-2.033101e-09	-1.829383e+01	-1.375624e+02
1.270000e-06	-2.532862e-06	-2.026101e-09	-1.800878e+01	-1.371921e+02
1.280000e-06	-2.492667e-06	-2.023741e-09	-1.772300e+01	-1.368151e+02
1.290000e-06	-2.452445e-06	-2.020390e-09	-1.743701e+01	-1.364307e+02
1.300000e-06	-2.412096e-06	-2.012681e-09	-1.715013e+01	-1.360379e+02
1.310000e-06	-2.371528e-06	-2.007075e-09	-1.686169e+01	-1.356360e+02
1.320000e-06	-2.330831e-06	-2.002206e-09	-1.657233e+01	-1.352241e+02
1.330000e-06	-2.290001e-06	-1.992130e-09	-1.628203e+01	-1.348015e+02
1.340000e-06	-2.248866e-06	-1.977216e-09	-1.598955e+01	-1.343674e+02
1.350000e-06	-2.207370e-06	-1.966452e-09	-1.569452e+01	-1.339213e+02
1.360000e-06	-2.165587e-06	-1.959208e-09	-1.539744e+01	-1.334626e+02
1.370000e-06	-2.123565e-06	-1.953566e-09	-1.509866e+01	-1.329908e+02
1.380000e-06	-2.081308e-06	-1.947694e-09	-1.479821e+01	-1.325054e+02
1.390000e-06	-2.038824e-06	-1.942584e-09	-1.449615e+01	-1.320061e+02
1.400000e-06	-1.996120e-06	-1.937135e-09	-1.419252e+01	-1.314926e+02
1.410000e-06	-1.953177e-06	-1.930214e-09	-1.388719e+01	-1.309647e+02
1.420000e-06	-1.910031e-06	-1.918967e-09	-1.358042e+01	-1.304223e+02
1.430000e-06	-1.866701e-06	-1.905036e-09	-1.327234e+01	-1.298653e+02
1.440000e-06	-1.823261e-06	-1.890645e-09	-1.296348e+01	-1.292937e+02
1.450000e-06	-1.779708e-06	-1.878651e-09	-1.265382e+01	-1.287076e+02
1.460000e-06	-1.735987e-06	-1.870362e-09	-1.234296e+01	-1.281069e+02
1.470000e-06	-1.692140e-06	-1.862760e-09	-1.203121e+01	-1.274919e+02
1.480000e-06	-1.648152e-06	-1.853657e-09	-1.171845e+01	-1.268625e+02
1.490000e-06	-1.604108e-06	-1.840660e-09	-1.140529e+01	-1.262190e+02
1.500000e-06	-1.559996e-06	-1.826891e-09	-1.109165e+01	-1.255614e+02
1.510000e-06	-1.515810e-06	-1.815304e-09	-1.077749e+01	-1.248898e+02
1.520000e-06	-1.471615e-06	-1.805701e-09	-1.046326e+01	-1.242042e+02
1.530000e-06	-1.427347e-06	-1.794761e-09	-1.014852e+01	-1.235047e+02
1.540000e-06	-1.383022e-06	-1.782750e-09	-9.833361e+00	-1.227912e+02
1.550000e-06	-1.338652e-06	-1.771161e-09	-9.517886e+00	-1.220636e+02
1.560000e-06	-1.294221e-06	-1.760451e-09	-9.201981e+00	-1.213218e+02
1.570000e-06	-1.249725e-06	-1.749686e-09	-8.885608e+00	-1.205654e+02
1.580000e-06	-1.205100e-06	-1.738526e-09	-8.568322e+00	-1.197942e+02
1.590000e-06	-1.160362e-06	-1.727199e-09	-8.250236e+00	-1.190078e+02
1.600000e-06	-1.115578e-06	-1.717735e-09	-7.931821e+00	-1.182056e+02
1.610000e-06	-1.070667e-06	-1.707355e-09	-7.612498e+00	-1.173871e+02
1.620000e-06	-1.025671e-06	-1.695126e-09	-7.292576e+00	-1.165517e+02
1.630000e-06	-9.806687e-07	-1.681799e-09	-6.972607e+00	-1.156985e+02
1.640000e-06	-9.355803e-07	-1.669180e-09	-6.652026e+00	-1.148267e+02
1.650000e-06	-8.904325e-07	-1.655907e-09	-6.331023e+00	-1.139355e+02
1.660000e-06	-8.451997e-07	-1.643048e-09	-6.009415e+00	-1.130239e+02
1.670000e-06	-7.998334e-07	-1.630137e-09	-5.686858e+00	-1.120908e+02
1.680000e-06	-7.544696e-07	-1.614724e-09	-5.364319e+00	-1.111352e+02
1.690000e-06	-7.090435e-07	-1.596598e-09	-5.041337e+00	-1.101559e+02
1.700000e-06	-6.635357e-07	-1.579762e-09	-4.717774e+00	-1.091517e+02
1.710000e-06	-6.180652e-07	-1.566202e-09	-4.394477e+00	-1.081214e+02
1.720000e-06	-5.724712e-07	-1.552113e-09	-4.070301e+00	-1.070637e+02
1.730000e-06	-5.267992e-07	-1.537982e-09	-3.745570e+00	-1.059772e+02
1.740000e-06	-4.811487e-07	-1.523212e-09	-3.420993e+00	-1.048606e+02
1.750000e-06	-4.354795e-07	-1.506946e-09	-3.096283e+00	-1.037125e+02
1.760000e-06	-3.898370e-07	-1.488845e-09	-2.771762e+00	-1.025315e+02
1.770000e-06	-3.441089e-07	-1.468766e-09	-2.446632e+00	-1.013161e+02
1.780000e-06	-2.982654e-07	-1.447865e-09	-2.120683e+00	-1.000648e+02
1.790000e-06	-2.524399e-07	-1.428013e-09	-1.794861e+00	-9.877610e+01
1.800000e-06	-2.066360e-07	-1.409231e-09	-1.469193e+00	-9.744839e+01
1.810000e-06	-1.608277e-07	-1.392356e-09	-1.143493e+00	-9.608005e+01
1.820000e-06	-1.149878e-07	-1.375891e-09	-8.175696e-01	-9.466942e+01
1.830000e-06	-6.914351e-08	-1.357196e-09	-4.916141e-01	-9.321475e+01
1.840000e-06	-2.336650e-08	-1.334528e-09	-1.661370e-01	-9.171429e+01
1.850000e-06	2.241771e-08	-1.308019e-09	1.593911e-01	-9.016618e+01
1.860000e-06	6.824630e-08	-1.279481e-09	4.852348e-01	-8.856853e+01
1.870000e-06	1.140942e-07	-1.249006e-09	8.112155e-01	-8.691939e+01
1.880000e-06	1.598974e-07	-1.219136e-09	1.136879e+00	-8.521674e+01
1.890000e-06	2.056444e-07	-1.193689e-09	1.462143e+00	-8.345852e+01
1.900000e-06	2.514343e-07	-1.172998e-09	1.787712e+00	-8.164263e+01
1.910000e-06	2.972484e-07	-1.149574e-09	2.113452e+00	-7.976691e+01
1.920000e-06	3.430081e-07	-1.119174e-09	2.438806e+00	-7.782919e+01
1.930000e-06	3.887816e-07	-1.086780e-09	2.764258e+00	-7.582728e+01
1.940000e-06	4.345321e-07	-1.053019e-09	3.089546e+00	-7.375902e+01
1.950000e-06	4.801742e-07	-1.017365e-09	3.414064e+00	-7.162225e+01
1.960000e-06	5.257853e-07	-9.806123e-10	3.738362e+00	-6.941488e+01
1.970000e-06	5.713813e-07	-9.460546e-10	4.062552e+00	-6.713488e+01
1.980000e-06	6.169281e-07	-9.164249e-10	4.386391e+00	-6.478035e+01
1.990000e-06	6.624496e-07	-8.846640e-10	4.710052e+00	-6.234953e+01
2.000000e-06	7.079359e-07	-8.490910e-10	5.033462e+00	-5.984081e+01
2.010000e-06	7.533221e-07	-8.112150e-10	5.356160e+00	-5.725280e+01
2.020000e-06	7.986150e-07	-7.715252e-10	5.678195e+00	-5.458438e+01
2.030000e-06	8.438774e-07	-7.280606e-10	6.000013e+00	-5.183468e+01
2.040000e-06	8.891164e-07	-6.820255e-10	6.321665e+00	-4.900315e+01
2.050000e-06	9.343302e-07	-6.371243e-10	6.643138e+00	-4.608963e+01
2.060000e-06	9.794245e-07	-5.940519e-10	6.963760e+00	-4.309431e+01
2.070000e-06	1.024343e-06	-5.522231e-10	7.283136e+00	-4.001782e+01
2.080000e-06	1.069118e-06	-5.083085e-10	7.601484e+00	-3.686123e+01
2.090000e-06	1.113777e-06	-4.639512e-10	7.919011e+00	-3.362609e+01
2.100000e-06	1.158428e-06	-4.214323e-10	8.236488e+00	-3.031445e+01
2.110000e-06	1.203044e-06	-3.752105e-10	8.553704e+00	-2.692887e+01
2.120000e-06	1.247526e-06	-3.203055e-10	8.869980e+00	-2.347243e+01
2.130000e-06	1.291942e-06	-2.611309e-10	9.185777e+00	-1.994873e+01
2.140000e-06	1.336298e-06	-2.033992e-10	9.501149e+00	-1.636191e+01
2.150000e-06	1.380578e-06	-1.474780e-10	9.815984e+00	-1.271661e+01
2.160000e-06	1.424805e-06	-9.221580e-11	1.013044e+01	-9.017995e+00
2.170000e-06	1.468995e-06	-3.718608e-11	1.044463e+01	-5.271689e+00
2.180000e-06	1.513162e-06	1.773424e-11	1.075866e+01	-1.483773e+00
2.190000e-06	1.557237e-06	7.461775e-11	1.107204e+01	2.339254e+00
2.200000e-06	1.601236e-06	1.347379e-10	1.138487e+01	6.190524e+00
2.210000e-06	1.645223e-06	1.962593e-10	1.169762e+01	1.006284e+01
2.220000e-06	1.689205e-06	2.580467e-10	1.201034e+01	1.394874e+01
2.230000e-06	1.733097e-06	3.174575e-10	1.232241e+01	1.784053e+01
2.240000e-06	1.776884e-06	3.767341e-10	1.263374e+01	2.173040e+01
2.250000e-06	1.820480e-06	4.362252e-10	1.294371e+01	2.561041e+01
2.260000e-06	1.863900e-06	4.951955e-10	1.325243e+01	2.947264e+01
2.270000e-06	1.907329e-06	5.526709e-10	1.356121e+01	3.330920e+01
2.280000e-06	1.950677e-06	6.080787e-10	1.386942e+01	3.711232e+01
2.290000e-06	1.993713e-06	6.645602e-10	1.417540e+01	4.087443e+01
2.300000e-06	2.036417e-06	7.216427e-10	1.447903e+01	4.458821e+01
2.310000e-06	2.078938e-06	7.736197e-10	1.478136e+01	4.824666e+01
2.320000e-06	2.121125e-06	8.201994e-10	1.508131e+01	5.184317e+01
2.330000e-06	2.162916e-06	8.662847e-10	1.537845e+01	5.537156e+01
2.340000e-06	2.204503e-06	9.160587e-10	1.567414e+01	5.882616e+01
2.350000e-06	2.245773e-06	9.672692e-10	1.596757e+01	6.220180e+01
2.360000e-06	2.286773e-06	1.018133e-09	1.625908e+01	6.549392e+01
2.370000e-06	2.327643e-06	1.067794e-09	1.654966e+01	6.869854e+01
2.380000e-06	2.368288e-06	1.113354e-09	1.683865e+01	7.181230e+01
2.390000e-06	2.408709e-06	1.152928e-09	1.712605e+01	7.483252e+01
2.400000e-06	2.448953e-06	1.185942e-09	1.741218e+01	7.775713e+01
2.410000e-06	2.489090e-06	1.217331e-09	1.769756e+01	8.058471e+01
2.420000e-06	2.529167e-06	1.253458e-09	1.798251e+01	8.331450e+01
2.430000e-06	2.569154e-06	1.295293e-09	1.826682e+01	8.594634e+01
2.440000e-06	2.609032e-06	1.340275e-09	1.855036e+01	8.848066e+01
2.450000e-06	2.648843e-06	1.383512e-09	1.883342e+01	9.091845e+01
2.460000e-06	2.688543e-06	1.420909e-09	1.911568e+01	9.326124e+01
2.470000e-06	2.728033e-06	1.450629e-09	1.939646e+01	9.551102e+01
2.480000e-06	2.767284e-06	1.474457e-09	1.967554e+01	9.767020e+01
2.490000e-06	2.806419e-06	1.497219e-09	1.995379e+01	9.974158e+01
2.500000e-06	2.845408e-06	1.522128e-09	2.023100e+01	1.017283e+02
2.510000e-06	2.884119e-06	1.551089e-09	2.050624e+01	1.036337e+02
2.520000e-06	2.922559e-06	1.582973e-09	2.077955e+01	1.054613e+02
2.530000e-06	2.960742e-06	1.613703e-09	2.105103e+01	1.072149e+02
2.540000e-06	2.998776e-06	1.639162e-09	2.132146e+01	1.088983e+02
2.550000e-06	3.036700e-06	1.662564e-09	2.159110e+01	1.105153e+02
2.560000e-06	3.074404e-06	1.684283e-09	2.185917e+01	1.120698e+02
2.570000e-06	3.111903e-06	1.704082e-09	2.212579e+01	1.135653e+02
2.580000e-06	3.149230e-06	1.722053e-09	2.239120e+01	1.150056e+02
2.590000e-06	3.186331e-06	1.741066e-09	2.265498e+01	1.163942e+02
2.600000e-06	3.223191e-06	1.762433e-09	2.291706e+01	1.177342e+02
2.610000e-06	3.259786e-06	1.783879e-09	2.317725e+01	1.190287e+02
2.620000e-06	3.296166e-06	1.805321e-09	2.343592e+01	1.202805e+02
2.630000e-06	3.332390e-06	1.825388e-09	2.369347e+01	1.214921e+02
2.640000e-06	3.368452e-06	1.841718e-09	2.394987e+01	1.226659e+02
2.650000e-06	3.404343e-06	1.855933e-09	2.420506e+01	1.238037e+02
2.660000e-06	3.440120e-06	1.870537e-09	2.445944e+01	1.249073e+02
2.670000e-06	3.475775e-06	1.886558e-09	2.471294e+01	1.259782e+02
2.680000e-06	3.511171e-06	1.902028e-09	2.496461e+01	1.270175e+02
2.690000e-06	3.546269e-06	1.914823e-09	2.521416e+01	1.280263e+02
2.700000e-06	3.580992e-06	1.926731e-09	2.546104e+01	1.290053e+02
2.710000e-06	3.615267e-06	1.939928e-09	2.570474e+01	1.299549e+02
2.720000e-06	3.649118e-06	1.954588e-09	2.594542e+01	1.308758e+02
2.730000e-06	3.682484e-06	1.970200e-09	2.618266e+01	1.317681e+02
2.740000e-06	3.715534e-06	1.984182e-09	2.641764e+01	1.326320e+02
2.750000e-06	3.748304e-06	1.995905e-09	2.665064e+01	1.334676e+02
2.760000e-06	3.780707e-06	2.008313e-09	2.688103e+01	1.342750e+02
2.770000e-06	3.812876e-06	2.020130e-09	2.710975e+01	1.350543e+02
2.780000e-06	3.844930e-06	2.030715e-09	2.733766e+01	1.358054e+02
2.790000e-06	3.876836e-06	2.041133e-09	2.756451e+01	1.365286e+02
2.800000e-06	3.908520e-06	2.051865e-09	2.778979e+01	1.372239e+02
2.810000e-06	3.939976e-06	2.060965e-09	2.801344e+01	1.378917e+02
2.820000e-06	3.971094e-06	2.068897e-09	2.823469e+01	1.385323e+02
2.830000e-06	4.001904e-06	2.077644e-09	2.845375e+01	1.391461e+02
2.840000e-06	4.032429e-06	2.086725e-09	2.867078e+01	1.397338e+02
2.850000e-06	4.062670e-06	2.093813e-09	2.888580e+01	1.402960e+02
2.860000e-06	4.092705e-06	2.100275e-09	2.909935e+01	1.408334e+02
2.870000e-06	4.122472e-06	2.109726e-09	2.931100e+01	1.413471e+02
2.880000e-06	4.151938e-06	2.120000e-09	2.952050e+01	1.418380e+02
2.890000e-06	4.181191e-06	2.125484e-09	2.972849e+01	1.423073e+02
2.900000e-06	4.210251e-06	2.126215e-09	2.993511e+01	1.427562e+02
