# Temperatura_=_-1.5
# Concentracion g/m^3_=_4090.0
# C_Vs_to_Am_M_A/Vsm_=_65563218390.804596
# pendiente_HvsI_1/m_=_3716.3
# ordenada_HvsI_A/m_=_1297.0
# frecuencia_Hz_=_135082.90432210529

Tiempo_(s)	Campo_(V.s)	Magnetizacion_(V.s)	Campo_(kA/m)	Magnetizacion_(A/m)
0.000000e+00	-5.415831e-06	-2.645782e-09	-3.839240e+01	-1.672765e+02
1.000000e-08	-5.416015e-06	-2.649074e-09	-3.839370e+01	-1.672934e+02
2.000000e-08	-5.415955e-06	-2.650534e-09	-3.839328e+01	-1.673093e+02
3.000000e-08	-5.415553e-06	-2.651197e-09	-3.839043e+01	-1.673245e+02
4.000000e-08	-5.414607e-06	-2.648964e-09	-3.838372e+01	-1.673392e+02
5.000000e-08	-5.413051e-06	-2.641501e-09	-3.837269e+01	-1.673536e+02
6.000000e-08	-5.410907e-06	-2.639227e-09	-3.835750e+01	-1.673681e+02
7.000000e-08	-5.408235e-06	-2.655063e-09	-3.833856e+01	-1.673829e+02
8.000000e-08	-5.405044e-06	-2.651075e-09	-3.831593e+01	-1.673982e+02
9.000000e-08	-5.401317e-06	-2.594616e-09	-3.828951e+01	-1.674143e+02
1.000000e-07	-5.397217e-06	-2.572671e-09	-3.826045e+01	-1.674313e+02
1.100000e-07	-5.392875e-06	-2.628654e-09	-3.822967e+01	-1.674494e+02
1.200000e-07	-5.388313e-06	-2.656094e-09	-3.819733e+01	-1.674689e+02
1.300000e-07	-5.383460e-06	-2.614853e-09	-3.816293e+01	-1.674897e+02
1.400000e-07	-5.378255e-06	-2.566476e-09	-3.812603e+01	-1.675120e+02
1.500000e-07	-5.372721e-06	-2.628090e-09	-3.808680e+01	-1.675358e+02
1.600000e-07	-5.366853e-06	-2.662195e-09	-3.804520e+01	-1.675612e+02
1.700000e-07	-5.360561e-06	-2.577286e-09	-3.800059e+01	-1.675880e+02
1.800000e-07	-5.353755e-06	-2.529738e-09	-3.795235e+01	-1.676162e+02
1.900000e-07	-5.346538e-06	-2.580517e-09	-3.790119e+01	-1.676458e+02
2.000000e-07	-5.339107e-06	-2.609621e-09	-3.784851e+01	-1.676764e+02
2.100000e-07	-5.331477e-06	-2.558686e-09	-3.779442e+01	-1.677080e+02
2.200000e-07	-5.323628e-06	-2.565094e-09	-3.773878e+01	-1.677402e+02
2.300000e-07	-5.315557e-06	-2.595028e-09	-3.768157e+01	-1.677729e+02
2.400000e-07	-5.307109e-06	-2.565839e-09	-3.762168e+01	-1.678056e+02
2.500000e-07	-5.297976e-06	-2.512152e-09	-3.755694e+01	-1.678382e+02
2.600000e-07	-5.288119e-06	-2.540054e-09	-3.748706e+01	-1.678702e+02
2.700000e-07	-5.277735e-06	-2.553009e-09	-3.741345e+01	-1.679013e+02
2.800000e-07	-5.266833e-06	-2.511524e-09	-3.733616e+01	-1.679310e+02
2.900000e-07	-5.255430e-06	-2.498653e-09	-3.725533e+01	-1.679589e+02
3.000000e-07	-5.243608e-06	-2.546476e-09	-3.717153e+01	-1.679847e+02
3.100000e-07	-5.231365e-06	-2.545485e-09	-3.708473e+01	-1.680079e+02
3.200000e-07	-5.218827e-06	-2.494904e-09	-3.699585e+01	-1.680281e+02
3.300000e-07	-5.205974e-06	-2.494561e-09	-3.690474e+01	-1.680447e+02
3.400000e-07	-5.192658e-06	-2.525988e-09	-3.681035e+01	-1.680575e+02
3.500000e-07	-5.178904e-06	-2.530519e-09	-3.671285e+01	-1.680658e+02
3.600000e-07	-5.164867e-06	-2.528118e-09	-3.661334e+01	-1.680694e+02
3.700000e-07	-5.150475e-06	-2.537885e-09	-3.651131e+01	-1.680679e+02
3.800000e-07	-5.135428e-06	-2.528788e-09	-3.640465e+01	-1.680607e+02
3.900000e-07	-5.119718e-06	-2.525106e-09	-3.629328e+01	-1.680475e+02
4.000000e-07	-5.103574e-06	-2.533510e-09	-3.617883e+01	-1.680280e+02
4.100000e-07	-5.087013e-06	-2.514368e-09	-3.606144e+01	-1.680019e+02
4.200000e-07	-5.070122e-06	-2.483082e-09	-3.594170e+01	-1.679687e+02
4.300000e-07	-5.052929e-06	-2.508990e-09	-3.581982e+01	-1.679283e+02
4.400000e-07	-5.035437e-06	-2.538365e-09	-3.569582e+01	-1.678804e+02
4.500000e-07	-5.017624e-06	-2.526395e-09	-3.556954e+01	-1.678247e+02
4.600000e-07	-4.999322e-06	-2.503085e-09	-3.543980e+01	-1.677611e+02
4.700000e-07	-4.980685e-06	-2.511400e-09	-3.530769e+01	-1.676895e+02
4.800000e-07	-4.961683e-06	-2.513225e-09	-3.517298e+01	-1.676098e+02
4.900000e-07	-4.942328e-06	-2.499909e-09	-3.503578e+01	-1.675219e+02
5.000000e-07	-4.922760e-06	-2.480805e-09	-3.489706e+01	-1.674259e+02
5.100000e-07	-4.903007e-06	-2.482363e-09	-3.475703e+01	-1.673218e+02
5.200000e-07	-4.883070e-06	-2.496852e-09	-3.461570e+01	-1.672097e+02
5.300000e-07	-4.862855e-06	-2.510085e-09	-3.447240e+01	-1.670898e+02
5.400000e-07	-4.842197e-06	-2.498288e-09	-3.432596e+01	-1.669624e+02
5.500000e-07	-4.821152e-06	-2.484079e-09	-3.417677e+01	-1.668277e+02
5.600000e-07	-4.799778e-06	-2.482235e-09	-3.402525e+01	-1.666860e+02
5.700000e-07	-4.778169e-06	-2.484187e-09	-3.387206e+01	-1.665378e+02
5.800000e-07	-4.756266e-06	-2.470957e-09	-3.371680e+01	-1.663835e+02
5.900000e-07	-4.733948e-06	-2.453991e-09	-3.355859e+01	-1.662235e+02
6.000000e-07	-4.711243e-06	-2.454454e-09	-3.339763e+01	-1.660585e+02
6.100000e-07	-4.688255e-06	-2.470783e-09	-3.323467e+01	-1.658888e+02
6.200000e-07	-4.664938e-06	-2.473036e-09	-3.306938e+01	-1.657152e+02
6.300000e-07	-4.641365e-06	-2.453626e-09	-3.290227e+01	-1.655383e+02
6.400000e-07	-4.617654e-06	-2.444486e-09	-3.273419e+01	-1.653585e+02
6.500000e-07	-4.593728e-06	-2.449507e-09	-3.256458e+01	-1.651767e+02
6.600000e-07	-4.569472e-06	-2.444781e-09	-3.239263e+01	-1.649933e+02
6.700000e-07	-4.544797e-06	-2.427546e-09	-3.221771e+01	-1.648089e+02
6.800000e-07	-4.519684e-06	-2.418063e-09	-3.203969e+01	-1.646242e+02
6.900000e-07	-4.494067e-06	-2.417900e-09	-3.185809e+01	-1.644397e+02
7.000000e-07	-4.467940e-06	-2.424750e-09	-3.167288e+01	-1.642558e+02
7.100000e-07	-4.441297e-06	-2.422126e-09	-3.148401e+01	-1.640730e+02
7.200000e-07	-4.414219e-06	-2.412520e-09	-3.129205e+01	-1.638916e+02
7.300000e-07	-4.386817e-06	-2.409311e-09	-3.109780e+01	-1.637118e+02
7.400000e-07	-4.359220e-06	-2.414446e-09	-3.090217e+01	-1.635340e+02
7.500000e-07	-4.331427e-06	-2.400324e-09	-3.070515e+01	-1.633582e+02
7.600000e-07	-4.303444e-06	-2.377784e-09	-3.050678e+01	-1.631845e+02
7.700000e-07	-4.275289e-06	-2.370086e-09	-3.030719e+01	-1.630127e+02
7.800000e-07	-4.246885e-06	-2.378975e-09	-3.010584e+01	-1.628427e+02
7.900000e-07	-4.218044e-06	-2.384205e-09	-2.990138e+01	-1.626742e+02
8.000000e-07	-4.188767e-06	-2.383665e-09	-2.969384e+01	-1.625069e+02
8.100000e-07	-4.159225e-06	-2.379164e-09	-2.948442e+01	-1.623404e+02
8.200000e-07	-4.129487e-06	-2.381477e-09	-2.927361e+01	-1.621739e+02
8.300000e-07	-4.099542e-06	-2.382190e-09	-2.906134e+01	-1.620071e+02
8.400000e-07	-4.069380e-06	-2.371771e-09	-2.884751e+01	-1.618392e+02
8.500000e-07	-4.038891e-06	-2.356822e-09	-2.863138e+01	-1.616695e+02
8.600000e-07	-4.008094e-06	-2.354525e-09	-2.841307e+01	-1.614972e+02
8.700000e-07	-3.977071e-06	-2.361388e-09	-2.819315e+01	-1.613215e+02
8.800000e-07	-3.945760e-06	-2.361933e-09	-2.797118e+01	-1.611416e+02
8.900000e-07	-3.914215e-06	-2.354281e-09	-2.774756e+01	-1.609568e+02
9.000000e-07	-3.882490e-06	-2.352211e-09	-2.752266e+01	-1.607662e+02
9.100000e-07	-3.850584e-06	-2.355202e-09	-2.729649e+01	-1.605691e+02
9.200000e-07	-3.818501e-06	-2.351770e-09	-2.706906e+01	-1.603649e+02
9.300000e-07	-3.786092e-06	-2.341622e-09	-2.683931e+01	-1.601528e+02
9.400000e-07	-3.753388e-06	-2.335062e-09	-2.660747e+01	-1.599324e+02
9.500000e-07	-3.720473e-06	-2.338774e-09	-2.637414e+01	-1.597032e+02
9.600000e-07	-3.687209e-06	-2.340649e-09	-2.613833e+01	-1.594648e+02
9.700000e-07	-3.653433e-06	-2.334038e-09	-2.589890e+01	-1.592170e+02
9.800000e-07	-3.619154e-06	-2.324635e-09	-2.565590e+01	-1.589598e+02
9.900000e-07	-3.584457e-06	-2.323249e-09	-2.540994e+01	-1.586930e+02
1.000000e-06	-3.549430e-06	-2.324461e-09	-2.516163e+01	-1.584168e+02
1.010000e-06	-3.514133e-06	-2.322253e-09	-2.491141e+01	-1.581315e+02
1.020000e-06	-3.478565e-06	-2.315516e-09	-2.465928e+01	-1.578374e+02
1.030000e-06	-3.442854e-06	-2.312332e-09	-2.440612e+01	-1.575351e+02
1.040000e-06	-3.407064e-06	-2.312227e-09	-2.415241e+01	-1.572249e+02
1.050000e-06	-3.371125e-06	-2.305815e-09	-2.389764e+01	-1.569078e+02
1.060000e-06	-3.334987e-06	-2.292589e-09	-2.364146e+01	-1.565843e+02
1.070000e-06	-3.298725e-06	-2.283690e-09	-2.338440e+01	-1.562552e+02
1.080000e-06	-3.262234e-06	-2.279942e-09	-2.312572e+01	-1.559216e+02
1.090000e-06	-3.225416e-06	-2.277955e-09	-2.286472e+01	-1.555840e+02
1.100000e-06	-3.188311e-06	-2.272703e-09	-2.260169e+01	-1.552436e+02
1.110000e-06	-3.150989e-06	-2.268063e-09	-2.233711e+01	-1.549011e+02
1.120000e-06	-3.113429e-06	-2.265374e-09	-2.207085e+01	-1.545572e+02
1.130000e-06	-3.075698e-06	-2.262379e-09	-2.180338e+01	-1.542129e+02
1.140000e-06	-3.037850e-06	-2.254163e-09	-2.153508e+01	-1.538687e+02
1.150000e-06	-2.999742e-06	-2.244484e-09	-2.126493e+01	-1.535253e+02
1.160000e-06	-2.961415e-06	-2.236278e-09	-2.099324e+01	-1.531831e+02
1.170000e-06	-2.922920e-06	-2.230773e-09	-2.072035e+01	-1.528425e+02
1.180000e-06	-2.884216e-06	-2.226805e-09	-2.044598e+01	-1.525036e+02
1.190000e-06	-2.845347e-06	-2.223980e-09	-2.017044e+01	-1.521665e+02
1.200000e-06	-2.806298e-06	-2.223644e-09	-1.989363e+01	-1.518312e+02
1.210000e-06	-2.766997e-06	-2.220218e-09	-1.961503e+01	-1.514973e+02
1.220000e-06	-2.727470e-06	-2.210090e-09	-1.933482e+01	-1.511646e+02
1.230000e-06	-2.687782e-06	-2.198511e-09	-1.905347e+01	-1.508323e+02
1.240000e-06	-2.648032e-06	-2.188073e-09	-1.877169e+01	-1.504998e+02
1.250000e-06	-2.608234e-06	-2.179078e-09	-1.848956e+01	-1.501662e+02
1.260000e-06	-2.568287e-06	-2.172533e-09	-1.820638e+01	-1.498307e+02
1.270000e-06	-2.528211e-06	-2.167527e-09	-1.792229e+01	-1.494919e+02
1.280000e-06	-2.488030e-06	-2.165411e-09	-1.763745e+01	-1.491489e+02
1.290000e-06	-2.447657e-06	-2.160906e-09	-1.735125e+01	-1.488004e+02
1.300000e-06	-2.407037e-06	-2.152575e-09	-1.706330e+01	-1.484449e+02
1.310000e-06	-2.366221e-06	-2.143489e-09	-1.677395e+01	-1.480813e+02
1.320000e-06	-2.325208e-06	-2.135515e-09	-1.648322e+01	-1.477081e+02
1.330000e-06	-2.283903e-06	-2.126036e-09	-1.619041e+01	-1.473240e+02
1.340000e-06	-2.242230e-06	-2.116285e-09	-1.589499e+01	-1.469278e+02
1.350000e-06	-2.200261e-06	-2.107558e-09	-1.559748e+01	-1.465182e+02
1.360000e-06	-2.158164e-06	-2.100885e-09	-1.529905e+01	-1.460940e+02
1.370000e-06	-2.115736e-06	-2.094872e-09	-1.499829e+01	-1.456541e+02
1.380000e-06	-2.072966e-06	-2.086378e-09	-1.469509e+01	-1.451977e+02
1.390000e-06	-2.029993e-06	-2.074214e-09	-1.439046e+01	-1.447239e+02
1.400000e-06	-1.986835e-06	-2.065375e-09	-1.408452e+01	-1.442321e+02
1.410000e-06	-1.943536e-06	-2.060342e-09	-1.377758e+01	-1.437216e+02
1.420000e-06	-1.900049e-06	-2.053755e-09	-1.346930e+01	-1.431921e+02
1.430000e-06	-1.856408e-06	-2.044352e-09	-1.315993e+01	-1.426434e+02
1.440000e-06	-1.812733e-06	-2.035417e-09	-1.285032e+01	-1.420752e+02
1.450000e-06	-1.769056e-06	-2.027146e-09	-1.254070e+01	-1.414877e+02
1.460000e-06	-1.725269e-06	-2.016395e-09	-1.223030e+01	-1.408810e+02
1.470000e-06	-1.681332e-06	-2.001354e-09	-1.191883e+01	-1.402553e+02
1.480000e-06	-1.637306e-06	-1.984786e-09	-1.160673e+01	-1.396109e+02
1.490000e-06	-1.593288e-06	-1.972332e-09	-1.129469e+01	-1.389484e+02
1.500000e-06	-1.549254e-06	-1.964540e-09	-1.098254e+01	-1.382682e+02
1.510000e-06	-1.505156e-06	-1.955790e-09	-1.066993e+01	-1.375706e+02
1.520000e-06	-1.460972e-06	-1.944240e-09	-1.035671e+01	-1.368564e+02
1.530000e-06	-1.416652e-06	-1.934567e-09	-1.004254e+01	-1.361258e+02
1.540000e-06	-1.372272e-06	-1.927266e-09	-9.727930e+00	-1.353794e+02
1.550000e-06	-1.327881e-06	-1.915223e-09	-9.413241e+00	-1.346176e+02
1.560000e-06	-1.283385e-06	-1.898871e-09	-9.097818e+00	-1.338405e+02
1.570000e-06	-1.238737e-06	-1.886713e-09	-8.781310e+00	-1.330483e+02
1.580000e-06	-1.193960e-06	-1.877586e-09	-8.463889e+00	-1.322410e+02
1.590000e-06	-1.149129e-06	-1.867307e-09	-8.146084e+00	-1.314186e+02
1.600000e-06	-1.104224e-06	-1.855176e-09	-7.827759e+00	-1.305806e+02
1.610000e-06	-1.059204e-06	-1.843550e-09	-7.508616e+00	-1.297267e+02
1.620000e-06	-1.014060e-06	-1.833732e-09	-7.188589e+00	-1.288561e+02
1.630000e-06	-9.689235e-07	-1.821029e-09	-6.868623e+00	-1.279680e+02
1.640000e-06	-9.236759e-07	-1.805046e-09	-6.547866e+00	-1.270613e+02
1.650000e-06	-8.782661e-07	-1.791844e-09	-6.225960e+00	-1.261349e+02
1.660000e-06	-8.328018e-07	-1.779847e-09	-5.903667e+00	-1.251872e+02
1.670000e-06	-7.872379e-07	-1.766556e-09	-5.580668e+00	-1.242168e+02
1.680000e-06	-7.416484e-07	-1.750387e-09	-5.257488e+00	-1.232219e+02
1.690000e-06	-6.959587e-07	-1.732141e-09	-4.933597e+00	-1.222007e+02
1.700000e-06	-6.501759e-07	-1.716920e-09	-4.609046e+00	-1.211511e+02
1.710000e-06	-6.044312e-07	-1.703627e-09	-4.284765e+00	-1.200711e+02
1.720000e-06	-5.587445e-07	-1.687061e-09	-3.960896e+00	-1.189586e+02
1.730000e-06	-5.130535e-07	-1.668741e-09	-3.636996e+00	-1.178112e+02
1.740000e-06	-4.673151e-07	-1.651762e-09	-3.312760e+00	-1.166268e+02
1.750000e-06	-4.214839e-07	-1.634491e-09	-2.987866e+00	-1.154032e+02
1.760000e-06	-3.755897e-07	-1.614970e-09	-2.662526e+00	-1.141381e+02
1.770000e-06	-3.296890e-07	-1.594629e-09	-2.337140e+00	-1.128294e+02
1.780000e-06	-2.838007e-07	-1.575868e-09	-2.011841e+00	-1.114748e+02
1.790000e-06	-2.378498e-07	-1.559023e-09	-1.686099e+00	-1.100725e+02
1.800000e-06	-1.918798e-07	-1.538822e-09	-1.360221e+00	-1.086204e+02
1.810000e-06	-1.459956e-07	-1.514652e-09	-1.034952e+00	-1.071168e+02
1.820000e-06	-1.000819e-07	-1.490386e-09	-7.094726e-01	-1.055599e+02
1.830000e-06	-5.419408e-08	-1.466470e-09	-3.841776e-01	-1.039481e+02
1.840000e-06	-8.348525e-09	-1.441624e-09	-5.918204e-02	-1.022801e+02
1.850000e-06	3.754958e-08	-1.413617e-09	2.661860e-01	-1.005545e+02
1.860000e-06	8.340141e-08	-1.384089e-09	5.912261e-01	-9.877014e+01
1.870000e-06	1.292611e-07	-1.358198e-09	9.163221e-01	-9.692608e+01
1.880000e-06	1.751625e-07	-1.332793e-09	1.241714e+00	-9.502137e+01
1.890000e-06	2.210442e-07	-1.302777e-09	1.566965e+00	-9.305527e+01
1.900000e-06	2.668948e-07	-1.271017e-09	1.891996e+00	-9.102711e+01
1.910000e-06	3.126943e-07	-1.240427e-09	2.216665e+00	-8.893635e+01
1.920000e-06	3.584920e-07	-1.207850e-09	2.541322e+00	-8.678254e+01
1.930000e-06	4.042619e-07	-1.171749e-09	2.865781e+00	-8.456530e+01
1.940000e-06	4.500151e-07	-1.135752e-09	3.190122e+00	-8.228432e+01
1.950000e-06	4.957830e-07	-1.102394e-09	3.514567e+00	-7.993937e+01
1.960000e-06	5.415497e-07	-1.069089e-09	3.839003e+00	-7.753027e+01
1.970000e-06	5.872628e-07	-1.031404e-09	4.163060e+00	-7.505685e+01
1.980000e-06	6.328976e-07	-9.893169e-10	4.486562e+00	-7.251904e+01
1.990000e-06	6.784721e-07	-9.476992e-10	4.809636e+00	-6.991676e+01
2.000000e-06	7.239766e-07	-9.079152e-10	5.132214e+00	-6.724999e+01
2.010000e-06	7.695039e-07	-8.671583e-10	5.454953e+00	-6.451876e+01
2.020000e-06	8.149777e-07	-8.252010e-10	5.777313e+00	-6.172314e+01
2.030000e-06	8.603405e-07	-7.839016e-10	6.098886e+00	-5.886326e+01
2.040000e-06	9.056827e-07	-7.409752e-10	6.420313e+00	-5.593933e+01
2.050000e-06	9.510125e-07	-6.947125e-10	6.741653e+00	-5.295164e+01
2.060000e-06	9.961988e-07	-6.488328e-10	7.061976e+00	-4.990060e+01
2.070000e-06	1.041178e-06	-6.040784e-10	7.380830e+00	-4.678675e+01
2.080000e-06	1.086047e-06	-5.596668e-10	7.698905e+00	-4.361076e+01
2.090000e-06	1.130859e-06	-5.144959e-10	8.016568e+00	-4.037351e+01
2.100000e-06	1.175553e-06	-4.702294e-10	8.333402e+00	-3.707606e+01
2.110000e-06	1.220197e-06	-4.241531e-10	8.649878e+00	-3.371970e+01
2.120000e-06	1.264828e-06	-3.723606e-10	8.966269e+00	-3.030597e+01
2.130000e-06	1.309352e-06	-3.158278e-10	9.281891e+00	-2.683670e+01
2.140000e-06	1.353789e-06	-2.576387e-10	9.596902e+00	-2.331400e+01
2.150000e-06	1.398126e-06	-2.028125e-10	9.911205e+00	-1.974031e+01
2.160000e-06	1.442353e-06	-1.526340e-10	1.022473e+01	-1.611839e+01
2.170000e-06	1.486461e-06	-1.028118e-10	1.053741e+01	-1.245136e+01
2.180000e-06	1.530531e-06	-5.048056e-11	1.084981e+01	-8.742682e+00
2.190000e-06	1.574577e-06	3.291701e-12	1.116206e+01	-4.996175e+00
2.200000e-06	1.618578e-06	5.769024e-11	1.147397e+01	-1.216019e+00
2.210000e-06	1.662528e-06	1.159738e-10	1.178553e+01	2.593262e+00
2.220000e-06	1.706373e-06	1.769711e-10	1.209634e+01	6.426812e+00
2.230000e-06	1.750181e-06	2.363174e-10	1.240690e+01	1.027946e+01
2.240000e-06	1.793924e-06	2.933673e-10	1.271699e+01	1.414574e+01
2.250000e-06	1.837552e-06	3.496033e-10	1.302626e+01	1.801993e+01
2.260000e-06	1.881099e-06	4.064047e-10	1.333496e+01	2.189609e+01
2.270000e-06	1.924534e-06	4.605138e-10	1.364287e+01	2.576809e+01
2.280000e-06	1.967822e-06	5.139911e-10	1.394974e+01	2.962966e+01
2.290000e-06	2.010991e-06	5.704917e-10	1.425576e+01	3.347444e+01
2.300000e-06	2.054025e-06	6.296615e-10	1.456082e+01	3.729605e+01
2.310000e-06	2.096834e-06	6.858935e-10	1.486429e+01	4.108811e+01
2.320000e-06	2.139361e-06	7.354173e-10	1.516576e+01	4.484431e+01
2.330000e-06	2.181592e-06	7.843909e-10	1.546514e+01	4.855847e+01
2.340000e-06	2.223586e-06	8.373611e-10	1.576283e+01	5.222462e+01
2.350000e-06	2.265230e-06	8.946023e-10	1.605804e+01	5.583700e+01
2.360000e-06	2.306507e-06	9.502306e-10	1.635065e+01	5.939016e+01
2.370000e-06	2.347538e-06	1.002484e-09	1.664151e+01	6.287898e+01
2.380000e-06	2.388268e-06	1.052186e-09	1.693024e+01	6.629873e+01
2.390000e-06	2.428826e-06	1.096725e-09	1.721776e+01	6.964514e+01
2.400000e-06	2.469338e-06	1.134239e-09	1.750495e+01	7.291435e+01
2.410000e-06	2.509654e-06	1.168791e-09	1.779074e+01	7.610305e+01
2.420000e-06	2.549784e-06	1.209511e-09	1.807522e+01	7.920840e+01
2.430000e-06	2.589755e-06	1.260497e-09	1.835857e+01	8.222814e+01
2.440000e-06	2.629574e-06	1.316152e-09	1.864084e+01	8.516052e+01
2.450000e-06	2.669296e-06	1.363661e-09	1.892243e+01	8.800435e+01
2.460000e-06	2.708925e-06	1.403497e-09	1.920336e+01	9.075898e+01
2.470000e-06	2.748440e-06	1.440953e-09	1.948348e+01	9.342429e+01
2.480000e-06	2.787717e-06	1.470495e-09	1.976191e+01	9.600065e+01
2.490000e-06	2.826723e-06	1.493280e-09	2.003842e+01	9.848893e+01
2.500000e-06	2.865613e-06	1.518533e-09	2.031411e+01	1.008905e+02
2.510000e-06	2.904390e-06	1.556016e-09	2.058900e+01	1.032070e+02
2.520000e-06	2.942938e-06	1.601022e-09	2.086226e+01	1.054405e+02
2.530000e-06	2.981278e-06	1.640174e-09	2.113405e+01	1.075936e+02
2.540000e-06	3.019405e-06	1.671447e-09	2.140432e+01	1.096689e+02
2.550000e-06	3.057322e-06	1.700756e-09	2.167311e+01	1.116693e+02
2.560000e-06	3.095062e-06	1.728182e-09	2.194065e+01	1.135979e+02
2.570000e-06	3.132636e-06	1.749074e-09	2.220701e+01	1.154580e+02
2.580000e-06	3.170023e-06	1.767323e-09	2.247205e+01	1.172529e+02
2.590000e-06	3.207108e-06	1.790643e-09	2.273494e+01	1.189858e+02
2.600000e-06	3.243904e-06	1.819984e-09	2.299578e+01	1.206600e+02
2.610000e-06	3.280454e-06	1.849571e-09	2.325488e+01	1.222788e+02
2.620000e-06	3.316783e-06	1.874800e-09	2.351242e+01	1.238452e+02
2.630000e-06	3.352927e-06	1.898430e-09	2.376863e+01	1.253622e+02
2.640000e-06	3.388910e-06	1.923693e-09	2.402372e+01	1.268325e+02
2.650000e-06	3.424809e-06	1.945804e-09	2.427820e+01	1.282586e+02
2.660000e-06	3.460551e-06	1.962864e-09	2.453157e+01	1.296430e+02
2.670000e-06	3.496113e-06	1.980431e-09	2.478367e+01	1.309876e+02
2.680000e-06	3.531533e-06	2.000867e-09	2.503476e+01	1.322943e+02
2.690000e-06	3.566770e-06	2.019146e-09	2.528455e+01	1.335646e+02
2.700000e-06	3.601740e-06	2.032354e-09	2.553245e+01	1.347999e+02
2.710000e-06	3.636247e-06	2.046621e-09	2.577707e+01	1.360011e+02
2.720000e-06	3.670169e-06	2.064980e-09	2.601754e+01	1.371692e+02
2.730000e-06	3.703637e-06	2.084776e-09	2.625480e+01	1.383048e+02
2.740000e-06	3.736704e-06	2.105086e-09	2.648920e+01	1.394082e+02
2.750000e-06	3.769359e-06	2.126321e-09	2.672069e+01	1.404798e+02
2.760000e-06	3.801727e-06	2.146115e-09	2.695014e+01	1.415196e+02
2.770000e-06	3.833852e-06	2.160319e-09	2.717788e+01	1.425277e+02
2.780000e-06	3.865807e-06	2.168824e-09	2.740441e+01	1.435039e+02
2.790000e-06	3.897662e-06	2.174583e-09	2.763022e+01	1.444482e+02
2.800000e-06	3.929339e-06	2.184121e-09	2.785478e+01	1.453603e+02
2.810000e-06	3.960829e-06	2.197120e-09	2.807801e+01	1.462402e+02
2.820000e-06	3.992034e-06	2.210309e-09	2.829922e+01	1.470877e+02
2.830000e-06	4.022916e-06	2.224453e-09	2.851814e+01	1.479027e+02
2.840000e-06	4.053523e-06	2.239274e-09	2.873511e+01	1.486854e+02
2.850000e-06	4.083824e-06	2.250752e-09	2.894991e+01	1.494357e+02
2.860000e-06	4.113840e-06	2.257597e-09	2.916269e+01	1.501541e+02
2.870000e-06	4.143636e-06	2.262967e-09	2.937391e+01	1.508408e+02
2.880000e-06	4.173184e-06	2.269681e-09	2.958338e+01	1.514964e+02
2.890000e-06	4.202366e-06	2.276730e-09	2.979025e+01	1.521216e+02
2.900000e-06	4.231263e-06	2.283396e-09	2.999509e+01	1.527171e+02
