# Temperatura_=_4.87
# Concentracion g/m^3_=_4090.0
# C_Vs_to_Am_M_A/Vsm_=_65563218390.804596
# pendiente_HvsI_1/m_=_3716.3
# ordenada_HvsI_A/m_=_1297.0
# frecuencia_Hz_=_135084.28597706088

Tiempo_(s)	Campo_(V.s)	Magnetizacion_(V.s)	Campo_(kA/m)	Magnetizacion_(A/m)
0.000000e+00	-5.416180e-06	-2.611990e-09	-3.839113e+01	-1.685533e+02
1.000000e-08	-5.416342e-06	-2.617296e-09	-3.839228e+01	-1.684836e+02
2.000000e-08	-5.416331e-06	-2.624471e-09	-3.839220e+01	-1.684167e+02
3.000000e-08	-5.416146e-06	-2.632488e-09	-3.839089e+01	-1.683552e+02
4.000000e-08	-5.415504e-06	-2.637283e-09	-3.838634e+01	-1.683016e+02
5.000000e-08	-5.414308e-06	-2.634772e-09	-3.837786e+01	-1.682587e+02
6.000000e-08	-5.412538e-06	-2.622305e-09	-3.836532e+01	-1.682289e+02
7.000000e-08	-5.410073e-06	-2.598198e-09	-3.834784e+01	-1.682145e+02
8.000000e-08	-5.406982e-06	-2.584641e-09	-3.832593e+01	-1.682177e+02
9.000000e-08	-5.403329e-06	-2.663567e-09	-3.830004e+01	-1.682405e+02
1.000000e-07	-5.399155e-06	-2.720522e-09	-3.827045e+01	-1.682846e+02
1.100000e-07	-5.394749e-06	-2.591562e-09	-3.823922e+01	-1.683513e+02
1.200000e-07	-5.390423e-06	-2.545945e-09	-3.820856e+01	-1.684416e+02
1.300000e-07	-5.386030e-06	-2.616548e-09	-3.817742e+01	-1.685562e+02
1.400000e-07	-5.381104e-06	-2.719343e-09	-3.814251e+01	-1.686953e+02
1.500000e-07	-5.375475e-06	-2.570467e-09	-3.810261e+01	-1.688588e+02
1.600000e-07	-5.369591e-06	-2.457718e-09	-3.806090e+01	-1.690460e+02
1.700000e-07	-5.363527e-06	-2.662290e-09	-3.801792e+01	-1.692559e+02
1.800000e-07	-5.356910e-06	-2.724561e-09	-3.797101e+01	-1.694872e+02
1.900000e-07	-5.349826e-06	-2.657805e-09	-3.792080e+01	-1.697380e+02
2.000000e-07	-5.342526e-06	-2.530511e-09	-3.786906e+01	-1.700062e+02
2.100000e-07	-5.335133e-06	-2.680660e-09	-3.781665e+01	-1.702894e+02
2.200000e-07	-5.327428e-06	-2.642164e-09	-3.776204e+01	-1.705846e+02
2.300000e-07	-5.319359e-06	-2.595285e-09	-3.770484e+01	-1.708891e+02
2.400000e-07	-5.311066e-06	-2.610193e-09	-3.764606e+01	-1.711995e+02
2.500000e-07	-5.302384e-06	-2.736166e-09	-3.758452e+01	-1.715126e+02
2.600000e-07	-5.292804e-06	-2.673234e-09	-3.751661e+01	-1.718250e+02
2.700000e-07	-5.282558e-06	-2.649385e-09	-3.744399e+01	-1.721333e+02
2.800000e-07	-5.271828e-06	-2.742265e-09	-3.736793e+01	-1.724340e+02
2.900000e-07	-5.260598e-06	-2.753104e-09	-3.728833e+01	-1.727238e+02
3.000000e-07	-5.248947e-06	-2.622012e-09	-3.720574e+01	-1.729998e+02
3.100000e-07	-5.236896e-06	-2.632769e-09	-3.712032e+01	-1.732588e+02
3.200000e-07	-5.224448e-06	-2.787762e-09	-3.703209e+01	-1.734981e+02
3.300000e-07	-5.211617e-06	-2.723161e-09	-3.694114e+01	-1.737154e+02
3.400000e-07	-5.198461e-06	-2.640911e-09	-3.684789e+01	-1.739085e+02
3.500000e-07	-5.184894e-06	-2.671930e-09	-3.675173e+01	-1.740757e+02
3.600000e-07	-5.170909e-06	-2.733200e-09	-3.665259e+01	-1.742156e+02
3.700000e-07	-5.156665e-06	-2.653845e-09	-3.655163e+01	-1.743271e+02
3.800000e-07	-5.142167e-06	-2.678680e-09	-3.644886e+01	-1.744097e+02
3.900000e-07	-5.126866e-06	-2.681766e-09	-3.634041e+01	-1.744630e+02
4.000000e-07	-5.110672e-06	-2.663558e-09	-3.622562e+01	-1.744873e+02
4.100000e-07	-5.094121e-06	-2.668996e-09	-3.610830e+01	-1.744831e+02
4.200000e-07	-5.077353e-06	-2.735993e-09	-3.598945e+01	-1.744511e+02
4.300000e-07	-5.060281e-06	-2.641488e-09	-3.586844e+01	-1.743926e+02
4.400000e-07	-5.043016e-06	-2.616133e-09	-3.574606e+01	-1.743090e+02
4.500000e-07	-5.025467e-06	-2.662085e-09	-3.562167e+01	-1.742021e+02
4.600000e-07	-5.007457e-06	-2.699554e-09	-3.549401e+01	-1.740736e+02
4.700000e-07	-4.988964e-06	-2.618338e-09	-3.536293e+01	-1.739257e+02
4.800000e-07	-4.970193e-06	-2.640679e-09	-3.522988e+01	-1.737606e+02
4.900000e-07	-4.951056e-06	-2.660182e-09	-3.509422e+01	-1.735805e+02
5.000000e-07	-4.931563e-06	-2.673520e-09	-3.495606e+01	-1.733877e+02
5.100000e-07	-4.911816e-06	-2.642997e-09	-3.481608e+01	-1.731844e+02
5.200000e-07	-4.891851e-06	-2.631819e-09	-3.467457e+01	-1.729728e+02
5.300000e-07	-4.871707e-06	-2.608114e-09	-3.453178e+01	-1.727551e+02
5.400000e-07	-4.851348e-06	-2.649224e-09	-3.438747e+01	-1.725332e+02
5.500000e-07	-4.830651e-06	-2.653038e-09	-3.424076e+01	-1.723090e+02
5.600000e-07	-4.809521e-06	-2.618071e-09	-3.409099e+01	-1.720840e+02
5.700000e-07	-4.787926e-06	-2.606465e-09	-3.393792e+01	-1.718597e+02
5.800000e-07	-4.766031e-06	-2.638529e-09	-3.378273e+01	-1.716373e+02
5.900000e-07	-4.743890e-06	-2.631654e-09	-3.362579e+01	-1.714178e+02
6.000000e-07	-4.721390e-06	-2.603336e-09	-3.346630e+01	-1.712018e+02
6.100000e-07	-4.698427e-06	-2.593892e-09	-3.330353e+01	-1.709900e+02
6.200000e-07	-4.675148e-06	-2.598820e-09	-3.313852e+01	-1.707826e+02
6.300000e-07	-4.651672e-06	-2.622247e-09	-3.297212e+01	-1.705797e+02
6.400000e-07	-4.628007e-06	-2.613561e-09	-3.280438e+01	-1.703811e+02
6.500000e-07	-4.604198e-06	-2.593923e-09	-3.263562e+01	-1.701866e+02
6.600000e-07	-4.580067e-06	-2.586260e-09	-3.246457e+01	-1.699958e+02
6.700000e-07	-4.555651e-06	-2.616195e-09	-3.229150e+01	-1.698079e+02
6.800000e-07	-4.530924e-06	-2.596796e-09	-3.211623e+01	-1.696224e+02
6.900000e-07	-4.505586e-06	-2.576164e-09	-3.193663e+01	-1.694385e+02
7.000000e-07	-4.479617e-06	-2.561021e-09	-3.175256e+01	-1.692553e+02
7.100000e-07	-4.453144e-06	-2.584513e-09	-3.156491e+01	-1.690721e+02
7.200000e-07	-4.426304e-06	-2.577871e-09	-3.137467e+01	-1.688879e+02
7.300000e-07	-4.399051e-06	-2.574794e-09	-3.118149e+01	-1.687020e+02
7.400000e-07	-4.371424e-06	-2.557324e-09	-3.098566e+01	-1.685137e+02
7.500000e-07	-4.343682e-06	-2.577600e-09	-3.078902e+01	-1.683221e+02
7.600000e-07	-4.315814e-06	-2.578003e-09	-3.059148e+01	-1.681266e+02
7.700000e-07	-4.287767e-06	-2.567842e-09	-3.039268e+01	-1.679268e+02
7.800000e-07	-4.259417e-06	-2.535961e-09	-3.019173e+01	-1.677221e+02
7.900000e-07	-4.230776e-06	-2.542186e-09	-2.998871e+01	-1.675122e+02
8.000000e-07	-4.201854e-06	-2.543532e-09	-2.978371e+01	-1.672968e+02
8.100000e-07	-4.172481e-06	-2.540665e-09	-2.957551e+01	-1.670758e+02
8.200000e-07	-4.142770e-06	-2.521905e-09	-2.936490e+01	-1.668491e+02
8.300000e-07	-4.112857e-06	-2.528382e-09	-2.915288e+01	-1.666166e+02
8.400000e-07	-4.082693e-06	-2.541194e-09	-2.893907e+01	-1.663786e+02
8.500000e-07	-4.052229e-06	-2.543556e-09	-2.872313e+01	-1.661351e+02
8.600000e-07	-4.021555e-06	-2.516248e-09	-2.850571e+01	-1.658863e+02
8.700000e-07	-3.990750e-06	-2.496048e-09	-2.828736e+01	-1.656325e+02
8.800000e-07	-3.959660e-06	-2.496553e-09	-2.806698e+01	-1.653738e+02
8.900000e-07	-3.928173e-06	-2.498414e-09	-2.784379e+01	-1.651106e+02
9.000000e-07	-3.896424e-06	-2.488246e-09	-2.761875e+01	-1.648430e+02
9.100000e-07	-3.864582e-06	-2.482044e-09	-2.739305e+01	-1.645713e+02
9.200000e-07	-3.832593e-06	-2.497825e-09	-2.716630e+01	-1.642956e+02
9.300000e-07	-3.800464e-06	-2.507712e-09	-2.693856e+01	-1.640160e+02
9.400000e-07	-3.768148e-06	-2.497927e-09	-2.670950e+01	-1.637327e+02
9.500000e-07	-3.735483e-06	-2.470130e-09	-2.647796e+01	-1.634456e+02
9.600000e-07	-3.702353e-06	-2.460877e-09	-2.624313e+01	-1.631547e+02
9.700000e-07	-3.668798e-06	-2.456124e-09	-2.600529e+01	-1.628598e+02
9.800000e-07	-3.634701e-06	-2.454059e-09	-2.576360e+01	-1.625609e+02
9.900000e-07	-3.600059e-06	-2.440549e-09	-2.551805e+01	-1.622576e+02
1.000000e-06	-3.565189e-06	-2.446246e-09	-2.527088e+01	-1.619498e+02
1.010000e-06	-3.530029e-06	-2.454355e-09	-2.502166e+01	-1.616371e+02
1.020000e-06	-3.494584e-06	-2.458795e-09	-2.477041e+01	-1.613191e+02
1.030000e-06	-3.458916e-06	-2.435629e-09	-2.451760e+01	-1.609956e+02
1.040000e-06	-3.423074e-06	-2.420620e-09	-2.426354e+01	-1.606661e+02
1.050000e-06	-3.387144e-06	-2.411062e-09	-2.400886e+01	-1.603304e+02
1.060000e-06	-3.351084e-06	-2.409568e-09	-2.375326e+01	-1.599880e+02
1.070000e-06	-3.314856e-06	-2.394474e-09	-2.349646e+01	-1.596386e+02
1.080000e-06	-3.278416e-06	-2.387819e-09	-2.323817e+01	-1.592821e+02
1.090000e-06	-3.241770e-06	-2.386892e-09	-2.297841e+01	-1.589182e+02
1.100000e-06	-3.204870e-06	-2.392605e-09	-2.271686e+01	-1.585466e+02
1.110000e-06	-3.167635e-06	-2.382216e-09	-2.245292e+01	-1.581674e+02
1.120000e-06	-3.130134e-06	-2.367716e-09	-2.218711e+01	-1.577805e+02
1.130000e-06	-3.092450e-06	-2.358373e-09	-2.192000e+01	-1.573859e+02
1.140000e-06	-3.054516e-06	-2.357314e-09	-2.165111e+01	-1.569836e+02
1.150000e-06	-3.016414e-06	-2.347964e-09	-2.138104e+01	-1.565739e+02
1.160000e-06	-2.978176e-06	-2.334532e-09	-2.111000e+01	-1.561570e+02
1.170000e-06	-2.939806e-06	-2.325176e-09	-2.083802e+01	-1.557330e+02
1.180000e-06	-2.901309e-06	-2.323353e-09	-2.056515e+01	-1.553024e+02
1.190000e-06	-2.862511e-06	-2.318785e-09	-2.029014e+01	-1.548653e+02
1.200000e-06	-2.823356e-06	-2.307204e-09	-2.001260e+01	-1.544221e+02
1.210000e-06	-2.783935e-06	-2.296988e-09	-1.973317e+01	-1.539730e+02
1.220000e-06	-2.744403e-06	-2.290373e-09	-1.945296e+01	-1.535185e+02
1.230000e-06	-2.704737e-06	-2.285811e-09	-1.917180e+01	-1.530587e+02
1.240000e-06	-2.664878e-06	-2.274356e-09	-1.888927e+01	-1.525939e+02
1.250000e-06	-2.624945e-06	-2.264866e-09	-1.860621e+01	-1.521241e+02
1.260000e-06	-2.584943e-06	-2.254627e-09	-1.832267e+01	-1.516495e+02
1.270000e-06	-2.544843e-06	-2.249780e-09	-1.803843e+01	-1.511700e+02
1.280000e-06	-2.504652e-06	-2.240666e-09	-1.775355e+01	-1.506855e+02
1.290000e-06	-2.464292e-06	-2.233218e-09	-1.746747e+01	-1.501958e+02
1.300000e-06	-2.423817e-06	-2.223566e-09	-1.718057e+01	-1.497005e+02
1.310000e-06	-2.383183e-06	-2.218476e-09	-1.689255e+01	-1.491993e+02
1.320000e-06	-2.342240e-06	-2.207138e-09	-1.660234e+01	-1.486915e+02
1.330000e-06	-2.301108e-06	-2.193933e-09	-1.631078e+01	-1.481767e+02
1.340000e-06	-2.259842e-06	-2.180470e-09	-1.601828e+01	-1.476539e+02
1.350000e-06	-2.218221e-06	-2.174496e-09	-1.572326e+01	-1.471224e+02
1.360000e-06	-2.176222e-06	-2.163407e-09	-1.542556e+01	-1.465813e+02
1.370000e-06	-2.133902e-06	-2.153427e-09	-1.512559e+01	-1.460296e+02
1.380000e-06	-2.091281e-06	-2.145210e-09	-1.482348e+01	-1.454664e+02
1.390000e-06	-2.048454e-06	-2.136313e-09	-1.451991e+01	-1.448906e+02
1.400000e-06	-2.005459e-06	-2.121867e-09	-1.421516e+01	-1.443012e+02
1.410000e-06	-1.962299e-06	-2.109984e-09	-1.390923e+01	-1.436971e+02
1.420000e-06	-1.918926e-06	-2.099093e-09	-1.360179e+01	-1.430774e+02
1.430000e-06	-1.875405e-06	-2.088514e-09	-1.329330e+01	-1.424410e+02
1.440000e-06	-1.831767e-06	-2.075063e-09	-1.298399e+01	-1.417871e+02
1.450000e-06	-1.788038e-06	-2.062431e-09	-1.267402e+01	-1.411147e+02
1.460000e-06	-1.744230e-06	-2.051740e-09	-1.236350e+01	-1.404232e+02
1.470000e-06	-1.700274e-06	-2.040663e-09	-1.205193e+01	-1.397118e+02
1.480000e-06	-1.656261e-06	-2.028239e-09	-1.173996e+01	-1.389800e+02
1.490000e-06	-1.612259e-06	-2.012125e-09	-1.142806e+01	-1.382272e+02
1.500000e-06	-1.568149e-06	-1.997837e-09	-1.111540e+01	-1.374531e+02
1.510000e-06	-1.523952e-06	-1.982898e-09	-1.080212e+01	-1.366573e+02
1.520000e-06	-1.479732e-06	-1.967904e-09	-1.048868e+01	-1.358397e+02
1.530000e-06	-1.435480e-06	-1.957371e-09	-1.017501e+01	-1.350000e+02
1.540000e-06	-1.391122e-06	-1.951239e-09	-9.860596e+00	-1.341383e+02
1.550000e-06	-1.346699e-06	-1.945847e-09	-9.545713e+00	-1.332544e+02
1.560000e-06	-1.302201e-06	-1.932630e-09	-9.230302e+00	-1.323483e+02
1.570000e-06	-1.257547e-06	-1.912942e-09	-8.913784e+00	-1.314200e+02
1.580000e-06	-1.212757e-06	-1.891314e-09	-8.596302e+00	-1.304696e+02
1.590000e-06	-1.167852e-06	-1.865544e-09	-8.278005e+00	-1.294968e+02
1.600000e-06	-1.122916e-06	-1.842754e-09	-7.959484e+00	-1.285017e+02
1.610000e-06	-1.077911e-06	-1.824826e-09	-7.640482e+00	-1.274840e+02
1.620000e-06	-1.032798e-06	-1.817529e-09	-7.320709e+00	-1.264434e+02
1.630000e-06	-9.875881e-07	-1.815251e-09	-7.000252e+00	-1.253794e+02
1.640000e-06	-9.422354e-07	-1.807756e-09	-6.678782e+00	-1.242915e+02
1.650000e-06	-8.968350e-07	-1.790852e-09	-6.356973e+00	-1.231790e+02
1.660000e-06	-8.514611e-07	-1.767598e-09	-6.035353e+00	-1.220410e+02
1.670000e-06	-8.060942e-07	-1.737538e-09	-5.713781e+00	-1.208764e+02
1.680000e-06	-7.606950e-07	-1.705219e-09	-5.391981e+00	-1.196840e+02
1.690000e-06	-7.151785e-07	-1.675709e-09	-5.069350e+00	-1.184623e+02
1.700000e-06	-6.696556e-07	-1.659371e-09	-4.746673e+00	-1.172098e+02
1.710000e-06	-6.240980e-07	-1.655805e-09	-4.423751e+00	-1.159247e+02
1.720000e-06	-5.783612e-07	-1.652167e-09	-4.099557e+00	-1.146051e+02
1.730000e-06	-5.326255e-07	-1.636872e-09	-3.775372e+00	-1.132490e+02
1.740000e-06	-4.869523e-07	-1.614269e-09	-3.451630e+00	-1.118542e+02
1.750000e-06	-4.411632e-07	-1.584713e-09	-3.127067e+00	-1.104185e+02
1.760000e-06	-3.953420e-07	-1.550547e-09	-2.802275e+00	-1.089396e+02
1.770000e-06	-3.494935e-07	-1.514285e-09	-2.477290e+00	-1.074152e+02
1.780000e-06	-3.035766e-07	-1.489346e-09	-2.151821e+00	-1.058430e+02
1.790000e-06	-2.576519e-07	-1.477452e-09	-1.826296e+00	-1.042206e+02
1.800000e-06	-2.117756e-07	-1.467455e-09	-1.501115e+00	-1.025458e+02
1.810000e-06	-1.659112e-07	-1.447423e-09	-1.176017e+00	-1.008164e+02
1.820000e-06	-1.198970e-07	-1.418907e-09	-8.498573e-01	-9.903061e+01
1.830000e-06	-7.386642e-08	-1.387299e-09	-5.235822e-01	-9.718641e+01
1.840000e-06	-2.796552e-08	-1.352379e-09	-1.982260e-01	-9.528218e+01
1.850000e-06	1.795675e-08	-1.314929e-09	1.272816e-01	-9.331648e+01
1.860000e-06	6.390083e-08	-1.277919e-09	4.529438e-01	-9.128809e+01
1.870000e-06	1.097273e-07	-1.250346e-09	7.777726e-01	-8.919605e+01
1.880000e-06	1.555438e-07	-1.229952e-09	1.102530e+00	-8.703966e+01
1.890000e-06	2.014236e-07	-1.205574e-09	1.427737e+00	-8.481850e+01
1.900000e-06	2.473731e-07	-1.171482e-09	1.753437e+00	-8.253243e+01
1.910000e-06	2.932887e-07	-1.132597e-09	2.078898e+00	-8.018158e+01
1.920000e-06	3.391262e-07	-1.089857e-09	2.403805e+00	-7.776636e+01
1.930000e-06	3.849466e-07	-1.046882e-09	2.728590e+00	-7.528746e+01
1.940000e-06	4.307605e-07	-1.004206e-09	3.053330e+00	-7.274581e+01
1.950000e-06	4.765723e-07	-9.657011e-10	3.378054e+00	-7.014259e+01
1.960000e-06	5.223234e-07	-9.331666e-10	3.702348e+00	-6.747919e+01
1.970000e-06	5.680152e-07	-9.018999e-10	4.026222e+00	-6.475721e+01
1.980000e-06	6.136856e-07	-8.659024e-10	4.349945e+00	-6.197843e+01
1.990000e-06	6.593772e-07	-8.245054e-10	4.673818e+00	-5.914478e+01
2.000000e-06	7.050690e-07	-7.797963e-10	4.997692e+00	-5.625830e+01
2.010000e-06	7.507320e-07	-7.357937e-10	5.321361e+00	-5.332115e+01
2.020000e-06	7.962404e-07	-6.903243e-10	5.643935e+00	-5.033556e+01
2.030000e-06	8.416916e-07	-6.442822e-10	5.966104e+00	-4.730381e+01
2.040000e-06	8.871314e-07	-5.983116e-10	6.288192e+00	-4.422822e+01
2.050000e-06	9.324436e-07	-5.528247e-10	6.609375e+00	-4.111112e+01
2.060000e-06	9.776531e-07	-5.064408e-10	6.929830e+00	-3.795482e+01
2.070000e-06	1.022776e-06	-4.610750e-10	7.249674e+00	-3.476164e+01
2.080000e-06	1.067900e-06	-4.173421e-10	7.569518e+00	-3.153385e+01
2.090000e-06	1.112953e-06	-3.738854e-10	7.888867e+00	-2.827371e+01
2.100000e-06	1.157878e-06	-3.297345e-10	8.207307e+00	-2.498341e+01
2.110000e-06	1.202651e-06	-2.816648e-10	8.524667e+00	-2.166513e+01
2.120000e-06	1.247213e-06	-2.295412e-10	8.840536e+00	-1.832102e+01
2.130000e-06	1.291669e-06	-1.750146e-10	9.155649e+00	-1.495322e+01
2.140000e-06	1.336113e-06	-1.183308e-10	9.470679e+00	-1.156381e+01
2.150000e-06	1.380488e-06	-6.261787e-11	9.785218e+00	-8.154937e+00
2.160000e-06	1.424784e-06	-1.323819e-11	1.009919e+01	-4.728715e+00
2.170000e-06	1.469011e-06	2.978666e-11	1.041269e+01	-1.287315e+00
2.180000e-06	1.513150e-06	7.380745e-11	1.072556e+01	2.167048e+00
2.190000e-06	1.557224e-06	1.254842e-10	1.103797e+01	5.632093e+00
2.200000e-06	1.601257e-06	1.802058e-10	1.135008e+01	9.105452e+00
2.210000e-06	1.645219e-06	2.341128e-10	1.166169e+01	1.258466e+01
2.220000e-06	1.689136e-06	2.888809e-10	1.197298e+01	1.606715e+01
2.230000e-06	1.733044e-06	3.454716e-10	1.228422e+01	1.955022e+01
2.240000e-06	1.776929e-06	3.997534e-10	1.259528e+01	2.303105e+01
2.250000e-06	1.820750e-06	4.488505e-10	1.290589e+01	2.650668e+01
2.260000e-06	1.864445e-06	4.933947e-10	1.321561e+01	2.997402e+01
2.270000e-06	1.908016e-06	5.399339e-10	1.352446e+01	3.342985e+01
2.280000e-06	1.951497e-06	5.906370e-10	1.383266e+01	3.687084e+01
2.290000e-06	1.994789e-06	6.437166e-10	1.413953e+01	4.029355e+01
2.300000e-06	2.037841e-06	6.973720e-10	1.444469e+01	4.369443e+01
2.310000e-06	2.080721e-06	7.513446e-10	1.474863e+01	4.706989e+01
2.320000e-06	2.123343e-06	8.030944e-10	1.505074e+01	5.041628e+01
2.330000e-06	2.165733e-06	8.507498e-10	1.535121e+01	5.372993e+01
2.340000e-06	2.207858e-06	8.932954e-10	1.564981e+01	5.700721e+01
2.350000e-06	2.249585e-06	9.364016e-10	1.594558e+01	6.024449e+01
2.360000e-06	2.291006e-06	9.847732e-10	1.623918e+01	6.343828e+01
2.370000e-06	2.332156e-06	1.032737e-09	1.653086e+01	6.658515e+01
2.380000e-06	2.372961e-06	1.075761e-09	1.682010e+01	6.968186e+01
2.390000e-06	2.413533e-06	1.118594e-09	1.710768e+01	7.272534e+01
2.400000e-06	2.453961e-06	1.161451e-09	1.739424e+01	7.571275e+01
2.410000e-06	2.494245e-06	1.200278e-09	1.767978e+01	7.864149e+01
2.420000e-06	2.534414e-06	1.236326e-09	1.796451e+01	8.150922e+01
2.430000e-06	2.574498e-06	1.275831e-09	1.824863e+01	8.431394e+01
2.440000e-06	2.614514e-06	1.321727e-09	1.853228e+01	8.705393e+01
2.450000e-06	2.654436e-06	1.365808e-09	1.881525e+01	8.972783e+01
2.460000e-06	2.694221e-06	1.402939e-09	1.909726e+01	9.233460e+01
2.470000e-06	2.733863e-06	1.438283e-09	1.937825e+01	9.487356e+01
2.480000e-06	2.773384e-06	1.474296e-09	1.965838e+01	9.734438e+01
2.490000e-06	2.812638e-06	1.505633e-09	1.993662e+01	9.974704e+01
2.500000e-06	2.851641e-06	1.532888e-09	2.021309e+01	1.020819e+02
2.510000e-06	2.890494e-06	1.564417e-09	2.048849e+01	1.043495e+02
2.520000e-06	2.929108e-06	1.603453e-09	2.076219e+01	1.065509e+02
2.530000e-06	2.967426e-06	1.641563e-09	2.103380e+01	1.086871e+02
2.540000e-06	3.005539e-06	1.670724e-09	2.130396e+01	1.107596e+02
2.550000e-06	3.043516e-06	1.694919e-09	2.157314e+01	1.127700e+02
2.560000e-06	3.081426e-06	1.723200e-09	2.184186e+01	1.147199e+02
2.570000e-06	3.119198e-06	1.752479e-09	2.210959e+01	1.166113e+02
2.580000e-06	3.156663e-06	1.775615e-09	2.237516e+01	1.184461e+02
2.590000e-06	3.193826e-06	1.796121e-09	2.263857e+01	1.202262e+02
2.600000e-06	3.230730e-06	1.822016e-09	2.290016e+01	1.219536e+02
2.610000e-06	3.267377e-06	1.851865e-09	2.315992e+01	1.236303e+02
2.620000e-06	3.303785e-06	1.880057e-09	2.341799e+01	1.252581e+02
2.630000e-06	3.339989e-06	1.904747e-09	2.367461e+01	1.268388e+02
2.640000e-06	3.376048e-06	1.929983e-09	2.393021e+01	1.283741e+02
2.650000e-06	3.412040e-06	1.954976e-09	2.418533e+01	1.298654e+02
2.660000e-06	3.447931e-06	1.974101e-09	2.443973e+01	1.313142e+02
2.670000e-06	3.483635e-06	1.988467e-09	2.469281e+01	1.327215e+02
2.680000e-06	3.519131e-06	2.005130e-09	2.494441e+01	1.340885e+02
2.690000e-06	3.554440e-06	2.025567e-09	2.519469e+01	1.354158e+02
2.700000e-06	3.589395e-06	2.044822e-09	2.544246e+01	1.367043e+02
2.710000e-06	3.623902e-06	2.062638e-09	2.568705e+01	1.379543e+02
2.720000e-06	3.657949e-06	2.082956e-09	2.592838e+01	1.391663e+02
2.730000e-06	3.691551e-06	2.104420e-09	2.616657e+01	1.403404e+02
2.740000e-06	3.724791e-06	2.121792e-09	2.640218e+01	1.414768e+02
2.750000e-06	3.757577e-06	2.135600e-09	2.663457e+01	1.425754e+02
2.760000e-06	3.789960e-06	2.150978e-09	2.686411e+01	1.436364e+02
2.770000e-06	3.822122e-06	2.169947e-09	2.709208e+01	1.446596e+02
2.780000e-06	3.854132e-06	2.186211e-09	2.731898e+01	1.456451e+02
2.790000e-06	3.886022e-06	2.197483e-09	2.754502e+01	1.465928e+02
2.800000e-06	3.917802e-06	2.210208e-09	2.777029e+01	1.475028e+02
2.810000e-06	3.949355e-06	2.226014e-09	2.799394e+01	1.483752e+02
2.820000e-06	3.980589e-06	2.237732e-09	2.821533e+01	1.492105e+02
2.830000e-06	4.011485e-06	2.245590e-09	2.843433e+01	1.500089e+02
2.840000e-06	4.042042e-06	2.255210e-09	2.865092e+01	1.507711e+02
2.850000e-06	4.072304e-06	2.268873e-09	2.886543e+01	1.514977e+02
2.860000e-06	4.102331e-06	2.284017e-09	2.907827e+01	1.521898e+02
2.870000e-06	4.132179e-06	2.295165e-09	2.928983e+01	1.528483e+02
2.880000e-06	4.161798e-06	2.303106e-09	2.949978e+01	1.534746e+02
2.890000e-06	4.191163e-06	2.311476e-09	2.970793e+01	1.540700e+02
2.900000e-06	4.220205e-06	2.318929e-09	2.991379e+01	1.546361e+02
