# Temperatura_=_-2.4
# Concentracion g/m^3_=_4090.0
# C_Vs_to_Am_M_A/Vsm_=_65563218390.804596
# pendiente_HvsI_1/m_=_3716.3
# ordenada_HvsI_A/m_=_1297.0
# frecuencia_Hz_=_135071.27673165035

Tiempo_(s)	Campo_(V.s)	Magnetizacion_(V.s)	Campo_(kA/m)	Magnetizacion_(A/m)
0.000000e+00	-5.394524e-06	-2.471238e-09	-3.839904e+01	-1.590707e+02
1.000000e-08	-5.394642e-06	-2.468772e-09	-3.839988e+01	-1.590707e+02
2.000000e-08	-5.394543e-06	-2.471884e-09	-3.839917e+01	-1.590755e+02
3.000000e-08	-5.394106e-06	-2.479050e-09	-3.839606e+01	-1.590864e+02
4.000000e-08	-5.393208e-06	-2.482787e-09	-3.838967e+01	-1.591044e+02
5.000000e-08	-5.391758e-06	-2.482433e-09	-3.837935e+01	-1.591308e+02
6.000000e-08	-5.389621e-06	-2.488699e-09	-3.836414e+01	-1.591664e+02
7.000000e-08	-5.386895e-06	-2.504976e-09	-3.834474e+01	-1.592121e+02
8.000000e-08	-5.383663e-06	-2.475989e-09	-3.832173e+01	-1.592688e+02
9.000000e-08	-5.379913e-06	-2.407276e-09	-3.829504e+01	-1.593370e+02
1.000000e-07	-5.375798e-06	-2.430459e-09	-3.826575e+01	-1.594172e+02
1.100000e-07	-5.371453e-06	-2.528126e-09	-3.823482e+01	-1.595096e+02
1.200000e-07	-5.366944e-06	-2.529193e-09	-3.820272e+01	-1.596142e+02
1.300000e-07	-5.362053e-06	-2.404923e-09	-3.816791e+01	-1.597310e+02
1.400000e-07	-5.356734e-06	-2.409833e-09	-3.813004e+01	-1.598596e+02
1.500000e-07	-5.351157e-06	-2.539630e-09	-3.809035e+01	-1.599996e+02
1.600000e-07	-5.345227e-06	-2.520555e-09	-3.804814e+01	-1.601503e+02
1.700000e-07	-5.338905e-06	-2.386092e-09	-3.800314e+01	-1.603107e+02
1.800000e-07	-5.332162e-06	-2.373547e-09	-3.795513e+01	-1.604800e+02
1.900000e-07	-5.325053e-06	-2.527870e-09	-3.790454e+01	-1.606569e+02
2.000000e-07	-5.317705e-06	-2.508304e-09	-3.785223e+01	-1.608401e+02
2.100000e-07	-5.310106e-06	-2.435869e-09	-3.779814e+01	-1.610282e+02
2.200000e-07	-5.302212e-06	-2.462743e-09	-3.774195e+01	-1.612198e+02
2.300000e-07	-5.294036e-06	-2.554493e-09	-3.768375e+01	-1.614132e+02
2.400000e-07	-5.285434e-06	-2.481850e-09	-3.762252e+01	-1.616070e+02
2.500000e-07	-5.276184e-06	-2.436301e-09	-3.755668e+01	-1.617993e+02
2.600000e-07	-5.266350e-06	-2.514716e-09	-3.748668e+01	-1.619887e+02
2.700000e-07	-5.256005e-06	-2.550024e-09	-3.741304e+01	-1.621735e+02
2.800000e-07	-5.245054e-06	-2.462091e-09	-3.733509e+01	-1.623521e+02
2.900000e-07	-5.233654e-06	-2.476080e-09	-3.725394e+01	-1.625231e+02
3.000000e-07	-5.221880e-06	-2.569865e-09	-3.717013e+01	-1.626850e+02
3.100000e-07	-5.209647e-06	-2.521665e-09	-3.708306e+01	-1.628366e+02
3.200000e-07	-5.197063e-06	-2.445793e-09	-3.699348e+01	-1.629767e+02
3.300000e-07	-5.184148e-06	-2.483474e-09	-3.690155e+01	-1.631041e+02
3.400000e-07	-5.170851e-06	-2.540688e-09	-3.680690e+01	-1.632181e+02
3.500000e-07	-5.157153e-06	-2.488251e-09	-3.670940e+01	-1.633177e+02
3.600000e-07	-5.143087e-06	-2.491855e-09	-3.660927e+01	-1.634024e+02
3.700000e-07	-5.128650e-06	-2.519426e-09	-3.650651e+01	-1.634717e+02
3.800000e-07	-5.113650e-06	-2.503258e-09	-3.639974e+01	-1.635254e+02
3.900000e-07	-5.098114e-06	-2.475717e-09	-3.628915e+01	-1.635631e+02
4.000000e-07	-5.082198e-06	-2.504363e-09	-3.617586e+01	-1.635850e+02
4.100000e-07	-5.065721e-06	-2.474644e-09	-3.605857e+01	-1.635911e+02
4.200000e-07	-5.048734e-06	-2.453689e-09	-3.593765e+01	-1.635817e+02
4.300000e-07	-5.031498e-06	-2.488220e-09	-3.581497e+01	-1.635572e+02
4.400000e-07	-5.014010e-06	-2.519082e-09	-3.569048e+01	-1.635180e+02
4.500000e-07	-4.996228e-06	-2.465554e-09	-3.556391e+01	-1.634648e+02
4.600000e-07	-4.978127e-06	-2.458500e-09	-3.543506e+01	-1.633982e+02
4.700000e-07	-4.959643e-06	-2.479669e-09	-3.530349e+01	-1.633190e+02
4.800000e-07	-4.940753e-06	-2.482114e-09	-3.516903e+01	-1.632279e+02
4.900000e-07	-4.921494e-06	-2.450068e-09	-3.503194e+01	-1.631259e+02
5.000000e-07	-4.901907e-06	-2.455260e-09	-3.489252e+01	-1.630137e+02
5.100000e-07	-4.882101e-06	-2.470450e-09	-3.475154e+01	-1.628923e+02
5.200000e-07	-4.862134e-06	-2.494856e-09	-3.460941e+01	-1.627626e+02
5.300000e-07	-4.841907e-06	-2.491751e-09	-3.446542e+01	-1.626255e+02
5.400000e-07	-4.821312e-06	-2.473027e-09	-3.431883e+01	-1.624819e+02
5.500000e-07	-4.800342e-06	-2.460639e-09	-3.416956e+01	-1.623326e+02
5.600000e-07	-4.779055e-06	-2.470134e-09	-3.401804e+01	-1.621784e+02
5.700000e-07	-4.757459e-06	-2.460402e-09	-3.386431e+01	-1.620202e+02
5.800000e-07	-4.735564e-06	-2.441414e-09	-3.370846e+01	-1.618586e+02
5.900000e-07	-4.713386e-06	-2.443337e-09	-3.355060e+01	-1.616943e+02
6.000000e-07	-4.690906e-06	-2.464381e-09	-3.339058e+01	-1.615279e+02
6.100000e-07	-4.668034e-06	-2.477017e-09	-3.322777e+01	-1.613601e+02
6.200000e-07	-4.644830e-06	-2.459832e-09	-3.306261e+01	-1.611911e+02
6.300000e-07	-4.621371e-06	-2.435597e-09	-3.289562e+01	-1.610216e+02
6.400000e-07	-4.597671e-06	-2.429199e-09	-3.272692e+01	-1.608519e+02
6.500000e-07	-4.573784e-06	-2.440741e-09	-3.255689e+01	-1.606821e+02
6.600000e-07	-4.549684e-06	-2.427649e-09	-3.238534e+01	-1.605126e+02
6.700000e-07	-4.525290e-06	-2.416919e-09	-3.221170e+01	-1.603435e+02
6.800000e-07	-4.500416e-06	-2.426787e-09	-3.203465e+01	-1.601749e+02
6.900000e-07	-4.475020e-06	-2.449289e-09	-3.185387e+01	-1.600069e+02
7.000000e-07	-4.449070e-06	-2.439320e-09	-3.166915e+01	-1.598394e+02
7.100000e-07	-4.422561e-06	-2.421332e-09	-3.148046e+01	-1.596723e+02
7.200000e-07	-4.395613e-06	-2.405478e-09	-3.128864e+01	-1.595056e+02
7.300000e-07	-4.368241e-06	-2.413569e-09	-3.109380e+01	-1.593390e+02
7.400000e-07	-4.340560e-06	-2.414681e-09	-3.089677e+01	-1.591723e+02
7.500000e-07	-4.312748e-06	-2.409870e-09	-3.069879e+01	-1.590053e+02
7.600000e-07	-4.284839e-06	-2.400812e-09	-3.050013e+01	-1.588378e+02
7.700000e-07	-4.256762e-06	-2.411802e-09	-3.030028e+01	-1.586693e+02
7.800000e-07	-4.228436e-06	-2.413800e-09	-3.009865e+01	-1.584996e+02
7.900000e-07	-4.199708e-06	-2.403602e-09	-2.989416e+01	-1.583283e+02
8.000000e-07	-4.170589e-06	-2.386290e-09	-2.968688e+01	-1.581551e+02
8.100000e-07	-4.141206e-06	-2.384866e-09	-2.947773e+01	-1.579796e+02
8.200000e-07	-4.111608e-06	-2.388473e-09	-2.926705e+01	-1.578013e+02
8.300000e-07	-4.081821e-06	-2.388355e-09	-2.905502e+01	-1.576201e+02
8.400000e-07	-4.051742e-06	-2.378053e-09	-2.884091e+01	-1.574354e+02
8.500000e-07	-4.021339e-06	-2.373988e-09	-2.862450e+01	-1.572470e+02
8.600000e-07	-3.990557e-06	-2.374961e-09	-2.840539e+01	-1.570545e+02
8.700000e-07	-3.959501e-06	-2.373165e-09	-2.818433e+01	-1.568576e+02
8.800000e-07	-3.928315e-06	-2.363548e-09	-2.796234e+01	-1.566561e+02
8.900000e-07	-3.896922e-06	-2.356438e-09	-2.773888e+01	-1.564498e+02
9.000000e-07	-3.865344e-06	-2.360107e-09	-2.751411e+01	-1.562385e+02
9.100000e-07	-3.833604e-06	-2.363418e-09	-2.728818e+01	-1.560221e+02
9.200000e-07	-3.801714e-06	-2.358917e-09	-2.706118e+01	-1.558004e+02
9.300000e-07	-3.769591e-06	-2.351099e-09	-2.683252e+01	-1.555734e+02
9.400000e-07	-3.737093e-06	-2.352667e-09	-2.660119e+01	-1.553412e+02
9.500000e-07	-3.704244e-06	-2.352662e-09	-2.636737e+01	-1.551037e+02
9.600000e-07	-3.671144e-06	-2.345130e-09	-2.613176e+01	-1.548612e+02
9.700000e-07	-3.637639e-06	-2.332364e-09	-2.589327e+01	-1.546138e+02
9.800000e-07	-3.603592e-06	-2.331118e-09	-2.565092e+01	-1.543617e+02
9.900000e-07	-3.569056e-06	-2.332397e-09	-2.540508e+01	-1.541052e+02
1.000000e-06	-3.534126e-06	-2.332664e-09	-2.515645e+01	-1.538445e+02
1.010000e-06	-3.498918e-06	-2.327213e-09	-2.490583e+01	-1.535801e+02
1.020000e-06	-3.463480e-06	-2.325835e-09	-2.465358e+01	-1.533122e+02
1.030000e-06	-3.427868e-06	-2.319994e-09	-2.440009e+01	-1.530413e+02
1.040000e-06	-3.392091e-06	-2.312083e-09	-2.414542e+01	-1.527677e+02
1.050000e-06	-3.356165e-06	-2.297308e-09	-2.388969e+01	-1.524919e+02
1.060000e-06	-3.320100e-06	-2.289286e-09	-2.363298e+01	-1.522143e+02
1.070000e-06	-3.283903e-06	-2.286583e-09	-2.337532e+01	-1.519353e+02
1.080000e-06	-3.247473e-06	-2.285197e-09	-2.311601e+01	-1.516551e+02
1.090000e-06	-3.210705e-06	-2.277263e-09	-2.285428e+01	-1.513742e+02
1.100000e-06	-3.173722e-06	-2.272764e-09	-2.259104e+01	-1.510929e+02
1.110000e-06	-3.136478e-06	-2.269283e-09	-2.232592e+01	-1.508113e+02
1.120000e-06	-3.098948e-06	-2.265646e-09	-2.205878e+01	-1.505297e+02
1.130000e-06	-3.061210e-06	-2.257314e-09	-2.179016e+01	-1.502482e+02
1.140000e-06	-3.023303e-06	-2.248710e-09	-2.152033e+01	-1.499669e+02
1.150000e-06	-2.985310e-06	-2.243544e-09	-2.124989e+01	-1.496856e+02
1.160000e-06	-2.947215e-06	-2.240674e-09	-2.097873e+01	-1.494044e+02
1.170000e-06	-2.908903e-06	-2.232813e-09	-2.070602e+01	-1.491231e+02
1.180000e-06	-2.870353e-06	-2.222398e-09	-2.043161e+01	-1.488414e+02
1.190000e-06	-2.831627e-06	-2.219826e-09	-2.015595e+01	-1.485589e+02
1.200000e-06	-2.792697e-06	-2.221758e-09	-1.987884e+01	-1.482753e+02
1.210000e-06	-2.753476e-06	-2.221733e-09	-1.959966e+01	-1.479901e+02
1.220000e-06	-2.713981e-06	-2.214139e-09	-1.931853e+01	-1.477027e+02
1.230000e-06	-2.674394e-06	-2.204206e-09	-1.903674e+01	-1.474126e+02
1.240000e-06	-2.634684e-06	-2.191248e-09	-1.875408e+01	-1.471192e+02
1.250000e-06	-2.594796e-06	-2.180242e-09	-1.847015e+01	-1.468216e+02
1.260000e-06	-2.554854e-06	-2.171218e-09	-1.818584e+01	-1.465193e+02
1.270000e-06	-2.514862e-06	-2.166258e-09	-1.790117e+01	-1.462114e+02
1.280000e-06	-2.474774e-06	-2.163141e-09	-1.761582e+01	-1.458973e+02
1.290000e-06	-2.434556e-06	-2.165927e-09	-1.732954e+01	-1.455762e+02
1.300000e-06	-2.394183e-06	-2.164424e-09	-1.704216e+01	-1.452474e+02
1.310000e-06	-2.353655e-06	-2.155294e-09	-1.675367e+01	-1.449101e+02
1.320000e-06	-2.312966e-06	-2.138970e-09	-1.646404e+01	-1.445638e+02
1.330000e-06	-2.272037e-06	-2.123577e-09	-1.617270e+01	-1.442078e+02
1.340000e-06	-2.230794e-06	-2.114645e-09	-1.587913e+01	-1.438416e+02
1.350000e-06	-2.189274e-06	-2.110677e-09	-1.558359e+01	-1.434645e+02
1.360000e-06	-2.147433e-06	-2.108881e-09	-1.528576e+01	-1.430762e+02
1.370000e-06	-2.105229e-06	-2.112696e-09	-1.498534e+01	-1.426762e+02
1.380000e-06	-2.062707e-06	-2.113927e-09	-1.468266e+01	-1.422643e+02
1.390000e-06	-2.019924e-06	-2.104150e-09	-1.437813e+01	-1.418401e+02
1.400000e-06	-1.976920e-06	-2.085698e-09	-1.407202e+01	-1.414035e+02
1.410000e-06	-1.933792e-06	-2.067360e-09	-1.376502e+01	-1.409542e+02
1.420000e-06	-1.890628e-06	-2.054755e-09	-1.345778e+01	-1.404923e+02
1.430000e-06	-1.847339e-06	-2.048204e-09	-1.314964e+01	-1.400175e+02
1.440000e-06	-1.803800e-06	-2.047080e-09	-1.283972e+01	-1.395300e+02
1.450000e-06	-1.760127e-06	-2.049364e-09	-1.252885e+01	-1.390296e+02
1.460000e-06	-1.716381e-06	-2.050021e-09	-1.221746e+01	-1.385164e+02
1.470000e-06	-1.672576e-06	-2.041222e-09	-1.190565e+01	-1.379903e+02
1.480000e-06	-1.628735e-06	-2.023046e-09	-1.159358e+01	-1.374515e+02
1.490000e-06	-1.584799e-06	-2.002448e-09	-1.128084e+01	-1.368998e+02
1.500000e-06	-1.540815e-06	-1.987644e-09	-1.096776e+01	-1.363351e+02
1.510000e-06	-1.496787e-06	-1.978089e-09	-1.065436e+01	-1.357575e+02
1.520000e-06	-1.452727e-06	-1.971982e-09	-1.034073e+01	-1.351666e+02
1.530000e-06	-1.408558e-06	-1.969150e-09	-1.002633e+01	-1.345622e+02
1.540000e-06	-1.364319e-06	-1.966189e-09	-9.711427e+00	-1.339441e+02
1.550000e-06	-1.320067e-06	-1.956453e-09	-9.396434e+00	-1.333118e+02
1.560000e-06	-1.275669e-06	-1.939813e-09	-9.080407e+00	-1.326650e+02
1.570000e-06	-1.231146e-06	-1.923177e-09	-8.763485e+00	-1.320029e+02
1.580000e-06	-1.186532e-06	-1.912313e-09	-8.445917e+00	-1.313249e+02
1.590000e-06	-1.141822e-06	-1.905387e-09	-8.127661e+00	-1.306304e+02
1.600000e-06	-1.097009e-06	-1.898945e-09	-7.808679e+00	-1.299184e+02
1.610000e-06	-1.052103e-06	-1.891195e-09	-7.489030e+00	-1.291881e+02
1.620000e-06	-1.007133e-06	-1.883246e-09	-7.168928e+00	-1.284385e+02
1.630000e-06	-9.620617e-07	-1.873254e-09	-6.848101e+00	-1.276684e+02
1.640000e-06	-9.168668e-07	-1.859120e-09	-6.526397e+00	-1.268768e+02
1.650000e-06	-8.716136e-07	-1.841971e-09	-6.204277e+00	-1.260625e+02
1.660000e-06	-8.263011e-07	-1.828084e-09	-5.881736e+00	-1.252242e+02
1.670000e-06	-7.809416e-07	-1.818628e-09	-5.558860e+00	-1.243606e+02
1.680000e-06	-7.356023e-07	-1.808459e-09	-5.236129e+00	-1.234705e+02
1.690000e-06	-6.902755e-07	-1.792965e-09	-4.913486e+00	-1.225524e+02
1.700000e-06	-6.449043e-07	-1.776392e-09	-4.590527e+00	-1.216051e+02
1.710000e-06	-5.993965e-07	-1.761666e-09	-4.266595e+00	-1.206272e+02
1.720000e-06	-5.537848e-07	-1.747975e-09	-3.941924e+00	-1.196172e+02
1.730000e-06	-5.080993e-07	-1.731865e-09	-3.616728e+00	-1.185739e+02
1.740000e-06	-4.623435e-07	-1.712202e-09	-3.291031e+00	-1.174958e+02
1.750000e-06	-4.166185e-07	-1.692854e-09	-2.965554e+00	-1.163815e+02
1.760000e-06	-3.709368e-07	-1.677820e-09	-2.640385e+00	-1.152297e+02
1.770000e-06	-3.252206e-07	-1.662313e-09	-2.314970e+00	-1.140390e+02
1.780000e-06	-2.794391e-07	-1.644017e-09	-1.989090e+00	-1.128079e+02
1.790000e-06	-2.337079e-07	-1.624710e-09	-1.663568e+00	-1.115349e+02
1.800000e-06	-1.880379e-07	-1.604581e-09	-1.338482e+00	-1.102188e+02
1.810000e-06	-1.422747e-07	-1.585358e-09	-1.012733e+00	-1.088578e+02
1.820000e-06	-9.644857e-08	-1.563962e-09	-6.865356e-01	-1.074505e+02
1.830000e-06	-5.064373e-08	-1.541415e-09	-3.604897e-01	-1.059952e+02
1.840000e-06	-4.847361e-09	-1.520051e-09	-3.450425e-02	-1.044902e+02
1.850000e-06	4.094630e-08	-1.498361e-09	2.914620e-01	-1.029338e+02
1.860000e-06	8.674037e-08	-1.472660e-09	6.174311e-01	-1.013241e+02
1.870000e-06	1.325559e-07	-1.444012e-09	9.435533e-01	-9.965914e+01
1.880000e-06	1.783093e-07	-1.415289e-09	1.269232e+00	-9.793682e+01
1.890000e-06	2.239769e-07	-1.388366e-09	1.594301e+00	-9.615500e+01
1.900000e-06	2.697019e-07	-1.362699e-09	1.919779e+00	-9.431140e+01
1.910000e-06	3.154585e-07	-1.333002e-09	2.245482e+00	-9.240366e+01
1.920000e-06	3.612292e-07	-1.299485e-09	2.571284e+00	-9.042934e+01
1.930000e-06	4.069670e-07	-1.268133e-09	2.896852e+00	-8.838590e+01
1.940000e-06	4.526152e-07	-1.237862e-09	3.221784e+00	-8.627078e+01
1.950000e-06	4.982736e-07	-1.207393e-09	3.546787e+00	-8.408136e+01
1.960000e-06	5.439029e-07	-1.176076e-09	3.871584e+00	-8.181503e+01
1.970000e-06	5.894443e-07	-1.142152e-09	4.195754e+00	-7.946918e+01
1.980000e-06	6.350140e-07	-1.103825e-09	4.520126e+00	-7.704129e+01
1.990000e-06	6.805777e-07	-1.063838e-09	4.844456e+00	-7.452891e+01
2.000000e-06	7.260236e-07	-1.025913e-09	5.167946e+00	-7.192977e+01
2.010000e-06	7.714060e-07	-9.903943e-10	5.490985e+00	-6.924174e+01
2.020000e-06	8.167247e-07	-9.509642e-10	5.813570e+00	-6.646296e+01
2.030000e-06	8.619242e-07	-9.068180e-10	6.135307e+00	-6.359184e+01
2.040000e-06	9.070314e-07	-8.628175e-10	6.456387e+00	-6.062710e+01
2.050000e-06	9.520413e-07	-8.197795e-10	6.776774e+00	-5.756787e+01
2.060000e-06	9.969720e-07	-7.744632e-10	7.096598e+00	-5.441370e+01
2.070000e-06	1.041832e-06	-7.249854e-10	7.415921e+00	-5.116460e+01
2.080000e-06	1.086654e-06	-6.771250e-10	7.734965e+00	-4.782111e+01
2.090000e-06	1.131447e-06	-6.330487e-10	8.053812e+00	-4.438431e+01
2.100000e-06	1.176028e-06	-5.872180e-10	8.371148e+00	-4.085588e+01
2.110000e-06	1.220422e-06	-5.325171e-10	8.687150e+00	-3.723810e+01
2.120000e-06	1.264742e-06	-4.709458e-10	9.002625e+00	-3.353390e+01
2.130000e-06	1.309017e-06	-4.097569e-10	9.317782e+00	-2.974684e+01
2.140000e-06	1.353280e-06	-3.492985e-10	9.632853e+00	-2.588114e+01
2.150000e-06	1.397524e-06	-2.875777e-10	9.947785e+00	-2.194168e+01
2.160000e-06	1.441726e-06	-2.265982e-10	1.026242e+01	-1.793395e+01
2.170000e-06	1.485871e-06	-1.686095e-10	1.057665e+01	-1.386407e+01
2.180000e-06	1.529955e-06	-1.107100e-10	1.089045e+01	-9.738767e+00
2.190000e-06	1.573969e-06	-4.735891e-11	1.120375e+01	-5.565282e+00
2.200000e-06	1.617910e-06	1.970997e-11	1.151653e+01	-1.351373e+00
2.210000e-06	1.661759e-06	8.620041e-11	1.182865e+01	2.894759e+00
2.220000e-06	1.705544e-06	1.499631e-10	1.214032e+01	7.164534e+00
2.230000e-06	1.749256e-06	2.132333e-10	1.245147e+01	1.144906e+01
2.240000e-06	1.792879e-06	2.774997e-10	1.276199e+01	1.573920e+01
2.250000e-06	1.836389e-06	3.419497e-10	1.307170e+01	2.002567e+01
2.260000e-06	1.879757e-06	4.039542e-10	1.338039e+01	2.429911e+01
2.270000e-06	1.922987e-06	4.677109e-10	1.368811e+01	2.855016e+01
2.280000e-06	1.966102e-06	5.355812e-10	1.399501e+01	3.276958e+01
2.290000e-06	2.009052e-06	6.016156e-10	1.430073e+01	3.694830e+01
2.300000e-06	2.051724e-06	6.633048e-10	1.460448e+01	4.107753e+01
2.310000e-06	2.094105e-06	7.231763e-10	1.490616e+01	4.514882e+01
2.320000e-06	2.136145e-06	7.844330e-10	1.520540e+01	4.915417e+01
2.330000e-06	2.177893e-06	8.445957e-10	1.550257e+01	5.308606e+01
2.340000e-06	2.219520e-06	8.986537e-10	1.579888e+01	5.693757e+01
2.350000e-06	2.260912e-06	9.506297e-10	1.609351e+01	6.070238e+01
2.360000e-06	2.301881e-06	1.007416e-09	1.638514e+01	6.437487e+01
2.370000e-06	2.342520e-06	1.063385e-09	1.667441e+01	6.795012e+01
2.380000e-06	2.383065e-06	1.110729e-09	1.696302e+01	7.142398e+01
2.390000e-06	2.423483e-06	1.151285e-09	1.725072e+01	7.479307e+01
2.400000e-06	2.463677e-06	1.191855e-09	1.753682e+01	7.805476e+01
2.410000e-06	2.503752e-06	1.234884e-09	1.782208e+01	8.120724e+01
2.420000e-06	2.543729e-06	1.277122e-09	1.810665e+01	8.424945e+01
2.430000e-06	2.583604e-06	1.319720e-09	1.839049e+01	8.718108e+01
2.440000e-06	2.623390e-06	1.366183e-09	1.867369e+01	9.000254e+01
2.450000e-06	2.663109e-06	1.410897e-09	1.895641e+01	9.271492e+01
2.460000e-06	2.702662e-06	1.450131e-09	1.923796e+01	9.531993e+01
2.470000e-06	2.742065e-06	1.482750e-09	1.951843e+01	9.781986e+01
2.480000e-06	2.781393e-06	1.510182e-09	1.979838e+01	1.002175e+02
2.490000e-06	2.820421e-06	1.538228e-09	2.007618e+01	1.025162e+02
2.500000e-06	2.859176e-06	1.568315e-09	2.035205e+01	1.047194e+02
2.510000e-06	2.897737e-06	1.600217e-09	2.062653e+01	1.068312e+02
2.520000e-06	2.936060e-06	1.633258e-09	2.089932e+01	1.088557e+02
2.530000e-06	2.974221e-06	1.664049e-09	2.117095e+01	1.107973e+02
2.540000e-06	3.012196e-06	1.691069e-09	2.144127e+01	1.126602e+02
2.550000e-06	3.049977e-06	1.716948e-09	2.171020e+01	1.144490e+02
2.560000e-06	3.087645e-06	1.743314e-09	2.197832e+01	1.161680e+02
2.570000e-06	3.125080e-06	1.768004e-09	2.224479e+01	1.178215e+02
2.580000e-06	3.162201e-06	1.789989e-09	2.250903e+01	1.194136e+02
2.590000e-06	3.199089e-06	1.812101e-09	2.277160e+01	1.209481e+02
2.600000e-06	3.235770e-06	1.834666e-09	2.303270e+01	1.224287e+02
2.610000e-06	3.272201e-06	1.855483e-09	2.329202e+01	1.238586e+02
2.620000e-06	3.308339e-06	1.874263e-09	2.354926e+01	1.252410e+02
2.630000e-06	3.344344e-06	1.893713e-09	2.380555e+01	1.265785e+02
2.640000e-06	3.380322e-06	1.913575e-09	2.406164e+01	1.278734e+02
2.650000e-06	3.416210e-06	1.932128e-09	2.431710e+01	1.291277e+02
2.660000e-06	3.451929e-06	1.950209e-09	2.457135e+01	1.303432e+02
2.670000e-06	3.487485e-06	1.968465e-09	2.482445e+01	1.315212e+02
2.680000e-06	3.522771e-06	1.984605e-09	2.507562e+01	1.326626e+02
2.690000e-06	3.557677e-06	1.996000e-09	2.532409e+01	1.337683e+02
2.700000e-06	3.592265e-06	2.005962e-09	2.557029e+01	1.348389e+02
2.710000e-06	3.626433e-06	2.015774e-09	2.581350e+01	1.358745e+02
2.720000e-06	3.660120e-06	2.028603e-09	2.605329e+01	1.368755e+02
2.730000e-06	3.693336e-06	2.045384e-09	2.628973e+01	1.378418e+02
2.740000e-06	3.726156e-06	2.062280e-09	2.652335e+01	1.387733e+02
2.750000e-06	3.758651e-06	2.080298e-09	2.675465e+01	1.396699e+02
2.760000e-06	3.790883e-06	2.098520e-09	2.698408e+01	1.405315e+02
2.770000e-06	3.822945e-06	2.112182e-09	2.721230e+01	1.413579e+02
2.780000e-06	3.854818e-06	2.120253e-09	2.743918e+01	1.421492e+02
2.790000e-06	3.886515e-06	2.126433e-09	2.766481e+01	1.429054e+02
2.800000e-06	3.918092e-06	2.133866e-09	2.788957e+01	1.436267e+02
2.810000e-06	3.949506e-06	2.143518e-09	2.811318e+01	1.443134e+02
2.820000e-06	3.980515e-06	2.153658e-09	2.833391e+01	1.449659e+02
2.830000e-06	4.011140e-06	2.163850e-09	2.855190e+01	1.455850e+02
2.840000e-06	4.041544e-06	2.174050e-09	2.876832e+01	1.461714e+02
2.850000e-06	4.071602e-06	2.182910e-09	2.898228e+01	1.467262e+02
2.860000e-06	4.101406e-06	2.190412e-09	2.919443e+01	1.472505e+02
2.870000e-06	4.130987e-06	2.197330e-09	2.940499e+01	1.477457e+02
2.880000e-06	4.160336e-06	2.203013e-09	2.961390e+01	1.482133e+02
2.890000e-06	4.189416e-06	2.206845e-09	2.982090e+01	1.486549e+02
2.900000e-06	4.218157e-06	2.210363e-09	3.002548e+01	1.490721e+02
