# Temperatura_=_-2.96
# Concentracion g/m^3_=_4090.0
# C_Vs_to_Am_M_A/Vsm_=_65563218390.804596
# pendiente_HvsI_1/m_=_3716.3
# ordenada_HvsI_A/m_=_1297.0
# frecuencia_Hz_=_135078.72733196733

Tiempo_(s)	Campo_(V.s)	Magnetizacion_(V.s)	Campo_(kA/m)	Magnetizacion_(A/m)
0.000000e+00	-5.407331e-06	-2.457708e-09	-3.838963e+01	-1.558174e+02
1.000000e-08	-5.407457e-06	-2.457003e-09	-3.839052e+01	-1.558039e+02
2.000000e-08	-5.407378e-06	-2.455602e-09	-3.838996e+01	-1.557908e+02
3.000000e-08	-5.407019e-06	-2.448657e-09	-3.838741e+01	-1.557793e+02
4.000000e-08	-5.406240e-06	-2.441903e-09	-3.838188e+01	-1.557702e+02
5.000000e-08	-5.404875e-06	-2.442135e-09	-3.837218e+01	-1.557643e+02
6.000000e-08	-5.402882e-06	-2.452631e-09	-3.835804e+01	-1.557626e+02
7.000000e-08	-5.400222e-06	-2.478944e-09	-3.833915e+01	-1.557659e+02
8.000000e-08	-5.396937e-06	-2.477872e-09	-3.831584e+01	-1.557749e+02
9.000000e-08	-5.393189e-06	-2.414482e-09	-3.828923e+01	-1.557903e+02
1.000000e-07	-5.389083e-06	-2.375898e-09	-3.826008e+01	-1.558126e+02
1.100000e-07	-5.384772e-06	-2.466872e-09	-3.822946e+01	-1.558423e+02
1.200000e-07	-5.380264e-06	-2.501887e-09	-3.819746e+01	-1.558798e+02
1.300000e-07	-5.375393e-06	-2.406929e-09	-3.816288e+01	-1.559252e+02
1.400000e-07	-5.370110e-06	-2.322379e-09	-3.812537e+01	-1.559787e+02
1.500000e-07	-5.364513e-06	-2.450362e-09	-3.808564e+01	-1.560401e+02
1.600000e-07	-5.358592e-06	-2.523988e-09	-3.804360e+01	-1.561094e+02
1.700000e-07	-5.352247e-06	-2.400618e-09	-3.799855e+01	-1.561862e+02
1.800000e-07	-5.345469e-06	-2.311619e-09	-3.795044e+01	-1.562700e+02
1.900000e-07	-5.338344e-06	-2.417502e-09	-3.789985e+01	-1.563604e+02
2.000000e-07	-5.330931e-06	-2.467045e-09	-3.784722e+01	-1.564565e+02
2.100000e-07	-5.323240e-06	-2.369646e-09	-3.779262e+01	-1.565577e+02
2.200000e-07	-5.315302e-06	-2.362496e-09	-3.773626e+01	-1.566631e+02
2.300000e-07	-5.307182e-06	-2.449194e-09	-3.767861e+01	-1.567716e+02
2.400000e-07	-5.298599e-06	-2.429491e-09	-3.761768e+01	-1.568823e+02
2.500000e-07	-5.289336e-06	-2.340704e-09	-3.755192e+01	-1.569941e+02
2.600000e-07	-5.279590e-06	-2.406196e-09	-3.748272e+01	-1.571059e+02
2.700000e-07	-5.269314e-06	-2.467273e-09	-3.740977e+01	-1.572164e+02
2.800000e-07	-5.258343e-06	-2.386956e-09	-3.733188e+01	-1.573246e+02
2.900000e-07	-5.246880e-06	-2.335132e-09	-3.725049e+01	-1.574293e+02
3.000000e-07	-5.235079e-06	-2.448464e-09	-3.716672e+01	-1.575294e+02
3.100000e-07	-5.222856e-06	-2.455846e-09	-3.707994e+01	-1.576237e+02
3.200000e-07	-5.210356e-06	-2.346801e-09	-3.699119e+01	-1.577113e+02
3.300000e-07	-5.197538e-06	-2.342419e-09	-3.690019e+01	-1.577910e+02
3.400000e-07	-5.184179e-06	-2.438420e-09	-3.680534e+01	-1.578620e+02
3.500000e-07	-5.170378e-06	-2.408565e-09	-3.670736e+01	-1.579235e+02
3.600000e-07	-5.156242e-06	-2.371862e-09	-3.660700e+01	-1.579746e+02
3.700000e-07	-5.141685e-06	-2.399471e-09	-3.650366e+01	-1.580148e+02
3.800000e-07	-5.126505e-06	-2.406528e-09	-3.639589e+01	-1.580434e+02
3.900000e-07	-5.110770e-06	-2.374120e-09	-3.628418e+01	-1.580601e+02
4.000000e-07	-5.094618e-06	-2.404596e-09	-3.616950e+01	-1.580644e+02
4.100000e-07	-5.077943e-06	-2.392278e-09	-3.605112e+01	-1.580561e+02
4.200000e-07	-5.060876e-06	-2.336476e-09	-3.592995e+01	-1.580351e+02
4.300000e-07	-5.043565e-06	-2.364870e-09	-3.580705e+01	-1.580014e+02
4.400000e-07	-5.026003e-06	-2.420418e-09	-3.568237e+01	-1.579551e+02
4.500000e-07	-5.008114e-06	-2.374862e-09	-3.555536e+01	-1.578965e+02
4.600000e-07	-4.989950e-06	-2.330844e-09	-3.542640e+01	-1.578257e+02
4.700000e-07	-4.971411e-06	-2.378156e-09	-3.529479e+01	-1.577432e+02
4.800000e-07	-4.952364e-06	-2.399847e-09	-3.515956e+01	-1.576495e+02
4.900000e-07	-4.932991e-06	-2.363175e-09	-3.502202e+01	-1.575452e+02
5.000000e-07	-4.913386e-06	-2.341551e-09	-3.488284e+01	-1.574309e+02
5.100000e-07	-4.893531e-06	-2.361993e-09	-3.474188e+01	-1.573073e+02
5.200000e-07	-4.873423e-06	-2.372797e-09	-3.459912e+01	-1.571753e+02
5.300000e-07	-4.853137e-06	-2.377183e-09	-3.445510e+01	-1.570356e+02
5.400000e-07	-4.832543e-06	-2.357460e-09	-3.430889e+01	-1.568890e+02
5.500000e-07	-4.811516e-06	-2.346847e-09	-3.415960e+01	-1.567365e+02
5.600000e-07	-4.790159e-06	-2.360474e-09	-3.400798e+01	-1.565789e+02
5.700000e-07	-4.768526e-06	-2.378516e-09	-3.385440e+01	-1.564172e+02
5.800000e-07	-4.746617e-06	-2.352466e-09	-3.369885e+01	-1.562522e+02
5.900000e-07	-4.724447e-06	-2.332321e-09	-3.354145e+01	-1.560849e+02
6.000000e-07	-4.701944e-06	-2.343357e-09	-3.338169e+01	-1.559160e+02
6.100000e-07	-4.679039e-06	-2.363967e-09	-3.321908e+01	-1.557464e+02
6.200000e-07	-4.655754e-06	-2.344207e-09	-3.305377e+01	-1.555768e+02
6.300000e-07	-4.632144e-06	-2.317334e-09	-3.288615e+01	-1.554080e+02
6.400000e-07	-4.608292e-06	-2.316376e-09	-3.271680e+01	-1.552405e+02
6.500000e-07	-4.584272e-06	-2.339185e-09	-3.254628e+01	-1.550750e+02
6.600000e-07	-4.560094e-06	-2.334370e-09	-3.237462e+01	-1.549119e+02
6.700000e-07	-4.535606e-06	-2.313358e-09	-3.220077e+01	-1.547515e+02
6.800000e-07	-4.510645e-06	-2.307178e-09	-3.202355e+01	-1.545943e+02
6.900000e-07	-4.485259e-06	-2.321834e-09	-3.184333e+01	-1.544404e+02
7.000000e-07	-4.459268e-06	-2.322756e-09	-3.165881e+01	-1.542898e+02
7.100000e-07	-4.432695e-06	-2.304202e-09	-3.147014e+01	-1.541427e+02
7.200000e-07	-4.405752e-06	-2.290592e-09	-3.127886e+01	-1.539989e+02
7.300000e-07	-4.378334e-06	-2.303798e-09	-3.108421e+01	-1.538582e+02
7.400000e-07	-4.350605e-06	-2.319189e-09	-3.088735e+01	-1.537203e+02
7.500000e-07	-4.322710e-06	-2.307047e-09	-3.068930e+01	-1.535849e+02
7.600000e-07	-4.294631e-06	-2.285590e-09	-3.048996e+01	-1.534515e+02
7.700000e-07	-4.266421e-06	-2.283497e-09	-3.028968e+01	-1.533195e+02
7.800000e-07	-4.237984e-06	-2.294772e-09	-3.008779e+01	-1.531885e+02
7.900000e-07	-4.209194e-06	-2.289894e-09	-2.988339e+01	-1.530577e+02
8.000000e-07	-4.180060e-06	-2.276278e-09	-2.967655e+01	-1.529265e+02
8.100000e-07	-4.150625e-06	-2.272361e-09	-2.946757e+01	-1.527941e+02
8.200000e-07	-4.120930e-06	-2.286753e-09	-2.925675e+01	-1.526598e+02
8.300000e-07	-4.090994e-06	-2.291218e-09	-2.904422e+01	-1.525229e+02
8.400000e-07	-4.060806e-06	-2.278052e-09	-2.882990e+01	-1.523827e+02
8.500000e-07	-4.030302e-06	-2.263999e-09	-2.861333e+01	-1.522384e+02
8.600000e-07	-3.999504e-06	-2.267331e-09	-2.839468e+01	-1.520894e+02
8.700000e-07	-3.968440e-06	-2.267992e-09	-2.817414e+01	-1.519351e+02
8.800000e-07	-3.937114e-06	-2.258349e-09	-2.795175e+01	-1.517749e+02
8.900000e-07	-3.905571e-06	-2.244065e-09	-2.772780e+01	-1.516084e+02
9.000000e-07	-3.873876e-06	-2.246939e-09	-2.750278e+01	-1.514352e+02
9.100000e-07	-3.842043e-06	-2.255697e-09	-2.727678e+01	-1.512549e+02
9.200000e-07	-3.809972e-06	-2.255478e-09	-2.704909e+01	-1.510674e+02
9.300000e-07	-3.777665e-06	-2.242775e-09	-2.681972e+01	-1.508726e+02
9.400000e-07	-3.745108e-06	-2.237714e-09	-2.658858e+01	-1.506705e+02
9.500000e-07	-3.712295e-06	-2.239699e-09	-2.635563e+01	-1.504611e+02
9.600000e-07	-3.679199e-06	-2.238997e-09	-2.612066e+01	-1.502447e+02
9.700000e-07	-3.645557e-06	-2.230238e-09	-2.588182e+01	-1.500215e+02
9.800000e-07	-3.611333e-06	-2.225329e-09	-2.563885e+01	-1.497921e+02
9.900000e-07	-3.576723e-06	-2.227367e-09	-2.539313e+01	-1.495567e+02
1.000000e-06	-3.541754e-06	-2.231070e-09	-2.514487e+01	-1.493161e+02
1.010000e-06	-3.506520e-06	-2.227845e-09	-2.489472e+01	-1.490708e+02
1.020000e-06	-3.471017e-06	-2.221108e-09	-2.464266e+01	-1.488214e+02
1.030000e-06	-3.435265e-06	-2.216062e-09	-2.438884e+01	-1.485686e+02
1.040000e-06	-3.399389e-06	-2.212133e-09	-2.413414e+01	-1.483131e+02
1.050000e-06	-3.363327e-06	-2.204188e-09	-2.387811e+01	-1.480556e+02
1.060000e-06	-3.327123e-06	-2.193789e-09	-2.362108e+01	-1.477968e+02
1.070000e-06	-3.290828e-06	-2.188916e-09	-2.336340e+01	-1.475373e+02
1.080000e-06	-3.254327e-06	-2.187433e-09	-2.310426e+01	-1.472778e+02
1.090000e-06	-3.217610e-06	-2.185147e-09	-2.284359e+01	-1.470186e+02
1.100000e-06	-3.180626e-06	-2.180035e-09	-2.258102e+01	-1.467603e+02
1.110000e-06	-3.143336e-06	-2.177815e-09	-2.231627e+01	-1.465032e+02
1.120000e-06	-3.105813e-06	-2.175799e-09	-2.204988e+01	-1.462476e+02
1.130000e-06	-3.068134e-06	-2.172623e-09	-2.178237e+01	-1.459935e+02
1.140000e-06	-3.030277e-06	-2.166342e-09	-2.151361e+01	-1.457410e+02
1.150000e-06	-2.992177e-06	-2.160121e-09	-2.124312e+01	-1.454900e+02
1.160000e-06	-2.953823e-06	-2.154386e-09	-2.097082e+01	-1.452403e+02
1.170000e-06	-2.915316e-06	-2.147499e-09	-2.069743e+01	-1.449914e+02
1.180000e-06	-2.876642e-06	-2.137385e-09	-2.042287e+01	-1.447430e+02
1.190000e-06	-2.837720e-06	-2.133032e-09	-2.014654e+01	-1.444943e+02
1.200000e-06	-2.798656e-06	-2.134423e-09	-1.986920e+01	-1.442447e+02
1.210000e-06	-2.759380e-06	-2.138314e-09	-1.959036e+01	-1.439935e+02
1.220000e-06	-2.719840e-06	-2.136757e-09	-1.930965e+01	-1.437397e+02
1.230000e-06	-2.680104e-06	-2.130072e-09	-1.902754e+01	-1.434824e+02
1.240000e-06	-2.640245e-06	-2.119677e-09	-1.874456e+01	-1.432207e+02
1.250000e-06	-2.600293e-06	-2.108560e-09	-1.846092e+01	-1.429535e+02
1.260000e-06	-2.560255e-06	-2.095825e-09	-1.817666e+01	-1.426798e+02
1.270000e-06	-2.520161e-06	-2.083809e-09	-1.789201e+01	-1.423985e+02
1.280000e-06	-2.479955e-06	-2.077491e-09	-1.760657e+01	-1.421087e+02
1.290000e-06	-2.439622e-06	-2.078306e-09	-1.732022e+01	-1.418094e+02
1.300000e-06	-2.399173e-06	-2.082516e-09	-1.703305e+01	-1.414997e+02
1.310000e-06	-2.358493e-06	-2.085530e-09	-1.674424e+01	-1.411787e+02
1.320000e-06	-2.317460e-06	-2.081444e-09	-1.645293e+01	-1.408458e+02
1.330000e-06	-2.276130e-06	-2.068674e-09	-1.615950e+01	-1.405002e+02
1.340000e-06	-2.234712e-06	-2.051739e-09	-1.586546e+01	-1.401415e+02
1.350000e-06	-2.193126e-06	-2.035731e-09	-1.557021e+01	-1.397691e+02
1.360000e-06	-2.151147e-06	-2.024937e-09	-1.527218e+01	-1.393827e+02
1.370000e-06	-2.108833e-06	-2.022926e-09	-1.497177e+01	-1.389821e+02
1.380000e-06	-2.066262e-06	-2.026782e-09	-1.466953e+01	-1.385673e+02
1.390000e-06	-2.023469e-06	-2.028052e-09	-1.436572e+01	-1.381381e+02
1.400000e-06	-1.980506e-06	-2.026256e-09	-1.406070e+01	-1.376948e+02
1.410000e-06	-1.937426e-06	-2.019519e-09	-1.375485e+01	-1.372374e+02
1.420000e-06	-1.894123e-06	-2.004210e-09	-1.344743e+01	-1.367663e+02
1.430000e-06	-1.850570e-06	-1.984871e-09	-1.313822e+01	-1.362817e+02
1.440000e-06	-1.806909e-06	-1.970832e-09	-1.282824e+01	-1.357840e+02
1.450000e-06	-1.763158e-06	-1.963946e-09	-1.251763e+01	-1.352735e+02
1.460000e-06	-1.719322e-06	-1.960471e-09	-1.220642e+01	-1.347508e+02
1.470000e-06	-1.675406e-06	-1.956755e-09	-1.189463e+01	-1.342160e+02
1.480000e-06	-1.631381e-06	-1.950595e-09	-1.158207e+01	-1.336696e+02
1.490000e-06	-1.587288e-06	-1.941150e-09	-1.126903e+01	-1.331119e+02
1.500000e-06	-1.543143e-06	-1.928956e-09	-1.095562e+01	-1.325430e+02
1.510000e-06	-1.498955e-06	-1.912872e-09	-1.064191e+01	-1.319631e+02
1.520000e-06	-1.454693e-06	-1.897103e-09	-1.032767e+01	-1.313722e+02
1.530000e-06	-1.410347e-06	-1.886100e-09	-1.001283e+01	-1.307702e+02
1.540000e-06	-1.365938e-06	-1.881164e-09	-9.697545e+00	-1.301570e+02
1.550000e-06	-1.321465e-06	-1.878636e-09	-9.381810e+00	-1.295322e+02
1.560000e-06	-1.276957e-06	-1.875013e-09	-9.065820e+00	-1.288954e+02
1.570000e-06	-1.232323e-06	-1.868607e-09	-8.748940e+00	-1.282459e+02
1.580000e-06	-1.187567e-06	-1.857541e-09	-8.431196e+00	-1.275831e+02
1.590000e-06	-1.142729e-06	-1.844573e-09	-8.112862e+00	-1.269060e+02
1.600000e-06	-1.097873e-06	-1.831974e-09	-7.794409e+00	-1.262137e+02
1.610000e-06	-1.052941e-06	-1.817125e-09	-7.475408e+00	-1.255051e+02
1.620000e-06	-1.007799e-06	-1.801960e-09	-7.154921e+00	-1.247790e+02
1.630000e-06	-9.625843e-07	-1.790909e-09	-6.833917e+00	-1.240341e+02
1.640000e-06	-9.173212e-07	-1.783169e-09	-6.512569e+00	-1.232690e+02
1.650000e-06	-8.720149e-07	-1.775733e-09	-6.190915e+00	-1.224823e+02
1.660000e-06	-8.266402e-07	-1.767382e-09	-5.868775e+00	-1.216725e+02
1.670000e-06	-7.812121e-07	-1.759495e-09	-5.546255e+00	-1.208380e+02
1.680000e-06	-7.358731e-07	-1.749925e-09	-5.224369e+00	-1.199774e+02
1.690000e-06	-6.905568e-07	-1.733280e-09	-4.902644e+00	-1.190890e+02
1.700000e-06	-6.450485e-07	-1.713360e-09	-4.579555e+00	-1.181713e+02
1.710000e-06	-5.994446e-07	-1.694258e-09	-4.255788e+00	-1.172228e+02
1.720000e-06	-5.538311e-07	-1.677797e-09	-3.931952e+00	-1.162419e+02
1.730000e-06	-5.081419e-07	-1.664895e-09	-3.607580e+00	-1.152271e+02
1.740000e-06	-4.624127e-07	-1.652614e-09	-3.282923e+00	-1.141770e+02
1.750000e-06	-4.166380e-07	-1.639495e-09	-2.957943e+00	-1.130900e+02
1.760000e-06	-3.708378e-07	-1.628215e-09	-2.632782e+00	-1.119649e+02
1.770000e-06	-3.250154e-07	-1.616890e-09	-2.307464e+00	-1.108001e+02
1.780000e-06	-2.791025e-07	-1.600191e-09	-1.981502e+00	-1.095942e+02
1.790000e-06	-2.332579e-07	-1.577102e-09	-1.656026e+00	-1.083460e+02
1.800000e-06	-1.874669e-07	-1.550611e-09	-1.330931e+00	-1.070538e+02
1.810000e-06	-1.415598e-07	-1.527942e-09	-1.005011e+00	-1.057163e+02
1.820000e-06	-9.560607e-08	-1.508960e-09	-6.787602e-01	-1.043320e+02
1.830000e-06	-4.960416e-08	-1.490508e-09	-3.521673e-01	-1.028994e+02
1.840000e-06	-3.631813e-09	-1.472709e-09	-2.578424e-02	-1.014168e+02
1.850000e-06	4.226596e-08	-1.455483e-09	3.000693e-01	-9.988242e+01
1.860000e-06	8.810854e-08	-1.433922e-09	6.255311e-01	-9.829455e+01
1.870000e-06	1.339448e-07	-1.406390e-09	9.509481e-01	-9.665124e+01
1.880000e-06	1.797693e-07	-1.373509e-09	1.276281e+00	-9.495042e+01
1.890000e-06	2.255918e-07	-1.338984e-09	1.601601e+00	-9.318991e+01
1.900000e-06	2.714302e-07	-1.308913e-09	1.927033e+00	-9.136741e+01
1.910000e-06	3.172823e-07	-1.280287e-09	2.252562e+00	-8.948049e+01
1.920000e-06	3.631251e-07	-1.252966e-09	2.578025e+00	-8.752661e+01
1.930000e-06	4.088630e-07	-1.226049e-09	2.902744e+00	-8.550313e+01
1.940000e-06	4.545865e-07	-1.197900e-09	3.227360e+00	-8.340731e+01
1.950000e-06	5.003547e-07	-1.167213e-09	3.552294e+00	-8.123637e+01
1.960000e-06	5.461154e-07	-1.133112e-09	3.877174e+00	-7.898751e+01
1.970000e-06	5.917731e-07	-1.096226e-09	4.201323e+00	-7.665792e+01
1.980000e-06	6.373432e-07	-1.055468e-09	4.524851e+00	-7.424485e+01
1.990000e-06	6.828489e-07	-1.013177e-09	4.847921e+00	-7.174564e+01
2.000000e-06	7.282688e-07	-9.738448e-10	5.170382e+00	-6.915778e+01
2.010000e-06	7.736301e-07	-9.393983e-10	5.492427e+00	-6.647893e+01
2.020000e-06	8.189996e-07	-9.020232e-10	5.814530e+00	-6.370702e+01
2.030000e-06	8.643545e-07	-8.590339e-10	6.136529e+00	-6.084029e+01
2.040000e-06	9.095978e-07	-8.150836e-10	6.457736e+00	-5.787732e+01
2.050000e-06	9.548555e-07	-7.713009e-10	6.779046e+00	-5.481711e+01
2.060000e-06	1.000097e-06	-7.242298e-10	7.100237e+00	-5.165914e+01
2.070000e-06	1.045198e-06	-6.734976e-10	7.420436e+00	-4.840341e+01
2.080000e-06	1.090171e-06	-6.225237e-10	7.739729e+00	-4.505048e+01
2.090000e-06	1.134993e-06	-5.745217e-10	8.057942e+00	-4.160153e+01
2.100000e-06	1.179701e-06	-5.294218e-10	8.375345e+00	-3.805837e+01
2.110000e-06	1.224373e-06	-4.792536e-10	8.692500e+00	-3.442351e+01
2.120000e-06	1.268975e-06	-4.218527e-10	9.009153e+00	-3.070015e+01
2.130000e-06	1.313488e-06	-3.622715e-10	9.325174e+00	-2.689219e+01
2.140000e-06	1.357920e-06	-3.012267e-10	9.640623e+00	-2.300425e+01
2.150000e-06	1.402219e-06	-2.375210e-10	9.955128e+00	-1.904167e+01
2.160000e-06	1.446497e-06	-1.729415e-10	1.026948e+01	-1.501047e+01
2.170000e-06	1.490733e-06	-1.116041e-10	1.058354e+01	-1.091732e+01
2.180000e-06	1.534886e-06	-5.227561e-11	1.089700e+01	-6.769561e+00
2.190000e-06	1.578971e-06	7.811934e-12	1.120998e+01	-2.575075e+00
2.200000e-06	1.622963e-06	7.154420e-11	1.152231e+01	1.657710e+00
2.210000e-06	1.666913e-06	1.390892e-10	1.183433e+01	5.919905e+00
2.220000e-06	1.710782e-06	2.081871e-10	1.214578e+01	1.020223e+01
2.230000e-06	1.754548e-06	2.777763e-10	1.245650e+01	1.449511e+01
2.240000e-06	1.798290e-06	3.466637e-10	1.276705e+01	1.878873e+01
2.250000e-06	1.841999e-06	4.135953e-10	1.307737e+01	2.307313e+01
2.260000e-06	1.885516e-06	4.785973e-10	1.338631e+01	2.733834e+01
2.270000e-06	1.928855e-06	5.418966e-10	1.369401e+01	3.157442e+01
2.280000e-06	1.972057e-06	6.035848e-10	1.400072e+01	3.577160e+01
2.290000e-06	2.015121e-06	6.662060e-10	1.430646e+01	3.992033e+01
2.300000e-06	2.057969e-06	7.304471e-10	1.461065e+01	4.401144e+01
2.310000e-06	2.100458e-06	7.912754e-10	1.491231e+01	4.803616e+01
2.320000e-06	2.142718e-06	8.466977e-10	1.521234e+01	5.198622e+01
2.330000e-06	2.184742e-06	9.015989e-10	1.551069e+01	5.585398e+01
2.340000e-06	2.226369e-06	9.557004e-10	1.580622e+01	5.963242e+01
2.350000e-06	2.267703e-06	1.009437e-09	1.609967e+01	6.331525e+01
2.360000e-06	2.308880e-06	1.063187e-09	1.639201e+01	6.689697e+01
2.370000e-06	2.349783e-06	1.114209e-09	1.668240e+01	7.037284e+01
2.380000e-06	2.390411e-06	1.162092e-09	1.697085e+01	7.373901e+01
2.390000e-06	2.430869e-06	1.205986e-09	1.725808e+01	7.699244e+01
2.400000e-06	2.471135e-06	1.244021e-09	1.754395e+01	8.013098e+01
2.410000e-06	2.511252e-06	1.280986e-09	1.782876e+01	8.315330e+01
2.420000e-06	2.551360e-06	1.321610e-09	1.811351e+01	8.605893e+01
2.430000e-06	2.591440e-06	1.363995e-09	1.839806e+01	8.884818e+01
2.440000e-06	2.631404e-06	1.406629e-09	1.868179e+01	9.152215e+01
2.450000e-06	2.671246e-06	1.448025e-09	1.896465e+01	9.408264e+01
2.460000e-06	2.710979e-06	1.487133e-09	1.924673e+01	9.653211e+01
2.470000e-06	2.750502e-06	1.520551e-09	1.952733e+01	9.887360e+01
2.480000e-06	2.789747e-06	1.548283e-09	1.980595e+01	1.011107e+02
2.490000e-06	2.828926e-06	1.575445e-09	2.008410e+01	1.032474e+02
2.500000e-06	2.867891e-06	1.603347e-09	2.036074e+01	1.052882e+02
2.510000e-06	2.906529e-06	1.632821e-09	2.063505e+01	1.072376e+02
2.520000e-06	2.944947e-06	1.661470e-09	2.090780e+01	1.091005e+02
2.530000e-06	2.983161e-06	1.684717e-09	2.117910e+01	1.108820e+02
2.540000e-06	3.021239e-06	1.706850e-09	2.144944e+01	1.125872e+02
2.550000e-06	3.059123e-06	1.733838e-09	2.171840e+01	1.142209e+02
2.560000e-06	3.096762e-06	1.762353e-09	2.198562e+01	1.157881e+02
2.570000e-06	3.134245e-06	1.787994e-09	2.225173e+01	1.172935e+02
2.580000e-06	3.171588e-06	1.810329e-09	2.251685e+01	1.187417e+02
2.590000e-06	3.208680e-06	1.831101e-09	2.278019e+01	1.201369e+02
2.600000e-06	3.245441e-06	1.847889e-09	2.304117e+01	1.214830e+02
2.610000e-06	3.281905e-06	1.859356e-09	2.330005e+01	1.227835e+02
2.620000e-06	3.318226e-06	1.871171e-09	2.355791e+01	1.240418e+02
2.630000e-06	3.354428e-06	1.890809e-09	2.381494e+01	1.252605e+02
2.640000e-06	3.390470e-06	1.916604e-09	2.407082e+01	1.264422e+02
2.650000e-06	3.426409e-06	1.939488e-09	2.432597e+01	1.275888e+02
2.660000e-06	3.462244e-06	1.959063e-09	2.458038e+01	1.287019e+02
2.670000e-06	3.497954e-06	1.977673e-09	2.483391e+01	1.297829e+02
2.680000e-06	3.533411e-06	1.991200e-09	2.508564e+01	1.308326e+02
2.690000e-06	3.568462e-06	1.996316e-09	2.533448e+01	1.318518e+02
2.700000e-06	3.603068e-06	1.997113e-09	2.558017e+01	1.328408e+02
2.710000e-06	3.637218e-06	2.004218e-09	2.582262e+01	1.337997e+02
2.720000e-06	3.670980e-06	2.021087e-09	2.606231e+01	1.347284e+02
2.730000e-06	3.704285e-06	2.041911e-09	2.629876e+01	1.356268e+02
2.740000e-06	3.737136e-06	2.061006e-09	2.653199e+01	1.364945e+02
2.750000e-06	3.769682e-06	2.079440e-09	2.676305e+01	1.373313e+02
2.760000e-06	3.802004e-06	2.094643e-09	2.699252e+01	1.381367e+02
2.770000e-06	3.834204e-06	2.101643e-09	2.722113e+01	1.389104e+02
2.780000e-06	3.866203e-06	2.104377e-09	2.744831e+01	1.396522e+02
2.790000e-06	3.897980e-06	2.106909e-09	2.767391e+01	1.403620e+02
2.800000e-06	3.929559e-06	2.113601e-09	2.789811e+01	1.410396e+02
2.810000e-06	3.960904e-06	2.124633e-09	2.812064e+01	1.416853e+02
2.820000e-06	3.991935e-06	2.137559e-09	2.834095e+01	1.422993e+02
2.830000e-06	4.022687e-06	2.150779e-09	2.855927e+01	1.428823e+02
2.840000e-06	4.053200e-06	2.163717e-09	2.877590e+01	1.434347e+02
2.850000e-06	4.083442e-06	2.173456e-09	2.899060e+01	1.439577e+02
2.860000e-06	4.113410e-06	2.180185e-09	2.920336e+01	1.444521e+02
2.870000e-06	4.143074e-06	2.185166e-09	2.941397e+01	1.449194e+02
2.880000e-06	4.172466e-06	2.189514e-09	2.962263e+01	1.453608e+02
2.890000e-06	4.201522e-06	2.191021e-09	2.982892e+01	1.457780e+02
2.900000e-06	4.230351e-06	2.190712e-09	3.003360e+01	1.461727e+02
