# Temperatura_=_-1.36
# Concentracion g/m^3_=_4090.0
# C_Vs_to_Am_M_A/Vsm_=_65563218390.804596
# pendiente_HvsI_1/m_=_3716.3
# ordenada_HvsI_A/m_=_1297.0
# frecuencia_Hz_=_135083.14569858715

Tiempo_(s)	Campo_(V.s)	Magnetizacion_(V.s)	Campo_(kA/m)	Magnetizacion_(A/m)
0.000000e+00	-5.417508e-06	-2.657964e-09	-3.841019e+01	-1.695187e+02
1.000000e-08	-5.417638e-06	-2.658651e-09	-3.841111e+01	-1.695198e+02
2.000000e-08	-5.417533e-06	-2.657678e-09	-3.841037e+01	-1.695220e+02
3.000000e-08	-5.417083e-06	-2.652894e-09	-3.840718e+01	-1.695264e+02
4.000000e-08	-5.416212e-06	-2.644149e-09	-3.840100e+01	-1.695336e+02
5.000000e-08	-5.414707e-06	-2.638814e-09	-3.839033e+01	-1.695446e+02
6.000000e-08	-5.412611e-06	-2.648241e-09	-3.837547e+01	-1.695601e+02
7.000000e-08	-5.409899e-06	-2.662783e-09	-3.835624e+01	-1.695806e+02
8.000000e-08	-5.406638e-06	-2.647670e-09	-3.833312e+01	-1.696067e+02
9.000000e-08	-5.402916e-06	-2.610486e-09	-3.830673e+01	-1.696388e+02
1.000000e-07	-5.398698e-06	-2.643357e-09	-3.827682e+01	-1.696771e+02
1.100000e-07	-5.394295e-06	-2.692163e-09	-3.824561e+01	-1.697219e+02
1.200000e-07	-5.389846e-06	-2.667764e-09	-3.821407e+01	-1.697731e+02
1.300000e-07	-5.385112e-06	-2.557010e-09	-3.818050e+01	-1.698305e+02
1.400000e-07	-5.379941e-06	-2.604548e-09	-3.814384e+01	-1.698939e+02
1.500000e-07	-5.374348e-06	-2.695540e-09	-3.810418e+01	-1.699628e+02
1.600000e-07	-5.368377e-06	-2.686797e-09	-3.806185e+01	-1.700368e+02
1.700000e-07	-5.361975e-06	-2.554648e-09	-3.801646e+01	-1.701151e+02
1.800000e-07	-5.355115e-06	-2.582636e-09	-3.796782e+01	-1.701970e+02
1.900000e-07	-5.347862e-06	-2.687587e-09	-3.791640e+01	-1.702816e+02
2.000000e-07	-5.340324e-06	-2.662482e-09	-3.786295e+01	-1.703681e+02
2.100000e-07	-5.332651e-06	-2.578703e-09	-3.780855e+01	-1.704554e+02
2.200000e-07	-5.324789e-06	-2.606776e-09	-3.775281e+01	-1.705425e+02
2.300000e-07	-5.316650e-06	-2.666890e-09	-3.769511e+01	-1.706283e+02
2.400000e-07	-5.308161e-06	-2.594841e-09	-3.763491e+01	-1.707120e+02
2.500000e-07	-5.298917e-06	-2.576262e-09	-3.756938e+01	-1.707923e+02
2.600000e-07	-5.288865e-06	-2.640273e-09	-3.749811e+01	-1.708683e+02
2.700000e-07	-5.278168e-06	-2.657025e-09	-3.742227e+01	-1.709392e+02
2.800000e-07	-5.266994e-06	-2.558977e-09	-3.734305e+01	-1.710039e+02
2.900000e-07	-5.255547e-06	-2.587476e-09	-3.726189e+01	-1.710617e+02
3.000000e-07	-5.243687e-06	-2.649039e-09	-3.717780e+01	-1.711119e+02
3.100000e-07	-5.231399e-06	-2.606870e-09	-3.709068e+01	-1.711539e+02
3.200000e-07	-5.218729e-06	-2.531332e-09	-3.700084e+01	-1.711870e+02
3.300000e-07	-5.205702e-06	-2.602265e-09	-3.690848e+01	-1.712111e+02
3.400000e-07	-5.192371e-06	-2.625073e-09	-3.681396e+01	-1.712256e+02
3.500000e-07	-5.178673e-06	-2.582317e-09	-3.671685e+01	-1.712304e+02
3.600000e-07	-5.164545e-06	-2.570047e-09	-3.661668e+01	-1.712255e+02
3.700000e-07	-5.149942e-06	-2.618130e-09	-3.651314e+01	-1.712108e+02
3.800000e-07	-5.134778e-06	-2.577070e-09	-3.640563e+01	-1.711864e+02
3.900000e-07	-5.119016e-06	-2.567199e-09	-3.629388e+01	-1.711524e+02
4.000000e-07	-5.102711e-06	-2.589615e-09	-3.617827e+01	-1.711092e+02
4.100000e-07	-5.086055e-06	-2.576917e-09	-3.606019e+01	-1.710571e+02
4.200000e-07	-5.069094e-06	-2.543740e-09	-3.593993e+01	-1.709964e+02
4.300000e-07	-5.051926e-06	-2.581879e-09	-3.581821e+01	-1.709274e+02
4.400000e-07	-5.034473e-06	-2.592646e-09	-3.569447e+01	-1.708507e+02
4.500000e-07	-5.016703e-06	-2.544639e-09	-3.556848e+01	-1.707667e+02
4.600000e-07	-4.998645e-06	-2.546905e-09	-3.544045e+01	-1.706758e+02
4.700000e-07	-4.980059e-06	-2.575652e-09	-3.530867e+01	-1.705785e+02
4.800000e-07	-4.960977e-06	-2.567749e-09	-3.517338e+01	-1.704752e+02
4.900000e-07	-4.941503e-06	-2.542202e-09	-3.503531e+01	-1.703663e+02
5.000000e-07	-4.921749e-06	-2.553034e-09	-3.489526e+01	-1.702521e+02
5.100000e-07	-4.901892e-06	-2.551100e-09	-3.475447e+01	-1.701331e+02
5.200000e-07	-4.881919e-06	-2.557181e-09	-3.461285e+01	-1.700096e+02
5.300000e-07	-4.861710e-06	-2.543542e-09	-3.446958e+01	-1.698817e+02
5.400000e-07	-4.841111e-06	-2.531739e-09	-3.432353e+01	-1.697498e+02
5.500000e-07	-4.820122e-06	-2.527317e-09	-3.417471e+01	-1.696141e+02
5.600000e-07	-4.798789e-06	-2.555937e-09	-3.402346e+01	-1.694746e+02
5.700000e-07	-4.777094e-06	-2.546214e-09	-3.386965e+01	-1.693315e+02
5.800000e-07	-4.755095e-06	-2.532996e-09	-3.371367e+01	-1.691849e+02
5.900000e-07	-4.732701e-06	-2.524957e-09	-3.355490e+01	-1.690350e+02
6.000000e-07	-4.709994e-06	-2.536379e-09	-3.339391e+01	-1.688816e+02
6.100000e-07	-4.687001e-06	-2.528220e-09	-3.323089e+01	-1.687249e+02
6.200000e-07	-4.663668e-06	-2.518543e-09	-3.306545e+01	-1.685650e+02
6.300000e-07	-4.640130e-06	-2.498589e-09	-3.289857e+01	-1.684018e+02
6.400000e-07	-4.616392e-06	-2.508354e-09	-3.273027e+01	-1.682354e+02
6.500000e-07	-4.592436e-06	-2.519352e-09	-3.256042e+01	-1.680658e+02
6.600000e-07	-4.568244e-06	-2.511101e-09	-3.238890e+01	-1.678932e+02
6.700000e-07	-4.543691e-06	-2.490389e-09	-3.221482e+01	-1.677176e+02
6.800000e-07	-4.518671e-06	-2.496782e-09	-3.203743e+01	-1.675390e+02
6.900000e-07	-4.493043e-06	-2.501084e-09	-3.185573e+01	-1.673577e+02
7.000000e-07	-4.466813e-06	-2.491750e-09	-3.166975e+01	-1.671738e+02
7.100000e-07	-4.440083e-06	-2.475688e-09	-3.148023e+01	-1.669873e+02
7.200000e-07	-4.412899e-06	-2.473141e-09	-3.128750e+01	-1.667986e+02
7.300000e-07	-4.385470e-06	-2.483806e-09	-3.109303e+01	-1.666077e+02
7.400000e-07	-4.357851e-06	-2.489089e-09	-3.089721e+01	-1.664148e+02
7.500000e-07	-4.330017e-06	-2.476938e-09	-3.069987e+01	-1.662201e+02
7.600000e-07	-4.302060e-06	-2.463185e-09	-3.050165e+01	-1.660238e+02
7.700000e-07	-4.273858e-06	-2.466980e-09	-3.030170e+01	-1.658260e+02
7.800000e-07	-4.245339e-06	-2.465524e-09	-3.009950e+01	-1.656269e+02
7.900000e-07	-4.216568e-06	-2.454562e-09	-2.989551e+01	-1.654266e+02
8.000000e-07	-4.187467e-06	-2.440974e-09	-2.968919e+01	-1.652251e+02
8.100000e-07	-4.157988e-06	-2.444514e-09	-2.948018e+01	-1.650225e+02
8.200000e-07	-4.128213e-06	-2.449005e-09	-2.926907e+01	-1.648187e+02
8.300000e-07	-4.098172e-06	-2.450381e-09	-2.905608e+01	-1.646138e+02
8.400000e-07	-4.067896e-06	-2.437710e-09	-2.884143e+01	-1.644076e+02
8.500000e-07	-4.037331e-06	-2.435585e-09	-2.862472e+01	-1.641999e+02
8.600000e-07	-4.006493e-06	-2.435159e-09	-2.840608e+01	-1.639906e+02
8.700000e-07	-3.975399e-06	-2.432278e-09	-2.818562e+01	-1.637794e+02
8.800000e-07	-3.944127e-06	-2.416693e-09	-2.796390e+01	-1.635660e+02
8.900000e-07	-3.912710e-06	-2.413359e-09	-2.774116e+01	-1.633501e+02
9.000000e-07	-3.881065e-06	-2.415963e-09	-2.751679e+01	-1.631313e+02
9.100000e-07	-3.849260e-06	-2.420451e-09	-2.729129e+01	-1.629092e+02
9.200000e-07	-3.817260e-06	-2.412065e-09	-2.706441e+01	-1.626835e+02
9.300000e-07	-3.784958e-06	-2.407606e-09	-2.683539e+01	-1.624536e+02
9.400000e-07	-3.752284e-06	-2.408394e-09	-2.660373e+01	-1.622191e+02
9.500000e-07	-3.719309e-06	-2.410524e-09	-2.636994e+01	-1.619797e+02
9.600000e-07	-3.685930e-06	-2.398390e-09	-2.613329e+01	-1.617350e+02
9.700000e-07	-3.652038e-06	-2.388173e-09	-2.589299e+01	-1.614846e+02
9.800000e-07	-3.617713e-06	-2.386452e-09	-2.564963e+01	-1.612282e+02
9.900000e-07	-3.582971e-06	-2.391265e-09	-2.540330e+01	-1.609655e+02
1.000000e-06	-3.547779e-06	-2.388716e-09	-2.515379e+01	-1.606963e+02
1.010000e-06	-3.512268e-06	-2.383687e-09	-2.490202e+01	-1.604206e+02
1.020000e-06	-3.476678e-06	-2.382466e-09	-2.464969e+01	-1.601381e+02
1.030000e-06	-3.441006e-06	-2.379554e-09	-2.439677e+01	-1.598489e+02
1.040000e-06	-3.405175e-06	-2.369737e-09	-2.414272e+01	-1.595531e+02
1.050000e-06	-3.369216e-06	-2.355457e-09	-2.388778e+01	-1.592508e+02
1.060000e-06	-3.333038e-06	-2.349182e-09	-2.363128e+01	-1.589423e+02
1.070000e-06	-3.296591e-06	-2.349344e-09	-2.337287e+01	-1.586277e+02
1.080000e-06	-3.259915e-06	-2.348601e-09	-2.311283e+01	-1.583075e+02
1.090000e-06	-3.222995e-06	-2.340173e-09	-2.285107e+01	-1.579819e+02
1.100000e-06	-3.185820e-06	-2.335641e-09	-2.258750e+01	-1.576515e+02
1.110000e-06	-3.148441e-06	-2.331955e-09	-2.232248e+01	-1.573167e+02
1.120000e-06	-3.110888e-06	-2.327516e-09	-2.205623e+01	-1.569778e+02
1.130000e-06	-3.073094e-06	-2.318475e-09	-2.178827e+01	-1.566355e+02
1.140000e-06	-3.035116e-06	-2.311765e-09	-2.151901e+01	-1.562901e+02
1.150000e-06	-2.996986e-06	-2.307534e-09	-2.124866e+01	-1.559421e+02
1.160000e-06	-2.958642e-06	-2.304878e-09	-2.097681e+01	-1.555917e+02
1.170000e-06	-2.920038e-06	-2.294251e-09	-2.070310e+01	-1.552395e+02
1.180000e-06	-2.881193e-06	-2.285601e-09	-2.042769e+01	-1.548855e+02
1.190000e-06	-2.842178e-06	-2.278510e-09	-2.015107e+01	-1.545299e+02
1.200000e-06	-2.802889e-06	-2.274430e-09	-1.987251e+01	-1.541730e+02
1.210000e-06	-2.763403e-06	-2.266770e-09	-1.959256e+01	-1.538145e+02
1.220000e-06	-2.723823e-06	-2.258997e-09	-1.931193e+01	-1.534543e+02
1.230000e-06	-2.684154e-06	-2.251835e-09	-1.903068e+01	-1.530923e+02
1.240000e-06	-2.644375e-06	-2.248007e-09	-1.874865e+01	-1.527281e+02
1.250000e-06	-2.604483e-06	-2.238451e-09	-1.846581e+01	-1.523612e+02
1.260000e-06	-2.564543e-06	-2.228086e-09	-1.818264e+01	-1.519910e+02
1.270000e-06	-2.524434e-06	-2.219844e-09	-1.789826e+01	-1.516169e+02
1.280000e-06	-2.484216e-06	-2.214500e-09	-1.761312e+01	-1.512380e+02
1.290000e-06	-2.443917e-06	-2.207665e-09	-1.732740e+01	-1.508536e+02
1.300000e-06	-2.403421e-06	-2.197459e-09	-1.704028e+01	-1.504626e+02
1.310000e-06	-2.362612e-06	-2.191475e-09	-1.675094e+01	-1.500642e+02
1.320000e-06	-2.321411e-06	-2.187875e-09	-1.645883e+01	-1.496572e+02
1.330000e-06	-2.279972e-06	-2.179010e-09	-1.616502e+01	-1.492406e+02
1.340000e-06	-2.238320e-06	-2.165617e-09	-1.586971e+01	-1.488133e+02
1.350000e-06	-2.196403e-06	-2.154457e-09	-1.557252e+01	-1.483743e+02
1.360000e-06	-2.154177e-06	-2.147134e-09	-1.527314e+01	-1.479226e+02
1.370000e-06	-2.111544e-06	-2.140706e-09	-1.497087e+01	-1.474570e+02
1.380000e-06	-2.068618e-06	-2.129844e-09	-1.466652e+01	-1.469768e+02
1.390000e-06	-2.025566e-06	-2.121159e-09	-1.436129e+01	-1.464810e+02
1.400000e-06	-1.982323e-06	-2.118149e-09	-1.405469e+01	-1.459688e+02
1.410000e-06	-1.938903e-06	-2.115321e-09	-1.374684e+01	-1.454395e+02
1.420000e-06	-1.895426e-06	-2.102475e-09	-1.343859e+01	-1.448926e+02
1.430000e-06	-1.851897e-06	-2.087794e-09	-1.312997e+01	-1.443275e+02
1.440000e-06	-1.808293e-06	-2.077622e-09	-1.282082e+01	-1.437439e+02
1.450000e-06	-1.764584e-06	-2.071624e-09	-1.251092e+01	-1.431414e+02
1.460000e-06	-1.720796e-06	-2.061153e-09	-1.220046e+01	-1.425199e+02
1.470000e-06	-1.676896e-06	-2.048971e-09	-1.188921e+01	-1.418794e+02
1.480000e-06	-1.632929e-06	-2.038234e-09	-1.157748e+01	-1.412197e+02
1.490000e-06	-1.588921e-06	-2.028806e-09	-1.126547e+01	-1.405410e+02
1.500000e-06	-1.544820e-06	-2.016711e-09	-1.095279e+01	-1.398434e+02
1.510000e-06	-1.500697e-06	-2.001494e-09	-1.063996e+01	-1.391270e+02
1.520000e-06	-1.456545e-06	-1.987265e-09	-1.032692e+01	-1.383922e+02
1.530000e-06	-1.412233e-06	-1.978467e-09	-1.001275e+01	-1.376391e+02
1.540000e-06	-1.367820e-06	-1.970668e-09	-9.697862e+00	-1.368679e+02
1.550000e-06	-1.323372e-06	-1.959912e-09	-9.382719e+00	-1.360788e+02
1.560000e-06	-1.278831e-06	-1.947306e-09	-9.066926e+00	-1.352718e+02
1.570000e-06	-1.234184e-06	-1.937184e-09	-8.750378e+00	-1.344471e+02
1.580000e-06	-1.189444e-06	-1.926105e-09	-8.433172e+00	-1.336046e+02
1.590000e-06	-1.144680e-06	-1.912395e-09	-8.115795e+00	-1.327442e+02
1.600000e-06	-1.099822e-06	-1.898337e-09	-7.797750e+00	-1.318655e+02
1.610000e-06	-1.054747e-06	-1.886547e-09	-7.478171e+00	-1.309682e+02
1.620000e-06	-1.009575e-06	-1.872766e-09	-7.157896e+00	-1.300518e+02
1.630000e-06	-9.642670e-07	-1.854358e-09	-6.836663e+00	-1.291155e+02
1.640000e-06	-9.187643e-07	-1.835205e-09	-6.514049e+00	-1.281585e+02
1.650000e-06	-8.732471e-07	-1.818609e-09	-6.191331e+00	-1.271797e+02
1.660000e-06	-8.278012e-07	-1.806989e-09	-5.869119e+00	-1.261781e+02
1.670000e-06	-7.823231e-07	-1.795813e-09	-5.546679e+00	-1.251522e+02
1.680000e-06	-7.367914e-07	-1.781855e-09	-5.223859e+00	-1.241007e+02
1.690000e-06	-6.912359e-07	-1.765827e-09	-4.900870e+00	-1.230220e+02
1.700000e-06	-6.456295e-07	-1.750427e-09	-4.577520e+00	-1.219143e+02
1.710000e-06	-5.999302e-07	-1.728686e-09	-4.253512e+00	-1.207758e+02
1.720000e-06	-5.541851e-07	-1.705171e-09	-3.929178e+00	-1.196046e+02
1.730000e-06	-5.084374e-07	-1.684370e-09	-3.604827e+00	-1.183987e+02
1.740000e-06	-4.626641e-07	-1.667168e-09	-3.280294e+00	-1.171562e+02
1.750000e-06	-4.168496e-07	-1.651030e-09	-2.955468e+00	-1.158750e+02
1.760000e-06	-3.710238e-07	-1.635345e-09	-2.630563e+00	-1.145529e+02
1.770000e-06	-3.252869e-07	-1.618390e-09	-2.306288e+00	-1.131881e+02
1.780000e-06	-2.795100e-07	-1.601981e-09	-1.981729e+00	-1.117783e+02
1.790000e-06	-2.336856e-07	-1.582256e-09	-1.656833e+00	-1.103218e+02
1.800000e-06	-1.878353e-07	-1.556022e-09	-1.331755e+00	-1.088165e+02
1.810000e-06	-1.419343e-07	-1.528540e-09	-1.006316e+00	-1.072606e+02
1.820000e-06	-9.602263e-08	-1.504027e-09	-6.808015e-01	-1.056525e+02
1.830000e-06	-5.007867e-08	-1.480592e-09	-3.550583e-01	-1.039905e+02
1.840000e-06	-4.121610e-09	-1.454939e-09	-2.922226e-02	-1.022731e+02
1.850000e-06	4.181293e-08	-1.427964e-09	2.964541e-01	-1.004989e+02
1.860000e-06	8.768983e-08	-1.399845e-09	6.217218e-01	-9.866667e+01
1.870000e-06	1.335300e-07	-1.373070e-09	9.467292e-01	-9.677531e+01
1.880000e-06	1.793955e-07	-1.345004e-09	1.271916e+00	-9.482381e+01
1.890000e-06	2.252875e-07	-1.314439e-09	1.597291e+00	-9.281132e+01
1.900000e-06	2.711745e-07	-1.284910e-09	1.922630e+00	-9.073708e+01
1.910000e-06	3.171466e-07	-1.254238e-09	2.248573e+00	-8.860049e+01
1.920000e-06	3.631054e-07	-1.216551e-09	2.574421e+00	-8.640104e+01
1.930000e-06	4.089894e-07	-1.174237e-09	2.899739e+00	-8.413832e+01
1.940000e-06	4.548149e-07	-1.132927e-09	3.224642e+00	-8.181205e+01
1.950000e-06	5.005590e-07	-1.097637e-09	3.548969e+00	-7.942203e+01
1.960000e-06	5.463305e-07	-1.065945e-09	3.873489e+00	-7.696813e+01
1.970000e-06	5.920673e-07	-1.033058e-09	4.197764e+00	-7.445032e+01
1.980000e-06	6.376984e-07	-1.000231e-09	4.521289e+00	-7.186867e+01
1.990000e-06	6.832139e-07	-9.646913e-10	4.843994e+00	-6.922328e+01
2.000000e-06	7.287315e-07	-9.234017e-10	5.166714e+00	-6.651438e+01
2.010000e-06	7.742685e-07	-8.781197e-10	5.489572e+00	-6.374224e+01
2.020000e-06	8.197241e-07	-8.300870e-10	5.811853e+00	-6.090723e+01
2.030000e-06	8.651195e-07	-7.827567e-10	6.133707e+00	-5.800980e+01
2.040000e-06	9.103926e-07	-7.381912e-10	6.454693e+00	-5.505050e+01
2.050000e-06	9.556115e-07	-6.944549e-10	6.775295e+00	-5.203000e+01
2.060000e-06	1.000867e-06	-6.527987e-10	7.096160e+00	-4.894908e+01
2.070000e-06	1.046027e-06	-6.123575e-10	7.416340e+00	-4.580865e+01
2.080000e-06	1.090982e-06	-5.694516e-10	7.735074e+00	-4.260977e+01
2.090000e-06	1.135860e-06	-5.222268e-10	8.053260e+00	-3.935368e+01
2.100000e-06	1.180648e-06	-4.717805e-10	8.370807e+00	-3.604178e+01
2.110000e-06	1.225240e-06	-4.199415e-10	8.686963e+00	-3.267570e+01
2.120000e-06	1.269849e-06	-3.666847e-10	9.003246e+00	-2.925727e+01
2.130000e-06	1.314439e-06	-3.131246e-10	9.319390e+00	-2.578855e+01
2.140000e-06	1.358901e-06	-2.603045e-10	9.634622e+00	-2.227185e+01
2.150000e-06	1.403315e-06	-2.085837e-10	9.949516e+00	-1.870974e+01
2.160000e-06	1.447578e-06	-1.571314e-10	1.026334e+01	-1.510507e+01
2.170000e-06	1.491690e-06	-1.066312e-10	1.057610e+01	-1.146096e+01
2.180000e-06	1.535799e-06	-5.369373e-11	1.088883e+01	-7.780796e+00
2.190000e-06	1.579843e-06	2.467510e-12	1.120111e+01	-4.068272e+00
2.200000e-06	1.623784e-06	5.866966e-11	1.151265e+01	-3.273363e-01
2.210000e-06	1.667699e-06	1.140023e-10	1.182401e+01	3.437788e+00
2.220000e-06	1.711558e-06	1.683620e-10	1.213497e+01	7.222625e+00
2.230000e-06	1.755322e-06	2.253887e-10	1.244525e+01	1.102246e+01
2.240000e-06	1.798989e-06	2.856040e-10	1.275485e+01	1.483237e+01
2.250000e-06	1.842610e-06	3.451034e-10	1.306412e+01	1.864724e+01
2.260000e-06	1.886174e-06	4.014508e-10	1.337299e+01	2.246180e+01
2.270000e-06	1.929688e-06	4.569290e-10	1.368151e+01	2.627065e+01
2.280000e-06	1.973093e-06	5.117148e-10	1.398925e+01	3.006831e+01
2.290000e-06	2.016287e-06	5.633416e-10	1.429550e+01	3.384925e+01
2.300000e-06	2.059325e-06	6.141945e-10	1.460064e+01	3.760794e+01
2.310000e-06	2.102168e-06	6.653246e-10	1.490439e+01	4.133889e+01
2.320000e-06	2.144747e-06	7.187119e-10	1.520628e+01	4.503667e+01
2.330000e-06	2.186945e-06	7.755789e-10	1.550546e+01	4.869602e+01
2.340000e-06	2.228782e-06	8.308275e-10	1.580209e+01	5.231183e+01
2.350000e-06	2.270478e-06	8.827407e-10	1.609771e+01	5.587919e+01
2.360000e-06	2.311942e-06	9.331988e-10	1.639169e+01	5.939348e+01
2.370000e-06	2.353040e-06	9.819515e-10	1.668308e+01	6.285033e+01
2.380000e-06	2.393910e-06	1.027185e-09	1.697284e+01	6.624574e+01
2.390000e-06	2.434560e-06	1.068159e-09	1.726106e+01	6.957604e+01
2.400000e-06	2.474917e-06	1.108245e-09	1.754719e+01	7.283795e+01
2.410000e-06	2.515050e-06	1.150606e-09	1.783173e+01	7.602859e+01
2.420000e-06	2.555078e-06	1.196975e-09	1.811553e+01	7.914549e+01
2.430000e-06	2.595038e-06	1.245774e-09	1.839885e+01	8.218663e+01
2.440000e-06	2.634928e-06	1.292937e-09	1.868167e+01	8.515039e+01
2.450000e-06	2.674732e-06	1.335027e-09	1.896388e+01	8.803561e+01
2.460000e-06	2.714382e-06	1.373483e-09	1.924500e+01	9.084153e+01
2.470000e-06	2.753888e-06	1.412318e-09	1.952509e+01	9.356780e+01
2.480000e-06	2.793333e-06	1.448626e-09	1.980476e+01	9.621447e+01
2.490000e-06	2.832562e-06	1.482819e-09	2.008289e+01	9.878195e+01
2.500000e-06	2.871560e-06	1.519446e-09	2.035939e+01	1.012710e+02
2.510000e-06	2.910445e-06	1.556603e-09	2.063508e+01	1.036826e+02
2.520000e-06	2.948955e-06	1.591709e-09	2.090812e+01	1.060182e+02
2.530000e-06	2.987175e-06	1.619532e-09	2.117910e+01	1.082794e+02
2.540000e-06	3.025263e-06	1.643741e-09	2.144914e+01	1.104678e+02
2.550000e-06	3.063111e-06	1.673023e-09	2.171749e+01	1.125854e+02
2.560000e-06	3.100817e-06	1.707397e-09	2.198483e+01	1.146344e+02
2.570000e-06	3.138414e-06	1.740682e-09	2.225139e+01	1.166168e+02
2.580000e-06	3.175777e-06	1.770076e-09	2.251629e+01	1.185348e+02
2.590000e-06	3.212825e-06	1.797715e-09	2.277896e+01	1.203906e+02
2.600000e-06	3.249621e-06	1.823548e-09	2.303985e+01	1.221864e+02
2.610000e-06	3.286175e-06	1.842904e-09	2.329902e+01	1.239244e+02
2.620000e-06	3.322493e-06	1.860092e-09	2.355651e+01	1.256066e+02
2.630000e-06	3.358608e-06	1.882813e-09	2.381257e+01	1.272350e+02
2.640000e-06	3.394593e-06	1.911497e-09	2.406770e+01	1.288115e+02
2.650000e-06	3.430519e-06	1.939566e-09	2.432242e+01	1.303377e+02
2.660000e-06	3.466280e-06	1.965683e-09	2.457596e+01	1.318152e+02
2.670000e-06	3.501865e-06	1.990643e-09	2.482826e+01	1.332456e+02
2.680000e-06	3.537274e-06	2.012550e-09	2.507931e+01	1.346301e+02
2.690000e-06	3.572447e-06	2.026016e-09	2.532869e+01	1.359698e+02
2.700000e-06	3.607264e-06	2.032405e-09	2.557554e+01	1.372660e+02
2.710000e-06	3.641671e-06	2.042804e-09	2.581949e+01	1.385194e+02
2.720000e-06	3.675632e-06	2.062645e-09	2.606027e+01	1.397309e+02
2.730000e-06	3.709077e-06	2.087858e-09	2.629740e+01	1.409012e+02
2.740000e-06	3.742055e-06	2.110638e-09	2.653121e+01	1.420311e+02
2.750000e-06	3.774642e-06	2.131682e-09	2.676225e+01	1.431211e+02
2.760000e-06	3.806955e-06	2.150947e-09	2.699135e+01	1.441718e+02
2.770000e-06	3.839089e-06	2.165087e-09	2.721918e+01	1.451838e+02
2.780000e-06	3.871044e-06	2.171204e-09	2.744574e+01	1.461577e+02
2.790000e-06	3.902845e-06	2.175428e-09	2.767121e+01	1.470941e+02
2.800000e-06	3.934466e-06	2.187100e-09	2.789541e+01	1.479936e+02
2.810000e-06	3.965856e-06	2.205735e-09	2.811796e+01	1.488569e+02
2.820000e-06	3.996964e-06	2.221859e-09	2.833852e+01	1.496848e+02
2.830000e-06	4.027741e-06	2.233574e-09	2.855673e+01	1.504781e+02
2.840000e-06	4.058207e-06	2.246446e-09	2.877273e+01	1.512379e+02
2.850000e-06	4.088427e-06	2.260242e-09	2.898699e+01	1.519650e+02
2.860000e-06	4.118406e-06	2.270105e-09	2.919954e+01	1.526606e+02
2.870000e-06	4.148182e-06	2.276125e-09	2.941066e+01	1.533258e+02
2.880000e-06	4.177723e-06	2.281824e-09	2.962010e+01	1.539620e+02
2.890000e-06	4.206920e-06	2.289862e-09	2.982710e+01	1.545704e+02
2.900000e-06	4.235833e-06	2.297021e-09	3.003210e+01	1.551524e+02
