# Temperatura_=_-0.4
# Concentracion g/m^3_=_4090.0
# C_Vs_to_Am_M_A/Vsm_=_65563218390.804596
# pendiente_HvsI_1/m_=_3716.3
# ordenada_HvsI_A/m_=_1297.0
# frecuencia_Hz_=_135083.51264726452

Tiempo_(s)	Campo_(V.s)	Magnetizacion_(V.s)	Campo_(kA/m)	Magnetizacion_(A/m)
0.000000e+00	-5.413117e-06	-2.636435e-09	-3.838264e+01	-1.671587e+02
1.000000e-08	-5.413296e-06	-2.640303e-09	-3.838390e+01	-1.671409e+02
2.000000e-08	-5.413167e-06	-2.645975e-09	-3.838299e+01	-1.671243e+02
3.000000e-08	-5.412765e-06	-2.651570e-09	-3.838014e+01	-1.671101e+02
4.000000e-08	-5.412013e-06	-2.653695e-09	-3.837481e+01	-1.670995e+02
5.000000e-08	-5.410645e-06	-2.652293e-09	-3.836511e+01	-1.670936e+02
6.000000e-08	-5.408801e-06	-2.658767e-09	-3.835203e+01	-1.670936e+02
7.000000e-08	-5.406505e-06	-2.659514e-09	-3.833575e+01	-1.671006e+02
8.000000e-08	-5.403530e-06	-2.604631e-09	-3.831466e+01	-1.671158e+02
9.000000e-08	-5.399901e-06	-2.573722e-09	-3.828893e+01	-1.671399e+02
1.000000e-07	-5.395849e-06	-2.679245e-09	-3.826020e+01	-1.671740e+02
1.100000e-07	-5.391493e-06	-2.717809e-09	-3.822931e+01	-1.672187e+02
1.200000e-07	-5.386959e-06	-2.596637e-09	-3.819716e+01	-1.672746e+02
1.300000e-07	-5.382255e-06	-2.539863e-09	-3.816380e+01	-1.673420e+02
1.400000e-07	-5.377136e-06	-2.666725e-09	-3.812751e+01	-1.674212e+02
1.500000e-07	-5.371516e-06	-2.752822e-09	-3.808766e+01	-1.675121e+02
1.600000e-07	-5.365547e-06	-2.560099e-09	-3.804534e+01	-1.676145e+02
1.700000e-07	-5.359291e-06	-2.490808e-09	-3.800098e+01	-1.677281e+02
1.800000e-07	-5.352577e-06	-2.631241e-09	-3.795337e+01	-1.678522e+02
1.900000e-07	-5.345342e-06	-2.724525e-09	-3.790207e+01	-1.679860e+02
2.000000e-07	-5.337839e-06	-2.564271e-09	-3.784886e+01	-1.681285e+02
2.100000e-07	-5.330281e-06	-2.538889e-09	-3.779527e+01	-1.682784e+02
2.200000e-07	-5.322515e-06	-2.648214e-09	-3.774021e+01	-1.684345e+02
2.300000e-07	-5.314334e-06	-2.640779e-09	-3.768220e+01	-1.685953e+02
2.400000e-07	-5.305733e-06	-2.524995e-09	-3.762121e+01	-1.687591e+02
2.500000e-07	-5.296733e-06	-2.589034e-09	-3.755739e+01	-1.689243e+02
2.600000e-07	-5.287010e-06	-2.684050e-09	-3.748845e+01	-1.690891e+02
2.700000e-07	-5.276508e-06	-2.583073e-09	-3.741398e+01	-1.692516e+02
2.800000e-07	-5.265548e-06	-2.536298e-09	-3.733627e+01	-1.694102e+02
2.900000e-07	-5.254127e-06	-2.654248e-09	-3.725529e+01	-1.695630e+02
3.000000e-07	-5.242229e-06	-2.661040e-09	-3.717093e+01	-1.697083e+02
3.100000e-07	-5.230038e-06	-2.517828e-09	-3.708448e+01	-1.698445e+02
3.200000e-07	-5.217550e-06	-2.571963e-09	-3.699594e+01	-1.699699e+02
3.300000e-07	-5.204677e-06	-2.667836e-09	-3.690466e+01	-1.700833e+02
3.400000e-07	-5.191372e-06	-2.615945e-09	-3.681031e+01	-1.701833e+02
3.500000e-07	-5.177702e-06	-2.546470e-09	-3.671339e+01	-1.702688e+02
3.600000e-07	-5.163646e-06	-2.631311e-09	-3.661372e+01	-1.703390e+02
3.700000e-07	-5.149122e-06	-2.619113e-09	-3.651074e+01	-1.703931e+02
3.800000e-07	-5.134275e-06	-2.577032e-09	-3.640546e+01	-1.704307e+02
3.900000e-07	-5.118834e-06	-2.597506e-09	-3.629597e+01	-1.704514e+02
4.000000e-07	-5.102755e-06	-2.615441e-09	-3.618196e+01	-1.704551e+02
4.100000e-07	-5.086235e-06	-2.552264e-09	-3.606483e+01	-1.704419e+02
4.200000e-07	-5.069408e-06	-2.592990e-09	-3.594551e+01	-1.704121e+02
4.300000e-07	-5.052214e-06	-2.634261e-09	-3.582359e+01	-1.703662e+02
4.400000e-07	-5.034677e-06	-2.583307e-09	-3.569924e+01	-1.703048e+02
4.500000e-07	-5.016928e-06	-2.544604e-09	-3.557339e+01	-1.702287e+02
4.600000e-07	-4.998852e-06	-2.599847e-09	-3.544522e+01	-1.701387e+02
4.700000e-07	-4.980347e-06	-2.586399e-09	-3.531401e+01	-1.700360e+02
4.800000e-07	-4.961443e-06	-2.541464e-09	-3.517996e+01	-1.699214e+02
4.900000e-07	-4.942229e-06	-2.545886e-09	-3.504372e+01	-1.697963e+02
5.000000e-07	-4.922609e-06	-2.568329e-09	-3.490461e+01	-1.696617e+02
5.100000e-07	-4.902676e-06	-2.567355e-09	-3.476326e+01	-1.695189e+02
5.200000e-07	-4.882563e-06	-2.569618e-09	-3.462065e+01	-1.693689e+02
5.300000e-07	-4.862280e-06	-2.553610e-09	-3.447683e+01	-1.692130e+02
5.400000e-07	-4.841764e-06	-2.539012e-09	-3.433136e+01	-1.690521e+02
5.500000e-07	-4.820865e-06	-2.558432e-09	-3.418317e+01	-1.688872e+02
5.600000e-07	-4.799536e-06	-2.554277e-09	-3.403194e+01	-1.687193e+02
5.700000e-07	-4.777851e-06	-2.524419e-09	-3.387817e+01	-1.685491e+02
5.800000e-07	-4.755921e-06	-2.520508e-09	-3.372267e+01	-1.683772e+02
5.900000e-07	-4.733721e-06	-2.544591e-09	-3.356526e+01	-1.682044e+02
6.000000e-07	-4.711069e-06	-2.547064e-09	-3.340464e+01	-1.680309e+02
6.100000e-07	-4.688075e-06	-2.538968e-09	-3.324160e+01	-1.678571e+02
6.200000e-07	-4.664799e-06	-2.517700e-09	-3.307656e+01	-1.676831e+02
6.300000e-07	-4.641161e-06	-2.518233e-09	-3.290895e+01	-1.675092e+02
6.400000e-07	-4.617288e-06	-2.526832e-09	-3.273968e+01	-1.673351e+02
6.500000e-07	-4.593274e-06	-2.522365e-09	-3.256940e+01	-1.671608e+02
6.600000e-07	-4.569078e-06	-2.494182e-09	-3.239783e+01	-1.669860e+02
6.700000e-07	-4.544583e-06	-2.501023e-09	-3.222415e+01	-1.668105e+02
6.800000e-07	-4.519675e-06	-2.514746e-09	-3.204753e+01	-1.666339e+02
6.900000e-07	-4.494174e-06	-2.514537e-09	-3.186671e+01	-1.664558e+02
7.000000e-07	-4.468039e-06	-2.493008e-09	-3.168140e+01	-1.662758e+02
7.100000e-07	-4.441434e-06	-2.488402e-09	-3.149275e+01	-1.660934e+02
7.200000e-07	-4.414402e-06	-2.491092e-09	-3.130108e+01	-1.659082e+02
7.300000e-07	-4.386970e-06	-2.499585e-09	-3.110656e+01	-1.657198e+02
7.400000e-07	-4.359285e-06	-2.483044e-09	-3.091026e+01	-1.655278e+02
7.500000e-07	-4.331462e-06	-2.469646e-09	-3.071298e+01	-1.653319e+02
7.600000e-07	-4.303481e-06	-2.471877e-09	-3.051457e+01	-1.651316e+02
7.700000e-07	-4.275312e-06	-2.481067e-09	-3.031484e+01	-1.649268e+02
7.800000e-07	-4.246797e-06	-2.468681e-09	-3.011265e+01	-1.647172e+02
7.900000e-07	-4.217958e-06	-2.457469e-09	-2.990815e+01	-1.645027e+02
8.000000e-07	-4.188808e-06	-2.458025e-09	-2.970146e+01	-1.642832e+02
8.100000e-07	-4.159252e-06	-2.463430e-09	-2.949189e+01	-1.640587e+02
8.200000e-07	-4.129449e-06	-2.458525e-09	-2.928057e+01	-1.638293e+02
8.300000e-07	-4.099473e-06	-2.446432e-09	-2.906802e+01	-1.635949e+02
8.400000e-07	-4.069285e-06	-2.439447e-09	-2.885396e+01	-1.633557e+02
8.500000e-07	-4.038801e-06	-2.442229e-09	-2.863781e+01	-1.631119e+02
8.600000e-07	-4.007969e-06	-2.441137e-09	-2.841919e+01	-1.628637e+02
8.700000e-07	-3.976856e-06	-2.428262e-09	-2.819858e+01	-1.626112e+02
8.800000e-07	-3.945515e-06	-2.421045e-09	-2.797635e+01	-1.623547e+02
8.900000e-07	-3.913909e-06	-2.419238e-09	-2.775225e+01	-1.620943e+02
9.000000e-07	-3.882126e-06	-2.420480e-09	-2.752688e+01	-1.618303e+02
9.100000e-07	-3.850241e-06	-2.412436e-09	-2.730080e+01	-1.615629e+02
9.200000e-07	-3.818163e-06	-2.406635e-09	-2.707334e+01	-1.612921e+02
9.300000e-07	-3.785861e-06	-2.404291e-09	-2.684430e+01	-1.610182e+02
9.400000e-07	-3.753344e-06	-2.405178e-09	-2.661373e+01	-1.607411e+02
9.500000e-07	-3.720461e-06	-2.395814e-09	-2.638057e+01	-1.604610e+02
9.600000e-07	-3.687181e-06	-2.389287e-09	-2.614459e+01	-1.601777e+02
9.700000e-07	-3.653442e-06	-2.385376e-09	-2.590536e+01	-1.598913e+02
9.800000e-07	-3.619142e-06	-2.387037e-09	-2.566215e+01	-1.596016e+02
9.900000e-07	-3.584425e-06	-2.380714e-09	-2.541598e+01	-1.593086e+02
1.000000e-06	-3.549371e-06	-2.373990e-09	-2.516743e+01	-1.590119e+02
1.010000e-06	-3.514004e-06	-2.369933e-09	-2.491665e+01	-1.587115e+02
1.020000e-06	-3.478416e-06	-2.370459e-09	-2.466430e+01	-1.584071e+02
1.030000e-06	-3.442660e-06	-2.360820e-09	-2.441078e+01	-1.580983e+02
1.040000e-06	-3.406743e-06	-2.349986e-09	-2.415609e+01	-1.577851e+02
1.050000e-06	-3.370663e-06	-2.342610e-09	-2.390027e+01	-1.574671e+02
1.060000e-06	-3.334446e-06	-2.344797e-09	-2.364347e+01	-1.571441e+02
1.070000e-06	-3.298093e-06	-2.341744e-09	-2.338570e+01	-1.568157e+02
1.080000e-06	-3.261566e-06	-2.332749e-09	-2.312669e+01	-1.564820e+02
1.090000e-06	-3.224810e-06	-2.320299e-09	-2.286607e+01	-1.561425e+02
1.100000e-06	-3.187891e-06	-2.312567e-09	-2.260429e+01	-1.557973e+02
1.110000e-06	-3.150766e-06	-2.304211e-09	-2.234105e+01	-1.554462e+02
1.120000e-06	-3.113268e-06	-2.292696e-09	-2.207516e+01	-1.550892e+02
1.130000e-06	-3.075498e-06	-2.285133e-09	-2.180735e+01	-1.547262e+02
1.140000e-06	-3.037567e-06	-2.285879e-09	-2.153839e+01	-1.543573e+02
1.150000e-06	-2.999439e-06	-2.290178e-09	-2.126804e+01	-1.539825e+02
1.160000e-06	-2.961093e-06	-2.286949e-09	-2.099614e+01	-1.536020e+02
1.170000e-06	-2.922582e-06	-2.275870e-09	-2.072307e+01	-1.532160e+02
1.180000e-06	-2.883896e-06	-2.262756e-09	-2.044876e+01	-1.528245e+02
1.190000e-06	-2.845011e-06	-2.253963e-09	-2.017304e+01	-1.524278e+02
1.200000e-06	-2.805925e-06	-2.243124e-09	-1.989589e+01	-1.520261e+02
1.210000e-06	-2.766583e-06	-2.232709e-09	-1.961693e+01	-1.516196e+02
1.220000e-06	-2.727027e-06	-2.226496e-09	-1.933645e+01	-1.512084e+02
1.230000e-06	-2.687332e-06	-2.226949e-09	-1.905499e+01	-1.507927e+02
1.240000e-06	-2.647481e-06	-2.224146e-09	-1.877242e+01	-1.503727e+02
1.250000e-06	-2.607538e-06	-2.217366e-09	-1.848920e+01	-1.499483e+02
1.260000e-06	-2.567492e-06	-2.205858e-09	-1.820525e+01	-1.495196e+02
1.270000e-06	-2.527270e-06	-2.195447e-09	-1.792004e+01	-1.490866e+02
1.280000e-06	-2.486978e-06	-2.184226e-09	-1.763434e+01	-1.486490e+02
1.290000e-06	-2.446630e-06	-2.175839e-09	-1.734825e+01	-1.482067e+02
1.300000e-06	-2.406152e-06	-2.167832e-09	-1.706124e+01	-1.477594e+02
1.310000e-06	-2.365471e-06	-2.165985e-09	-1.677278e+01	-1.473066e+02
1.320000e-06	-2.324542e-06	-2.163674e-09	-1.648256e+01	-1.468479e+02
1.330000e-06	-2.283374e-06	-2.157154e-09	-1.619066e+01	-1.463827e+02
1.340000e-06	-2.241881e-06	-2.146232e-09	-1.589644e+01	-1.459104e+02
1.350000e-06	-2.200028e-06	-2.135560e-09	-1.559967e+01	-1.454301e+02
1.360000e-06	-2.157942e-06	-2.122188e-09	-1.530126e+01	-1.449412e+02
1.370000e-06	-2.115605e-06	-2.111382e-09	-1.500106e+01	-1.444426e+02
1.380000e-06	-2.072890e-06	-2.103918e-09	-1.469818e+01	-1.439335e+02
1.390000e-06	-2.030034e-06	-2.096382e-09	-1.439430e+01	-1.434129e+02
1.400000e-06	-1.987005e-06	-2.088639e-09	-1.408920e+01	-1.428798e+02
1.410000e-06	-1.943668e-06	-2.079717e-09	-1.378192e+01	-1.423332e+02
1.420000e-06	-1.900239e-06	-2.068530e-09	-1.347397e+01	-1.417721e+02
1.430000e-06	-1.856753e-06	-2.057892e-09	-1.316562e+01	-1.411955e+02
1.440000e-06	-1.813118e-06	-2.049138e-09	-1.285622e+01	-1.406024e+02
1.450000e-06	-1.769350e-06	-2.039280e-09	-1.254588e+01	-1.399920e+02
1.460000e-06	-1.725474e-06	-2.028480e-09	-1.223477e+01	-1.393633e+02
1.470000e-06	-1.681476e-06	-2.014337e-09	-1.192279e+01	-1.387156e+02
1.480000e-06	-1.637432e-06	-1.999952e-09	-1.161050e+01	-1.380480e+02
1.490000e-06	-1.593346e-06	-1.988771e-09	-1.129790e+01	-1.373600e+02
1.500000e-06	-1.549194e-06	-1.981141e-09	-1.098483e+01	-1.366510e+02
1.510000e-06	-1.504987e-06	-1.971169e-09	-1.067137e+01	-1.359204e+02
1.520000e-06	-1.460699e-06	-1.959193e-09	-1.035734e+01	-1.351679e+02
1.530000e-06	-1.416311e-06	-1.950505e-09	-1.004259e+01	-1.343930e+02
1.540000e-06	-1.371793e-06	-1.946121e-09	-9.726934e+00	-1.335955e+02
1.550000e-06	-1.327279e-06	-1.936196e-09	-9.411299e+00	-1.327751e+02
1.560000e-06	-1.282748e-06	-1.918041e-09	-9.095548e+00	-1.319316e+02
1.570000e-06	-1.238117e-06	-1.900156e-09	-8.779081e+00	-1.310649e+02
1.580000e-06	-1.193404e-06	-1.887384e-09	-8.462035e+00	-1.301748e+02
1.590000e-06	-1.148538e-06	-1.874630e-09	-8.143906e+00	-1.292611e+02
1.600000e-06	-1.103525e-06	-1.859054e-09	-7.824734e+00	-1.283237e+02
1.610000e-06	-1.058451e-06	-1.843144e-09	-7.505127e+00	-1.273623e+02
1.620000e-06	-1.013336e-06	-1.831646e-09	-7.185234e+00	-1.263766e+02
1.630000e-06	-9.680712e-07	-1.819130e-09	-6.864275e+00	-1.253663e+02
1.640000e-06	-9.227188e-07	-1.804165e-09	-6.542696e+00	-1.243309e+02
1.650000e-06	-8.772602e-07	-1.784390e-09	-6.220364e+00	-1.232698e+02
1.660000e-06	-8.317387e-07	-1.763984e-09	-5.897586e+00	-1.221825e+02
1.670000e-06	-7.862794e-07	-1.747642e-09	-5.575249e+00	-1.210680e+02
1.680000e-06	-7.407231e-07	-1.729214e-09	-5.252224e+00	-1.199254e+02
1.690000e-06	-6.950609e-07	-1.706327e-09	-4.928449e+00	-1.187537e+02
1.700000e-06	-6.493783e-07	-1.687154e-09	-4.604529e+00	-1.175516e+02
1.710000e-06	-6.036756e-07	-1.675745e-09	-4.280466e+00	-1.163178e+02
1.720000e-06	-5.579414e-07	-1.662152e-09	-3.956179e+00	-1.150507e+02
1.730000e-06	-5.121516e-07	-1.641635e-09	-3.631499e+00	-1.137486e+02
1.740000e-06	-4.663155e-07	-1.614225e-09	-3.306490e+00	-1.124099e+02
1.750000e-06	-4.204754e-07	-1.586174e-09	-2.981453e+00	-1.110327e+02
1.760000e-06	-3.746085e-07	-1.565030e-09	-2.656226e+00	-1.096150e+02
1.770000e-06	-3.286468e-07	-1.544247e-09	-2.330327e+00	-1.081548e+02
1.780000e-06	-2.827021e-07	-1.522266e-09	-2.004548e+00	-1.066502e+02
1.790000e-06	-2.368139e-07	-1.504245e-09	-1.679169e+00	-1.050989e+02
1.800000e-06	-1.908643e-07	-1.485293e-09	-1.353356e+00	-1.034990e+02
1.810000e-06	-1.449624e-07	-1.462193e-09	-1.027881e+00	-1.018485e+02
1.820000e-06	-9.915851e-08	-1.433474e-09	-7.031004e-01	-1.001454e+02
1.830000e-06	-5.335486e-08	-1.403491e-09	-3.783218e-01	-9.838781e+01
1.840000e-06	-7.572005e-09	-1.376789e-09	-5.369060e-02	-9.657406e+01
1.850000e-06	3.830393e-08	-1.349593e-09	2.716006e-01	-9.470254e+01
1.860000e-06	8.427877e-08	-1.318519e-09	5.975931e-01	-9.277180e+01
1.870000e-06	1.302426e-07	-1.286956e-09	9.235075e-01	-9.078060e+01
1.880000e-06	1.761805e-07	-1.256286e-09	1.249238e+00	-8.872790e+01
1.890000e-06	2.221050e-07	-1.225235e-09	1.574874e+00	-8.661287e+01
1.900000e-06	2.680379e-07	-1.191245e-09	1.900569e+00	-8.443493e+01
1.910000e-06	3.139458e-07	-1.154747e-09	2.226086e+00	-8.219371e+01
1.920000e-06	3.598313e-07	-1.120799e-09	2.551446e+00	-7.988911e+01
1.930000e-06	4.056888e-07	-1.089261e-09	2.876606e+00	-7.752126e+01
1.940000e-06	4.514909e-07	-1.056114e-09	3.201374e+00	-7.509054e+01
1.950000e-06	4.972610e-07	-1.019867e-09	3.525914e+00	-7.259756e+01
1.960000e-06	5.430107e-07	-9.811153e-10	3.850311e+00	-7.004317e+01
1.970000e-06	5.887209e-07	-9.391869e-10	4.174427e+00	-6.742841e+01
1.980000e-06	6.343252e-07	-8.949958e-10	4.497792e+00	-6.475455e+01
1.990000e-06	6.798708e-07	-8.518191e-10	4.820741e+00	-6.202303e+01
2.000000e-06	7.254087e-07	-8.136040e-10	5.143635e+00	-5.923546e+01
2.010000e-06	7.709027e-07	-7.777248e-10	5.466218e+00	-5.639359e+01
2.020000e-06	8.163413e-07	-7.387082e-10	5.788409e+00	-5.349932e+01
2.030000e-06	8.617099e-07	-6.969131e-10	6.110102e+00	-5.055462e+01
2.040000e-06	9.069993e-07	-6.525596e-10	6.431234e+00	-4.756158e+01
2.050000e-06	9.522189e-07	-6.045188e-10	6.751872e+00	-4.452234e+01
2.060000e-06	9.974117e-07	-5.554994e-10	7.072319e+00	-4.143911e+01
2.070000e-06	1.042524e-06	-5.084536e-10	7.392193e+00	-3.831411e+01
2.080000e-06	1.087491e-06	-4.659418e-10	7.711042e+00	-3.514960e+01
2.090000e-06	1.132443e-06	-4.252234e-10	8.029778e+00	-3.194784e+01
2.100000e-06	1.177307e-06	-3.829926e-10	8.347900e+00	-2.871110e+01
2.110000e-06	1.221987e-06	-3.370536e-10	8.664708e+00	-2.544164e+01
2.120000e-06	1.266586e-06	-2.856864e-10	8.980948e+00	-2.214172e+01
2.130000e-06	1.311063e-06	-2.304624e-10	9.296318e+00	-1.881356e+01
2.140000e-06	1.355432e-06	-1.739931e-10	9.610924e+00	-1.545942e+01
2.150000e-06	1.399717e-06	-1.206610e-10	9.924932e+00	-1.208154e+01
2.160000e-06	1.443921e-06	-7.359936e-11	1.023837e+01	-8.682148e+00
2.170000e-06	1.488148e-06	-2.919251e-11	1.055197e+01	-5.263513e+00
2.180000e-06	1.532370e-06	1.822274e-11	1.086554e+01	-1.827917e+00
2.190000e-06	1.576511e-06	6.963368e-11	1.117852e+01	1.622318e+00
2.200000e-06	1.620579e-06	1.225671e-10	1.149099e+01	5.084819e+00
2.210000e-06	1.664558e-06	1.764778e-10	1.180284e+01	8.557155e+00
2.220000e-06	1.708516e-06	2.323849e-10	1.211452e+01	1.203682e+01
2.230000e-06	1.752424e-06	2.886400e-10	1.242586e+01	1.552122e+01
2.240000e-06	1.796249e-06	3.409843e-10	1.273661e+01	1.900766e+01
2.250000e-06	1.839992e-06	3.887810e-10	1.304678e+01	2.249337e+01
2.260000e-06	1.883629e-06	4.364229e-10	1.335619e+01	2.597545e+01
2.270000e-06	1.927158e-06	4.858898e-10	1.366485e+01	2.945088e+01
2.280000e-06	1.970439e-06	5.367700e-10	1.397174e+01	3.291656e+01
2.290000e-06	2.013452e-06	5.861079e-10	1.427672e+01	3.636927e+01
2.300000e-06	2.056382e-06	6.366778e-10	1.458113e+01	3.980568e+01
2.310000e-06	2.099135e-06	6.896838e-10	1.488428e+01	4.322240e+01
2.320000e-06	2.141546e-06	7.403989e-10	1.518500e+01	4.661593e+01
2.330000e-06	2.183723e-06	7.881281e-10	1.548406e+01	4.998273e+01
2.340000e-06	2.225589e-06	8.340962e-10	1.578092e+01	5.331925e+01
2.350000e-06	2.267059e-06	8.825642e-10	1.607497e+01	5.662188e+01
2.360000e-06	2.308235e-06	9.338000e-10	1.636694e+01	5.988704e+01
2.370000e-06	2.349167e-06	9.820312e-10	1.665717e+01	6.311121e+01
2.380000e-06	2.389911e-06	1.026615e-09	1.694607e+01	6.629092e+01
2.390000e-06	2.430398e-06	1.071751e-09	1.723315e+01	6.942280e+01
2.400000e-06	2.470618e-06	1.116487e-09	1.751834e+01	7.250360e+01
2.410000e-06	2.510760e-06	1.156936e-09	1.780298e+01	7.553026e+01
2.420000e-06	2.550862e-06	1.194746e-09	1.808732e+01	7.849988e+01
2.430000e-06	2.590844e-06	1.238276e-09	1.837082e+01	8.140980e+01
2.440000e-06	2.630782e-06	1.287271e-09	1.865401e+01	8.425758e+01
2.450000e-06	2.670703e-06	1.331527e-09	1.893708e+01	8.704107e+01
2.460000e-06	2.710480e-06	1.370495e-09	1.921912e+01	8.975838e+01
2.470000e-06	2.750053e-06	1.407732e-09	1.949972e+01	9.240796e+01
2.480000e-06	2.789454e-06	1.443698e-09	1.977910e+01	9.498854e+01
2.490000e-06	2.828605e-06	1.477878e-09	2.005671e+01	9.749918e+01
2.500000e-06	2.867495e-06	1.509950e-09	2.033247e+01	9.993929e+01
2.510000e-06	2.906124e-06	1.543162e-09	2.060637e+01	1.023086e+02
2.520000e-06	2.944513e-06	1.579222e-09	2.087858e+01	1.046071e+02
2.530000e-06	2.982797e-06	1.612856e-09	2.115003e+01	1.068351e+02
2.540000e-06	3.020915e-06	1.641820e-09	2.142032e+01	1.089934e+02
2.550000e-06	3.058863e-06	1.669606e-09	2.168940e+01	1.110828e+02
2.560000e-06	3.096661e-06	1.699687e-09	2.195741e+01	1.131045e+02
2.570000e-06	3.134252e-06	1.727880e-09	2.222396e+01	1.150599e+02
2.580000e-06	3.171596e-06	1.752655e-09	2.248874e+01	1.169506e+02
2.590000e-06	3.208687e-06	1.777146e-09	2.275175e+01	1.187784e+02
2.600000e-06	3.245515e-06	1.803901e-09	2.301288e+01	1.205452e+02
2.610000e-06	3.282069e-06	1.831784e-09	2.327207e+01	1.222530e+02
2.620000e-06	3.318449e-06	1.856403e-09	2.353003e+01	1.239038e+02
2.630000e-06	3.354654e-06	1.879294e-09	2.378675e+01	1.254999e+02
2.640000e-06	3.390670e-06	1.903238e-09	2.404213e+01	1.270434e+02
2.650000e-06	3.426556e-06	1.925418e-09	2.429658e+01	1.285362e+02
2.660000e-06	3.462335e-06	1.943664e-09	2.455028e+01	1.299806e+02
2.670000e-06	3.498040e-06	1.963100e-09	2.480345e+01	1.313785e+02
2.680000e-06	3.533615e-06	1.984603e-09	2.505570e+01	1.327318e+02
2.690000e-06	3.568765e-06	2.004640e-09	2.530494e+01	1.340422e+02
2.700000e-06	3.603427e-06	2.020104e-09	2.555072e+01	1.353114e+02
2.710000e-06	3.637711e-06	2.034488e-09	2.579382e+01	1.365409e+02
2.720000e-06	3.671581e-06	2.051912e-09	2.603397e+01	1.377320e+02
2.730000e-06	3.704971e-06	2.070056e-09	2.627074e+01	1.388859e+02
2.740000e-06	3.737873e-06	2.085261e-09	2.650403e+01	1.400037e+02
2.750000e-06	3.770533e-06	2.100539e-09	2.673561e+01	1.410862e+02
2.760000e-06	3.802968e-06	2.119272e-09	2.696560e+01	1.421343e+02
2.770000e-06	3.835109e-06	2.137473e-09	2.719350e+01	1.431486e+02
2.780000e-06	3.867070e-06	2.151361e-09	2.742012e+01	1.441296e+02
2.790000e-06	3.898936e-06	2.163340e-09	2.764608e+01	1.450779e+02
2.800000e-06	3.930758e-06	2.176897e-09	2.787172e+01	1.459937e+02
2.810000e-06	3.962347e-06	2.191298e-09	2.809571e+01	1.468774e+02
2.820000e-06	3.993471e-06	2.203133e-09	2.831639e+01	1.477293e+02
2.830000e-06	4.024257e-06	2.212463e-09	2.853468e+01	1.485497e+02
2.840000e-06	4.054834e-06	2.222286e-09	2.875150e+01	1.493389e+02
2.850000e-06	4.085101e-06	2.235718e-09	2.896611e+01	1.500972e+02
2.860000e-06	4.115007e-06	2.250467e-09	2.917817e+01	1.508251e+02
2.870000e-06	4.144694e-06	2.262370e-09	2.938867e+01	1.515229e+02
2.880000e-06	4.174223e-06	2.272207e-09	2.959805e+01	1.521912e+02
2.890000e-06	4.203457e-06	2.281003e-09	2.980534e+01	1.528306e+02
2.900000e-06	4.232346e-06	2.289775e-09	3.001017e+01	1.534417e+02
