# Temperatura_=_-6.58
# Concentracion g/m^3_=_4090.0
# C_Vs_to_Am_M_A/Vsm_=_65563218390.804596
# pendiente_HvsI_1/m_=_3716.3
# ordenada_HvsI_A/m_=_1297.0
# frecuencia_Hz_=_135060.76742592955

Tiempo_(s)	Campo_(V.s)	Magnetizacion_(V.s)	Campo_(kA/m)	Magnetizacion_(A/m)
0.000000e+00	-5.396028e-06	-2.074541e-09	-3.839498e+01	-1.325939e+02
1.000000e-08	-5.396061e-06	-2.073253e-09	-3.839522e+01	-1.325832e+02
2.000000e-08	-5.395937e-06	-2.072459e-09	-3.839434e+01	-1.325745e+02
3.000000e-08	-5.395549e-06	-2.073754e-09	-3.839158e+01	-1.325695e+02
4.000000e-08	-5.394759e-06	-2.071858e-09	-3.838595e+01	-1.325697e+02
5.000000e-08	-5.393432e-06	-2.065269e-09	-3.837651e+01	-1.325766e+02
6.000000e-08	-5.391450e-06	-2.059635e-09	-3.836241e+01	-1.325916e+02
7.000000e-08	-5.388800e-06	-2.058073e-09	-3.834355e+01	-1.326160e+02
8.000000e-08	-5.385542e-06	-2.063363e-09	-3.832037e+01	-1.326510e+02
9.000000e-08	-5.381744e-06	-2.084962e-09	-3.829334e+01	-1.326976e+02
1.000000e-07	-5.377570e-06	-2.101385e-09	-3.826364e+01	-1.327565e+02
1.100000e-07	-5.373349e-06	-2.071347e-09	-3.823361e+01	-1.328285e+02
1.200000e-07	-5.369029e-06	-2.047363e-09	-3.820287e+01	-1.329139e+02
1.300000e-07	-5.364264e-06	-2.047805e-09	-3.816897e+01	-1.330128e+02
1.400000e-07	-5.358933e-06	-2.079905e-09	-3.813103e+01	-1.331252e+02
1.500000e-07	-5.353228e-06	-2.051754e-09	-3.809044e+01	-1.332506e+02
1.600000e-07	-5.347392e-06	-2.019948e-09	-3.804892e+01	-1.333884e+02
1.700000e-07	-5.341175e-06	-2.053381e-09	-3.800468e+01	-1.335377e+02
1.800000e-07	-5.334288e-06	-2.098371e-09	-3.795568e+01	-1.336974e+02
1.900000e-07	-5.327050e-06	-2.084907e-09	-3.790417e+01	-1.338661e+02
2.000000e-07	-5.319684e-06	-2.039710e-09	-3.785176e+01	-1.340423e+02
2.100000e-07	-5.312082e-06	-2.057052e-09	-3.779767e+01	-1.342242e+02
2.200000e-07	-5.304130e-06	-2.071172e-09	-3.774109e+01	-1.344100e+02
2.300000e-07	-5.295953e-06	-2.058335e-09	-3.768291e+01	-1.345974e+02
2.400000e-07	-5.287496e-06	-2.052666e-09	-3.762273e+01	-1.347845e+02
2.500000e-07	-5.278333e-06	-2.089310e-09	-3.755753e+01	-1.349690e+02
2.600000e-07	-5.268351e-06	-2.094688e-09	-3.748651e+01	-1.351487e+02
2.700000e-07	-5.257791e-06	-2.092184e-09	-3.741137e+01	-1.353214e+02
2.800000e-07	-5.246839e-06	-2.091767e-09	-3.733344e+01	-1.354848e+02
2.900000e-07	-5.235445e-06	-2.087402e-09	-3.725236e+01	-1.356369e+02
3.000000e-07	-5.223624e-06	-2.060968e-09	-3.716825e+01	-1.357758e+02
3.100000e-07	-5.211459e-06	-2.065067e-09	-3.708170e+01	-1.358995e+02
3.200000e-07	-5.198933e-06	-2.086859e-09	-3.699257e+01	-1.360064e+02
3.300000e-07	-5.186036e-06	-2.082307e-09	-3.690080e+01	-1.360950e+02
3.400000e-07	-5.172744e-06	-2.059319e-09	-3.680622e+01	-1.361641e+02
3.500000e-07	-5.159079e-06	-2.062469e-09	-3.670899e+01	-1.362127e+02
3.600000e-07	-5.145104e-06	-2.069105e-09	-3.660955e+01	-1.362398e+02
3.700000e-07	-5.130755e-06	-2.060473e-09	-3.650745e+01	-1.362451e+02
3.800000e-07	-5.115691e-06	-2.049048e-09	-3.640027e+01	-1.362282e+02
3.900000e-07	-5.099807e-06	-2.046733e-09	-3.628725e+01	-1.361890e+02
4.000000e-07	-5.083402e-06	-2.044253e-09	-3.617052e+01	-1.361279e+02
4.100000e-07	-5.066689e-06	-2.046412e-09	-3.605159e+01	-1.360451e+02
4.200000e-07	-5.049666e-06	-2.045599e-09	-3.593047e+01	-1.359414e+02
4.300000e-07	-5.032336e-06	-2.032771e-09	-3.580716e+01	-1.358175e+02
4.400000e-07	-5.014827e-06	-2.035765e-09	-3.568258e+01	-1.356746e+02
4.500000e-07	-4.997086e-06	-2.043808e-09	-3.555634e+01	-1.355137e+02
4.600000e-07	-4.978914e-06	-2.042626e-09	-3.542704e+01	-1.353361e+02
4.700000e-07	-4.960369e-06	-2.028034e-09	-3.529509e+01	-1.351433e+02
4.800000e-07	-4.941500e-06	-2.025939e-09	-3.516082e+01	-1.349366e+02
4.900000e-07	-4.922197e-06	-2.018930e-09	-3.502348e+01	-1.347176e+02
5.000000e-07	-4.902531e-06	-2.016979e-09	-3.488355e+01	-1.344876e+02
5.100000e-07	-4.882646e-06	-2.012198e-09	-3.474205e+01	-1.342482e+02
5.200000e-07	-4.862591e-06	-2.013034e-09	-3.459935e+01	-1.340008e+02
5.300000e-07	-4.842386e-06	-2.018565e-09	-3.445559e+01	-1.337468e+02
5.400000e-07	-4.821907e-06	-2.033862e-09	-3.430987e+01	-1.334873e+02
5.500000e-07	-4.800942e-06	-2.026223e-09	-3.416070e+01	-1.332236e+02
5.600000e-07	-4.779540e-06	-2.010652e-09	-3.400841e+01	-1.329567e+02
5.700000e-07	-4.757867e-06	-2.000552e-09	-3.385420e+01	-1.326875e+02
5.800000e-07	-4.735931e-06	-1.996174e-09	-3.369811e+01	-1.324167e+02
5.900000e-07	-4.713707e-06	-1.983650e-09	-3.353998e+01	-1.321450e+02
6.000000e-07	-4.691133e-06	-1.982812e-09	-3.337936e+01	-1.318728e+02
6.100000e-07	-4.668141e-06	-1.987112e-09	-3.321576e+01	-1.316004e+02
6.200000e-07	-4.644750e-06	-1.990459e-09	-3.304933e+01	-1.313280e+02
6.300000e-07	-4.621104e-06	-1.988703e-09	-3.288108e+01	-1.310557e+02
6.400000e-07	-4.597304e-06	-1.982112e-09	-3.271173e+01	-1.307834e+02
6.500000e-07	-4.573314e-06	-1.968633e-09	-3.254103e+01	-1.305110e+02
6.600000e-07	-4.549143e-06	-1.959590e-09	-3.236904e+01	-1.302381e+02
6.700000e-07	-4.524670e-06	-1.954721e-09	-3.219491e+01	-1.299644e+02
6.800000e-07	-4.499796e-06	-1.948094e-09	-3.201792e+01	-1.296895e+02
6.900000e-07	-4.474506e-06	-1.943324e-09	-3.183797e+01	-1.294130e+02
7.000000e-07	-4.448647e-06	-1.942902e-09	-3.165397e+01	-1.291343e+02
7.100000e-07	-4.422154e-06	-1.942451e-09	-3.146546e+01	-1.288531e+02
7.200000e-07	-4.395153e-06	-1.936972e-09	-3.127334e+01	-1.285687e+02
7.300000e-07	-4.367802e-06	-1.931547e-09	-3.107873e+01	-1.282808e+02
7.400000e-07	-4.340202e-06	-1.923134e-09	-3.088234e+01	-1.279889e+02
7.500000e-07	-4.312378e-06	-1.917126e-09	-3.068436e+01	-1.276926e+02
7.600000e-07	-4.284420e-06	-1.907938e-09	-3.048543e+01	-1.273915e+02
7.700000e-07	-4.256276e-06	-1.899288e-09	-3.028517e+01	-1.270853e+02
7.800000e-07	-4.227855e-06	-1.891889e-09	-3.008294e+01	-1.267738e+02
7.900000e-07	-4.199074e-06	-1.889789e-09	-2.987815e+01	-1.264568e+02
8.000000e-07	-4.169993e-06	-1.884477e-09	-2.967123e+01	-1.261341e+02
8.100000e-07	-4.140659e-06	-1.879682e-09	-2.946251e+01	-1.258056e+02
8.200000e-07	-4.111001e-06	-1.874841e-09	-2.925148e+01	-1.254714e+02
8.300000e-07	-4.081073e-06	-1.874915e-09	-2.903853e+01	-1.251315e+02
8.400000e-07	-4.050948e-06	-1.870447e-09	-2.882418e+01	-1.247858e+02
8.500000e-07	-4.020560e-06	-1.860034e-09	-2.860795e+01	-1.244345e+02
8.600000e-07	-3.989875e-06	-1.844183e-09	-2.838962e+01	-1.240776e+02
8.700000e-07	-3.958952e-06	-1.834024e-09	-2.816959e+01	-1.237153e+02
8.800000e-07	-3.927694e-06	-1.828079e-09	-2.794717e+01	-1.233477e+02
8.900000e-07	-3.896122e-06	-1.824812e-09	-2.772253e+01	-1.229748e+02
9.000000e-07	-3.864367e-06	-1.820464e-09	-2.749658e+01	-1.225968e+02
9.100000e-07	-3.832466e-06	-1.820370e-09	-2.726959e+01	-1.222137e+02
9.200000e-07	-3.800405e-06	-1.822336e-09	-2.704146e+01	-1.218256e+02
9.300000e-07	-3.768189e-06	-1.817956e-09	-2.681223e+01	-1.214325e+02
9.400000e-07	-3.735732e-06	-1.802875e-09	-2.658129e+01	-1.210344e+02
9.500000e-07	-3.702973e-06	-1.785374e-09	-2.634819e+01	-1.206312e+02
9.600000e-07	-3.669930e-06	-1.772702e-09	-2.611307e+01	-1.202228e+02
9.700000e-07	-3.636466e-06	-1.767770e-09	-2.587497e+01	-1.198091e+02
9.800000e-07	-3.602439e-06	-1.765267e-09	-2.563285e+01	-1.193899e+02
9.900000e-07	-3.567869e-06	-1.761902e-09	-2.538687e+01	-1.189651e+02
1.000000e-06	-3.532915e-06	-1.762233e-09	-2.513816e+01	-1.185346e+02
1.010000e-06	-3.497763e-06	-1.763860e-09	-2.488804e+01	-1.180980e+02
1.020000e-06	-3.462400e-06	-1.758675e-09	-2.463642e+01	-1.176552e+02
1.030000e-06	-3.426809e-06	-1.742691e-09	-2.438317e+01	-1.172059e+02
1.040000e-06	-3.391022e-06	-1.728054e-09	-2.412853e+01	-1.167501e+02
1.050000e-06	-3.355061e-06	-1.717565e-09	-2.387265e+01	-1.162875e+02
1.060000e-06	-3.319015e-06	-1.708448e-09	-2.361617e+01	-1.158180e+02
1.070000e-06	-3.282798e-06	-1.697283e-09	-2.335847e+01	-1.153415e+02
1.080000e-06	-3.246326e-06	-1.688021e-09	-2.309896e+01	-1.148580e+02
1.090000e-06	-3.209591e-06	-1.682055e-09	-2.283757e+01	-1.143673e+02
1.100000e-06	-3.172550e-06	-1.679897e-09	-2.257401e+01	-1.138696e+02
1.110000e-06	-3.135259e-06	-1.675038e-09	-2.230867e+01	-1.133649e+02
1.120000e-06	-3.097747e-06	-1.668674e-09	-2.204176e+01	-1.128534e+02
1.130000e-06	-3.060036e-06	-1.659922e-09	-2.177343e+01	-1.123352e+02
1.140000e-06	-3.022216e-06	-1.650502e-09	-2.150432e+01	-1.118105e+02
1.150000e-06	-2.984319e-06	-1.640253e-09	-2.123467e+01	-1.112797e+02
1.160000e-06	-2.946218e-06	-1.629355e-09	-2.096357e+01	-1.107430e+02
1.170000e-06	-2.907814e-06	-1.616530e-09	-2.069030e+01	-1.102007e+02
1.180000e-06	-2.869149e-06	-1.606585e-09	-2.041518e+01	-1.096532e+02
1.190000e-06	-2.830147e-06	-1.604110e-09	-2.013767e+01	-1.091007e+02
1.200000e-06	-2.790787e-06	-1.604219e-09	-1.985761e+01	-1.085436e+02
1.210000e-06	-2.751285e-06	-1.598166e-09	-1.957654e+01	-1.079821e+02
1.220000e-06	-2.711773e-06	-1.587508e-09	-1.929539e+01	-1.074165e+02
1.230000e-06	-2.672150e-06	-1.575478e-09	-1.901346e+01	-1.068471e+02
1.240000e-06	-2.632361e-06	-1.563117e-09	-1.873034e+01	-1.062739e+02
1.250000e-06	-2.592439e-06	-1.549022e-09	-1.844628e+01	-1.056970e+02
1.260000e-06	-2.552461e-06	-1.534829e-09	-1.816182e+01	-1.051164e+02
1.270000e-06	-2.512436e-06	-1.523716e-09	-1.787703e+01	-1.045321e+02
1.280000e-06	-2.472324e-06	-1.516856e-09	-1.759161e+01	-1.039437e+02
1.290000e-06	-2.432089e-06	-1.510645e-09	-1.730532e+01	-1.033511e+02
1.300000e-06	-2.391706e-06	-1.503363e-09	-1.701798e+01	-1.027539e+02
1.310000e-06	-2.351196e-06	-1.497719e-09	-1.672973e+01	-1.021515e+02
1.320000e-06	-2.310431e-06	-1.490132e-09	-1.643968e+01	-1.015434e+02
1.330000e-06	-2.269348e-06	-1.477905e-09	-1.614735e+01	-1.009289e+02
1.340000e-06	-2.228065e-06	-1.462780e-09	-1.585361e+01	-1.003073e+02
1.350000e-06	-2.186551e-06	-1.448020e-09	-1.555822e+01	-9.967778e+01
1.360000e-06	-2.144744e-06	-1.434118e-09	-1.526074e+01	-9.903946e+01
1.370000e-06	-2.102588e-06	-1.423380e-09	-1.496079e+01	-9.839142e+01
1.380000e-06	-2.060170e-06	-1.412865e-09	-1.465896e+01	-9.773272e+01
1.390000e-06	-2.017598e-06	-1.403639e-09	-1.435605e+01	-9.706240e+01
1.400000e-06	-1.974697e-06	-1.397453e-09	-1.405079e+01	-9.637951e+01
1.410000e-06	-1.931632e-06	-1.389166e-09	-1.374436e+01	-9.568313e+01
1.420000e-06	-1.888506e-06	-1.373949e-09	-1.343750e+01	-9.497235e+01
1.430000e-06	-1.845169e-06	-1.357187e-09	-1.312914e+01	-9.424635e+01
1.440000e-06	-1.801658e-06	-1.343271e-09	-1.281954e+01	-9.350436e+01
1.450000e-06	-1.757994e-06	-1.331787e-09	-1.250885e+01	-9.274571e+01
1.460000e-06	-1.714201e-06	-1.318106e-09	-1.219725e+01	-9.196980e+01
1.470000e-06	-1.670319e-06	-1.302190e-09	-1.188501e+01	-9.117617e+01
1.480000e-06	-1.626364e-06	-1.289699e-09	-1.157226e+01	-9.036446e+01
1.490000e-06	-1.582310e-06	-1.281495e-09	-1.125880e+01	-8.953444e+01
1.500000e-06	-1.538175e-06	-1.270718e-09	-1.094476e+01	-8.868599e+01
1.510000e-06	-1.494048e-06	-1.255512e-09	-1.063077e+01	-8.781912e+01
1.520000e-06	-1.449878e-06	-1.241478e-09	-1.031649e+01	-8.693398e+01
1.530000e-06	-1.405634e-06	-1.232135e-09	-1.000167e+01	-8.603079e+01
1.540000e-06	-1.361413e-06	-1.221788e-09	-9.687018e+00	-8.510993e+01
1.550000e-06	-1.317134e-06	-1.204270e-09	-9.371957e+00	-8.417184e+01
1.560000e-06	-1.272699e-06	-1.185282e-09	-9.055779e+00	-8.321704e+01
1.570000e-06	-1.228148e-06	-1.171567e-09	-8.738780e+00	-8.224614e+01
1.580000e-06	-1.183548e-06	-1.160387e-09	-8.421435e+00	-8.125978e+01
1.590000e-06	-1.138855e-06	-1.147153e-09	-8.103429e+00	-8.025864e+01
1.600000e-06	-1.094004e-06	-1.131931e-09	-7.784293e+00	-7.924339e+01
1.610000e-06	-1.049068e-06	-1.118955e-09	-7.464558e+00	-7.821472e+01
1.620000e-06	-1.004049e-06	-1.107182e-09	-7.144224e+00	-7.717328e+01
1.630000e-06	-9.588979e-07	-1.089412e-09	-6.822957e+00	-7.611967e+01
1.640000e-06	-9.137270e-07	-1.065317e-09	-6.501547e+00	-7.505442e+01
1.650000e-06	-8.684948e-07	-1.044415e-09	-6.179702e+00	-7.397799e+01
1.660000e-06	-8.232347e-07	-1.028883e-09	-5.857657e+00	-7.289073e+01
1.670000e-06	-7.780056e-07	-1.013352e-09	-5.535833e+00	-7.179290e+01
1.680000e-06	-7.326387e-07	-9.937921e-10	-5.213028e+00	-7.068463e+01
1.690000e-06	-6.872048e-07	-9.769293e-10	-4.889748e+00	-6.956591e+01
1.700000e-06	-6.417555e-07	-9.664257e-10	-4.566357e+00	-6.843661e+01
1.710000e-06	-5.962517e-07	-9.541113e-10	-4.242579e+00	-6.729649e+01
1.720000e-06	-5.507418e-07	-9.349053e-10	-3.918756e+00	-6.614513e+01
1.730000e-06	-5.052072e-07	-9.126317e-10	-3.594759e+00	-6.498203e+01
1.740000e-06	-4.596448e-07	-8.934694e-10	-3.270564e+00	-6.380654e+01
1.750000e-06	-4.140339e-07	-8.743150e-10	-2.946023e+00	-6.261792e+01
1.760000e-06	-3.683400e-07	-8.548580e-10	-2.620892e+00	-6.141532e+01
1.770000e-06	-3.226379e-07	-8.366818e-10	-2.295703e+00	-6.019782e+01
1.780000e-06	-2.769210e-07	-8.241427e-10	-1.970408e+00	-5.896443e+01
1.790000e-06	-2.312104e-07	-8.131012e-10	-1.645158e+00	-5.771410e+01
1.800000e-06	-1.855617e-07	-7.946609e-10	-1.320348e+00	-5.644578e+01
1.810000e-06	-1.398253e-07	-7.717449e-10	-9.949148e-01	-5.515838e+01
1.820000e-06	-9.395135e-08	-7.502316e-10	-6.685029e-01	-5.385084e+01
1.830000e-06	-4.807435e-08	-7.282971e-10	-3.420690e-01	-5.252213e+01
1.840000e-06	-2.320440e-09	-7.046131e-10	-1.651089e-02	-5.117126e+01
1.850000e-06	4.341180e-08	-6.819448e-10	3.088930e-01	-4.979731e+01
1.860000e-06	8.919617e-08	-6.647292e-10	6.346678e-01	-4.839944e+01
1.870000e-06	1.350700e-07	-6.485960e-10	9.610792e-01	-4.697690e+01
1.880000e-06	1.809344e-07	-6.276093e-10	1.287423e+00	-4.552906e+01
1.890000e-06	2.266974e-07	-6.035162e-10	1.613046e+00	-4.405538e+01
1.900000e-06	2.724295e-07	-5.822842e-10	1.938449e+00	-4.255547e+01
1.910000e-06	3.180971e-07	-5.604049e-10	2.263393e+00	-4.102905e+01
1.920000e-06	3.637557e-07	-5.343674e-10	2.588273e+00	-3.947597e+01
1.930000e-06	4.094868e-07	-5.088947e-10	2.913669e+00	-3.789620e+01
1.940000e-06	4.551289e-07	-4.877325e-10	3.238431e+00	-3.628984e+01
1.950000e-06	5.005906e-07	-4.689859e-10	3.561910e+00	-3.465711e+01
1.960000e-06	5.460510e-07	-4.465837e-10	3.885380e+00	-3.299832e+01
1.970000e-06	5.914940e-07	-4.197727e-10	4.208725e+00	-3.131389e+01
1.980000e-06	6.368601e-07	-3.920289e-10	4.531524e+00	-2.960433e+01
1.990000e-06	6.821773e-07	-3.660182e-10	4.853975e+00	-2.787021e+01
2.000000e-06	7.275533e-07	-3.395994e-10	5.176844e+00	-2.611219e+01
2.010000e-06	7.729507e-07	-3.125507e-10	5.499865e+00	-2.433095e+01
2.020000e-06	8.182046e-07	-2.862374e-10	5.821866e+00	-2.252723e+01
2.030000e-06	8.633217e-07	-2.617249e-10	6.142892e+00	-2.070177e+01
2.040000e-06	9.083921e-07	-2.351753e-10	6.463587e+00	-1.885535e+01
2.050000e-06	9.534093e-07	-2.056437e-10	6.783903e+00	-1.698874e+01
2.060000e-06	9.983270e-07	-1.773196e-10	7.103511e+00	-1.510271e+01
2.070000e-06	1.043208e-06	-1.521602e-10	7.422858e+00	-1.319802e+01
2.080000e-06	1.088001e-06	-1.260140e-10	7.741582e+00	-1.127542e+01
2.090000e-06	1.132659e-06	-9.765380e-11	8.059340e+00	-9.335632e+00
2.100000e-06	1.177274e-06	-7.016512e-11	8.376791e+00	-7.379378e+00
2.110000e-06	1.221791e-06	-4.340687e-11	8.693550e+00	-5.407361e+00
2.120000e-06	1.266154e-06	-1.441554e-11	9.009212e+00	-3.420275e+00
2.130000e-06	1.310425e-06	1.869181e-11	9.324221e+00	-1.418814e+00
2.140000e-06	1.354630e-06	5.301620e-11	9.638753e+00	5.963198e-01
2.150000e-06	1.398785e-06	8.406033e-11	9.952935e+00	2.624410e+00
2.160000e-06	1.442912e-06	1.115004e-10	1.026692e+01	4.664710e+00
2.170000e-06	1.487023e-06	1.394732e-10	1.058079e+01	6.716435e+00
2.180000e-06	1.531074e-06	1.711202e-10	1.089422e+01	8.778749e+00
2.190000e-06	1.575069e-06	2.019833e-10	1.120727e+01	1.085075e+01
2.200000e-06	1.619028e-06	2.300732e-10	1.152006e+01	1.293146e+01
2.210000e-06	1.662903e-06	2.608866e-10	1.183225e+01	1.501982e+01
2.220000e-06	1.706707e-06	2.944503e-10	1.214393e+01	1.711467e+01
2.230000e-06	1.750492e-06	3.261926e-10	1.245548e+01	1.921474e+01
2.240000e-06	1.794263e-06	3.550217e-10	1.276692e+01	2.131867e+01
2.250000e-06	1.837924e-06	3.853689e-10	1.307760e+01	2.342498e+01
2.260000e-06	1.881425e-06	4.171009e-10	1.338712e+01	2.553206e+01
2.270000e-06	1.924771e-06	4.472171e-10	1.369555e+01	2.763821e+01
2.280000e-06	1.967860e-06	4.755165e-10	1.400214e+01	2.974162e+01
2.290000e-06	2.010652e-06	5.031090e-10	1.430662e+01	3.184038e+01
2.300000e-06	2.053222e-06	5.335054e-10	1.460953e+01	3.393248e+01
2.310000e-06	2.095560e-06	5.644373e-10	1.491078e+01	3.601585e+01
2.320000e-06	2.137718e-06	5.921315e-10	1.521075e+01	3.808837e+01
2.330000e-06	2.179618e-06	6.194025e-10	1.550889e+01	4.014786e+01
2.340000e-06	2.221154e-06	6.471547e-10	1.580444e+01	4.219214e+01
2.350000e-06	2.262400e-06	6.758874e-10	1.609792e+01	4.421902e+01
2.360000e-06	2.303441e-06	7.054283e-10	1.638994e+01	4.622635e+01
2.370000e-06	2.344259e-06	7.330826e-10	1.668037e+01	4.821200e+01
2.380000e-06	2.384799e-06	7.594123e-10	1.696883e+01	5.017396e+01
2.390000e-06	2.425096e-06	7.881533e-10	1.725557e+01	5.211029e+01
2.400000e-06	2.465266e-06	8.157091e-10	1.754139e+01	5.401916e+01
2.410000e-06	2.505387e-06	8.398049e-10	1.782687e+01	5.589890e+01
2.420000e-06	2.545441e-06	8.635005e-10	1.811187e+01	5.774801e+01
2.430000e-06	2.585408e-06	8.891837e-10	1.839625e+01	5.956515e+01
2.440000e-06	2.625237e-06	9.174350e-10	1.867965e+01	6.134918e+01
2.450000e-06	2.664903e-06	9.428505e-10	1.896189e+01	6.309917e+01
2.460000e-06	2.704413e-06	9.656314e-10	1.924302e+01	6.481438e+01
2.470000e-06	2.743753e-06	9.899055e-10	1.952294e+01	6.649432e+01
2.480000e-06	2.782920e-06	1.015137e-09	1.980164e+01	6.813869e+01
2.490000e-06	2.821879e-06	1.039442e-09	2.007884e+01	6.974742e+01
2.500000e-06	2.860565e-06	1.061976e-09	2.035411e+01	7.132063e+01
2.510000e-06	2.899022e-06	1.085455e-09	2.062775e+01	7.285867e+01
2.520000e-06	2.937333e-06	1.108282e-09	2.090034e+01	7.436203e+01
2.530000e-06	2.975446e-06	1.125790e-09	2.117153e+01	7.583139e+01
2.540000e-06	3.013390e-06	1.140873e-09	2.144152e+01	7.726759e+01
2.550000e-06	3.051205e-06	1.160147e-09	2.171059e+01	7.867156e+01
2.560000e-06	3.088816e-06	1.182674e-09	2.197821e+01	8.004435e+01
2.570000e-06	3.126209e-06	1.202762e-09	2.224427e+01	8.138708e+01
2.580000e-06	3.163365e-06	1.221152e-09	2.250865e+01	8.270094e+01
2.590000e-06	3.200290e-06	1.241617e-09	2.277139e+01	8.398711e+01
2.600000e-06	3.237022e-06	1.262857e-09	2.303275e+01	8.524680e+01
2.610000e-06	3.273509e-06	1.279251e-09	2.329238e+01	8.648117e+01
2.620000e-06	3.309724e-06	1.292801e-09	2.355006e+01	8.769133e+01
2.630000e-06	3.345755e-06	1.309408e-09	2.380643e+01	8.887836e+01
2.640000e-06	3.381710e-06	1.328260e-09	2.406227e+01	9.004319e+01
2.650000e-06	3.417610e-06	1.342997e-09	2.431772e+01	9.118670e+01
2.660000e-06	3.453390e-06	1.355482e-09	2.457231e+01	9.230963e+01
2.670000e-06	3.488935e-06	1.372553e-09	2.482522e+01	9.341258e+01
2.680000e-06	3.524142e-06	1.391473e-09	2.507574e+01	9.449604e+01
2.690000e-06	3.559005e-06	1.407422e-09	2.532380e+01	9.556037e+01
2.700000e-06	3.593504e-06	1.419983e-09	2.556928e+01	9.660578e+01
2.710000e-06	3.627510e-06	1.432441e-09	2.581124e+01	9.763236e+01
2.720000e-06	3.661035e-06	1.447779e-09	2.604979e+01	9.864010e+01
2.730000e-06	3.694167e-06	1.462220e-09	2.628554e+01	9.962885e+01
2.740000e-06	3.726940e-06	1.474328e-09	2.651872e+01	1.005984e+02
2.750000e-06	3.759405e-06	1.490539e-09	2.674972e+01	1.015484e+02
2.760000e-06	3.791620e-06	1.511164e-09	2.697895e+01	1.024786e+02
2.770000e-06	3.823667e-06	1.529113e-09	2.720698e+01	1.033886e+02
2.780000e-06	3.855565e-06	1.541665e-09	2.743395e+01	1.042778e+02
2.790000e-06	3.887346e-06	1.553018e-09	2.766008e+01	1.051460e+02
2.800000e-06	3.918933e-06	1.567372e-09	2.788484e+01	1.059928e+02
2.810000e-06	3.950224e-06	1.581783e-09	2.810748e+01	1.068178e+02
2.820000e-06	3.981252e-06	1.593557e-09	2.832826e+01	1.076207e+02
2.830000e-06	4.011957e-06	1.602109e-09	2.854674e+01	1.084014e+02
2.840000e-06	4.042335e-06	1.610205e-09	2.876290e+01	1.091597e+02
2.850000e-06	4.072476e-06	1.620025e-09	2.897736e+01	1.098957e+02
2.860000e-06	4.102353e-06	1.631802e-09	2.918994e+01	1.106094e+02
2.870000e-06	4.131953e-06	1.646397e-09	2.940057e+01	1.113011e+02
2.880000e-06	4.161247e-06	1.660463e-09	2.960900e+01	1.119712e+02
2.890000e-06	4.190233e-06	1.673318e-09	2.981525e+01	1.126202e+02
2.900000e-06	4.218950e-06	1.684998e-09	3.001958e+01	1.132485e+02
