# Temperatura_=_9.62
# Concentracion g/m^3_=_4090.0
# C_Vs_to_Am_M_A/Vsm_=_65563218390.804596
# pendiente_HvsI_1/m_=_3716.3
# ordenada_HvsI_A/m_=_1297.0
# frecuencia_Hz_=_135083.87192075394

Tiempo_(s)	Campo_(V.s)	Magnetizacion_(V.s)	Campo_(kA/m)	Magnetizacion_(A/m)
0.000000e+00	-5.431140e-06	-2.685178e-09	-3.839673e+01	-1.709886e+02
1.000000e-08	-5.431071e-06	-2.683893e-09	-3.839624e+01	-1.709445e+02
2.000000e-08	-5.430834e-06	-2.682542e-09	-3.839456e+01	-1.708948e+02
3.000000e-08	-5.430308e-06	-2.678605e-09	-3.839085e+01	-1.708402e+02
4.000000e-08	-5.429366e-06	-2.673251e-09	-3.838419e+01	-1.707819e+02
5.000000e-08	-5.427946e-06	-2.673987e-09	-3.837415e+01	-1.707210e+02
6.000000e-08	-5.425903e-06	-2.689733e-09	-3.835971e+01	-1.706588e+02
7.000000e-08	-5.423050e-06	-2.676548e-09	-3.833953e+01	-1.705964e+02
8.000000e-08	-5.419568e-06	-2.634895e-09	-3.831492e+01	-1.705354e+02
9.000000e-08	-5.415664e-06	-2.665199e-09	-3.828732e+01	-1.704769e+02
1.000000e-07	-5.411392e-06	-2.774737e-09	-3.825712e+01	-1.704223e+02
1.100000e-07	-5.406922e-06	-2.701569e-09	-3.822551e+01	-1.703730e+02
1.200000e-07	-5.402408e-06	-2.589371e-09	-3.819360e+01	-1.703300e+02
1.300000e-07	-5.397688e-06	-2.596711e-09	-3.816023e+01	-1.702946e+02
1.400000e-07	-5.392383e-06	-2.759355e-09	-3.812273e+01	-1.702677e+02
1.500000e-07	-5.386586e-06	-2.692601e-09	-3.808174e+01	-1.702501e+02
1.600000e-07	-5.380597e-06	-2.524974e-09	-3.803940e+01	-1.702426e+02
1.700000e-07	-5.374207e-06	-2.572207e-09	-3.799423e+01	-1.702455e+02
1.800000e-07	-5.367337e-06	-2.727205e-09	-3.794566e+01	-1.702593e+02
1.900000e-07	-5.360028e-06	-2.682127e-09	-3.789399e+01	-1.702839e+02
2.000000e-07	-5.352447e-06	-2.521545e-09	-3.784039e+01	-1.703193e+02
2.100000e-07	-5.344660e-06	-2.580162e-09	-3.778534e+01	-1.703652e+02
2.200000e-07	-5.336579e-06	-2.651086e-09	-3.772821e+01	-1.704209e+02
2.300000e-07	-5.328266e-06	-2.576239e-09	-3.766944e+01	-1.704858e+02
2.400000e-07	-5.319611e-06	-2.500933e-09	-3.760825e+01	-1.705588e+02
2.500000e-07	-5.310347e-06	-2.620823e-09	-3.754275e+01	-1.706389e+02
2.600000e-07	-5.300307e-06	-2.635974e-09	-3.747178e+01	-1.707247e+02
2.700000e-07	-5.289627e-06	-2.552888e-09	-3.739627e+01	-1.708149e+02
2.800000e-07	-5.278442e-06	-2.572393e-09	-3.731719e+01	-1.709078e+02
2.900000e-07	-5.266829e-06	-2.667067e-09	-3.723510e+01	-1.710018e+02
3.000000e-07	-5.254808e-06	-2.571957e-09	-3.715011e+01	-1.710953e+02
3.100000e-07	-5.242411e-06	-2.520649e-09	-3.706246e+01	-1.711864e+02
3.200000e-07	-5.229593e-06	-2.614636e-09	-3.697185e+01	-1.712734e+02
3.300000e-07	-5.216460e-06	-2.655687e-09	-3.687900e+01	-1.713545e+02
3.400000e-07	-5.203061e-06	-2.554970e-09	-3.678427e+01	-1.714281e+02
3.500000e-07	-5.189249e-06	-2.578540e-09	-3.668663e+01	-1.714925e+02
3.600000e-07	-5.174941e-06	-2.632001e-09	-3.658547e+01	-1.715463e+02
3.700000e-07	-5.160233e-06	-2.596121e-09	-3.648149e+01	-1.715879e+02
3.800000e-07	-5.145007e-06	-2.566596e-09	-3.637385e+01	-1.716162e+02
3.900000e-07	-5.129244e-06	-2.602035e-09	-3.626241e+01	-1.716301e+02
4.000000e-07	-5.112988e-06	-2.576518e-09	-3.614748e+01	-1.716287e+02
4.100000e-07	-5.096164e-06	-2.552211e-09	-3.602854e+01	-1.716112e+02
4.200000e-07	-5.079025e-06	-2.605514e-09	-3.590737e+01	-1.715771e+02
4.300000e-07	-5.061663e-06	-2.595576e-09	-3.578463e+01	-1.715262e+02
4.400000e-07	-5.044049e-06	-2.536361e-09	-3.566010e+01	-1.714582e+02
4.500000e-07	-5.026186e-06	-2.548672e-09	-3.553381e+01	-1.713733e+02
4.600000e-07	-5.007937e-06	-2.597995e-09	-3.540480e+01	-1.712718e+02
4.700000e-07	-4.989255e-06	-2.558275e-09	-3.527272e+01	-1.711541e+02
4.800000e-07	-4.970192e-06	-2.538189e-09	-3.513795e+01	-1.710208e+02
4.900000e-07	-4.950741e-06	-2.556298e-09	-3.500043e+01	-1.708728e+02
5.000000e-07	-4.930996e-06	-2.572145e-09	-3.486084e+01	-1.707110e+02
5.100000e-07	-4.911037e-06	-2.548361e-09	-3.471974e+01	-1.705365e+02
5.200000e-07	-4.890895e-06	-2.541594e-09	-3.457734e+01	-1.703503e+02
5.300000e-07	-4.870567e-06	-2.522127e-09	-3.443362e+01	-1.701538e+02
5.400000e-07	-4.849900e-06	-2.533967e-09	-3.428751e+01	-1.699482e+02
5.500000e-07	-4.828797e-06	-2.543532e-09	-3.413832e+01	-1.697348e+02
5.600000e-07	-4.807296e-06	-2.538927e-09	-3.398631e+01	-1.695149e+02
5.700000e-07	-4.785408e-06	-2.516403e-09	-3.383157e+01	-1.692898e+02
5.800000e-07	-4.763156e-06	-2.525854e-09	-3.367426e+01	-1.690609e+02
5.900000e-07	-4.740657e-06	-2.529729e-09	-3.351520e+01	-1.688293e+02
6.000000e-07	-4.717923e-06	-2.522418e-09	-3.335448e+01	-1.685961e+02
6.100000e-07	-4.694926e-06	-2.497279e-09	-3.319189e+01	-1.683623e+02
6.200000e-07	-4.671591e-06	-2.495049e-09	-3.302692e+01	-1.681290e+02
6.300000e-07	-4.647835e-06	-2.506953e-09	-3.285897e+01	-1.678969e+02
6.400000e-07	-4.623848e-06	-2.512004e-09	-3.268939e+01	-1.676667e+02
6.500000e-07	-4.599770e-06	-2.491006e-09	-3.251916e+01	-1.674389e+02
6.600000e-07	-4.575453e-06	-2.483108e-09	-3.234725e+01	-1.672141e+02
6.700000e-07	-4.550716e-06	-2.491223e-09	-3.217236e+01	-1.669923e+02
6.800000e-07	-4.525634e-06	-2.492919e-09	-3.199504e+01	-1.667738e+02
6.900000e-07	-4.500067e-06	-2.480352e-09	-3.181429e+01	-1.665586e+02
7.000000e-07	-4.473901e-06	-2.468932e-09	-3.162931e+01	-1.663465e+02
7.100000e-07	-4.447166e-06	-2.469981e-09	-3.144030e+01	-1.661373e+02
7.200000e-07	-4.419844e-06	-2.474381e-09	-3.124713e+01	-1.659305e+02
7.300000e-07	-4.392144e-06	-2.472524e-09	-3.105130e+01	-1.657258e+02
7.400000e-07	-4.364272e-06	-2.456830e-09	-3.085425e+01	-1.655226e+02
7.500000e-07	-4.336245e-06	-2.454650e-09	-3.065611e+01	-1.653203e+02
7.600000e-07	-4.308066e-06	-2.457949e-09	-3.045689e+01	-1.651180e+02
7.700000e-07	-4.279705e-06	-2.456972e-09	-3.025639e+01	-1.649152e+02
7.800000e-07	-4.251092e-06	-2.442749e-09	-3.005410e+01	-1.647110e+02
7.900000e-07	-4.222289e-06	-2.442002e-09	-2.985047e+01	-1.645046e+02
8.000000e-07	-4.193151e-06	-2.443327e-09	-2.964447e+01	-1.642953e+02
8.100000e-07	-4.163569e-06	-2.443778e-09	-2.943533e+01	-1.640822e+02
8.200000e-07	-4.133664e-06	-2.430238e-09	-2.922392e+01	-1.638646e+02
8.300000e-07	-4.103515e-06	-2.423669e-09	-2.901077e+01	-1.636418e+02
8.400000e-07	-4.073189e-06	-2.422287e-09	-2.879637e+01	-1.634130e+02
8.500000e-07	-4.042633e-06	-2.425399e-09	-2.858035e+01	-1.631777e+02
8.600000e-07	-4.011753e-06	-2.413779e-09	-2.836204e+01	-1.629353e+02
8.700000e-07	-3.980614e-06	-2.405886e-09	-2.814189e+01	-1.626854e+02
8.800000e-07	-3.949179e-06	-2.403720e-09	-2.791966e+01	-1.624274e+02
8.900000e-07	-3.917483e-06	-2.407249e-09	-2.769557e+01	-1.621612e+02
9.000000e-07	-3.885617e-06	-2.397382e-09	-2.747029e+01	-1.618864e+02
9.100000e-07	-3.853569e-06	-2.386103e-09	-2.724372e+01	-1.616030e+02
9.200000e-07	-3.821361e-06	-2.384294e-09	-2.701601e+01	-1.613107e+02
9.300000e-07	-3.788932e-06	-2.392520e-09	-2.678675e+01	-1.610098e+02
9.400000e-07	-3.756148e-06	-2.390897e-09	-2.655498e+01	-1.607001e+02
9.500000e-07	-3.722957e-06	-2.379885e-09	-2.632033e+01	-1.603820e+02
9.600000e-07	-3.689380e-06	-2.369863e-09	-2.608294e+01	-1.600557e+02
9.700000e-07	-3.655315e-06	-2.367844e-09	-2.584212e+01	-1.597214e+02
9.800000e-07	-3.620833e-06	-2.363290e-09	-2.559834e+01	-1.593795e+02
9.900000e-07	-3.586041e-06	-2.353023e-09	-2.535236e+01	-1.590304e+02
1.000000e-06	-3.550912e-06	-2.346604e-09	-2.510401e+01	-1.586746e+02
1.010000e-06	-3.515453e-06	-2.349043e-09	-2.485333e+01	-1.583125e+02
1.020000e-06	-3.479717e-06	-2.349653e-09	-2.460068e+01	-1.579447e+02
1.030000e-06	-3.443823e-06	-2.336817e-09	-2.434692e+01	-1.575715e+02
1.040000e-06	-3.407817e-06	-2.324487e-09	-2.409237e+01	-1.571936e+02
1.050000e-06	-3.371697e-06	-2.317545e-09	-2.383701e+01	-1.568114e+02
1.060000e-06	-3.335389e-06	-2.316199e-09	-2.358032e+01	-1.564255e+02
1.070000e-06	-3.298926e-06	-2.308580e-09	-2.332254e+01	-1.560361e+02
1.080000e-06	-3.262303e-06	-2.298027e-09	-2.306362e+01	-1.556438e+02
1.090000e-06	-3.225445e-06	-2.287953e-09	-2.280305e+01	-1.552489e+02
1.100000e-06	-3.188311e-06	-2.284312e-09	-2.254052e+01	-1.548516e+02
1.110000e-06	-3.150877e-06	-2.276092e-09	-2.227587e+01	-1.544524e+02
1.120000e-06	-3.113128e-06	-2.270172e-09	-2.200900e+01	-1.540512e+02
1.130000e-06	-3.075175e-06	-2.265673e-09	-2.174068e+01	-1.536482e+02
1.140000e-06	-3.037122e-06	-2.262717e-09	-2.147165e+01	-1.532434e+02
1.150000e-06	-2.998889e-06	-2.253541e-09	-2.120136e+01	-1.528368e+02
1.160000e-06	-2.960471e-06	-2.242311e-09	-2.092975e+01	-1.524283e+02
1.170000e-06	-2.921722e-06	-2.229651e-09	-2.065580e+01	-1.520175e+02
1.180000e-06	-2.882698e-06	-2.223177e-09	-2.037992e+01	-1.516041e+02
1.190000e-06	-2.843568e-06	-2.218035e-09	-2.010328e+01	-1.511878e+02
1.200000e-06	-2.804161e-06	-2.213005e-09	-1.982468e+01	-1.507681e+02
1.210000e-06	-2.764525e-06	-2.205461e-09	-1.954446e+01	-1.503444e+02
1.220000e-06	-2.724834e-06	-2.200597e-09	-1.926386e+01	-1.499160e+02
1.230000e-06	-2.685033e-06	-2.193929e-09	-1.898247e+01	-1.494824e+02
1.240000e-06	-2.645110e-06	-2.183264e-09	-1.870023e+01	-1.490426e+02
1.250000e-06	-2.605080e-06	-2.169402e-09	-1.841723e+01	-1.485960e+02
1.260000e-06	-2.564972e-06	-2.157946e-09	-1.813367e+01	-1.481416e+02
1.270000e-06	-2.524739e-06	-2.151297e-09	-1.784924e+01	-1.476786e+02
1.280000e-06	-2.484273e-06	-2.144579e-09	-1.756315e+01	-1.472060e+02
1.290000e-06	-2.443648e-06	-2.137471e-09	-1.727595e+01	-1.467230e+02
1.300000e-06	-2.402927e-06	-2.131468e-09	-1.698806e+01	-1.462287e+02
1.310000e-06	-2.362021e-06	-2.128689e-09	-1.669887e+01	-1.457220e+02
1.320000e-06	-2.320917e-06	-2.121818e-09	-1.640827e+01	-1.452023e+02
1.330000e-06	-2.279512e-06	-2.110445e-09	-1.611555e+01	-1.446686e+02
1.340000e-06	-2.237766e-06	-2.095697e-09	-1.582042e+01	-1.441201e+02
1.350000e-06	-2.195701e-06	-2.082574e-09	-1.552303e+01	-1.435561e+02
1.360000e-06	-2.153369e-06	-2.072011e-09	-1.522376e+01	-1.429760e+02
1.370000e-06	-2.110848e-06	-2.064262e-09	-1.492314e+01	-1.423791e+02
1.380000e-06	-2.068044e-06	-2.053657e-09	-1.462053e+01	-1.417648e+02
1.390000e-06	-2.024943e-06	-2.043024e-09	-1.431581e+01	-1.411329e+02
1.400000e-06	-1.981640e-06	-2.035392e-09	-1.400967e+01	-1.404828e+02
1.410000e-06	-1.938221e-06	-2.030632e-09	-1.370271e+01	-1.398144e+02
1.420000e-06	-1.894629e-06	-2.020240e-09	-1.339453e+01	-1.391274e+02
1.430000e-06	-1.850905e-06	-2.006779e-09	-1.308541e+01	-1.384217e+02
1.440000e-06	-1.807124e-06	-1.993471e-09	-1.277589e+01	-1.376972e+02
1.450000e-06	-1.763281e-06	-1.983291e-09	-1.246593e+01	-1.369541e+02
1.460000e-06	-1.719347e-06	-1.971024e-09	-1.215533e+01	-1.361924e+02
1.470000e-06	-1.675300e-06	-1.955448e-09	-1.184393e+01	-1.354122e+02
1.480000e-06	-1.631184e-06	-1.940389e-09	-1.153204e+01	-1.346137e+02
1.490000e-06	-1.587038e-06	-1.929972e-09	-1.121994e+01	-1.337970e+02
1.500000e-06	-1.542805e-06	-1.920277e-09	-1.090723e+01	-1.329625e+02
1.510000e-06	-1.498495e-06	-1.907606e-09	-1.059397e+01	-1.321101e+02
1.520000e-06	-1.454155e-06	-1.892609e-09	-1.028049e+01	-1.312401e+02
1.530000e-06	-1.409672e-06	-1.881429e-09	-9.966010e+00	-1.303526e+02
1.540000e-06	-1.365038e-06	-1.871695e-09	-9.650459e+00	-1.294475e+02
1.550000e-06	-1.320357e-06	-1.854535e-09	-9.334575e+00	-1.285249e+02
1.560000e-06	-1.275637e-06	-1.834097e-09	-9.018419e+00	-1.275845e+02
1.570000e-06	-1.230883e-06	-1.816676e-09	-8.702021e+00	-1.266260e+02
1.580000e-06	-1.185973e-06	-1.806744e-09	-8.384518e+00	-1.256492e+02
1.590000e-06	-1.140893e-06	-1.797608e-09	-8.065811e+00	-1.246533e+02
1.600000e-06	-1.095752e-06	-1.785491e-09	-7.746679e+00	-1.236377e+02
1.610000e-06	-1.050439e-06	-1.772471e-09	-7.426328e+00	-1.226015e+02
1.620000e-06	-1.005127e-06	-1.760575e-09	-7.105981e+00	-1.215436e+02
1.630000e-06	-9.598258e-07	-1.741909e-09	-6.785716e+00	-1.204629e+02
1.640000e-06	-9.143546e-07	-1.712993e-09	-6.464246e+00	-1.193579e+02
1.650000e-06	-8.688525e-07	-1.684791e-09	-6.142559e+00	-1.182271e+02
1.660000e-06	-8.233430e-07	-1.665988e-09	-5.820818e+00	-1.170687e+02
1.670000e-06	-7.776836e-07	-1.653235e-09	-5.498018e+00	-1.158808e+02
1.680000e-06	-7.319270e-07	-1.639327e-09	-5.174531e+00	-1.146616e+02
1.690000e-06	-6.862272e-07	-1.624421e-09	-4.851446e+00	-1.134087e+02
1.700000e-06	-6.404779e-07	-1.612312e-09	-4.528010e+00	-1.121201e+02
1.710000e-06	-5.947039e-07	-1.596267e-09	-4.204400e+00	-1.107933e+02
1.720000e-06	-5.489113e-07	-1.569634e-09	-3.880659e+00	-1.094260e+02
1.730000e-06	-5.030379e-07	-1.536897e-09	-3.556345e+00	-1.080158e+02
1.740000e-06	-4.571743e-07	-1.507276e-09	-3.232102e+00	-1.065602e+02
1.750000e-06	-4.112356e-07	-1.483445e-09	-2.907328e+00	-1.050570e+02
1.760000e-06	-3.652698e-07	-1.465210e-09	-2.582361e+00	-1.035036e+02
1.770000e-06	-3.192541e-07	-1.449796e-09	-2.257042e+00	-1.018980e+02
1.780000e-06	-2.731567e-07	-1.435432e-09	-1.931146e+00	-1.002379e+02
1.790000e-06	-2.271521e-07	-1.416194e-09	-1.605905e+00	-9.852121e+01
1.800000e-06	-1.811536e-07	-1.386093e-09	-1.280709e+00	-9.674621e+01
1.810000e-06	-1.351438e-07	-1.348627e-09	-9.554314e-01	-9.491114e+01
1.820000e-06	-8.920574e-08	-1.311074e-09	-6.306611e-01	-9.301455e+01
1.830000e-06	-4.323002e-08	-1.280541e-09	-3.056249e-01	-9.105516e+01
1.840000e-06	2.819493e-09	-1.253167e-09	1.993307e-02	-8.903197e+01
1.850000e-06	4.891873e-08	-1.226659e-09	3.458425e-01	-8.694420e+01
1.860000e-06	9.495111e-08	-1.202161e-09	6.712794e-01	-8.479135e+01
1.870000e-06	1.409984e-07	-1.176582e-09	9.968217e-01	-8.257317e+01
1.880000e-06	1.871417e-07	-1.144071e-09	1.323042e+00	-8.028967e+01
1.890000e-06	2.331645e-07	-1.102037e-09	1.648412e+00	-7.794116e+01
1.900000e-06	2.791656e-07	-1.057997e-09	1.973627e+00	-7.552816e+01
1.910000e-06	3.252059e-07	-1.015711e-09	2.299120e+00	-7.305149e+01
1.920000e-06	3.711428e-07	-9.747013e-10	2.623882e+00	-7.051218e+01
1.930000e-06	4.170358e-07	-9.369564e-10	2.948333e+00	-6.791148e+01
1.940000e-06	4.628786e-07	-9.034164e-10	3.272430e+00	-6.525087e+01
1.950000e-06	5.086973e-07	-8.729228e-10	3.596356e+00	-6.253200e+01
1.960000e-06	5.545214e-07	-8.394167e-10	3.920320e+00	-5.975670e+01
1.970000e-06	6.002933e-07	-7.971258e-10	4.243916e+00	-5.692694e+01
1.980000e-06	6.461076e-07	-7.477451e-10	4.567811e+00	-5.404483e+01
1.990000e-06	6.918882e-07	-6.974114e-10	4.891467e+00	-5.111256e+01
2.000000e-06	7.374776e-07	-6.479913e-10	5.213772e+00	-4.813241e+01
2.010000e-06	7.830312e-07	-6.000113e-10	5.535824e+00	-4.510674e+01
2.020000e-06	8.286457e-07	-5.554597e-10	5.858307e+00	-4.203791e+01
2.030000e-06	8.741973e-07	-5.152980e-10	6.180345e+00	-3.892834e+01
2.040000e-06	9.196394e-07	-4.772202e-10	6.501608e+00	-3.578044e+01
2.050000e-06	9.649652e-07	-4.351331e-10	6.822050e+00	-3.259661e+01
2.060000e-06	1.010125e-06	-3.867393e-10	7.141317e+00	-2.937923e+01
2.070000e-06	1.055136e-06	-3.342661e-10	7.459533e+00	-2.613067e+01
2.080000e-06	1.100195e-06	-2.806286e-10	7.778090e+00	-2.285326e+01
2.090000e-06	1.145248e-06	-2.290146e-10	8.096599e+00	-1.954928e+01
2.100000e-06	1.190129e-06	-1.806057e-10	8.413901e+00	-1.622100e+01
2.110000e-06	1.234945e-06	-1.338080e-10	8.730734e+00	-1.287064e+01
2.120000e-06	1.279649e-06	-8.774961e-11	9.046781e+00	-9.500418e+00
2.130000e-06	1.324163e-06	-4.108535e-11	9.361484e+00	-6.112514e+00
2.140000e-06	1.368630e-06	1.022980e-11	9.675852e+00	-2.709111e+00
2.150000e-06	1.413092e-06	6.472516e-11	9.990191e+00	7.076078e-01
2.160000e-06	1.457470e-06	1.167554e-10	1.030393e+01	4.135441e+00
2.170000e-06	1.501778e-06	1.670321e-10	1.061718e+01	7.572161e+00
2.180000e-06	1.546016e-06	2.182039e-10	1.092992e+01	1.101550e+01
2.190000e-06	1.590227e-06	2.702426e-10	1.124249e+01	1.446312e+01
2.200000e-06	1.634371e-06	3.203471e-10	1.155457e+01	1.791265e+01
2.210000e-06	1.678413e-06	3.694578e-10	1.186594e+01	2.136161e+01
2.220000e-06	1.722462e-06	4.214859e-10	1.217735e+01	2.480745e+01
2.230000e-06	1.766455e-06	4.736902e-10	1.248838e+01	2.824754e+01
2.240000e-06	1.810410e-06	5.221160e-10	1.279912e+01	3.167913e+01
2.250000e-06	1.854289e-06	5.682627e-10	1.310933e+01	3.509940e+01
2.260000e-06	1.898022e-06	6.175652e-10	1.341852e+01	3.850544e+01
2.270000e-06	1.941664e-06	6.691420e-10	1.372705e+01	4.189422e+01
2.280000e-06	1.985100e-06	7.188863e-10	1.403414e+01	4.526266e+01
2.290000e-06	2.028296e-06	7.691664e-10	1.433952e+01	4.860762e+01
2.300000e-06	2.071307e-06	8.233457e-10	1.464360e+01	5.192588e+01
2.310000e-06	2.114144e-06	8.768621e-10	1.494644e+01	5.521421e+01
2.320000e-06	2.156798e-06	9.233025e-10	1.524799e+01	5.846937e+01
2.330000e-06	2.199218e-06	9.643303e-10	1.554789e+01	6.168812e+01
2.340000e-06	2.241207e-06	1.006331e-09	1.584475e+01	6.486727e+01
2.350000e-06	2.282739e-06	1.052633e-09	1.613836e+01	6.800367e+01
2.360000e-06	2.324052e-06	1.099744e-09	1.643044e+01	7.109428e+01
2.370000e-06	2.365188e-06	1.142972e-09	1.672126e+01	7.413618e+01
2.380000e-06	2.406120e-06	1.184632e-09	1.701063e+01	7.712660e+01
2.390000e-06	2.446744e-06	1.229269e-09	1.729784e+01	8.006293e+01
2.400000e-06	2.487115e-06	1.273987e-09	1.758325e+01	8.294276e+01
2.410000e-06	2.527367e-06	1.314096e-09	1.786782e+01	8.576392e+01
2.420000e-06	2.567507e-06	1.351905e-09	1.815160e+01	8.852448e+01
2.430000e-06	2.607556e-06	1.391978e-09	1.843473e+01	9.122276e+01
2.440000e-06	2.647528e-06	1.432744e-09	1.871733e+01	9.385738e+01
2.450000e-06	2.687449e-06	1.466426e-09	1.899956e+01	9.642723e+01
2.460000e-06	2.727237e-06	1.497103e-09	1.928085e+01	9.893150e+01
2.470000e-06	2.766888e-06	1.530130e-09	1.956117e+01	1.013697e+02
2.480000e-06	2.806381e-06	1.566171e-09	1.984037e+01	1.037416e+02
2.490000e-06	2.845655e-06	1.601746e-09	2.011803e+01	1.060474e+02
2.500000e-06	2.884664e-06	1.633414e-09	2.039382e+01	1.082873e+02
2.510000e-06	2.923370e-06	1.665537e-09	2.066746e+01	1.104620e+02
2.520000e-06	2.961829e-06	1.697023e-09	2.093935e+01	1.125724e+02
2.530000e-06	3.000192e-06	1.722649e-09	2.121057e+01	1.146197e+02
2.540000e-06	3.038463e-06	1.742400e-09	2.148113e+01	1.166051e+02
2.550000e-06	3.076495e-06	1.768710e-09	2.175001e+01	1.185302e+02
2.560000e-06	3.114283e-06	1.802757e-09	2.201716e+01	1.203966e+02
2.570000e-06	3.151878e-06	1.834246e-09	2.228295e+01	1.222060e+02
2.580000e-06	3.189295e-06	1.859905e-09	2.254748e+01	1.239604e+02
2.590000e-06	3.226465e-06	1.883136e-09	2.281026e+01	1.256615e+02
2.600000e-06	3.263336e-06	1.906841e-09	2.307092e+01	1.273113e+02
2.610000e-06	3.299926e-06	1.927876e-09	2.332961e+01	1.289118e+02
2.620000e-06	3.336243e-06	1.946118e-09	2.358636e+01	1.304647e+02
2.630000e-06	3.372398e-06	1.966816e-09	2.384196e+01	1.319719e+02
2.640000e-06	3.408502e-06	1.994156e-09	2.409721e+01	1.334350e+02
2.650000e-06	3.444539e-06	2.020546e-09	2.435198e+01	1.348557e+02
2.660000e-06	3.480453e-06	2.039020e-09	2.460589e+01	1.362353e+02
2.670000e-06	3.516200e-06	2.054406e-09	2.485861e+01	1.375753e+02
2.680000e-06	3.551655e-06	2.071595e-09	2.510926e+01	1.388766e+02
2.690000e-06	3.586758e-06	2.088500e-09	2.535744e+01	1.401404e+02
2.700000e-06	3.621554e-06	2.102271e-09	2.560343e+01	1.413675e+02
2.710000e-06	3.655930e-06	2.116728e-09	2.584646e+01	1.425584e+02
2.720000e-06	3.689883e-06	2.135408e-09	2.608650e+01	1.437139e+02
2.730000e-06	3.723452e-06	2.156603e-09	2.632383e+01	1.448342e+02
2.740000e-06	3.756450e-06	2.173436e-09	2.655711e+01	1.459196e+02
2.750000e-06	3.789004e-06	2.185030e-09	2.678726e+01	1.469703e+02
2.760000e-06	3.821345e-06	2.196905e-09	2.701590e+01	1.479863e+02
2.770000e-06	3.853471e-06	2.212483e-09	2.724302e+01	1.489678e+02
2.780000e-06	3.885490e-06	2.227720e-09	2.746939e+01	1.499146e+02
2.790000e-06	3.917375e-06	2.239986e-09	2.769481e+01	1.508267e+02
2.800000e-06	3.949038e-06	2.253302e-09	2.791866e+01	1.517042e+02
2.810000e-06	3.980512e-06	2.267300e-09	2.814117e+01	1.525470e+02
2.820000e-06	4.011750e-06	2.276806e-09	2.836201e+01	1.533552e+02
2.830000e-06	4.042597e-06	2.280559e-09	2.858010e+01	1.541290e+02
2.840000e-06	4.073069e-06	2.284550e-09	2.879553e+01	1.548686e+02
2.850000e-06	4.103279e-06	2.294211e-09	2.900911e+01	1.555745e+02
2.860000e-06	4.133302e-06	2.309978e-09	2.922136e+01	1.562471e+02
2.870000e-06	4.163174e-06	2.325879e-09	2.943254e+01	1.568871e+02
2.880000e-06	4.192789e-06	2.337514e-09	2.964192e+01	1.574954e+02
2.890000e-06	4.222050e-06	2.344939e-09	2.984878e+01	1.580727e+02
2.900000e-06	4.250959e-06	2.348989e-09	3.005316e+01	1.586203e+02
