# Temperatura_=_6.96
# Concentracion g/m^3_=_4090.0
# C_Vs_to_Am_M_A/Vsm_=_65563218390.804596
# pendiente_HvsI_1/m_=_3716.3
# ordenada_HvsI_A/m_=_1297.0
# frecuencia_Hz_=_135084.03256607664

Tiempo_(s)	Campo_(V.s)	Magnetizacion_(V.s)	Campo_(kA/m)	Magnetizacion_(A/m)
0.000000e+00	-5.429440e-06	-2.609372e-09	-3.838949e+01	-1.674875e+02
1.000000e-08	-5.429667e-06	-2.602986e-09	-3.839110e+01	-1.674562e+02
2.000000e-08	-5.429689e-06	-2.598949e-09	-3.839125e+01	-1.674217e+02
3.000000e-08	-5.429542e-06	-2.598042e-09	-3.839021e+01	-1.673854e+02
4.000000e-08	-5.429011e-06	-2.598697e-09	-3.838646e+01	-1.673485e+02
5.000000e-08	-5.427854e-06	-2.598888e-09	-3.837827e+01	-1.673126e+02
6.000000e-08	-5.426141e-06	-2.597620e-09	-3.836616e+01	-1.672791e+02
7.000000e-08	-5.423864e-06	-2.596267e-09	-3.835006e+01	-1.672495e+02
8.000000e-08	-5.420958e-06	-2.595479e-09	-3.832952e+01	-1.672254e+02
9.000000e-08	-5.417467e-06	-2.605774e-09	-3.830483e+01	-1.672081e+02
1.000000e-07	-5.413449e-06	-2.623863e-09	-3.827642e+01	-1.671993e+02
1.100000e-07	-5.409034e-06	-2.636063e-09	-3.824521e+01	-1.672000e+02
1.200000e-07	-5.404578e-06	-2.582242e-09	-3.821370e+01	-1.672116e+02
1.300000e-07	-5.400088e-06	-2.555248e-09	-3.818195e+01	-1.672350e+02
1.400000e-07	-5.395219e-06	-2.574985e-09	-3.814753e+01	-1.672710e+02
1.500000e-07	-5.389838e-06	-2.610468e-09	-3.810948e+01	-1.673203e+02
1.600000e-07	-5.384030e-06	-2.577260e-09	-3.806842e+01	-1.673833e+02
1.700000e-07	-5.377932e-06	-2.551197e-09	-3.802529e+01	-1.674602e+02
1.800000e-07	-5.371329e-06	-2.578704e-09	-3.797861e+01	-1.675507e+02
1.900000e-07	-5.364235e-06	-2.630758e-09	-3.792845e+01	-1.676546e+02
2.000000e-07	-5.356913e-06	-2.599196e-09	-3.787668e+01	-1.677713e+02
2.100000e-07	-5.349316e-06	-2.554484e-09	-3.782296e+01	-1.679000e+02
2.200000e-07	-5.341515e-06	-2.555467e-09	-3.776781e+01	-1.680394e+02
2.300000e-07	-5.333526e-06	-2.577026e-09	-3.771132e+01	-1.681884e+02
2.400000e-07	-5.325240e-06	-2.560999e-09	-3.765273e+01	-1.683454e+02
2.500000e-07	-5.316579e-06	-2.559820e-09	-3.759149e+01	-1.685087e+02
2.600000e-07	-5.307186e-06	-2.617727e-09	-3.752508e+01	-1.686764e+02
2.700000e-07	-5.297098e-06	-2.638126e-09	-3.745375e+01	-1.688466e+02
2.800000e-07	-5.286450e-06	-2.624682e-09	-3.737846e+01	-1.690172e+02
2.900000e-07	-5.275342e-06	-2.627216e-09	-3.729992e+01	-1.691861e+02
3.000000e-07	-5.263872e-06	-2.641832e-09	-3.721882e+01	-1.693510e+02
3.100000e-07	-5.251916e-06	-2.612629e-09	-3.713429e+01	-1.695100e+02
3.200000e-07	-5.239555e-06	-2.614402e-09	-3.704689e+01	-1.696607e+02
3.300000e-07	-5.226795e-06	-2.636871e-09	-3.695666e+01	-1.698014e+02
3.400000e-07	-5.213656e-06	-2.642531e-09	-3.686377e+01	-1.699300e+02
3.500000e-07	-5.200195e-06	-2.603680e-09	-3.676859e+01	-1.700449e+02
3.600000e-07	-5.186274e-06	-2.619122e-09	-3.667016e+01	-1.701443e+02
3.700000e-07	-5.171950e-06	-2.628083e-09	-3.656888e+01	-1.702270e+02
3.800000e-07	-5.157134e-06	-2.623746e-09	-3.646412e+01	-1.702918e+02
3.900000e-07	-5.141591e-06	-2.599584e-09	-3.635422e+01	-1.703378e+02
4.000000e-07	-5.125406e-06	-2.611229e-09	-3.623979e+01	-1.703641e+02
4.100000e-07	-5.108832e-06	-2.610527e-09	-3.612259e+01	-1.703705e+02
4.200000e-07	-5.092076e-06	-2.615355e-09	-3.600412e+01	-1.703566e+02
4.300000e-07	-5.074981e-06	-2.614983e-09	-3.588325e+01	-1.703226e+02
4.400000e-07	-5.057582e-06	-2.604112e-09	-3.576023e+01	-1.702686e+02
4.500000e-07	-5.040021e-06	-2.585752e-09	-3.563606e+01	-1.701953e+02
4.600000e-07	-5.022146e-06	-2.595939e-09	-3.550967e+01	-1.701032e+02
4.700000e-07	-5.003892e-06	-2.600522e-09	-3.538060e+01	-1.699934e+02
4.800000e-07	-4.985277e-06	-2.582132e-09	-3.524898e+01	-1.698669e+02
4.900000e-07	-4.966185e-06	-2.577046e-09	-3.511399e+01	-1.697248e+02
5.000000e-07	-4.946620e-06	-2.593477e-09	-3.497565e+01	-1.695686e+02
5.100000e-07	-4.926835e-06	-2.594443e-09	-3.483576e+01	-1.693997e+02
5.200000e-07	-4.906956e-06	-2.574690e-09	-3.469521e+01	-1.692195e+02
5.300000e-07	-4.886912e-06	-2.570308e-09	-3.455348e+01	-1.690295e+02
5.400000e-07	-4.866605e-06	-2.569155e-09	-3.440990e+01	-1.688313e+02
5.500000e-07	-4.845900e-06	-2.567909e-09	-3.426350e+01	-1.686264e+02
5.600000e-07	-4.824697e-06	-2.564530e-09	-3.411359e+01	-1.684161e+02
5.700000e-07	-4.803120e-06	-2.563713e-09	-3.396102e+01	-1.682019e+02
5.800000e-07	-4.781212e-06	-2.553373e-09	-3.380612e+01	-1.679851e+02
5.900000e-07	-4.758991e-06	-2.556831e-09	-3.364900e+01	-1.677667e+02
6.000000e-07	-4.736418e-06	-2.553438e-09	-3.348940e+01	-1.675478e+02
6.100000e-07	-4.713565e-06	-2.539535e-09	-3.332781e+01	-1.673294e+02
6.200000e-07	-4.690417e-06	-2.525336e-09	-3.316414e+01	-1.671120e+02
6.300000e-07	-4.666836e-06	-2.533835e-09	-3.299741e+01	-1.668965e+02
6.400000e-07	-4.643045e-06	-2.534542e-09	-3.282919e+01	-1.666831e+02
6.500000e-07	-4.619109e-06	-2.532189e-09	-3.265995e+01	-1.664722e+02
6.600000e-07	-4.594978e-06	-2.526702e-09	-3.248933e+01	-1.662638e+02
6.700000e-07	-4.570576e-06	-2.529029e-09	-3.231679e+01	-1.660581e+02
6.800000e-07	-4.545815e-06	-2.523589e-09	-3.214171e+01	-1.658549e+02
6.900000e-07	-4.520625e-06	-2.514864e-09	-3.196361e+01	-1.656538e+02
7.000000e-07	-4.494869e-06	-2.497770e-09	-3.178150e+01	-1.654547e+02
7.100000e-07	-4.468430e-06	-2.491547e-09	-3.159456e+01	-1.652570e+02
7.200000e-07	-4.441474e-06	-2.494018e-09	-3.140396e+01	-1.650602e+02
7.300000e-07	-4.414151e-06	-2.500028e-09	-3.121077e+01	-1.648639e+02
7.400000e-07	-4.386566e-06	-2.497711e-09	-3.101573e+01	-1.646673e+02
7.500000e-07	-4.358829e-06	-2.494567e-09	-3.081961e+01	-1.644700e+02
7.600000e-07	-4.330933e-06	-2.488752e-09	-3.062237e+01	-1.642713e+02
7.700000e-07	-4.302884e-06	-2.480816e-09	-3.042405e+01	-1.640705e+02
7.800000e-07	-4.274445e-06	-2.468999e-09	-3.022297e+01	-1.638673e+02
7.900000e-07	-4.245650e-06	-2.460380e-09	-3.001937e+01	-1.636609e+02
8.000000e-07	-4.216562e-06	-2.461260e-09	-2.981370e+01	-1.634509e+02
8.100000e-07	-4.187208e-06	-2.465358e-09	-2.960614e+01	-1.632370e+02
8.200000e-07	-4.157663e-06	-2.465555e-09	-2.939724e+01	-1.630186e+02
8.300000e-07	-4.127856e-06	-2.461717e-09	-2.918649e+01	-1.627956e+02
8.400000e-07	-4.097771e-06	-2.460181e-09	-2.897377e+01	-1.625677e+02
8.500000e-07	-4.067369e-06	-2.452623e-09	-2.875881e+01	-1.623347e+02
8.600000e-07	-4.036633e-06	-2.439533e-09	-2.854149e+01	-1.620964e+02
8.700000e-07	-4.005600e-06	-2.424917e-09	-2.832207e+01	-1.618529e+02
8.800000e-07	-3.974429e-06	-2.419502e-09	-2.810166e+01	-1.616042e+02
8.900000e-07	-3.943059e-06	-2.418462e-09	-2.787986e+01	-1.613502e+02
9.000000e-07	-3.911410e-06	-2.419977e-09	-2.765608e+01	-1.610910e+02
9.100000e-07	-3.879570e-06	-2.415958e-09	-2.743095e+01	-1.608268e+02
9.200000e-07	-3.847515e-06	-2.415201e-09	-2.720431e+01	-1.605577e+02
9.300000e-07	-3.815240e-06	-2.412834e-09	-2.697610e+01	-1.602838e+02
9.400000e-07	-3.782687e-06	-2.407408e-09	-2.674593e+01	-1.600053e+02
9.500000e-07	-3.749760e-06	-2.395253e-09	-2.651312e+01	-1.597222e+02
9.600000e-07	-3.716515e-06	-2.386630e-09	-2.627805e+01	-1.594348e+02
9.700000e-07	-3.682916e-06	-2.381490e-09	-2.604049e+01	-1.591430e+02
9.800000e-07	-3.648748e-06	-2.384136e-09	-2.579890e+01	-1.588471e+02
9.900000e-07	-3.614129e-06	-2.384087e-09	-2.555412e+01	-1.585471e+02
1.000000e-06	-3.579283e-06	-2.379916e-09	-2.530774e+01	-1.582429e+02
1.010000e-06	-3.544092e-06	-2.373618e-09	-2.505892e+01	-1.579346e+02
1.020000e-06	-3.508557e-06	-2.369210e-09	-2.480766e+01	-1.576222e+02
1.030000e-06	-3.472867e-06	-2.360257e-09	-2.455531e+01	-1.573055e+02
1.040000e-06	-3.437063e-06	-2.348934e-09	-2.430216e+01	-1.569845e+02
1.050000e-06	-3.401108e-06	-2.339604e-09	-2.404793e+01	-1.566591e+02
1.060000e-06	-3.365010e-06	-2.334922e-09	-2.379270e+01	-1.563290e+02
1.070000e-06	-3.328691e-06	-2.331841e-09	-2.353590e+01	-1.559942e+02
1.080000e-06	-3.292105e-06	-2.327768e-09	-2.327721e+01	-1.556545e+02
1.090000e-06	-3.255281e-06	-2.320494e-09	-2.301684e+01	-1.553097e+02
1.100000e-06	-3.218256e-06	-2.313716e-09	-2.275505e+01	-1.549595e+02
1.110000e-06	-3.180980e-06	-2.308142e-09	-2.249149e+01	-1.546039e+02
1.120000e-06	-3.143368e-06	-2.299807e-09	-2.222555e+01	-1.542427e+02
1.130000e-06	-3.105564e-06	-2.292930e-09	-2.195826e+01	-1.538756e+02
1.140000e-06	-3.067632e-06	-2.286297e-09	-2.169005e+01	-1.535027e+02
1.150000e-06	-3.029527e-06	-2.281397e-09	-2.142063e+01	-1.531236e+02
1.160000e-06	-2.991247e-06	-2.275166e-09	-2.114996e+01	-1.527384e+02
1.170000e-06	-2.952683e-06	-2.266226e-09	-2.087729e+01	-1.523469e+02
1.180000e-06	-2.913915e-06	-2.255456e-09	-2.060318e+01	-1.519491e+02
1.190000e-06	-2.875035e-06	-2.248122e-09	-2.032827e+01	-1.515449e+02
1.200000e-06	-2.836024e-06	-2.242923e-09	-2.005244e+01	-1.511343e+02
1.210000e-06	-2.796865e-06	-2.236795e-09	-1.977556e+01	-1.507171e+02
1.220000e-06	-2.757415e-06	-2.225714e-09	-1.949662e+01	-1.502936e+02
1.230000e-06	-2.717708e-06	-2.216995e-09	-1.921587e+01	-1.498634e+02
1.240000e-06	-2.677855e-06	-2.209355e-09	-1.893408e+01	-1.494268e+02
1.250000e-06	-2.637933e-06	-2.199791e-09	-1.865182e+01	-1.489835e+02
1.260000e-06	-2.597924e-06	-2.187554e-09	-1.836893e+01	-1.485336e+02
1.270000e-06	-2.557779e-06	-2.178525e-09	-1.808507e+01	-1.480769e+02
1.280000e-06	-2.517517e-06	-2.172110e-09	-1.780040e+01	-1.476133e+02
1.290000e-06	-2.477132e-06	-2.167164e-09	-1.751485e+01	-1.471427e+02
1.300000e-06	-2.436583e-06	-2.159862e-09	-1.722814e+01	-1.466649e+02
1.310000e-06	-2.395846e-06	-2.150670e-09	-1.694011e+01	-1.461795e+02
1.320000e-06	-2.354813e-06	-2.141321e-09	-1.664998e+01	-1.456864e+02
1.330000e-06	-2.313449e-06	-2.130294e-09	-1.635751e+01	-1.451851e+02
1.340000e-06	-2.271796e-06	-2.117572e-09	-1.606300e+01	-1.446754e+02
1.350000e-06	-2.229833e-06	-2.106604e-09	-1.576630e+01	-1.441566e+02
1.360000e-06	-2.187637e-06	-2.099105e-09	-1.546794e+01	-1.436284e+02
1.370000e-06	-2.145186e-06	-2.095014e-09	-1.516779e+01	-1.430902e+02
1.380000e-06	-2.102401e-06	-2.089591e-09	-1.486527e+01	-1.425414e+02
1.390000e-06	-2.059393e-06	-2.078859e-09	-1.456118e+01	-1.419815e+02
1.400000e-06	-2.016257e-06	-2.067233e-09	-1.425618e+01	-1.414097e+02
1.410000e-06	-1.973027e-06	-2.058484e-09	-1.395052e+01	-1.408253e+02
1.420000e-06	-1.929664e-06	-2.049154e-09	-1.364391e+01	-1.402278e+02
1.430000e-06	-1.886176e-06	-2.035890e-09	-1.333643e+01	-1.396164e+02
1.440000e-06	-1.842537e-06	-2.023774e-09	-1.302787e+01	-1.389904e+02
1.450000e-06	-1.798704e-06	-2.013795e-09	-1.271794e+01	-1.383490e+02
1.460000e-06	-1.754848e-06	-2.005861e-09	-1.240786e+01	-1.376917e+02
1.470000e-06	-1.710936e-06	-1.994432e-09	-1.209737e+01	-1.370176e+02
1.480000e-06	-1.666932e-06	-1.980097e-09	-1.178624e+01	-1.363262e+02
1.490000e-06	-1.622849e-06	-1.968099e-09	-1.147454e+01	-1.356168e+02
1.500000e-06	-1.578664e-06	-1.956896e-09	-1.116213e+01	-1.348888e+02
1.510000e-06	-1.534436e-06	-1.945775e-09	-1.084941e+01	-1.341416e+02
1.520000e-06	-1.490106e-06	-1.932633e-09	-1.053597e+01	-1.333745e+02
1.530000e-06	-1.445656e-06	-1.919605e-09	-1.022168e+01	-1.325872e+02
1.540000e-06	-1.401130e-06	-1.909561e-09	-9.906856e+00	-1.317789e+02
1.550000e-06	-1.356580e-06	-1.899315e-09	-9.591860e+00	-1.309491e+02
1.560000e-06	-1.312016e-06	-1.885602e-09	-9.276759e+00	-1.300974e+02
1.570000e-06	-1.267338e-06	-1.871320e-09	-8.960862e+00	-1.292232e+02
1.580000e-06	-1.222522e-06	-1.859643e-09	-8.643983e+00	-1.283259e+02
1.590000e-06	-1.177576e-06	-1.846896e-09	-8.326190e+00	-1.274049e+02
1.600000e-06	-1.132459e-06	-1.834131e-09	-8.007181e+00	-1.264596e+02
1.610000e-06	-1.087248e-06	-1.822737e-09	-7.687513e+00	-1.254894e+02
1.620000e-06	-1.041997e-06	-1.810078e-09	-7.367564e+00	-1.244934e+02
1.630000e-06	-9.966635e-07	-1.792517e-09	-7.047026e+00	-1.234710e+02
1.640000e-06	-9.512241e-07	-1.771407e-09	-6.725741e+00	-1.224212e+02
1.650000e-06	-9.056865e-07	-1.751989e-09	-6.403763e+00	-1.213431e+02
1.660000e-06	-8.601510e-07	-1.735959e-09	-6.081798e+00	-1.202356e+02
1.670000e-06	-8.146080e-07	-1.722337e-09	-5.759781e+00	-1.190975e+02
1.680000e-06	-7.689343e-07	-1.707979e-09	-5.436840e+00	-1.179277e+02
1.690000e-06	-7.232128e-07	-1.689519e-09	-5.113561e+00	-1.167246e+02
1.700000e-06	-6.775013e-07	-1.669866e-09	-4.790352e+00	-1.154870e+02
1.710000e-06	-6.316524e-07	-1.650908e-09	-4.466172e+00	-1.142131e+02
1.720000e-06	-5.857460e-07	-1.629451e-09	-4.141586e+00	-1.129015e+02
1.730000e-06	-5.398803e-07	-1.605201e-09	-3.817287e+00	-1.115502e+02
1.740000e-06	-4.940106e-07	-1.583963e-09	-3.492959e+00	-1.101576e+02
1.750000e-06	-4.481215e-07	-1.564389e-09	-3.168496e+00	-1.087218e+02
1.760000e-06	-4.021972e-07	-1.543374e-09	-2.843783e+00	-1.072408e+02
1.770000e-06	-3.562828e-07	-1.520646e-09	-2.519139e+00	-1.057128e+02
1.780000e-06	-3.103217e-07	-1.496542e-09	-2.194166e+00	-1.041359e+02
1.790000e-06	-2.642825e-07	-1.472710e-09	-1.868640e+00	-1.025080e+02
1.800000e-06	-2.182279e-07	-1.448100e-09	-1.543006e+00	-1.008275e+02
1.810000e-06	-1.722264e-07	-1.421312e-09	-1.217747e+00	-9.909239e+01
1.820000e-06	-1.262375e-07	-1.394903e-09	-8.925767e-01	-9.730107e+01
1.830000e-06	-8.018770e-08	-1.370376e-09	-5.669765e-01	-9.545192e+01
1.840000e-06	-3.415754e-08	-1.345269e-09	-2.415148e-01	-9.354345e+01
1.850000e-06	1.185738e-08	-1.317135e-09	8.383896e-02	-9.157437e+01
1.860000e-06	5.784015e-08	-1.285569e-09	4.089655e-01	-8.954351e+01
1.870000e-06	1.038231e-07	-1.253390e-09	7.340931e-01	-8.744994e+01
1.880000e-06	1.498207e-07	-1.221008e-09	1.059325e+00	-8.529289e+01
1.890000e-06	1.957024e-07	-1.187714e-09	1.383737e+00	-8.307184e+01
1.900000e-06	2.416077e-07	-1.153629e-09	1.708315e+00	-8.078648e+01
1.910000e-06	2.875560e-07	-1.119094e-09	2.033198e+00	-7.843674e+01
1.920000e-06	3.334738e-07	-1.084363e-09	2.357865e+00	-7.602279e+01
1.930000e-06	3.794872e-07	-1.048326e-09	2.683209e+00	-7.354505e+01
1.940000e-06	4.254919e-07	-1.012119e-09	3.008490e+00	-7.100417e+01
1.950000e-06	4.714491e-07	-9.746477e-10	3.333436e+00	-6.840102e+01
1.960000e-06	5.173322e-07	-9.339858e-10	3.657858e+00	-6.573672e+01
1.970000e-06	5.631225e-07	-8.932625e-10	3.981623e+00	-6.301260e+01
1.980000e-06	6.088797e-07	-8.531755e-10	4.305155e+00	-6.023018e+01
1.990000e-06	6.545349e-07	-8.117553e-10	4.627966e+00	-5.739117e+01
2.000000e-06	7.001913e-07	-7.700870e-10	4.950785e+00	-5.449748e+01
2.010000e-06	7.457806e-07	-7.285752e-10	5.273129e+00	-5.155114e+01
2.020000e-06	7.912453e-07	-6.835433e-10	5.594593e+00	-4.855434e+01
2.030000e-06	8.367122e-07	-6.345179e-10	5.916071e+00	-4.550937e+01
2.040000e-06	8.821938e-07	-5.868125e-10	6.237655e+00	-4.241864e+01
2.050000e-06	9.276620e-07	-5.421412e-10	6.559143e+00	-3.928463e+01
2.060000e-06	9.730901e-07	-4.982919e-10	6.880348e+00	-3.610988e+01
2.070000e-06	1.018427e-06	-4.543344e-10	7.200906e+00	-3.289699e+01
2.080000e-06	1.063605e-06	-4.103271e-10	7.520344e+00	-2.964858e+01
2.090000e-06	1.108732e-06	-3.646946e-10	7.839423e+00	-2.636731e+01
2.100000e-06	1.153753e-06	-3.145431e-10	8.157744e+00	-2.305584e+01
2.110000e-06	1.198598e-06	-2.622082e-10	8.474830e+00	-1.971681e+01
2.120000e-06	1.243466e-06	-2.106400e-10	8.792072e+00	-1.635290e+01
2.130000e-06	1.288298e-06	-1.603222e-10	9.109063e+00	-1.296674e+01
2.140000e-06	1.332932e-06	-1.107903e-10	9.424649e+00	-9.560980e+00
2.150000e-06	1.377477e-06	-6.029024e-11	9.739609e+00	-6.138232e+00
2.160000e-06	1.421993e-06	-9.403428e-12	1.005437e+01	-2.701118e+00
2.170000e-06	1.466348e-06	4.020450e-11	1.036798e+01	7.477525e-01
2.180000e-06	1.510580e-06	9.257132e-11	1.068074e+01	4.205767e+00
2.190000e-06	1.554726e-06	1.485145e-10	1.099287e+01	7.670307e+00
2.200000e-06	1.598791e-06	2.019159e-10	1.130444e+01	1.113874e+01
2.210000e-06	1.642836e-06	2.519998e-10	1.161587e+01	1.460842e+01
2.220000e-06	1.686843e-06	3.028356e-10	1.192702e+01	1.807667e+01
2.230000e-06	1.730764e-06	3.558022e-10	1.223757e+01	2.154076e+01
2.240000e-06	1.774611e-06	4.077264e-10	1.254759e+01	2.499796e+01
2.250000e-06	1.818358e-06	4.568297e-10	1.285691e+01	2.844546e+01
2.260000e-06	1.862027e-06	5.079519e-10	1.316568e+01	3.188042e+01
2.270000e-06	1.905676e-06	5.610681e-10	1.347431e+01	3.529996e+01
2.280000e-06	1.949227e-06	6.123196e-10	1.378223e+01	3.870113e+01
2.290000e-06	1.992726e-06	6.610912e-10	1.408980e+01	4.208097e+01
2.300000e-06	2.036086e-06	7.067478e-10	1.439638e+01	4.543646e+01
2.310000e-06	2.079139e-06	7.518710e-10	1.470079e+01	4.876456e+01
2.320000e-06	2.121983e-06	7.990373e-10	1.500373e+01	5.206223e+01
2.330000e-06	2.164606e-06	8.471471e-10	1.530510e+01	5.532640e+01
2.340000e-06	2.206913e-06	8.952830e-10	1.560424e+01	5.855405e+01
2.350000e-06	2.248824e-06	9.445720e-10	1.590058e+01	6.174217e+01
2.360000e-06	2.290419e-06	9.957343e-10	1.619467e+01	6.488780e+01
2.370000e-06	2.331821e-06	1.044342e-09	1.648741e+01	6.798808e+01
2.380000e-06	2.372914e-06	1.085880e-09	1.677797e+01	7.104023e+01
2.390000e-06	2.413813e-06	1.123015e-09	1.706715e+01	7.404159e+01
2.400000e-06	2.454458e-06	1.158367e-09	1.735453e+01	7.698966e+01
2.410000e-06	2.494798e-06	1.194968e-09	1.763976e+01	7.988208e+01
2.420000e-06	2.535053e-06	1.235510e-09	1.792439e+01	8.271671e+01
2.430000e-06	2.575208e-06	1.279302e-09	1.820831e+01	8.549158e+01
2.440000e-06	2.615204e-06	1.326700e-09	1.849111e+01	8.820499e+01
2.450000e-06	2.655088e-06	1.374490e-09	1.877311e+01	9.085545e+01
2.460000e-06	2.694904e-06	1.412637e-09	1.905463e+01	9.344172e+01
2.470000e-06	2.734608e-06	1.442596e-09	1.933536e+01	9.596287e+01
2.480000e-06	2.774191e-06	1.472445e-09	1.961524e+01	9.841818e+01
2.490000e-06	2.813623e-06	1.501557e-09	1.989405e+01	1.008073e+02
2.500000e-06	2.852843e-06	1.530382e-09	2.017136e+01	1.031299e+02
2.510000e-06	2.891850e-06	1.563175e-09	2.044716e+01	1.053864e+02
2.520000e-06	2.930639e-06	1.603117e-09	2.072142e+01	1.075769e+02
2.530000e-06	2.969225e-06	1.643319e-09	2.099426e+01	1.097023e+02
2.540000e-06	3.007569e-06	1.673610e-09	2.126537e+01	1.117632e+02
2.550000e-06	3.045641e-06	1.696505e-09	2.153456e+01	1.137608e+02
2.560000e-06	3.083529e-06	1.720582e-09	2.180245e+01	1.156964e+02
2.570000e-06	3.121217e-06	1.746957e-09	2.206893e+01	1.175714e+02
2.580000e-06	3.158684e-06	1.770899e-09	2.233384e+01	1.193873e+02
2.590000e-06	3.196021e-06	1.794506e-09	2.259784e+01	1.211459e+02
2.600000e-06	3.233160e-06	1.822361e-09	2.286043e+01	1.228488e+02
2.610000e-06	3.270037e-06	1.852818e-09	2.312118e+01	1.244980e+02
2.620000e-06	3.306669e-06	1.880890e-09	2.338019e+01	1.260951e+02
2.630000e-06	3.343068e-06	1.903993e-09	2.363755e+01	1.276422e+02
2.640000e-06	3.379246e-06	1.928137e-09	2.389336e+01	1.291410e+02
2.650000e-06	3.415224e-06	1.951298e-09	2.414774e+01	1.305931e+02
2.660000e-06	3.451157e-06	1.969581e-09	2.440181e+01	1.320004e+02
2.670000e-06	3.487015e-06	1.982548e-09	2.465535e+01	1.333644e+02
2.680000e-06	3.522662e-06	1.997271e-09	2.490740e+01	1.346865e+02
2.690000e-06	3.558036e-06	2.017070e-09	2.515751e+01	1.359681e+02
2.700000e-06	3.593154e-06	2.038115e-09	2.540582e+01	1.372104e+02
2.710000e-06	3.627984e-06	2.058010e-09	2.565209e+01	1.384145e+02
2.720000e-06	3.662436e-06	2.078627e-09	2.589568e+01	1.395813e+02
2.730000e-06	3.696447e-06	2.101496e-09	2.613616e+01	1.407116e+02
2.740000e-06	3.729911e-06	2.119886e-09	2.637278e+01	1.418062e+02
2.750000e-06	3.762933e-06	2.130948e-09	2.660626e+01	1.428654e+02
2.760000e-06	3.795603e-06	2.139510e-09	2.683726e+01	1.438899e+02
2.770000e-06	3.827961e-06	2.151720e-09	2.706605e+01	1.448798e+02
2.780000e-06	3.860119e-06	2.166609e-09	2.729342e+01	1.458357e+02
2.790000e-06	3.892128e-06	2.182066e-09	2.751975e+01	1.467576e+02
2.800000e-06	3.923985e-06	2.199142e-09	2.774500e+01	1.476458e+02
2.810000e-06	3.955662e-06	2.218313e-09	2.796897e+01	1.485004e+02
2.820000e-06	3.987026e-06	2.233627e-09	2.819074e+01	1.493218e+02
2.830000e-06	4.018101e-06	2.240863e-09	2.841045e+01	1.501100e+02
2.840000e-06	4.048956e-06	2.243932e-09	2.862862e+01	1.508654e+02
2.850000e-06	4.079480e-06	2.251513e-09	2.884444e+01	1.515884e+02
2.860000e-06	4.109712e-06	2.264207e-09	2.905820e+01	1.522793e+02
2.870000e-06	4.139706e-06	2.276969e-09	2.927028e+01	1.529387e+02
2.880000e-06	4.169451e-06	2.286165e-09	2.948059e+01	1.535672e+02
2.890000e-06	4.198937e-06	2.295431e-09	2.968908e+01	1.541657e+02
2.900000e-06	4.228097e-06	2.304326e-09	2.989525e+01	1.547349e+02
