# Temperatura_=_13.2
# Concentracion g/m^3_=_4090.0
# C_Vs_to_Am_M_A/Vsm_=_65563218390.804596
# pendiente_HvsI_1/m_=_3716.3
# ordenada_HvsI_A/m_=_1297.0
# frecuencia_Hz_=_135082.31978289984

Tiempo_(s)	Campo_(V.s)	Magnetizacion_(V.s)	Campo_(kA/m)	Magnetizacion_(A/m)
0.000000e+00	-5.430790e-06	-2.641170e-09	-3.838180e+01	-1.695139e+02
1.000000e-08	-5.430893e-06	-2.644202e-09	-3.838253e+01	-1.694911e+02
2.000000e-08	-5.430856e-06	-2.649763e-09	-3.838227e+01	-1.694644e+02
3.000000e-08	-5.430626e-06	-2.653167e-09	-3.838065e+01	-1.694344e+02
4.000000e-08	-5.430155e-06	-2.651610e-09	-3.837731e+01	-1.694017e+02
5.000000e-08	-5.429236e-06	-2.646091e-09	-3.837082e+01	-1.693671e+02
6.000000e-08	-5.427693e-06	-2.640652e-09	-3.835991e+01	-1.693315e+02
7.000000e-08	-5.425516e-06	-2.636883e-09	-3.834453e+01	-1.692957e+02
8.000000e-08	-5.422734e-06	-2.639736e-09	-3.832487e+01	-1.692606e+02
9.000000e-08	-5.419338e-06	-2.649162e-09	-3.830086e+01	-1.692274e+02
1.000000e-07	-5.415356e-06	-2.672454e-09	-3.827272e+01	-1.691970e+02
1.100000e-07	-5.411036e-06	-2.676183e-09	-3.824219e+01	-1.691703e+02
1.200000e-07	-5.406561e-06	-2.614996e-09	-3.821056e+01	-1.691483e+02
1.300000e-07	-5.402012e-06	-2.602697e-09	-3.817841e+01	-1.691319e+02
1.400000e-07	-5.397173e-06	-2.636098e-09	-3.814422e+01	-1.691219e+02
1.500000e-07	-5.391729e-06	-2.657813e-09	-3.810574e+01	-1.691189e+02
1.600000e-07	-5.385821e-06	-2.595584e-09	-3.806399e+01	-1.691235e+02
1.700000e-07	-5.379667e-06	-2.528105e-09	-3.802049e+01	-1.691362e+02
1.800000e-07	-5.373234e-06	-2.604446e-09	-3.797503e+01	-1.691572e+02
1.900000e-07	-5.366287e-06	-2.645713e-09	-3.792593e+01	-1.691865e+02
2.000000e-07	-5.358939e-06	-2.597538e-09	-3.787400e+01	-1.692242e+02
2.100000e-07	-5.351396e-06	-2.521295e-09	-3.782069e+01	-1.692701e+02
2.200000e-07	-5.343602e-06	-2.568820e-09	-3.776561e+01	-1.693236e+02
2.300000e-07	-5.335533e-06	-2.588522e-09	-3.770858e+01	-1.693842e+02
2.400000e-07	-5.327237e-06	-2.556646e-09	-3.764994e+01	-1.694513e+02
2.500000e-07	-5.318541e-06	-2.558303e-09	-3.758849e+01	-1.695238e+02
2.600000e-07	-5.309183e-06	-2.621775e-09	-3.752235e+01	-1.696008e+02
2.700000e-07	-5.299201e-06	-2.621143e-09	-3.745180e+01	-1.696810e+02
2.800000e-07	-5.288670e-06	-2.600069e-09	-3.737738e+01	-1.697633e+02
2.900000e-07	-5.277561e-06	-2.618908e-09	-3.729886e+01	-1.698462e+02
3.000000e-07	-5.265916e-06	-2.621563e-09	-3.721656e+01	-1.699284e+02
3.100000e-07	-5.253885e-06	-2.585238e-09	-3.713153e+01	-1.700083e+02
3.200000e-07	-5.241450e-06	-2.584641e-09	-3.704365e+01	-1.700846e+02
3.300000e-07	-5.228649e-06	-2.640226e-09	-3.695318e+01	-1.701557e+02
3.400000e-07	-5.215479e-06	-2.629812e-09	-3.686010e+01	-1.702201e+02
3.500000e-07	-5.201911e-06	-2.592619e-09	-3.676421e+01	-1.702765e+02
3.600000e-07	-5.187945e-06	-2.597724e-09	-3.666551e+01	-1.703236e+02
3.700000e-07	-5.173595e-06	-2.621901e-09	-3.656409e+01	-1.703601e+02
3.800000e-07	-5.158864e-06	-2.588871e-09	-3.645998e+01	-1.703849e+02
3.900000e-07	-5.143520e-06	-2.568833e-09	-3.635154e+01	-1.703970e+02
4.000000e-07	-5.127544e-06	-2.579519e-09	-3.623862e+01	-1.703955e+02
4.100000e-07	-5.111127e-06	-2.591290e-09	-3.612260e+01	-1.703798e+02
4.200000e-07	-5.094338e-06	-2.584608e-09	-3.600395e+01	-1.703492e+02
4.300000e-07	-5.077222e-06	-2.597720e-09	-3.588298e+01	-1.703035e+02
4.400000e-07	-5.059784e-06	-2.582674e-09	-3.575974e+01	-1.702424e+02
4.500000e-07	-5.042004e-06	-2.573755e-09	-3.563408e+01	-1.701658e+02
4.600000e-07	-5.023910e-06	-2.576221e-09	-3.550620e+01	-1.700738e+02
4.700000e-07	-5.005580e-06	-2.579935e-09	-3.537665e+01	-1.699667e+02
4.800000e-07	-4.986872e-06	-2.550784e-09	-3.524444e+01	-1.698449e+02
4.900000e-07	-4.967702e-06	-2.553085e-09	-3.510895e+01	-1.697089e+02
5.000000e-07	-4.948209e-06	-2.566804e-09	-3.497119e+01	-1.695594e+02
5.100000e-07	-4.928522e-06	-2.571400e-09	-3.483205e+01	-1.693972e+02
5.200000e-07	-4.908569e-06	-2.558562e-09	-3.469104e+01	-1.692231e+02
5.300000e-07	-4.888283e-06	-2.561765e-09	-3.454767e+01	-1.690380e+02
5.400000e-07	-4.867831e-06	-2.563152e-09	-3.440312e+01	-1.688429e+02
5.500000e-07	-4.847053e-06	-2.565631e-09	-3.425627e+01	-1.686389e+02
5.600000e-07	-4.825807e-06	-2.553348e-09	-3.410612e+01	-1.684269e+02
5.700000e-07	-4.804205e-06	-2.536885e-09	-3.395345e+01	-1.682082e+02
5.800000e-07	-4.782306e-06	-2.531060e-09	-3.379868e+01	-1.679836e+02
5.900000e-07	-4.760172e-06	-2.535475e-09	-3.364225e+01	-1.677543e+02
6.000000e-07	-4.737777e-06	-2.530531e-09	-3.348398e+01	-1.675212e+02
6.100000e-07	-4.715051e-06	-2.526090e-09	-3.332336e+01	-1.672853e+02
6.200000e-07	-4.692003e-06	-2.534866e-09	-3.316046e+01	-1.670475e+02
6.300000e-07	-4.668580e-06	-2.538215e-09	-3.299493e+01	-1.668085e+02
6.400000e-07	-4.644891e-06	-2.532872e-09	-3.282750e+01	-1.665691e+02
6.500000e-07	-4.620979e-06	-2.518581e-09	-3.265851e+01	-1.663299e+02
6.600000e-07	-4.596777e-06	-2.505504e-09	-3.248746e+01	-1.660915e+02
6.700000e-07	-4.572308e-06	-2.499431e-09	-3.231453e+01	-1.658543e+02
6.800000e-07	-4.547491e-06	-2.504424e-09	-3.213913e+01	-1.656188e+02
6.900000e-07	-4.522269e-06	-2.496587e-09	-3.196088e+01	-1.653851e+02
7.000000e-07	-4.496486e-06	-2.493798e-09	-3.177866e+01	-1.651536e+02
7.100000e-07	-4.470064e-06	-2.497604e-09	-3.159193e+01	-1.649241e+02
7.200000e-07	-4.443114e-06	-2.503569e-09	-3.140146e+01	-1.646969e+02
7.300000e-07	-4.415679e-06	-2.490919e-09	-3.120756e+01	-1.644717e+02
7.400000e-07	-4.387974e-06	-2.480401e-09	-3.101176e+01	-1.642485e+02
7.500000e-07	-4.360144e-06	-2.470202e-09	-3.081507e+01	-1.640269e+02
7.600000e-07	-4.332153e-06	-2.469077e-09	-3.061725e+01	-1.638068e+02
7.700000e-07	-4.303962e-06	-2.462890e-09	-3.041801e+01	-1.635877e+02
7.800000e-07	-4.275545e-06	-2.458271e-09	-3.021717e+01	-1.633693e+02
7.900000e-07	-4.246856e-06	-2.455226e-09	-3.001441e+01	-1.631511e+02
8.000000e-07	-4.217901e-06	-2.462001e-09	-2.980977e+01	-1.629325e+02
8.100000e-07	-4.188606e-06	-2.458590e-09	-2.960274e+01	-1.627131e+02
8.200000e-07	-4.158936e-06	-2.447843e-09	-2.939305e+01	-1.624924e+02
8.300000e-07	-4.129041e-06	-2.438389e-09	-2.918176e+01	-1.622696e+02
8.400000e-07	-4.098918e-06	-2.437661e-09	-2.896887e+01	-1.620443e+02
8.500000e-07	-4.068491e-06	-2.437126e-09	-2.875383e+01	-1.618159e+02
8.600000e-07	-4.037737e-06	-2.430098e-09	-2.853648e+01	-1.615837e+02
8.700000e-07	-4.006707e-06	-2.417341e-09	-2.831717e+01	-1.613472e+02
8.800000e-07	-3.975403e-06	-2.411885e-09	-2.809593e+01	-1.611058e+02
8.900000e-07	-3.943919e-06	-2.411228e-09	-2.787343e+01	-1.608588e+02
9.000000e-07	-3.912208e-06	-2.406998e-09	-2.764931e+01	-1.606058e+02
9.100000e-07	-3.880215e-06	-2.400387e-09	-2.742320e+01	-1.603463e+02
9.200000e-07	-3.848113e-06	-2.400056e-09	-2.719632e+01	-1.600797e+02
9.300000e-07	-3.815834e-06	-2.405820e-09	-2.696819e+01	-1.598056e+02
9.400000e-07	-3.783253e-06	-2.404170e-09	-2.673793e+01	-1.595236e+02
9.500000e-07	-3.750443e-06	-2.392061e-09	-2.650605e+01	-1.592334e+02
9.600000e-07	-3.717382e-06	-2.376467e-09	-2.627239e+01	-1.589345e+02
9.700000e-07	-3.683848e-06	-2.369969e-09	-2.603539e+01	-1.586268e+02
9.800000e-07	-3.649911e-06	-2.366039e-09	-2.579554e+01	-1.583101e+02
9.900000e-07	-3.615635e-06	-2.362503e-09	-2.555330e+01	-1.579841e+02
1.000000e-06	-3.580885e-06	-2.362255e-09	-2.530770e+01	-1.576489e+02
1.010000e-06	-3.545668e-06	-2.371745e-09	-2.505881e+01	-1.573045e+02
1.020000e-06	-3.510106e-06	-2.375529e-09	-2.480748e+01	-1.569508e+02
1.030000e-06	-3.474323e-06	-2.365114e-09	-2.455458e+01	-1.565880e+02
1.040000e-06	-3.438405e-06	-2.344355e-09	-2.430074e+01	-1.562163e+02
1.050000e-06	-3.402355e-06	-2.330467e-09	-2.404595e+01	-1.558359e+02
1.060000e-06	-3.366122e-06	-2.320064e-09	-2.378988e+01	-1.554472e+02
1.070000e-06	-3.329676e-06	-2.313484e-09	-2.353230e+01	-1.550504e+02
1.080000e-06	-3.293069e-06	-2.308046e-09	-2.327358e+01	-1.546461e+02
1.090000e-06	-3.256376e-06	-2.309316e-09	-2.301425e+01	-1.542345e+02
1.100000e-06	-3.219476e-06	-2.309527e-09	-2.275347e+01	-1.538163e+02
1.110000e-06	-3.182319e-06	-2.301189e-09	-2.249086e+01	-1.533918e+02
1.120000e-06	-3.144762e-06	-2.281503e-09	-2.222543e+01	-1.529617e+02
1.130000e-06	-3.106878e-06	-2.266963e-09	-2.195769e+01	-1.525263e+02
1.140000e-06	-3.068928e-06	-2.262243e-09	-2.168948e+01	-1.520863e+02
1.150000e-06	-3.030808e-06	-2.260803e-09	-2.142007e+01	-1.516420e+02
1.160000e-06	-2.992428e-06	-2.255071e-09	-2.114882e+01	-1.511940e+02
1.170000e-06	-2.953837e-06	-2.248806e-09	-2.087608e+01	-1.507426e+02
1.180000e-06	-2.915147e-06	-2.243899e-09	-2.060264e+01	-1.502882e+02
1.190000e-06	-2.876238e-06	-2.236734e-09	-2.032765e+01	-1.498309e+02
1.200000e-06	-2.836937e-06	-2.224915e-09	-2.004989e+01	-1.493711e+02
1.210000e-06	-2.797431e-06	-2.210688e-09	-1.977069e+01	-1.489087e+02
1.220000e-06	-2.757844e-06	-2.199354e-09	-1.949091e+01	-1.484439e+02
1.230000e-06	-2.718127e-06	-2.192115e-09	-1.921021e+01	-1.479764e+02
1.240000e-06	-2.678290e-06	-2.185289e-09	-1.892866e+01	-1.475060e+02
1.250000e-06	-2.638360e-06	-2.176688e-09	-1.864646e+01	-1.470325e+02
1.260000e-06	-2.598323e-06	-2.168114e-09	-1.836350e+01	-1.465553e+02
1.270000e-06	-2.558181e-06	-2.157702e-09	-1.807980e+01	-1.460739e+02
1.280000e-06	-2.517881e-06	-2.146650e-09	-1.779498e+01	-1.455876e+02
1.290000e-06	-2.477380e-06	-2.133231e-09	-1.750874e+01	-1.450957e+02
1.300000e-06	-2.436714e-06	-2.121123e-09	-1.722134e+01	-1.445972e+02
1.310000e-06	-2.395817e-06	-2.112923e-09	-1.693230e+01	-1.440913e+02
1.320000e-06	-2.354782e-06	-2.111011e-09	-1.664229e+01	-1.435768e+02
1.330000e-06	-2.313620e-06	-2.106450e-09	-1.635138e+01	-1.430527e+02
1.340000e-06	-2.272130e-06	-2.097017e-09	-1.605815e+01	-1.425178e+02
1.350000e-06	-2.230203e-06	-2.085483e-09	-1.576183e+01	-1.419710e+02
1.360000e-06	-2.187985e-06	-2.073234e-09	-1.546346e+01	-1.414112e+02
1.370000e-06	-2.145427e-06	-2.060261e-09	-1.516268e+01	-1.408370e+02
1.380000e-06	-2.102616e-06	-2.048326e-09	-1.486012e+01	-1.402475e+02
1.390000e-06	-2.059708e-06	-2.034212e-09	-1.455687e+01	-1.396415e+02
1.400000e-06	-2.016659e-06	-2.023181e-09	-1.425263e+01	-1.390179e+02
1.410000e-06	-1.973440e-06	-2.016083e-09	-1.394718e+01	-1.383758e+02
1.420000e-06	-1.929987e-06	-2.007767e-09	-1.364008e+01	-1.377142e+02
1.430000e-06	-1.886371e-06	-1.993469e-09	-1.333182e+01	-1.370325e+02
1.440000e-06	-1.842598e-06	-1.977417e-09	-1.302246e+01	-1.363298e+02
1.450000e-06	-1.798784e-06	-1.963912e-09	-1.271280e+01	-1.356056e+02
1.460000e-06	-1.754923e-06	-1.953445e-09	-1.240282e+01	-1.348596e+02
1.470000e-06	-1.710923e-06	-1.939699e-09	-1.209185e+01	-1.340912e+02
1.480000e-06	-1.666815e-06	-1.921592e-09	-1.178012e+01	-1.333003e+02
1.490000e-06	-1.622642e-06	-1.907168e-09	-1.146793e+01	-1.324868e+02
1.500000e-06	-1.578352e-06	-1.897100e-09	-1.115491e+01	-1.316505e+02
1.510000e-06	-1.533994e-06	-1.885650e-09	-1.084141e+01	-1.307917e+02
1.520000e-06	-1.489561e-06	-1.869564e-09	-1.052739e+01	-1.299103e+02
1.530000e-06	-1.445103e-06	-1.853581e-09	-1.021318e+01	-1.290067e+02
1.540000e-06	-1.400581e-06	-1.843722e-09	-9.898530e+00	-1.280808e+02
1.550000e-06	-1.355954e-06	-1.834614e-09	-9.583125e+00	-1.271331e+02
1.560000e-06	-1.311276e-06	-1.817494e-09	-9.267369e+00	-1.261636e+02
1.570000e-06	-1.266490e-06	-1.798079e-09	-8.950844e+00	-1.251726e+02
1.580000e-06	-1.221613e-06	-1.784009e-09	-8.633684e+00	-1.241601e+02
1.590000e-06	-1.176609e-06	-1.772258e-09	-8.315617e+00	-1.231262e+02
1.600000e-06	-1.131504e-06	-1.755872e-09	-7.996839e+00	-1.220707e+02
1.610000e-06	-1.086326e-06	-1.736355e-09	-7.677551e+00	-1.209933e+02
1.620000e-06	-1.041089e-06	-1.720054e-09	-7.357837e+00	-1.198938e+02
1.630000e-06	-9.957745e-07	-1.707312e-09	-7.037580e+00	-1.187715e+02
1.640000e-06	-9.503064e-07	-1.691672e-09	-6.716237e+00	-1.176256e+02
1.650000e-06	-9.047567e-07	-1.672139e-09	-6.394317e+00	-1.164553e+02
1.660000e-06	-8.592260e-07	-1.653727e-09	-6.072532e+00	-1.152593e+02
1.670000e-06	-8.136739e-07	-1.639487e-09	-5.750594e+00	-1.140364e+02
1.680000e-06	-7.680101e-07	-1.621463e-09	-5.427868e+00	-1.127848e+02
1.690000e-06	-7.222190e-07	-1.596742e-09	-5.104242e+00	-1.115029e+02
1.700000e-06	-6.763998e-07	-1.572207e-09	-4.780417e+00	-1.101886e+02
1.710000e-06	-6.305892e-07	-1.554525e-09	-4.456654e+00	-1.088399e+02
1.720000e-06	-5.846995e-07	-1.536610e-09	-4.132331e+00	-1.074544e+02
1.730000e-06	-5.387770e-07	-1.513529e-09	-3.807776e+00	-1.060297e+02
1.740000e-06	-4.928197e-07	-1.489542e-09	-3.482975e+00	-1.045632e+02
1.750000e-06	-4.468591e-07	-1.467627e-09	-3.158152e+00	-1.030523e+02
1.760000e-06	-4.008921e-07	-1.443343e-09	-2.833282e+00	-1.014944e+02
1.770000e-06	-3.549074e-07	-1.413406e-09	-2.508288e+00	-9.988682e+01
1.780000e-06	-3.089249e-07	-1.384407e-09	-2.183310e+00	-9.822685e+01
1.790000e-06	-2.628937e-07	-1.363280e-09	-1.857987e+00	-9.651194e+01
1.800000e-06	-2.168482e-07	-1.343828e-09	-1.532562e+00	-9.473963e+01
1.810000e-06	-1.707665e-07	-1.317355e-09	-1.206882e+00	-9.290759e+01
1.820000e-06	-1.246280e-07	-1.286120e-09	-8.808015e-01	-9.101368e+01
1.830000e-06	-7.852476e-08	-1.256502e-09	-5.549693e-01	-8.905597e+01
1.840000e-06	-3.247722e-08	-1.228436e-09	-2.295309e-01	-8.703276e+01
1.850000e-06	1.360924e-08	-1.194289e-09	9.618256e-02	-8.494266e+01
1.860000e-06	5.967328e-08	-1.155735e-09	4.217375e-01	-8.278454e+01
1.870000e-06	1.057375e-07	-1.121812e-09	7.472939e-01	-8.055761e+01
1.880000e-06	1.517991e-07	-1.093577e-09	1.072832e+00	-7.826144e+01
1.890000e-06	1.978409e-07	-1.063362e-09	1.398229e+00	-7.589590e+01
1.900000e-06	2.438721e-07	-1.025412e-09	1.723552e+00	-7.346125e+01
1.910000e-06	2.898215e-07	-9.835329e-10	2.048297e+00	-7.095808e+01
1.920000e-06	3.357901e-07	-9.427635e-10	2.373178e+00	-6.838735e+01
1.930000e-06	3.817748e-07	-9.002887e-10	2.698172e+00	-6.575034e+01
1.940000e-06	4.276724e-07	-8.561020e-10	3.022551e+00	-6.304868e+01
1.950000e-06	4.735279e-07	-8.123669e-10	3.346631e+00	-6.028427e+01
1.960000e-06	5.193940e-07	-7.748153e-10	3.670788e+00	-5.745932e+01
1.970000e-06	5.652624e-07	-7.405389e-10	3.994960e+00	-5.457629e+01
1.980000e-06	6.110151e-07	-6.997490e-10	4.318315e+00	-5.163785e+01
1.990000e-06	6.567396e-07	-6.501998e-10	4.641470e+00	-4.864689e+01
2.000000e-06	7.024702e-07	-6.008985e-10	4.964668e+00	-4.560645e+01
2.010000e-06	7.480803e-07	-5.537802e-10	5.287015e+00	-4.251967e+01
2.020000e-06	7.936527e-07	-5.056680e-10	5.609096e+00	-3.938982e+01
2.030000e-06	8.392674e-07	-4.574289e-10	5.931475e+00	-3.622019e+01
2.040000e-06	8.848223e-07	-4.114401e-10	6.253432e+00	-3.301413e+01
2.050000e-06	9.302736e-07	-3.689156e-10	6.574656e+00	-2.977494e+01
2.060000e-06	9.756660e-07	-3.245540e-10	6.895464e+00	-2.650592e+01
2.070000e-06	1.020930e-06	-2.740438e-10	7.215364e+00	-2.321029e+01
2.080000e-06	1.066063e-06	-2.229183e-10	7.534337e+00	-1.989119e+01
2.090000e-06	1.111075e-06	-1.745067e-10	7.852462e+00	-1.655165e+01
2.100000e-06	1.156029e-06	-1.255989e-10	8.170169e+00	-1.319460e+01
2.110000e-06	1.200929e-06	-7.539111e-11	8.487500e+00	-9.822824e+00
2.120000e-06	1.245680e-06	-2.499512e-11	8.803776e+00	-6.438994e+00
2.130000e-06	1.290311e-06	2.454635e-11	9.119198e+00	-3.045642e+00
2.140000e-06	1.334898e-06	7.525707e-11	9.434314e+00	3.548279e-01
2.150000e-06	1.379431e-06	1.257715e-10	9.749049e+00	3.760131e+00
2.160000e-06	1.423873e-06	1.762220e-10	1.006314e+01	7.168092e+00
2.170000e-06	1.468239e-06	2.256613e-10	1.037670e+01	1.057663e+01
2.180000e-06	1.512559e-06	2.755017e-10	1.068993e+01	1.398375e+01
2.190000e-06	1.556848e-06	3.270259e-10	1.100293e+01	1.738751e+01
2.200000e-06	1.601054e-06	3.782334e-10	1.131536e+01	2.078601e+01
2.210000e-06	1.645169e-06	4.258127e-10	1.162714e+01	2.417738e+01
2.220000e-06	1.689240e-06	4.736994e-10	1.193861e+01	2.755973e+01
2.230000e-06	1.733268e-06	5.239109e-10	1.224978e+01	3.093117e+01
2.240000e-06	1.777243e-06	5.725156e-10	1.256056e+01	3.428976e+01
2.250000e-06	1.821184e-06	6.199238e-10	1.287112e+01	3.763350e+01
2.260000e-06	1.865019e-06	6.681517e-10	1.318092e+01	4.096033e+01
2.270000e-06	1.908747e-06	7.168879e-10	1.348996e+01	4.426811e+01
2.280000e-06	1.952351e-06	7.640430e-10	1.379813e+01	4.755460e+01
2.290000e-06	1.995742e-06	8.078054e-10	1.410480e+01	5.081747e+01
2.300000e-06	2.038911e-06	8.523100e-10	1.440989e+01	5.405431e+01
2.310000e-06	2.081847e-06	8.988880e-10	1.471334e+01	5.726260e+01
2.320000e-06	2.124487e-06	9.440588e-10	1.501469e+01	6.043976e+01
2.330000e-06	2.166880e-06	9.867925e-10	1.531430e+01	6.358313e+01
2.340000e-06	2.209141e-06	1.030988e-09	1.561298e+01	6.668999e+01
2.350000e-06	2.251013e-06	1.077801e-09	1.590891e+01	6.975761e+01
2.360000e-06	2.292457e-06	1.123791e-09	1.620181e+01	7.278324e+01
2.370000e-06	2.333664e-06	1.165912e-09	1.649304e+01	7.576413e+01
2.380000e-06	2.374723e-06	1.204568e-09	1.678322e+01	7.869759e+01
2.390000e-06	2.415578e-06	1.244812e-09	1.707196e+01	8.158101e+01
2.400000e-06	2.456133e-06	1.283992e-09	1.735858e+01	8.441186e+01
2.410000e-06	2.496544e-06	1.318487e-09	1.764419e+01	8.718776e+01
2.420000e-06	2.536864e-06	1.352339e-09	1.792914e+01	8.990650e+01
2.430000e-06	2.577044e-06	1.392503e-09	1.821311e+01	9.256603e+01
2.440000e-06	2.617139e-06	1.439000e-09	1.849648e+01	9.516453e+01
2.450000e-06	2.657172e-06	1.482014e-09	1.877942e+01	9.770045e+01
2.460000e-06	2.697090e-06	1.517284e-09	1.906153e+01	1.001725e+02
2.470000e-06	2.736853e-06	1.549943e-09	1.934256e+01	1.025795e+02
2.480000e-06	2.776473e-06	1.582140e-09	1.962257e+01	1.049209e+02
2.490000e-06	2.815928e-06	1.612009e-09	1.990141e+01	1.071961e+02
2.500000e-06	2.855118e-06	1.639534e-09	2.017839e+01	1.094051e+02
2.510000e-06	2.894056e-06	1.670103e-09	2.045357e+01	1.115479e+02
2.520000e-06	2.932830e-06	1.705784e-09	2.072761e+01	1.136250e+02
2.530000e-06	2.971374e-06	1.739803e-09	2.100002e+01	1.156371e+02
2.540000e-06	3.009733e-06	1.764929e-09	2.127112e+01	1.175853e+02
2.550000e-06	3.047925e-06	1.787977e-09	2.154104e+01	1.194707e+02
2.560000e-06	3.085883e-06	1.816795e-09	2.180931e+01	1.212948e+02
2.570000e-06	3.123708e-06	1.847122e-09	2.207663e+01	1.230593e+02
2.580000e-06	3.161326e-06	1.871019e-09	2.234250e+01	1.247660e+02
2.590000e-06	3.198687e-06	1.891541e-09	2.260654e+01	1.264168e+02
2.600000e-06	3.235842e-06	1.915011e-09	2.286913e+01	1.280137e+02
2.610000e-06	3.272702e-06	1.938992e-09	2.312964e+01	1.295589e+02
2.620000e-06	3.309250e-06	1.959062e-09	2.338794e+01	1.310544e+02
2.630000e-06	3.345590e-06	1.979244e-09	2.364477e+01	1.325025e+02
2.640000e-06	3.381806e-06	2.003803e-09	2.390072e+01	1.339050e+02
2.650000e-06	3.417907e-06	2.028952e-09	2.415586e+01	1.352641e+02
2.660000e-06	3.453898e-06	2.047764e-09	2.441023e+01	1.365816e+02
2.670000e-06	3.489783e-06	2.063096e-09	2.466385e+01	1.378592e+02
2.680000e-06	3.525466e-06	2.081414e-09	2.491603e+01	1.390987e+02
2.690000e-06	3.560842e-06	2.100690e-09	2.516605e+01	1.403015e+02
2.700000e-06	3.595885e-06	2.115993e-09	2.541372e+01	1.414688e+02
2.710000e-06	3.630571e-06	2.127406e-09	2.565886e+01	1.426017e+02
2.720000e-06	3.664729e-06	2.142931e-09	2.590026e+01	1.437012e+02
2.730000e-06	3.698305e-06	2.163004e-09	2.613756e+01	1.447679e+02
2.740000e-06	3.731490e-06	2.178893e-09	2.637209e+01	1.458025e+02
2.750000e-06	3.764428e-06	2.190395e-09	2.660488e+01	1.468053e+02
2.760000e-06	3.797079e-06	2.205417e-09	2.683564e+01	1.477767e+02
2.770000e-06	3.829396e-06	2.223513e-09	2.706404e+01	1.487166e+02
2.780000e-06	3.861514e-06	2.237069e-09	2.729103e+01	1.496251e+02
2.790000e-06	3.893548e-06	2.245999e-09	2.751743e+01	1.505022e+02
2.800000e-06	3.925486e-06	2.257146e-09	2.774315e+01	1.513478e+02
2.810000e-06	3.957274e-06	2.270039e-09	2.796781e+01	1.521616e+02
2.820000e-06	3.988850e-06	2.280318e-09	2.819097e+01	1.529435e+02
2.830000e-06	4.020053e-06	2.285860e-09	2.841150e+01	1.536935e+02
2.840000e-06	4.050857e-06	2.293734e-09	2.862920e+01	1.544115e+02
2.850000e-06	4.081324e-06	2.307720e-09	2.884453e+01	1.550974e+02
2.860000e-06	4.111541e-06	2.322224e-09	2.905808e+01	1.557515e+02
2.870000e-06	4.141515e-06	2.332972e-09	2.926992e+01	1.563739e+02
2.880000e-06	4.171246e-06	2.342840e-09	2.948004e+01	1.569651e+02
2.890000e-06	4.200744e-06	2.353273e-09	2.968852e+01	1.575256e+02
2.900000e-06	4.229868e-06	2.358383e-09	2.989436e+01	1.580561e+02
