# Temperatura_=_-2.3
# Concentracion g/m^3_=_4090.0
# C_Vs_to_Am_M_A/Vsm_=_65563218390.804596
# pendiente_HvsI_1/m_=_3716.3
# ordenada_HvsI_A/m_=_1297.0
# frecuencia_Hz_=_135080.9783762096

Tiempo_(s)	Campo_(V.s)	Magnetizacion_(V.s)	Campo_(kA/m)	Magnetizacion_(A/m)
0.000000e+00	-5.406669e-06	-2.530506e-09	-3.838659e+01	-1.612217e+02
1.000000e-08	-5.406742e-06	-2.533337e-09	-3.838712e+01	-1.612255e+02
2.000000e-08	-5.406641e-06	-2.534838e-09	-3.838640e+01	-1.612319e+02
3.000000e-08	-5.406128e-06	-2.536127e-09	-3.838276e+01	-1.612420e+02
4.000000e-08	-5.405126e-06	-2.534684e-09	-3.837564e+01	-1.612566e+02
5.000000e-08	-5.403593e-06	-2.534341e-09	-3.836476e+01	-1.612766e+02
6.000000e-08	-5.401509e-06	-2.539423e-09	-3.834996e+01	-1.613031e+02
7.000000e-08	-5.398933e-06	-2.516284e-09	-3.833167e+01	-1.613367e+02
8.000000e-08	-5.395743e-06	-2.517944e-09	-3.830903e+01	-1.613782e+02
9.000000e-08	-5.392039e-06	-2.554639e-09	-3.828273e+01	-1.614283e+02
1.000000e-07	-5.387964e-06	-2.527528e-09	-3.825380e+01	-1.614875e+02
1.100000e-07	-5.383704e-06	-2.448513e-09	-3.822355e+01	-1.615563e+02
1.200000e-07	-5.379356e-06	-2.540924e-09	-3.819268e+01	-1.616349e+02
1.300000e-07	-5.374625e-06	-2.559438e-09	-3.815909e+01	-1.617235e+02
1.400000e-07	-5.369276e-06	-2.556588e-09	-3.812111e+01	-1.618222e+02
1.500000e-07	-5.363498e-06	-2.417567e-09	-3.808009e+01	-1.619307e+02
1.600000e-07	-5.357536e-06	-2.540207e-09	-3.803776e+01	-1.620489e+02
1.700000e-07	-5.351125e-06	-2.557645e-09	-3.799224e+01	-1.621762e+02
1.800000e-07	-5.344174e-06	-2.492753e-09	-3.794289e+01	-1.623122e+02
1.900000e-07	-5.336818e-06	-2.429363e-09	-3.789067e+01	-1.624560e+02
2.000000e-07	-5.329334e-06	-2.518193e-09	-3.783753e+01	-1.626069e+02
2.100000e-07	-5.321614e-06	-2.552215e-09	-3.778272e+01	-1.627639e+02
2.200000e-07	-5.313563e-06	-2.451446e-09	-3.772556e+01	-1.629260e+02
2.300000e-07	-5.305336e-06	-2.477055e-09	-3.766715e+01	-1.630919e+02
2.400000e-07	-5.296828e-06	-2.533013e-09	-3.760674e+01	-1.632604e+02
2.500000e-07	-5.287492e-06	-2.535413e-09	-3.754046e+01	-1.634303e+02
2.600000e-07	-5.277424e-06	-2.419743e-09	-3.746898e+01	-1.636002e+02
2.700000e-07	-5.266984e-06	-2.513843e-09	-3.739485e+01	-1.637687e+02
2.800000e-07	-5.255960e-06	-2.553112e-09	-3.731659e+01	-1.639345e+02
2.900000e-07	-5.244429e-06	-2.481553e-09	-3.723471e+01	-1.640963e+02
3.000000e-07	-5.232534e-06	-2.414687e-09	-3.715026e+01	-1.642527e+02
3.100000e-07	-5.220320e-06	-2.570570e-09	-3.706354e+01	-1.644024e+02
3.200000e-07	-5.207671e-06	-2.522633e-09	-3.697374e+01	-1.645442e+02
3.300000e-07	-5.194745e-06	-2.438422e-09	-3.688197e+01	-1.646770e+02
3.400000e-07	-5.181377e-06	-2.457607e-09	-3.678706e+01	-1.647997e+02
3.500000e-07	-5.167526e-06	-2.567940e-09	-3.668872e+01	-1.649114e+02
3.600000e-07	-5.153402e-06	-2.470764e-09	-3.658844e+01	-1.650111e+02
3.700000e-07	-5.138939e-06	-2.481208e-09	-3.648575e+01	-1.650981e+02
3.800000e-07	-5.123838e-06	-2.516188e-09	-3.637853e+01	-1.651719e+02
3.900000e-07	-5.108030e-06	-2.499194e-09	-3.626630e+01	-1.652319e+02
4.000000e-07	-5.091733e-06	-2.451973e-09	-3.615059e+01	-1.652777e+02
4.100000e-07	-5.075183e-06	-2.522257e-09	-3.603309e+01	-1.653091e+02
4.200000e-07	-5.058187e-06	-2.493877e-09	-3.591242e+01	-1.653259e+02
4.300000e-07	-5.040829e-06	-2.443007e-09	-3.578918e+01	-1.653282e+02
4.400000e-07	-5.023333e-06	-2.495358e-09	-3.566497e+01	-1.653160e+02
4.500000e-07	-5.005575e-06	-2.524422e-09	-3.553888e+01	-1.652896e+02
4.600000e-07	-4.987520e-06	-2.461379e-09	-3.541070e+01	-1.652492e+02
4.700000e-07	-4.969077e-06	-2.449996e-09	-3.527975e+01	-1.651953e+02
4.800000e-07	-4.950117e-06	-2.500023e-09	-3.514514e+01	-1.651284e+02
4.900000e-07	-4.930671e-06	-2.472284e-09	-3.500707e+01	-1.650491e+02
5.000000e-07	-4.911003e-06	-2.469882e-09	-3.486744e+01	-1.649580e+02
5.100000e-07	-4.891186e-06	-2.471554e-09	-3.472674e+01	-1.648558e+02
5.200000e-07	-4.871150e-06	-2.474226e-09	-3.458448e+01	-1.647432e+02
5.300000e-07	-4.850857e-06	-2.469107e-09	-3.444041e+01	-1.646212e+02
5.400000e-07	-4.830279e-06	-2.502781e-09	-3.429431e+01	-1.644904e+02
5.500000e-07	-4.809234e-06	-2.457931e-09	-3.414489e+01	-1.643518e+02
5.600000e-07	-4.787792e-06	-2.456885e-09	-3.399266e+01	-1.642061e+02
5.700000e-07	-4.766065e-06	-2.474199e-09	-3.383840e+01	-1.640542e+02
5.800000e-07	-4.744045e-06	-2.481725e-09	-3.368206e+01	-1.638970e+02
5.900000e-07	-4.721776e-06	-2.440075e-09	-3.352395e+01	-1.637353e+02
6.000000e-07	-4.699090e-06	-2.458628e-09	-3.336288e+01	-1.635698e+02
6.100000e-07	-4.676034e-06	-2.452037e-09	-3.319919e+01	-1.634014e+02
6.200000e-07	-4.652755e-06	-2.457065e-09	-3.303391e+01	-1.632307e+02
6.300000e-07	-4.629178e-06	-2.444257e-09	-3.286652e+01	-1.630585e+02
6.400000e-07	-4.605290e-06	-2.440260e-09	-3.269692e+01	-1.628853e+02
6.500000e-07	-4.581205e-06	-2.422697e-09	-3.252592e+01	-1.627117e+02
6.600000e-07	-4.557003e-06	-2.445152e-09	-3.235408e+01	-1.625382e+02
6.700000e-07	-4.532531e-06	-2.434991e-09	-3.218034e+01	-1.623652e+02
6.800000e-07	-4.507580e-06	-2.419605e-09	-3.200319e+01	-1.621932e+02
6.900000e-07	-4.482086e-06	-2.413002e-09	-3.182219e+01	-1.620224e+02
7.000000e-07	-4.456079e-06	-2.425619e-09	-3.163754e+01	-1.618530e+02
7.100000e-07	-4.429531e-06	-2.416166e-09	-3.144905e+01	-1.616852e+02
7.200000e-07	-4.402590e-06	-2.407998e-09	-3.125777e+01	-1.615190e+02
7.300000e-07	-4.375307e-06	-2.401899e-09	-3.106407e+01	-1.613545e+02
7.400000e-07	-4.347713e-06	-2.403518e-09	-3.086816e+01	-1.611915e+02
7.500000e-07	-4.319913e-06	-2.406696e-09	-3.067078e+01	-1.610300e+02
7.600000e-07	-4.291878e-06	-2.394224e-09	-3.047174e+01	-1.608696e+02
7.700000e-07	-4.263630e-06	-2.382117e-09	-3.027118e+01	-1.607102e+02
7.800000e-07	-4.235178e-06	-2.379608e-09	-3.006918e+01	-1.605513e+02
7.900000e-07	-4.206402e-06	-2.386383e-09	-2.986487e+01	-1.603925e+02
8.000000e-07	-4.177272e-06	-2.375224e-09	-2.965805e+01	-1.602335e+02
8.100000e-07	-4.147898e-06	-2.370629e-09	-2.944950e+01	-1.600737e+02
8.200000e-07	-4.118260e-06	-2.366491e-09	-2.923907e+01	-1.599126e+02
8.300000e-07	-4.088321e-06	-2.377456e-09	-2.902651e+01	-1.597495e+02
8.400000e-07	-4.058036e-06	-2.371485e-09	-2.881149e+01	-1.595841e+02
8.500000e-07	-4.027465e-06	-2.366297e-09	-2.859444e+01	-1.594155e+02
8.600000e-07	-3.996724e-06	-2.350417e-09	-2.837618e+01	-1.592434e+02
8.700000e-07	-3.965798e-06	-2.356778e-09	-2.815661e+01	-1.590670e+02
8.800000e-07	-3.934535e-06	-2.351558e-09	-2.793465e+01	-1.588859e+02
8.900000e-07	-3.902961e-06	-2.347377e-09	-2.771048e+01	-1.586994e+02
9.000000e-07	-3.871264e-06	-2.334720e-09	-2.748543e+01	-1.585072e+02
9.100000e-07	-3.839432e-06	-2.343118e-09	-2.725943e+01	-1.583087e+02
9.200000e-07	-3.807406e-06	-2.346018e-09	-2.703205e+01	-1.581036e+02
9.300000e-07	-3.775166e-06	-2.347755e-09	-2.680316e+01	-1.578915e+02
9.400000e-07	-3.742660e-06	-2.336942e-09	-2.657237e+01	-1.576722e+02
9.500000e-07	-3.709816e-06	-2.338558e-09	-2.633917e+01	-1.574455e+02
9.600000e-07	-3.676580e-06	-2.335725e-09	-2.610321e+01	-1.572112e+02
9.700000e-07	-3.642926e-06	-2.330631e-09	-2.586427e+01	-1.569694e+02
9.800000e-07	-3.608770e-06	-2.315379e-09	-2.562176e+01	-1.567200e+02
9.900000e-07	-3.574148e-06	-2.311933e-09	-2.537595e+01	-1.564633e+02
1.000000e-06	-3.539189e-06	-2.315173e-09	-2.512775e+01	-1.561994e+02
1.010000e-06	-3.503920e-06	-2.322161e-09	-2.487734e+01	-1.559285e+02
1.020000e-06	-3.468410e-06	-2.319807e-09	-2.462523e+01	-1.556511e+02
1.030000e-06	-3.432724e-06	-2.314973e-09	-2.437186e+01	-1.553676e+02
1.040000e-06	-3.396897e-06	-2.312481e-09	-2.411749e+01	-1.550783e+02
1.050000e-06	-3.360923e-06	-2.305576e-09	-2.386209e+01	-1.547838e+02
1.060000e-06	-3.324787e-06	-2.293282e-09	-2.360553e+01	-1.544847e+02
1.070000e-06	-3.288441e-06	-2.278932e-09	-2.334747e+01	-1.541815e+02
1.080000e-06	-3.251859e-06	-2.274574e-09	-2.308775e+01	-1.538747e+02
1.090000e-06	-3.215028e-06	-2.274793e-09	-2.282625e+01	-1.535650e+02
1.100000e-06	-3.177920e-06	-2.276671e-09	-2.256279e+01	-1.532528e+02
1.110000e-06	-3.140650e-06	-2.270061e-09	-2.229818e+01	-1.529387e+02
1.120000e-06	-3.103180e-06	-2.267915e-09	-2.203214e+01	-1.526232e+02
1.130000e-06	-3.065445e-06	-2.263580e-09	-2.176423e+01	-1.523066e+02
1.140000e-06	-3.027455e-06	-2.258478e-09	-2.149451e+01	-1.519893e+02
1.150000e-06	-2.989214e-06	-2.244347e-09	-2.122301e+01	-1.516716e+02
1.160000e-06	-2.950805e-06	-2.237046e-09	-2.095031e+01	-1.513537e+02
1.170000e-06	-2.912274e-06	-2.231106e-09	-2.067674e+01	-1.510357e+02
1.180000e-06	-2.873592e-06	-2.231137e-09	-2.040211e+01	-1.507176e+02
1.190000e-06	-2.834622e-06	-2.223680e-09	-2.012542e+01	-1.503992e+02
1.200000e-06	-2.795334e-06	-2.218668e-09	-1.984648e+01	-1.500804e+02
1.210000e-06	-2.755873e-06	-2.211644e-09	-1.956631e+01	-1.497609e+02
1.220000e-06	-2.716314e-06	-2.207874e-09	-1.928545e+01	-1.494402e+02
1.230000e-06	-2.676649e-06	-2.196353e-09	-1.900384e+01	-1.491179e+02
1.240000e-06	-2.636899e-06	-2.186726e-09	-1.872162e+01	-1.487935e+02
1.250000e-06	-2.597035e-06	-2.174933e-09	-1.843859e+01	-1.484661e+02
1.260000e-06	-2.557045e-06	-2.170398e-09	-1.815466e+01	-1.481351e+02
1.270000e-06	-2.516937e-06	-2.165058e-09	-1.786990e+01	-1.477998e+02
1.280000e-06	-2.476690e-06	-2.159384e-09	-1.758415e+01	-1.474591e+02
1.290000e-06	-2.436370e-06	-2.156480e-09	-1.729789e+01	-1.471124e+02
1.300000e-06	-2.395946e-06	-2.155755e-09	-1.701088e+01	-1.467587e+02
1.310000e-06	-2.355319e-06	-2.152345e-09	-1.672243e+01	-1.463971e+02
1.320000e-06	-2.314459e-06	-2.141725e-09	-1.643234e+01	-1.460266e+02
1.330000e-06	-2.273303e-06	-2.127081e-09	-1.614014e+01	-1.456466e+02
1.340000e-06	-2.231844e-06	-2.116722e-09	-1.584578e+01	-1.452560e+02
1.350000e-06	-2.190062e-06	-2.110539e-09	-1.554913e+01	-1.448542e+02
1.360000e-06	-2.148018e-06	-2.102428e-09	-1.525063e+01	-1.444403e+02
1.370000e-06	-2.105712e-06	-2.095687e-09	-1.495026e+01	-1.440139e+02
1.380000e-06	-2.063194e-06	-2.090731e-09	-1.464839e+01	-1.435742e+02
1.390000e-06	-2.020465e-06	-2.088074e-09	-1.434502e+01	-1.431207e+02
1.400000e-06	-1.977423e-06	-2.079808e-09	-1.403943e+01	-1.426531e+02
1.410000e-06	-1.934135e-06	-2.067080e-09	-1.373209e+01	-1.421711e+02
1.420000e-06	-1.890669e-06	-2.051682e-09	-1.342349e+01	-1.416743e+02
1.430000e-06	-1.847084e-06	-2.042305e-09	-1.311404e+01	-1.411625e+02
1.440000e-06	-1.803427e-06	-2.033296e-09	-1.280408e+01	-1.406358e+02
1.450000e-06	-1.759723e-06	-2.024441e-09	-1.249378e+01	-1.400941e+02
1.460000e-06	-1.715965e-06	-2.014355e-09	-1.218311e+01	-1.395374e+02
1.470000e-06	-1.672149e-06	-2.008722e-09	-1.187202e+01	-1.389658e+02
1.480000e-06	-1.628220e-06	-2.000432e-09	-1.156013e+01	-1.383794e+02
1.490000e-06	-1.584177e-06	-1.989262e-09	-1.124743e+01	-1.377784e+02
1.500000e-06	-1.540057e-06	-1.975532e-09	-1.093419e+01	-1.371629e+02
1.510000e-06	-1.495875e-06	-1.962561e-09	-1.062050e+01	-1.365330e+02
1.520000e-06	-1.451630e-06	-1.948726e-09	-1.030637e+01	-1.358889e+02
1.530000e-06	-1.407312e-06	-1.938591e-09	-9.991723e+00	-1.352308e+02
1.540000e-06	-1.362922e-06	-1.931282e-09	-9.676554e+00	-1.345585e+02
1.550000e-06	-1.318456e-06	-1.925163e-09	-9.360853e+00	-1.338722e+02
1.560000e-06	-1.273896e-06	-1.917276e-09	-9.044484e+00	-1.331717e+02
1.570000e-06	-1.229109e-06	-1.908204e-09	-8.726503e+00	-1.324569e+02
1.580000e-06	-1.184219e-06	-1.896575e-09	-8.407793e+00	-1.317274e+02
1.590000e-06	-1.139391e-06	-1.885220e-09	-8.089515e+00	-1.309830e+02
1.600000e-06	-1.094566e-06	-1.871611e-09	-7.771263e+00	-1.302232e+02
1.610000e-06	-1.049674e-06	-1.859242e-09	-7.452542e+00	-1.294473e+02
1.620000e-06	-1.004703e-06	-1.847471e-09	-7.133251e+00	-1.286547e+02
1.630000e-06	-9.596532e-07	-1.834986e-09	-6.813404e+00	-1.278446e+02
1.640000e-06	-9.144580e-07	-1.822660e-09	-6.492525e+00	-1.270160e+02
1.650000e-06	-8.692259e-07	-1.810096e-09	-6.171383e+00	-1.261680e+02
1.660000e-06	-8.239430e-07	-1.797819e-09	-5.849880e+00	-1.252993e+02
1.670000e-06	-7.785906e-07	-1.785491e-09	-5.527885e+00	-1.244088e+02
1.680000e-06	-7.331353e-07	-1.771832e-09	-5.205159e+00	-1.234951e+02
1.690000e-06	-6.875989e-07	-1.756145e-09	-4.881856e+00	-1.225569e+02
1.700000e-06	-6.421440e-07	-1.742245e-09	-4.559133e+00	-1.215926e+02
1.710000e-06	-5.966112e-07	-1.728078e-09	-4.235856e+00	-1.206007e+02
1.720000e-06	-5.509102e-07	-1.714659e-09	-3.911386e+00	-1.195795e+02
1.730000e-06	-5.051204e-07	-1.699687e-09	-3.586284e+00	-1.185275e+02
1.740000e-06	-4.593421e-07	-1.683719e-09	-3.261265e+00	-1.174428e+02
1.750000e-06	-4.136270e-07	-1.666819e-09	-2.936694e+00	-1.163238e+02
1.760000e-06	-3.678975e-07	-1.651371e-09	-2.612021e+00	-1.151687e+02
1.770000e-06	-3.221059e-07	-1.634234e-09	-2.286907e+00	-1.139756e+02
1.780000e-06	-2.762400e-07	-1.616911e-09	-1.961266e+00	-1.127426e+02
1.790000e-06	-2.303200e-07	-1.598138e-09	-1.635240e+00	-1.114680e+02
1.800000e-06	-1.844137e-07	-1.579220e-09	-1.309312e+00	-1.101498e+02
1.810000e-06	-1.385389e-07	-1.559863e-09	-9.836068e-01	-1.087861e+02
1.820000e-06	-9.266093e-08	-1.538587e-09	-6.578797e-01	-1.073750e+02
1.830000e-06	-4.683581e-08	-1.513645e-09	-3.325278e-01	-1.059144e+02
1.840000e-06	-1.014750e-09	-1.490206e-09	-7.204584e-03	-1.044024e+02
1.850000e-06	4.486237e-08	-1.465872e-09	3.185166e-01	-1.028369e+02
1.860000e-06	9.073925e-08	-1.440679e-09	6.442360e-01	-1.012159e+02
1.870000e-06	1.366873e-07	-1.414264e-09	9.704609e-01	-9.953710e+01
1.880000e-06	1.826532e-07	-1.388069e-09	1.296812e+00	-9.779847e+01
1.890000e-06	2.284871e-07	-1.361490e-09	1.622227e+00	-9.599777e+01
1.900000e-06	2.742550e-07	-1.333952e-09	1.947173e+00	-9.413277e+01
1.910000e-06	3.200278e-07	-1.304059e-09	2.272153e+00	-9.220118e+01
1.920000e-06	3.657483e-07	-1.272195e-09	2.596762e+00	-9.020071e+01
1.930000e-06	4.114964e-07	-1.241815e-09	2.921567e+00	-8.812904e+01
1.940000e-06	4.572384e-07	-1.211312e-09	3.246329e+00	-8.598384e+01
1.950000e-06	5.028327e-07	-1.178531e-09	3.570042e+00	-8.376282e+01
1.960000e-06	5.483511e-07	-1.143970e-09	3.893216e+00	-8.146368e+01
1.970000e-06	5.939163e-07	-1.111215e-09	4.216723e+00	-7.908421e+01
1.980000e-06	6.394242e-07	-1.077137e-09	4.539823e+00	-7.662227e+01
1.990000e-06	6.849034e-07	-1.037991e-09	4.862719e+00	-7.407583e+01
2.000000e-06	7.303647e-07	-9.967072e-10	5.185488e+00	-7.144300e+01
2.010000e-06	7.758123e-07	-9.565701e-10	5.508159e+00	-6.872208e+01
2.020000e-06	8.212889e-07	-9.160190e-10	5.831037e+00	-6.591157e+01
2.030000e-06	8.666464e-07	-8.715045e-10	6.153069e+00	-6.301024e+01
2.040000e-06	9.119327e-07	-8.268868e-10	6.474595e+00	-6.001714e+01
2.050000e-06	9.571498e-07	-7.851850e-10	6.795631e+00	-5.693168e+01
2.060000e-06	1.002238e-06	-7.418638e-10	7.115748e+00	-5.375363e+01
2.070000e-06	1.047271e-06	-6.961350e-10	7.435475e+00	-5.048317e+01
2.080000e-06	1.092248e-06	-6.459789e-10	7.754812e+00	-4.712095e+01
2.090000e-06	1.137099e-06	-5.948155e-10	8.073242e+00	-4.366811e+01
2.100000e-06	1.181756e-06	-5.406934e-10	8.390305e+00	-4.012629e+01
2.110000e-06	1.226287e-06	-4.821547e-10	8.706468e+00	-3.649770e+01
2.120000e-06	1.270828e-06	-4.214168e-10	9.022703e+00	-3.278511e+01
2.130000e-06	1.315298e-06	-3.642565e-10	9.338436e+00	-2.899187e+01
2.140000e-06	1.359617e-06	-3.096413e-10	9.653089e+00	-2.512192e+01
2.150000e-06	1.403811e-06	-2.550820e-10	9.966866e+00	-2.117982e+01
2.160000e-06	1.447974e-06	-1.980245e-10	1.028042e+01	-1.717071e+01
2.170000e-06	1.492147e-06	-1.387389e-10	1.059404e+01	-1.310030e+01
2.180000e-06	1.536244e-06	-7.537657e-11	1.090712e+01	-8.974867e+00
2.190000e-06	1.580246e-06	-7.018565e-12	1.121953e+01	-4.801223e+00
2.200000e-06	1.624213e-06	6.365403e-11	1.153168e+01	-5.866680e-01
2.210000e-06	1.668129e-06	1.321301e-10	1.184348e+01	3.661048e+00
2.220000e-06	1.712018e-06	1.956769e-10	1.215509e+01	7.933778e+00
2.230000e-06	1.755889e-06	2.558841e-10	1.246657e+01	1.222304e+01
2.240000e-06	1.799635e-06	3.190944e-10	1.277716e+01	1.652007e+01
2.250000e-06	1.843247e-06	3.853757e-10	1.308680e+01	2.081590e+01
2.260000e-06	1.886845e-06	4.505088e-10	1.339634e+01	2.510146e+01
2.270000e-06	1.930281e-06	5.157706e-10	1.370472e+01	2.936761e+01
2.280000e-06	1.973501e-06	5.822356e-10	1.401158e+01	3.360523e+01
2.290000e-06	2.016597e-06	6.466385e-10	1.431756e+01	3.780533e+01
2.300000e-06	2.059503e-06	7.057673e-10	1.462218e+01	4.195912e+01
2.310000e-06	2.102177e-06	7.602227e-10	1.492516e+01	4.605808e+01
2.320000e-06	2.144584e-06	8.143854e-10	1.522624e+01	5.009404e+01
2.330000e-06	2.186770e-06	8.731638e-10	1.552576e+01	5.405926e+01
2.340000e-06	2.228610e-06	9.319874e-10	1.582282e+01	5.794653e+01
2.350000e-06	2.270070e-06	9.894320e-10	1.611718e+01	6.174916e+01
2.360000e-06	2.311201e-06	1.044960e-09	1.640921e+01	6.546110e+01
2.370000e-06	2.352050e-06	1.097064e-09	1.669923e+01	6.907699e+01
2.380000e-06	2.392664e-06	1.145241e-09	1.698758e+01	7.259216e+01
2.390000e-06	2.433033e-06	1.189697e-09	1.727419e+01	7.600267e+01
2.400000e-06	2.473262e-06	1.230585e-09	1.755982e+01	7.930539e+01
2.410000e-06	2.513374e-06	1.272990e-09	1.784460e+01	8.249792e+01
2.420000e-06	2.553376e-06	1.317888e-09	1.812862e+01	8.557866e+01
2.430000e-06	2.593328e-06	1.366399e-09	1.841227e+01	8.854678e+01
2.440000e-06	2.633238e-06	1.414339e-09	1.869563e+01	9.140219e+01
2.450000e-06	2.673016e-06	1.454149e-09	1.897804e+01	9.414553e+01
2.460000e-06	2.712689e-06	1.487495e-09	1.925971e+01	9.677812e+01
2.470000e-06	2.752261e-06	1.518328e-09	1.954067e+01	9.930192e+01
2.480000e-06	2.791600e-06	1.547015e-09	1.981997e+01	1.017195e+02
2.490000e-06	2.830659e-06	1.576575e-09	2.009728e+01	1.040339e+02
2.500000e-06	2.869493e-06	1.608982e-09	2.037300e+01	1.062486e+02
2.510000e-06	2.908113e-06	1.645097e-09	2.064720e+01	1.083677e+02
2.520000e-06	2.946533e-06	1.680560e-09	2.091997e+01	1.103952e+02
2.530000e-06	2.984723e-06	1.709711e-09	2.119112e+01	1.123358e+02
2.540000e-06	3.022730e-06	1.733087e-09	2.146096e+01	1.141941e+02
2.550000e-06	3.060614e-06	1.755337e-09	2.172993e+01	1.159749e+02
2.560000e-06	3.098300e-06	1.777586e-09	2.199750e+01	1.176828e+02
2.570000e-06	3.135773e-06	1.800455e-09	2.226355e+01	1.193228e+02
2.580000e-06	3.173004e-06	1.824056e-09	2.252788e+01	1.208993e+02
2.590000e-06	3.209988e-06	1.849050e-09	2.279047e+01	1.224170e+02
2.600000e-06	3.246729e-06	1.876846e-09	2.305133e+01	1.238799e+02
2.610000e-06	3.283257e-06	1.901670e-09	2.331067e+01	1.252922e+02
2.620000e-06	3.319579e-06	1.922195e-09	2.356855e+01	1.266574e+02
2.630000e-06	3.355734e-06	1.940873e-09	2.382525e+01	1.279790e+02
2.640000e-06	3.391769e-06	1.959507e-09	2.408108e+01	1.292599e+02
2.650000e-06	3.427682e-06	1.976305e-09	2.433607e+01	1.305028e+02
2.660000e-06	3.463528e-06	1.992488e-09	2.459057e+01	1.317098e+02
2.670000e-06	3.499214e-06	2.010967e-09	2.484393e+01	1.328828e+02
2.680000e-06	3.534545e-06	2.030522e-09	2.509478e+01	1.340234e+02
2.690000e-06	3.569591e-06	2.047636e-09	2.534360e+01	1.351326e+02
2.700000e-06	3.604324e-06	2.062557e-09	2.559020e+01	1.362114e+02
2.710000e-06	3.638574e-06	2.076524e-09	2.583337e+01	1.372601e+02
2.720000e-06	3.672235e-06	2.090665e-09	2.607236e+01	1.382791e+02
2.730000e-06	3.705353e-06	2.105548e-09	2.630749e+01	1.392684e+02
2.740000e-06	3.738092e-06	2.120904e-09	2.653993e+01	1.402278e+02
2.750000e-06	3.770583e-06	2.135784e-09	2.677062e+01	1.411570e+02
2.760000e-06	3.802871e-06	2.150298e-09	2.699985e+01	1.420556e+02
2.770000e-06	3.834932e-06	2.164082e-09	2.722748e+01	1.429231e+02
2.780000e-06	3.866851e-06	2.175901e-09	2.745410e+01	1.437591e+02
2.790000e-06	3.898670e-06	2.185113e-09	2.768002e+01	1.445631e+02
2.800000e-06	3.930341e-06	2.194617e-09	2.790487e+01	1.453347e+02
2.810000e-06	3.961795e-06	2.205688e-09	2.812820e+01	1.460736e+02
2.820000e-06	3.992873e-06	2.215725e-09	2.834884e+01	1.467795e+02
2.830000e-06	4.023536e-06	2.223909e-09	2.856655e+01	1.474525e+02
2.840000e-06	4.053895e-06	2.232126e-09	2.878209e+01	1.480927e+02
2.850000e-06	4.083976e-06	2.240863e-09	2.899566e+01	1.487005e+02
2.860000e-06	4.113895e-06	2.250881e-09	2.920808e+01	1.492762e+02
2.870000e-06	4.143609e-06	2.261783e-09	2.941905e+01	1.498207e+02
2.880000e-06	4.173068e-06	2.269540e-09	2.962820e+01	1.503348e+02
2.890000e-06	4.202264e-06	2.272670e-09	2.983549e+01	1.508196e+02
2.900000e-06	4.231150e-06	2.275493e-09	3.004057e+01	1.512763e+02
