# Temperatura_=_11.21
# Concentracion g/m^3_=_4090.0
# C_Vs_to_Am_M_A/Vsm_=_65563218390.804596
# pendiente_HvsI_1/m_=_3716.3
# ordenada_HvsI_A/m_=_1297.0
# frecuencia_Hz_=_135082.91412889046

Tiempo_(s)	Campo_(V.s)	Magnetizacion_(V.s)	Campo_(kA/m)	Magnetizacion_(A/m)
0.000000e+00	-5.456197e-06	-2.580227e-09	-3.840116e+01	-1.664086e+02
1.000000e-08	-5.456333e-06	-2.581162e-09	-3.840212e+01	-1.663670e+02
2.000000e-08	-5.456213e-06	-2.581949e-09	-3.840128e+01	-1.663209e+02
3.000000e-08	-5.455808e-06	-2.581390e-09	-3.839842e+01	-1.662713e+02
4.000000e-08	-5.454952e-06	-2.576515e-09	-3.839240e+01	-1.662190e+02
5.000000e-08	-5.453467e-06	-2.569292e-09	-3.838195e+01	-1.661654e+02
6.000000e-08	-5.451337e-06	-2.566122e-09	-3.836695e+01	-1.661118e+02
7.000000e-08	-5.448623e-06	-2.577890e-09	-3.834785e+01	-1.660594e+02
8.000000e-08	-5.445367e-06	-2.599045e-09	-3.832494e+01	-1.660099e+02
9.000000e-08	-5.441497e-06	-2.591881e-09	-3.829770e+01	-1.659648e+02
1.000000e-07	-5.437240e-06	-2.546680e-09	-3.826774e+01	-1.659254e+02
1.100000e-07	-5.432868e-06	-2.574822e-09	-3.823697e+01	-1.658935e+02
1.200000e-07	-5.428333e-06	-2.588985e-09	-3.820506e+01	-1.658703e+02
1.300000e-07	-5.423443e-06	-2.577641e-09	-3.817064e+01	-1.658572e+02
1.400000e-07	-5.418079e-06	-2.504361e-09	-3.813289e+01	-1.658555e+02
1.500000e-07	-5.412397e-06	-2.527593e-09	-3.809290e+01	-1.658663e+02
1.600000e-07	-5.406455e-06	-2.592343e-09	-3.805108e+01	-1.658903e+02
1.700000e-07	-5.400067e-06	-2.576408e-09	-3.800612e+01	-1.659285e+02
1.800000e-07	-5.393149e-06	-2.523295e-09	-3.795742e+01	-1.659811e+02
1.900000e-07	-5.385956e-06	-2.531444e-09	-3.790680e+01	-1.660485e+02
2.000000e-07	-5.378514e-06	-2.581808e-09	-3.785443e+01	-1.661307e+02
2.100000e-07	-5.370756e-06	-2.551925e-09	-3.779982e+01	-1.662273e+02
2.200000e-07	-5.362729e-06	-2.537667e-09	-3.774332e+01	-1.663379e+02
2.300000e-07	-5.354518e-06	-2.564198e-09	-3.768553e+01	-1.664618e+02
2.400000e-07	-5.345969e-06	-2.593394e-09	-3.762537e+01	-1.665977e+02
2.500000e-07	-5.336631e-06	-2.556461e-09	-3.755965e+01	-1.667446e+02
2.600000e-07	-5.326518e-06	-2.603450e-09	-3.748847e+01	-1.669008e+02
2.700000e-07	-5.315858e-06	-2.656446e-09	-3.741344e+01	-1.670647e+02
2.800000e-07	-5.304714e-06	-2.637594e-09	-3.733502e+01	-1.672345e+02
2.900000e-07	-5.293115e-06	-2.582409e-09	-3.725337e+01	-1.674081e+02
3.000000e-07	-5.281192e-06	-2.630336e-09	-3.716946e+01	-1.675834e+02
3.100000e-07	-5.268887e-06	-2.656670e-09	-3.708286e+01	-1.677581e+02
3.200000e-07	-5.256177e-06	-2.611591e-09	-3.699340e+01	-1.679300e+02
3.300000e-07	-5.243023e-06	-2.586553e-09	-3.690083e+01	-1.680969e+02
3.400000e-07	-5.229460e-06	-2.630599e-09	-3.680537e+01	-1.682564e+02
3.500000e-07	-5.215503e-06	-2.625025e-09	-3.670714e+01	-1.684064e+02
3.600000e-07	-5.201164e-06	-2.609845e-09	-3.660622e+01	-1.685448e+02
3.700000e-07	-5.186514e-06	-2.614039e-09	-3.650311e+01	-1.686695e+02
3.800000e-07	-5.171242e-06	-2.606253e-09	-3.639563e+01	-1.687787e+02
3.900000e-07	-5.155211e-06	-2.582069e-09	-3.628279e+01	-1.688708e+02
4.000000e-07	-5.138728e-06	-2.607032e-09	-3.616679e+01	-1.689443e+02
4.100000e-07	-5.121956e-06	-2.616329e-09	-3.604875e+01	-1.689980e+02
4.200000e-07	-5.104894e-06	-2.575372e-09	-3.592866e+01	-1.690309e+02
4.300000e-07	-5.087570e-06	-2.584489e-09	-3.580674e+01	-1.690424e+02
4.400000e-07	-5.069992e-06	-2.616865e-09	-3.568302e+01	-1.690318e+02
4.500000e-07	-5.052084e-06	-2.605557e-09	-3.555698e+01	-1.689990e+02
4.600000e-07	-5.033710e-06	-2.569838e-09	-3.542766e+01	-1.689441e+02
4.700000e-07	-5.014915e-06	-2.587309e-09	-3.529538e+01	-1.688673e+02
4.800000e-07	-4.995732e-06	-2.592978e-09	-3.516037e+01	-1.687693e+02
4.900000e-07	-4.976174e-06	-2.591423e-09	-3.502272e+01	-1.686507e+02
5.000000e-07	-4.956377e-06	-2.580023e-09	-3.488339e+01	-1.685126e+02
5.100000e-07	-4.936399e-06	-2.578142e-09	-3.474278e+01	-1.683562e+02
5.200000e-07	-4.916211e-06	-2.569498e-09	-3.460070e+01	-1.681828e+02
5.300000e-07	-4.895758e-06	-2.590563e-09	-3.445674e+01	-1.679939e+02
5.400000e-07	-4.874935e-06	-2.576467e-09	-3.431019e+01	-1.677911e+02
5.500000e-07	-4.853742e-06	-2.553589e-09	-3.416103e+01	-1.675761e+02
5.600000e-07	-4.832146e-06	-2.551730e-09	-3.400904e+01	-1.673506e+02
5.700000e-07	-4.810197e-06	-2.572583e-09	-3.385456e+01	-1.671165e+02
5.800000e-07	-4.787972e-06	-2.557236e-09	-3.369814e+01	-1.668754e+02
5.900000e-07	-4.765560e-06	-2.542632e-09	-3.354040e+01	-1.666291e+02
6.000000e-07	-4.742823e-06	-2.541521e-09	-3.338038e+01	-1.663793e+02
6.100000e-07	-4.719613e-06	-2.548805e-09	-3.321702e+01	-1.661275e+02
6.200000e-07	-4.696049e-06	-2.541551e-09	-3.305117e+01	-1.658753e+02
6.300000e-07	-4.672245e-06	-2.529294e-09	-3.288365e+01	-1.656239e+02
6.400000e-07	-4.648320e-06	-2.517114e-09	-3.271526e+01	-1.653747e+02
6.500000e-07	-4.624223e-06	-2.522891e-09	-3.254566e+01	-1.651286e+02
6.600000e-07	-4.599742e-06	-2.531940e-09	-3.237336e+01	-1.648865e+02
6.700000e-07	-4.574783e-06	-2.526067e-09	-3.219770e+01	-1.646491e+02
6.800000e-07	-4.549446e-06	-2.513456e-09	-3.201937e+01	-1.644169e+02
6.900000e-07	-4.523637e-06	-2.509966e-09	-3.183773e+01	-1.641902e+02
7.000000e-07	-4.497227e-06	-2.509444e-09	-3.165185e+01	-1.639692e+02
7.100000e-07	-4.470311e-06	-2.494726e-09	-3.146242e+01	-1.637538e+02
7.200000e-07	-4.442998e-06	-2.479977e-09	-3.127019e+01	-1.635438e+02
7.300000e-07	-4.415435e-06	-2.479925e-09	-3.107620e+01	-1.633389e+02
7.400000e-07	-4.387735e-06	-2.495748e-09	-3.088124e+01	-1.631384e+02
7.500000e-07	-4.359834e-06	-2.497578e-09	-3.068487e+01	-1.629418e+02
7.600000e-07	-4.331634e-06	-2.486303e-09	-3.048640e+01	-1.627482e+02
7.700000e-07	-4.303104e-06	-2.470993e-09	-3.028560e+01	-1.625568e+02
7.800000e-07	-4.274307e-06	-2.470860e-09	-3.008293e+01	-1.623666e+02
7.900000e-07	-4.245165e-06	-2.464772e-09	-2.987782e+01	-1.621765e+02
8.000000e-07	-4.215688e-06	-2.455385e-09	-2.967036e+01	-1.619856e+02
8.100000e-07	-4.185989e-06	-2.445913e-09	-2.946133e+01	-1.617927e+02
8.200000e-07	-4.156040e-06	-2.457517e-09	-2.925055e+01	-1.615967e+02
8.300000e-07	-4.125823e-06	-2.469931e-09	-2.903788e+01	-1.613966e+02
8.400000e-07	-4.095313e-06	-2.470973e-09	-2.882315e+01	-1.611912e+02
8.500000e-07	-4.064576e-06	-2.454583e-09	-2.860682e+01	-1.609797e+02
8.600000e-07	-4.033492e-06	-2.444054e-09	-2.838805e+01	-1.607610e+02
8.700000e-07	-4.002092e-06	-2.437513e-09	-2.816705e+01	-1.605343e+02
8.800000e-07	-3.970568e-06	-2.430035e-09	-2.794518e+01	-1.602989e+02
8.900000e-07	-3.938868e-06	-2.415526e-09	-2.772208e+01	-1.600540e+02
9.000000e-07	-3.907031e-06	-2.413481e-09	-2.749800e+01	-1.597993e+02
9.100000e-07	-3.875025e-06	-2.421449e-09	-2.727274e+01	-1.595341e+02
9.200000e-07	-3.842709e-06	-2.428103e-09	-2.704530e+01	-1.592583e+02
9.300000e-07	-3.810007e-06	-2.419674e-09	-2.681514e+01	-1.589717e+02
9.400000e-07	-3.776985e-06	-2.408247e-09	-2.658273e+01	-1.586741e+02
9.500000e-07	-3.743634e-06	-2.401924e-09	-2.634800e+01	-1.583658e+02
9.600000e-07	-3.709832e-06	-2.396793e-09	-2.611010e+01	-1.580468e+02
9.700000e-07	-3.675498e-06	-2.385939e-09	-2.586846e+01	-1.577174e+02
9.800000e-07	-3.640683e-06	-2.375726e-09	-2.562343e+01	-1.573782e+02
9.900000e-07	-3.605527e-06	-2.376729e-09	-2.537599e+01	-1.570296e+02
1.000000e-06	-3.570072e-06	-2.382179e-09	-2.512646e+01	-1.566721e+02
1.010000e-06	-3.534369e-06	-2.381035e-09	-2.487518e+01	-1.563066e+02
1.020000e-06	-3.498549e-06	-2.370982e-09	-2.462307e+01	-1.559336e+02
1.030000e-06	-3.462650e-06	-2.360610e-09	-2.437042e+01	-1.555541e+02
1.040000e-06	-3.426592e-06	-2.352109e-09	-2.411664e+01	-1.551688e+02
1.050000e-06	-3.390347e-06	-2.343631e-09	-2.386154e+01	-1.547785e+02
1.060000e-06	-3.353878e-06	-2.329669e-09	-2.360487e+01	-1.543842e+02
1.070000e-06	-3.317174e-06	-2.323161e-09	-2.334654e+01	-1.539866e+02
1.080000e-06	-3.280246e-06	-2.319665e-09	-2.308664e+01	-1.535866e+02
1.090000e-06	-3.243085e-06	-2.318819e-09	-2.282510e+01	-1.531849e+02
1.100000e-06	-3.205665e-06	-2.312580e-09	-2.256174e+01	-1.527822e+02
1.110000e-06	-3.167961e-06	-2.304918e-09	-2.229637e+01	-1.523792e+02
1.120000e-06	-3.130153e-06	-2.295890e-09	-2.203027e+01	-1.519763e+02
1.130000e-06	-3.092242e-06	-2.287310e-09	-2.176345e+01	-1.515742e+02
1.140000e-06	-3.054024e-06	-2.274850e-09	-2.149447e+01	-1.511730e+02
1.150000e-06	-3.015488e-06	-2.265356e-09	-2.122325e+01	-1.507731e+02
1.160000e-06	-2.976788e-06	-2.257035e-09	-2.095087e+01	-1.503744e+02
1.170000e-06	-2.937992e-06	-2.251332e-09	-2.067783e+01	-1.499771e+02
1.180000e-06	-2.899028e-06	-2.244788e-09	-2.040359e+01	-1.495809e+02
1.190000e-06	-2.859767e-06	-2.240415e-09	-2.012728e+01	-1.491854e+02
1.200000e-06	-2.820281e-06	-2.234930e-09	-1.984937e+01	-1.487904e+02
1.210000e-06	-2.780669e-06	-2.226880e-09	-1.957057e+01	-1.483951e+02
1.220000e-06	-2.740874e-06	-2.216506e-09	-1.929050e+01	-1.479988e+02
1.230000e-06	-2.700964e-06	-2.206740e-09	-1.900961e+01	-1.476008e+02
1.240000e-06	-2.660996e-06	-2.195965e-09	-1.872831e+01	-1.472001e+02
1.250000e-06	-2.620942e-06	-2.186244e-09	-1.844641e+01	-1.467955e+02
1.260000e-06	-2.580651e-06	-2.181543e-09	-1.816283e+01	-1.463861e+02
1.270000e-06	-2.540173e-06	-2.178151e-09	-1.787794e+01	-1.459705e+02
1.280000e-06	-2.499585e-06	-2.172655e-09	-1.759228e+01	-1.455474e+02
1.290000e-06	-2.458866e-06	-2.162212e-09	-1.730570e+01	-1.451156e+02
1.300000e-06	-2.417953e-06	-2.152494e-09	-1.701775e+01	-1.446735e+02
1.310000e-06	-2.376675e-06	-2.143665e-09	-1.672723e+01	-1.442200e+02
1.320000e-06	-2.335035e-06	-2.134297e-09	-1.643417e+01	-1.437536e+02
1.330000e-06	-2.293111e-06	-2.122977e-09	-1.613911e+01	-1.432729e+02
1.340000e-06	-2.250878e-06	-2.113364e-09	-1.584186e+01	-1.427767e+02
1.350000e-06	-2.208316e-06	-2.103168e-09	-1.554231e+01	-1.422638e+02
1.360000e-06	-2.165480e-06	-2.092778e-09	-1.524082e+01	-1.417330e+02
1.370000e-06	-2.122383e-06	-2.081707e-09	-1.493751e+01	-1.411833e+02
1.380000e-06	-2.079087e-06	-2.070785e-09	-1.463279e+01	-1.406137e+02
1.390000e-06	-2.035645e-06	-2.058440e-09	-1.432703e+01	-1.400235e+02
1.400000e-06	-1.992090e-06	-2.049167e-09	-1.402049e+01	-1.394119e+02
1.410000e-06	-1.948453e-06	-2.040304e-09	-1.371337e+01	-1.387785e+02
1.420000e-06	-1.904715e-06	-2.029252e-09	-1.340554e+01	-1.381228e+02
1.430000e-06	-1.860883e-06	-2.016137e-09	-1.309704e+01	-1.374446e+02
1.440000e-06	-1.816990e-06	-2.005131e-09	-1.278813e+01	-1.367437e+02
1.450000e-06	-1.773053e-06	-1.995819e-09	-1.247889e+01	-1.360203e+02
1.460000e-06	-1.729033e-06	-1.985908e-09	-1.216907e+01	-1.352744e+02
1.470000e-06	-1.684920e-06	-1.972194e-09	-1.185861e+01	-1.345063e+02
1.480000e-06	-1.640692e-06	-1.958112e-09	-1.154733e+01	-1.337164e+02
1.490000e-06	-1.596368e-06	-1.945024e-09	-1.123537e+01	-1.329051e+02
1.500000e-06	-1.551918e-06	-1.931620e-09	-1.092253e+01	-1.320730e+02
1.510000e-06	-1.507364e-06	-1.917825e-09	-1.060895e+01	-1.312205e+02
1.520000e-06	-1.462788e-06	-1.904625e-09	-1.029522e+01	-1.303483e+02
1.530000e-06	-1.418161e-06	-1.892246e-09	-9.981136e+00	-1.294568e+02
1.540000e-06	-1.373392e-06	-1.879471e-09	-9.666046e+00	-1.285467e+02
1.550000e-06	-1.328541e-06	-1.865716e-09	-9.350383e+00	-1.276184e+02
1.560000e-06	-1.283632e-06	-1.852014e-09	-9.034306e+00	-1.266721e+02
1.570000e-06	-1.238647e-06	-1.839878e-09	-8.717703e+00	-1.257082e+02
1.580000e-06	-1.193493e-06	-1.825116e-09	-8.399899e+00	-1.247268e+02
1.590000e-06	-1.148126e-06	-1.808342e-09	-8.080607e+00	-1.237277e+02
1.600000e-06	-1.102670e-06	-1.793187e-09	-7.760683e+00	-1.227108e+02
1.610000e-06	-1.057113e-06	-1.777950e-09	-7.440044e+00	-1.216756e+02
1.620000e-06	-1.011559e-06	-1.760824e-09	-7.119433e+00	-1.206213e+02
1.630000e-06	-9.659847e-07	-1.740843e-09	-6.798679e+00	-1.195472e+02
1.640000e-06	-9.203140e-07	-1.719992e-09	-6.477246e+00	-1.184520e+02
1.650000e-06	-8.745791e-07	-1.701672e-09	-6.155359e+00	-1.173344e+02
1.660000e-06	-8.287664e-07	-1.685988e-09	-5.832926e+00	-1.161928e+02
1.670000e-06	-7.829413e-07	-1.670703e-09	-5.510405e+00	-1.150253e+02
1.680000e-06	-7.371261e-07	-1.652836e-09	-5.187954e+00	-1.138299e+02
1.690000e-06	-6.912222e-07	-1.633746e-09	-4.864878e+00	-1.126043e+02
1.700000e-06	-6.451955e-07	-1.612986e-09	-4.540939e+00	-1.113460e+02
1.710000e-06	-5.991809e-07	-1.589624e-09	-4.217085e+00	-1.100526e+02
1.720000e-06	-5.532451e-07	-1.562303e-09	-3.893785e+00	-1.087211e+02
1.730000e-06	-5.072417e-07	-1.537922e-09	-3.570009e+00	-1.073488e+02
1.740000e-06	-4.612199e-07	-1.520111e-09	-3.246103e+00	-1.059328e+02
1.750000e-06	-4.152653e-07	-1.504603e-09	-2.922672e+00	-1.044701e+02
1.760000e-06	-3.692269e-07	-1.484765e-09	-2.598649e+00	-1.029579e+02
1.770000e-06	-3.230661e-07	-1.462273e-09	-2.273765e+00	-1.013932e+02
1.780000e-06	-2.768512e-07	-1.439745e-09	-1.948502e+00	-9.977320e+01
1.790000e-06	-2.306279e-07	-1.415638e-09	-1.623178e+00	-9.809532e+01
1.800000e-06	-1.842783e-07	-1.384815e-09	-1.296966e+00	-9.635702e+01
1.810000e-06	-1.378546e-07	-1.352190e-09	-9.702323e-01	-9.455600e+01
1.820000e-06	-9.155583e-08	-1.324078e-09	-6.443775e-01	-9.269017e+01
1.830000e-06	-4.536388e-08	-1.300244e-09	-3.192747e-01	-9.075773e+01
1.840000e-06	8.054004e-10	-1.275157e-09	5.668474e-03	-8.875714e+01
1.850000e-06	4.703049e-08	-1.242195e-09	3.310044e-01	-8.668721e+01
1.860000e-06	9.332538e-08	-1.205928e-09	6.568317e-01	-8.454704e+01
1.870000e-06	1.396085e-07	-1.171479e-09	9.825757e-01	-8.233611e+01
1.880000e-06	1.857418e-07	-1.136359e-09	1.307266e+00	-8.005423e+01
1.890000e-06	2.318674e-07	-1.097155e-09	1.631902e+00	-7.770156e+01
1.900000e-06	2.780956e-07	-1.059244e-09	1.957260e+00	-7.527863e+01
1.910000e-06	3.242985e-07	-1.023095e-09	2.282439e+00	-7.278632e+01
1.920000e-06	3.704429e-07	-9.860097e-10	2.607208e+00	-7.022582e+01
1.930000e-06	4.164982e-07	-9.466018e-10	2.931348e+00	-6.759867e+01
1.940000e-06	4.625281e-07	-9.064049e-10	3.255310e+00	-6.490669e+01
1.950000e-06	5.085653e-07	-8.676841e-10	3.579325e+00	-6.215197e+01
1.960000e-06	5.545219e-07	-8.278086e-10	3.902770e+00	-5.933686e+01
1.970000e-06	6.004956e-07	-7.845156e-10	4.226337e+00	-5.646392e+01
1.980000e-06	6.464217e-07	-7.382456e-10	4.549569e+00	-5.353589e+01
1.990000e-06	6.922480e-07	-6.952730e-10	4.872098e+00	-5.055568e+01
2.000000e-06	7.380623e-07	-6.538660e-10	5.194543e+00	-4.752629e+01
2.010000e-06	7.838341e-07	-6.116250e-10	5.516689e+00	-4.445083e+01
2.020000e-06	8.295790e-07	-5.657240e-10	5.838645e+00	-4.133244e+01
2.030000e-06	8.752588e-07	-5.172618e-10	6.160143e+00	-3.817430e+01
2.040000e-06	9.208372e-07	-4.674292e-10	6.480927e+00	-3.497956e+01
2.050000e-06	9.663970e-07	-4.150058e-10	6.801581e+00	-3.175135e+01
2.060000e-06	1.011949e-06	-3.642741e-10	7.122180e+00	-2.849275e+01
2.070000e-06	1.057457e-06	-3.184956e-10	7.442469e+00	-2.520674e+01
2.080000e-06	1.102859e-06	-2.786767e-10	7.762015e+00	-2.189622e+01
2.090000e-06	1.148184e-06	-2.384154e-10	8.081015e+00	-1.856398e+01
2.100000e-06	1.193395e-06	-1.936174e-10	8.399213e+00	-1.521272e+01
2.110000e-06	1.238471e-06	-1.437812e-10	8.716459e+00	-1.184499e+01
2.120000e-06	1.283417e-06	-8.890687e-11	9.032794e+00	-8.463249e+00
2.130000e-06	1.328277e-06	-3.068452e-11	9.348524e+00	-5.069855e+00
2.140000e-06	1.373077e-06	2.680386e-11	9.663830e+00	-1.667054e+00
2.150000e-06	1.417804e-06	7.985481e-11	9.978619e+00	1.742989e+00
2.160000e-06	1.462381e-06	1.259306e-10	1.029236e+01	5.158180e+00
2.170000e-06	1.506769e-06	1.686292e-10	1.060476e+01	8.576479e+00
2.180000e-06	1.551083e-06	2.139520e-10	1.091665e+01	1.199588e+01
2.190000e-06	1.595289e-06	2.644453e-10	1.122778e+01	1.541439e+01
2.200000e-06	1.639357e-06	3.159287e-10	1.153793e+01	1.883001e+01
2.210000e-06	1.683336e-06	3.708597e-10	1.184746e+01	2.224072e+01
2.220000e-06	1.727313e-06	4.286395e-10	1.215697e+01	2.564445e+01
2.230000e-06	1.771256e-06	4.843152e-10	1.246624e+01	2.903907e+01
2.240000e-06	1.815158e-06	5.329058e-10	1.277523e+01	3.242236e+01
2.250000e-06	1.858965e-06	5.759312e-10	1.308355e+01	3.579203e+01
2.260000e-06	1.902727e-06	6.185032e-10	1.339155e+01	3.914567e+01
2.270000e-06	1.946508e-06	6.646431e-10	1.369968e+01	4.248079e+01
2.280000e-06	1.990167e-06	7.140236e-10	1.400696e+01	4.579476e+01
2.290000e-06	2.033672e-06	7.627358e-10	1.431315e+01	4.908487e+01
2.300000e-06	2.077050e-06	8.121729e-10	1.461845e+01	5.234830e+01
2.310000e-06	2.120263e-06	8.619498e-10	1.492259e+01	5.558215e+01
2.320000e-06	2.163244e-06	9.077668e-10	1.522509e+01	5.878346e+01
2.330000e-06	2.205949e-06	9.501818e-10	1.552565e+01	6.194919e+01
2.340000e-06	2.248364e-06	9.923260e-10	1.582417e+01	6.507629e+01
2.350000e-06	2.290532e-06	1.037353e-09	1.612095e+01	6.816169e+01
2.360000e-06	2.332408e-06	1.084492e-09	1.641568e+01	7.120237e+01
2.370000e-06	2.373900e-06	1.127719e-09	1.670770e+01	7.419534e+01
2.380000e-06	2.415031e-06	1.168138e-09	1.699719e+01	7.713770e+01
2.390000e-06	2.455873e-06	1.207710e-09	1.728463e+01	8.002668e+01
2.400000e-06	2.496501e-06	1.243489e-09	1.757058e+01	8.285965e+01
2.410000e-06	2.536981e-06	1.273504e-09	1.785548e+01	8.563417e+01
2.420000e-06	2.577279e-06	1.306912e-09	1.813910e+01	8.834800e+01
2.430000e-06	2.617417e-06	1.349306e-09	1.842159e+01	9.099916e+01
2.440000e-06	2.657472e-06	1.398175e-09	1.870351e+01	9.358592e+01
2.450000e-06	2.697438e-06	1.441740e-09	1.898479e+01	9.610683e+01
2.460000e-06	2.737329e-06	1.478394e-09	1.926555e+01	9.856077e+01
2.470000e-06	2.777087e-06	1.511933e-09	1.954537e+01	1.009469e+02
2.480000e-06	2.816634e-06	1.540703e-09	1.982370e+01	1.032648e+02
2.490000e-06	2.856005e-06	1.564704e-09	2.010080e+01	1.055141e+02
2.500000e-06	2.895249e-06	1.588398e-09	2.037700e+01	1.076952e+02
2.510000e-06	2.934284e-06	1.620622e-09	2.065173e+01	1.098085e+02
2.520000e-06	2.973046e-06	1.658789e-09	2.092454e+01	1.118547e+02
2.530000e-06	3.011575e-06	1.691135e-09	2.119571e+01	1.138350e+02
2.540000e-06	3.049903e-06	1.717695e-09	2.146547e+01	1.157507e+02
2.550000e-06	3.087997e-06	1.745693e-09	2.173358e+01	1.176033e+02
2.560000e-06	3.125890e-06	1.774799e-09	2.200027e+01	1.193946e+02
2.570000e-06	3.163652e-06	1.797092e-09	2.226604e+01	1.211266e+02
2.580000e-06	3.201269e-06	1.812324e-09	2.253079e+01	1.228015e+02
2.590000e-06	3.238611e-06	1.831790e-09	2.279361e+01	1.244213e+02
2.600000e-06	3.275715e-06	1.858530e-09	2.305475e+01	1.259885e+02
2.610000e-06	3.312672e-06	1.883755e-09	2.331486e+01	1.275052e+02
2.620000e-06	3.349383e-06	1.903810e-09	2.357323e+01	1.289738e+02
2.630000e-06	3.385803e-06	1.925184e-09	2.382956e+01	1.303966e+02
2.640000e-06	3.422005e-06	1.950332e-09	2.408435e+01	1.317756e+02
2.650000e-06	3.458042e-06	1.972265e-09	2.433799e+01	1.331130e+02
2.660000e-06	3.493986e-06	1.987048e-09	2.459096e+01	1.344107e+02
2.670000e-06	3.529876e-06	2.002707e-09	2.484355e+01	1.356704e+02
2.680000e-06	3.565605e-06	2.021975e-09	2.509502e+01	1.368938e+02
2.690000e-06	3.601122e-06	2.040362e-09	2.534499e+01	1.380822e+02
2.700000e-06	3.636272e-06	2.054393e-09	2.559238e+01	1.392367e+02
2.710000e-06	3.670964e-06	2.068265e-09	2.583654e+01	1.403585e+02
2.720000e-06	3.705273e-06	2.085795e-09	2.607802e+01	1.414482e+02
2.730000e-06	3.739032e-06	2.104980e-09	2.631561e+01	1.425064e+02
2.740000e-06	3.772245e-06	2.120338e-09	2.654937e+01	1.435337e+02
2.750000e-06	3.805085e-06	2.132947e-09	2.678050e+01	1.445300e+02
2.760000e-06	3.837553e-06	2.146957e-09	2.700902e+01	1.454957e+02
2.770000e-06	3.869798e-06	2.163138e-09	2.723596e+01	1.464305e+02
2.780000e-06	3.901902e-06	2.177542e-09	2.746191e+01	1.473344e+02
2.790000e-06	3.933847e-06	2.187225e-09	2.768674e+01	1.482072e+02
2.800000e-06	3.965577e-06	2.196465e-09	2.791006e+01	1.490486e+02
2.810000e-06	3.997106e-06	2.209801e-09	2.813196e+01	1.498583e+02
2.820000e-06	4.028478e-06	2.224350e-09	2.835276e+01	1.506360e+02
2.830000e-06	4.059560e-06	2.235542e-09	2.857152e+01	1.513817e+02
2.840000e-06	4.090318e-06	2.246904e-09	2.878799e+01	1.520952e+02
2.850000e-06	4.120807e-06	2.257966e-09	2.900257e+01	1.527763e+02
2.860000e-06	4.151042e-06	2.268993e-09	2.921538e+01	1.534254e+02
2.870000e-06	4.180992e-06	2.276059e-09	2.942617e+01	1.540426e+02
2.880000e-06	4.210611e-06	2.280708e-09	2.963462e+01	1.546283e+02
2.890000e-06	4.239957e-06	2.284284e-09	2.984116e+01	1.551831e+02
2.900000e-06	4.269034e-06	2.288444e-09	3.004581e+01	1.557079e+02
