# Temperatura_=_-1.4
# Concentracion g/m^3_=_4090.0
# C_Vs_to_Am_M_A/Vsm_=_65563218390.804596
# pendiente_HvsI_1/m_=_3716.3
# ordenada_HvsI_A/m_=_1297.0
# frecuencia_Hz_=_135084.48493925328

Tiempo_(s)	Campo_(V.s)	Magnetizacion_(V.s)	Campo_(kA/m)	Magnetizacion_(A/m)
0.000000e+00	-5.406872e-06	-2.600638e-09	-3.837779e+01	-1.659801e+02
1.000000e-08	-5.407170e-06	-2.603842e-09	-3.837991e+01	-1.659877e+02
2.000000e-08	-5.407305e-06	-2.606286e-09	-3.838087e+01	-1.659960e+02
3.000000e-08	-5.407125e-06	-2.607969e-09	-3.837959e+01	-1.660061e+02
4.000000e-08	-5.406576e-06	-2.608743e-09	-3.837569e+01	-1.660184e+02
5.000000e-08	-5.405559e-06	-2.606223e-09	-3.836847e+01	-1.660340e+02
6.000000e-08	-5.403970e-06	-2.602611e-09	-3.835720e+01	-1.660534e+02
7.000000e-08	-5.401801e-06	-2.605911e-09	-3.834180e+01	-1.660774e+02
8.000000e-08	-5.398944e-06	-2.624702e-09	-3.832152e+01	-1.661065e+02
9.000000e-08	-5.395417e-06	-2.619464e-09	-3.829649e+01	-1.661412e+02
1.000000e-07	-5.391467e-06	-2.566874e-09	-3.826845e+01	-1.661820e+02
1.100000e-07	-5.387250e-06	-2.535551e-09	-3.823852e+01	-1.662292e+02
1.200000e-07	-5.382867e-06	-2.609736e-09	-3.820741e+01	-1.662828e+02
1.300000e-07	-5.378310e-06	-2.662092e-09	-3.817506e+01	-1.663431e+02
1.400000e-07	-5.373322e-06	-2.562257e-09	-3.813965e+01	-1.664098e+02
1.500000e-07	-5.367911e-06	-2.510205e-09	-3.810125e+01	-1.664829e+02
1.600000e-07	-5.362183e-06	-2.597039e-09	-3.806059e+01	-1.665620e+02
1.700000e-07	-5.356020e-06	-2.655305e-09	-3.801685e+01	-1.666466e+02
1.800000e-07	-5.349423e-06	-2.569068e-09	-3.797002e+01	-1.667361e+02
1.900000e-07	-5.342514e-06	-2.490398e-09	-3.792098e+01	-1.668300e+02
2.000000e-07	-5.335326e-06	-2.582182e-09	-3.786996e+01	-1.669273e+02
2.100000e-07	-5.327879e-06	-2.614284e-09	-3.781710e+01	-1.670274e+02
2.200000e-07	-5.320127e-06	-2.562614e-09	-3.776208e+01	-1.671292e+02
2.300000e-07	-5.312136e-06	-2.536619e-09	-3.770536e+01	-1.672318e+02
2.400000e-07	-5.303968e-06	-2.606163e-09	-3.764738e+01	-1.673341e+02
2.500000e-07	-5.295153e-06	-2.592482e-09	-3.758482e+01	-1.674351e+02
2.600000e-07	-5.285559e-06	-2.543027e-09	-3.751671e+01	-1.675339e+02
2.700000e-07	-5.275321e-06	-2.576837e-09	-3.744404e+01	-1.676292e+02
2.800000e-07	-5.264668e-06	-2.626094e-09	-3.736843e+01	-1.677202e+02
2.900000e-07	-5.253660e-06	-2.546708e-09	-3.729030e+01	-1.678058e+02
3.000000e-07	-5.242140e-06	-2.514907e-09	-3.720853e+01	-1.678852e+02
3.100000e-07	-5.230208e-06	-2.610481e-09	-3.712384e+01	-1.679574e+02
3.200000e-07	-5.217886e-06	-2.616697e-09	-3.703637e+01	-1.680217e+02
3.300000e-07	-5.205128e-06	-2.527167e-09	-3.694582e+01	-1.680774e+02
3.400000e-07	-5.192052e-06	-2.537582e-09	-3.685301e+01	-1.681239e+02
3.500000e-07	-5.178628e-06	-2.623188e-09	-3.675773e+01	-1.681606e+02
3.600000e-07	-5.164814e-06	-2.587463e-09	-3.665967e+01	-1.681872e+02
3.700000e-07	-5.150680e-06	-2.550986e-09	-3.655935e+01	-1.682032e+02
3.800000e-07	-5.135972e-06	-2.576620e-09	-3.645495e+01	-1.682086e+02
3.900000e-07	-5.120524e-06	-2.576936e-09	-3.634530e+01	-1.682030e+02
4.000000e-07	-5.104584e-06	-2.548850e-09	-3.623216e+01	-1.681865e+02
4.100000e-07	-5.088365e-06	-2.578681e-09	-3.611704e+01	-1.681591e+02
4.200000e-07	-5.071703e-06	-2.571373e-09	-3.599878e+01	-1.681210e+02
4.300000e-07	-5.054622e-06	-2.529918e-09	-3.587753e+01	-1.680722e+02
4.400000e-07	-5.037387e-06	-2.550747e-09	-3.575520e+01	-1.680131e+02
4.500000e-07	-5.019933e-06	-2.594413e-09	-3.563131e+01	-1.679439e+02
4.600000e-07	-5.002013e-06	-2.537373e-09	-3.550412e+01	-1.678649e+02
4.700000e-07	-4.983718e-06	-2.509040e-09	-3.537426e+01	-1.677766e+02
4.800000e-07	-4.965033e-06	-2.546800e-09	-3.524164e+01	-1.676793e+02
4.900000e-07	-4.945877e-06	-2.563353e-09	-3.510566e+01	-1.675735e+02
5.000000e-07	-4.926360e-06	-2.527259e-09	-3.496714e+01	-1.674597e+02
5.100000e-07	-4.906630e-06	-2.528566e-09	-3.482709e+01	-1.673382e+02
5.200000e-07	-4.886743e-06	-2.534954e-09	-3.468593e+01	-1.672095e+02
5.300000e-07	-4.866684e-06	-2.542029e-09	-3.454356e+01	-1.670741e+02
5.400000e-07	-4.846340e-06	-2.541151e-09	-3.439916e+01	-1.669325e+02
5.500000e-07	-4.825624e-06	-2.524278e-09	-3.425211e+01	-1.667851e+02
5.600000e-07	-4.804543e-06	-2.499133e-09	-3.410248e+01	-1.666323e+02
5.700000e-07	-4.783208e-06	-2.521190e-09	-3.395105e+01	-1.664747e+02
5.800000e-07	-4.761545e-06	-2.534669e-09	-3.379729e+01	-1.663126e+02
5.900000e-07	-4.739424e-06	-2.509853e-09	-3.364027e+01	-1.661464e+02
6.000000e-07	-4.716966e-06	-2.495632e-09	-3.348086e+01	-1.659766e+02
6.100000e-07	-4.694281e-06	-2.513871e-09	-3.331984e+01	-1.658037e+02
6.200000e-07	-4.671329e-06	-2.518876e-09	-3.315694e+01	-1.656279e+02
6.300000e-07	-4.648063e-06	-2.500233e-09	-3.299179e+01	-1.654498e+02
6.400000e-07	-4.624538e-06	-2.484212e-09	-3.282482e+01	-1.652698e+02
6.500000e-07	-4.600762e-06	-2.483072e-09	-3.265605e+01	-1.650882e+02
6.600000e-07	-4.576722e-06	-2.497562e-09	-3.248542e+01	-1.649054e+02
6.700000e-07	-4.552374e-06	-2.498716e-09	-3.231259e+01	-1.647219e+02
6.800000e-07	-4.527701e-06	-2.482728e-09	-3.213747e+01	-1.645380e+02
6.900000e-07	-4.502625e-06	-2.471519e-09	-3.195948e+01	-1.643541e+02
7.000000e-07	-4.476986e-06	-2.482880e-09	-3.177750e+01	-1.641705e+02
7.100000e-07	-4.450809e-06	-2.480864e-09	-3.159169e+01	-1.639876e+02
7.200000e-07	-4.424191e-06	-2.467379e-09	-3.140276e+01	-1.638056e+02
7.300000e-07	-4.397171e-06	-2.454351e-09	-3.121097e+01	-1.636249e+02
7.400000e-07	-4.369778e-06	-2.465458e-09	-3.101654e+01	-1.634457e+02
7.500000e-07	-4.342123e-06	-2.471633e-09	-3.082024e+01	-1.632682e+02
7.600000e-07	-4.314290e-06	-2.461188e-09	-3.062269e+01	-1.630924e+02
7.700000e-07	-4.286203e-06	-2.438150e-09	-3.042332e+01	-1.629186e+02
7.800000e-07	-4.257882e-06	-2.438757e-09	-3.022230e+01	-1.627467e+02
7.900000e-07	-4.229337e-06	-2.447173e-09	-3.001969e+01	-1.625766e+02
8.000000e-07	-4.200406e-06	-2.446356e-09	-2.981433e+01	-1.624083e+02
8.100000e-07	-4.171177e-06	-2.432186e-09	-2.960687e+01	-1.622416e+02
8.200000e-07	-4.141783e-06	-2.432844e-09	-2.939823e+01	-1.620761e+02
8.300000e-07	-4.112128e-06	-2.441588e-09	-2.918775e+01	-1.619116e+02
8.400000e-07	-4.082124e-06	-2.443447e-09	-2.897478e+01	-1.617476e+02
8.500000e-07	-4.051755e-06	-2.428373e-09	-2.875922e+01	-1.615837e+02
8.600000e-07	-4.021149e-06	-2.417132e-09	-2.854198e+01	-1.614192e+02
8.700000e-07	-3.990355e-06	-2.416733e-09	-2.832340e+01	-1.612536e+02
8.800000e-07	-3.959318e-06	-2.417897e-09	-2.810310e+01	-1.610862e+02
8.900000e-07	-3.928043e-06	-2.407519e-09	-2.788111e+01	-1.609162e+02
9.000000e-07	-3.896516e-06	-2.397492e-09	-2.765734e+01	-1.607431e+02
9.100000e-07	-3.864760e-06	-2.400568e-09	-2.743194e+01	-1.605658e+02
9.200000e-07	-3.832874e-06	-2.408435e-09	-2.720561e+01	-1.603838e+02
9.300000e-07	-3.800830e-06	-2.405081e-09	-2.697816e+01	-1.601963e+02
9.400000e-07	-3.768501e-06	-2.393903e-09	-2.674869e+01	-1.600024e+02
9.500000e-07	-3.735829e-06	-2.390171e-09	-2.651679e+01	-1.598016e+02
9.600000e-07	-3.702783e-06	-2.392105e-09	-2.628223e+01	-1.595931e+02
9.700000e-07	-3.669354e-06	-2.389825e-09	-2.604495e+01	-1.593764e+02
9.800000e-07	-3.635470e-06	-2.379201e-09	-2.580444e+01	-1.591510e+02
9.900000e-07	-3.601093e-06	-2.374578e-09	-2.556044e+01	-1.589164e+02
1.000000e-06	-3.566408e-06	-2.376867e-09	-2.531424e+01	-1.586723e+02
1.010000e-06	-3.531478e-06	-2.380586e-09	-2.506631e+01	-1.584186e+02
1.020000e-06	-3.496186e-06	-2.373560e-09	-2.481581e+01	-1.581551e+02
1.030000e-06	-3.460622e-06	-2.365505e-09	-2.456338e+01	-1.578818e+02
1.040000e-06	-3.424911e-06	-2.361369e-09	-2.430990e+01	-1.575988e+02
1.050000e-06	-3.389059e-06	-2.360398e-09	-2.405542e+01	-1.573065e+02
1.060000e-06	-3.353049e-06	-2.349806e-09	-2.379983e+01	-1.570051e+02
1.070000e-06	-3.316867e-06	-2.336646e-09	-2.354301e+01	-1.566952e+02
1.080000e-06	-3.280520e-06	-2.328829e-09	-2.328502e+01	-1.563773e+02
1.090000e-06	-3.243943e-06	-2.329465e-09	-2.302540e+01	-1.560520e+02
1.100000e-06	-3.207058e-06	-2.326967e-09	-2.276359e+01	-1.557200e+02
1.110000e-06	-3.169906e-06	-2.321832e-09	-2.249988e+01	-1.553822e+02
1.120000e-06	-3.132594e-06	-2.314383e-09	-2.223505e+01	-1.550393e+02
1.130000e-06	-3.095095e-06	-2.310732e-09	-2.196888e+01	-1.546921e+02
1.140000e-06	-3.057394e-06	-2.304813e-09	-2.170128e+01	-1.543414e+02
1.150000e-06	-3.019442e-06	-2.294477e-09	-2.143189e+01	-1.539881e+02
1.160000e-06	-2.981195e-06	-2.282457e-09	-2.116042e+01	-1.536328e+02
1.170000e-06	-2.942786e-06	-2.276113e-09	-2.088780e+01	-1.532763e+02
1.180000e-06	-2.904216e-06	-2.273378e-09	-2.061403e+01	-1.529191e+02
1.190000e-06	-2.865423e-06	-2.269795e-09	-2.033868e+01	-1.525617e+02
1.200000e-06	-2.826439e-06	-2.266639e-09	-2.006197e+01	-1.522045e+02
1.210000e-06	-2.787258e-06	-2.264075e-09	-1.978386e+01	-1.518479e+02
1.220000e-06	-2.747877e-06	-2.258571e-09	-1.950434e+01	-1.514918e+02
1.230000e-06	-2.708322e-06	-2.248614e-09	-1.922357e+01	-1.511363e+02
1.240000e-06	-2.668671e-06	-2.234831e-09	-1.894214e+01	-1.507812e+02
1.250000e-06	-2.628914e-06	-2.225242e-09	-1.865994e+01	-1.504261e+02
1.260000e-06	-2.589033e-06	-2.221872e-09	-1.837687e+01	-1.500707e+02
1.270000e-06	-2.549031e-06	-2.220907e-09	-1.809293e+01	-1.497141e+02
1.280000e-06	-2.508897e-06	-2.222327e-09	-1.780807e+01	-1.493558e+02
1.290000e-06	-2.468614e-06	-2.220736e-09	-1.752213e+01	-1.489947e+02
1.300000e-06	-2.428179e-06	-2.214710e-09	-1.723513e+01	-1.486299e+02
1.310000e-06	-2.387649e-06	-2.204417e-09	-1.694745e+01	-1.482603e+02
1.320000e-06	-2.346989e-06	-2.195368e-09	-1.665884e+01	-1.478847e+02
1.330000e-06	-2.306095e-06	-2.182859e-09	-1.636858e+01	-1.475019e+02
1.340000e-06	-2.264909e-06	-2.171203e-09	-1.607624e+01	-1.471106e+02
1.350000e-06	-2.223493e-06	-2.164508e-09	-1.578228e+01	-1.467095e+02
1.360000e-06	-2.181678e-06	-2.163057e-09	-1.548548e+01	-1.462973e+02
1.370000e-06	-2.139417e-06	-2.160569e-09	-1.518551e+01	-1.458728e+02
1.380000e-06	-2.096805e-06	-2.156729e-09	-1.488305e+01	-1.454349e+02
1.390000e-06	-2.053947e-06	-2.147239e-09	-1.457884e+01	-1.449822e+02
1.400000e-06	-2.010970e-06	-2.135961e-09	-1.427380e+01	-1.445139e+02
1.410000e-06	-1.967868e-06	-2.124475e-09	-1.396786e+01	-1.440290e+02
1.420000e-06	-1.924639e-06	-2.111294e-09	-1.366102e+01	-1.435267e+02
1.430000e-06	-1.881274e-06	-2.095045e-09	-1.335322e+01	-1.430063e+02
1.440000e-06	-1.837751e-06	-2.081617e-09	-1.304429e+01	-1.424671e+02
1.450000e-06	-1.794129e-06	-2.073068e-09	-1.273467e+01	-1.419089e+02
1.460000e-06	-1.750464e-06	-2.067562e-09	-1.242473e+01	-1.413313e+02
1.470000e-06	-1.706693e-06	-2.061158e-09	-1.211405e+01	-1.407342e+02
1.480000e-06	-1.662835e-06	-2.051883e-09	-1.180275e+01	-1.401175e+02
1.490000e-06	-1.618933e-06	-2.041209e-09	-1.149113e+01	-1.394812e+02
1.500000e-06	-1.574906e-06	-2.030810e-09	-1.117863e+01	-1.388257e+02
1.510000e-06	-1.530798e-06	-2.016569e-09	-1.086555e+01	-1.381511e+02
1.520000e-06	-1.486665e-06	-1.999214e-09	-1.055230e+01	-1.374577e+02
1.530000e-06	-1.442466e-06	-1.983951e-09	-1.023857e+01	-1.367459e+02
1.540000e-06	-1.398178e-06	-1.973167e-09	-9.924221e+00	-1.360161e+02
1.550000e-06	-1.353792e-06	-1.963952e-09	-9.609168e+00	-1.352686e+02
1.560000e-06	-1.309261e-06	-1.953223e-09	-9.293091e+00	-1.345038e+02
1.570000e-06	-1.264629e-06	-1.944860e-09	-8.976293e+00	-1.337219e+02
1.580000e-06	-1.219933e-06	-1.937127e-09	-8.659044e+00	-1.329232e+02
1.590000e-06	-1.175164e-06	-1.925848e-09	-8.341277e+00	-1.321076e+02
1.600000e-06	-1.130297e-06	-1.908499e-09	-8.022811e+00	-1.312752e+02
1.610000e-06	-1.085400e-06	-1.891161e-09	-7.704135e+00	-1.304258e+02
1.620000e-06	-1.040511e-06	-1.877307e-09	-7.385511e+00	-1.295591e+02
1.630000e-06	-9.954231e-07	-1.866724e-09	-7.065479e+00	-1.286745e+02
1.640000e-06	-9.501411e-07	-1.854256e-09	-6.744069e+00	-1.277714e+02
1.650000e-06	-9.048364e-07	-1.840015e-09	-6.422498e+00	-1.268488e+02
1.660000e-06	-8.595514e-07	-1.827435e-09	-6.101066e+00	-1.259058e+02
1.670000e-06	-8.142063e-07	-1.816875e-09	-5.779209e+00	-1.249411e+02
1.680000e-06	-7.688228e-07	-1.800097e-09	-5.457078e+00	-1.239533e+02
1.690000e-06	-7.233457e-07	-1.776485e-09	-5.134283e+00	-1.229407e+02
1.700000e-06	-6.777557e-07	-1.755430e-09	-4.810687e+00	-1.219016e+02
1.710000e-06	-6.320999e-07	-1.743409e-09	-4.486624e+00	-1.208342e+02
1.720000e-06	-5.863908e-07	-1.732113e-09	-4.162182e+00	-1.197363e+02
1.730000e-06	-5.406849e-07	-1.716939e-09	-3.837763e+00	-1.186060e+02
1.740000e-06	-4.950311e-07	-1.700043e-09	-3.513713e+00	-1.174409e+02
1.750000e-06	-4.492928e-07	-1.683365e-09	-3.189065e+00	-1.162389e+02
1.760000e-06	-4.034988e-07	-1.664368e-09	-2.864021e+00	-1.149976e+02
1.770000e-06	-3.577154e-07	-1.640876e-09	-2.539052e+00	-1.137148e+02
1.780000e-06	-3.118529e-07	-1.615063e-09	-2.213521e+00	-1.123882e+02
1.790000e-06	-2.660161e-07	-1.594459e-09	-1.888173e+00	-1.110155e+02
1.800000e-06	-2.201293e-07	-1.579352e-09	-1.562471e+00	-1.095946e+02
1.810000e-06	-1.741755e-07	-1.562745e-09	-1.236292e+00	-1.081234e+02
1.820000e-06	-1.282908e-07	-1.543743e-09	-9.106041e-01	-1.066000e+02
1.830000e-06	-8.237895e-08	-1.522179e-09	-5.847229e-01	-1.050224e+02
1.840000e-06	-3.643868e-08	-1.496353e-09	-2.586405e-01	-1.033890e+02
1.850000e-06	9.457046e-09	-1.467614e-09	6.712579e-02	-1.016981e+02
1.860000e-06	5.532173e-08	-1.436895e-09	3.926717e-01	-9.994848e+01
1.870000e-06	1.011280e-07	-1.404958e-09	7.178029e-01	-9.813873e+01
1.880000e-06	1.469502e-07	-1.376476e-09	1.043048e+00	-9.626778e+01
1.890000e-06	1.927706e-07	-1.350623e-09	1.368279e+00	-9.433470e+01
1.900000e-06	2.386074e-07	-1.324637e-09	1.693627e+00	-9.233870e+01
1.910000e-06	2.845000e-07	-1.296314e-09	2.019371e+00	-9.027914e+01
1.920000e-06	3.303780e-07	-1.263728e-09	2.345012e+00	-8.815552e+01
1.930000e-06	3.762507e-07	-1.228519e-09	2.670615e+00	-8.596749e+01
1.940000e-06	4.220659e-07	-1.191779e-09	2.995809e+00	-8.371480e+01
1.950000e-06	4.677936e-07	-1.154593e-09	3.320383e+00	-8.139732e+01
1.960000e-06	5.135114e-07	-1.119833e-09	3.644886e+00	-7.901502e+01
1.970000e-06	5.591830e-07	-1.087344e-09	3.969061e+00	-7.656797e+01
1.980000e-06	6.047831e-07	-1.055129e-09	4.292730e+00	-7.405630e+01
1.990000e-06	6.504141e-07	-1.019412e-09	4.616617e+00	-7.148025e+01
2.000000e-06	6.959655e-07	-9.802503e-10	4.939940e+00	-6.884009e+01
2.010000e-06	7.414496e-07	-9.382550e-10	5.262784e+00	-6.613617e+01
2.020000e-06	7.868678e-07	-8.943140e-10	5.585161e+00	-6.336890e+01
2.030000e-06	8.322166e-07	-8.479145e-10	5.907045e+00	-6.053877e+01
2.040000e-06	8.774995e-07	-8.029151e-10	6.228461e+00	-5.764630e+01
2.050000e-06	9.226776e-07	-7.600776e-10	6.549134e+00	-5.469213e+01
2.060000e-06	9.677199e-07	-7.193737e-10	6.868843e+00	-5.167695e+01
2.070000e-06	1.012686e-06	-6.803207e-10	7.188009e+00	-4.860156e+01
2.080000e-06	1.057599e-06	-6.389751e-10	7.506799e+00	-4.546687e+01
2.090000e-06	1.102477e-06	-5.925077e-10	7.825347e+00	-4.227392e+01
2.100000e-06	1.147309e-06	-5.446157e-10	8.143561e+00	-3.902390e+01
2.110000e-06	1.192011e-06	-4.959504e-10	8.460854e+00	-3.571816e+01
2.120000e-06	1.236637e-06	-4.427999e-10	8.777609e+00	-3.235824e+01
2.130000e-06	1.281133e-06	-3.867057e-10	9.093435e+00	-2.894588e+01
2.140000e-06	1.325603e-06	-3.310533e-10	9.409087e+00	-2.548306e+01
2.150000e-06	1.369959e-06	-2.805718e-10	9.723925e+00	-2.197200e+01
2.160000e-06	1.414170e-06	-2.341196e-10	1.003773e+01	-1.841517e+01
2.170000e-06	1.458381e-06	-1.877930e-10	1.035154e+01	-1.481534e+01
2.180000e-06	1.502569e-06	-1.377117e-10	1.066518e+01	-1.117555e+01
2.190000e-06	1.546697e-06	-8.139974e-11	1.097840e+01	-7.499142e+00
2.200000e-06	1.590707e-06	-2.024807e-11	1.129078e+01	-3.789755e+00
2.210000e-06	1.634649e-06	4.238338e-11	1.160268e+01	-5.132769e-02
2.220000e-06	1.678594e-06	1.051933e-10	1.191461e+01	3.711908e+00
2.230000e-06	1.722467e-06	1.662137e-10	1.222601e+01	7.495441e+00
2.240000e-06	1.766264e-06	2.221632e-10	1.253688e+01	1.129449e+01
2.250000e-06	1.809999e-06	2.734899e-10	1.284731e+01	1.510403e+01
2.260000e-06	1.853624e-06	3.237217e-10	1.315696e+01	1.891883e+01
2.270000e-06	1.897170e-06	3.763157e-10	1.346605e+01	2.273345e+01
2.280000e-06	1.940604e-06	4.337714e-10	1.377434e+01	2.654230e+01
2.290000e-06	1.983875e-06	4.925751e-10	1.408147e+01	3.033970e+01
2.300000e-06	2.026915e-06	5.514716e-10	1.438697e+01	3.411987e+01
2.310000e-06	2.069628e-06	6.107268e-10	1.469015e+01	3.787703e+01
2.320000e-06	2.111969e-06	6.686979e-10	1.499068e+01	4.160541e+01
2.330000e-06	2.154140e-06	7.244320e-10	1.529001e+01	4.529932e+01
2.340000e-06	2.196186e-06	7.743551e-10	1.558845e+01	4.895318e+01
2.350000e-06	2.237887e-06	8.220847e-10	1.588444e+01	5.256160e+01
2.360000e-06	2.279270e-06	8.730444e-10	1.617818e+01	5.611940e+01
2.370000e-06	2.320404e-06	9.243774e-10	1.647015e+01	5.962166e+01
2.380000e-06	2.361299e-06	9.740219e-10	1.676042e+01	6.306380e+01
2.390000e-06	2.401992e-06	1.022838e-09	1.704926e+01	6.644155e+01
2.400000e-06	2.442520e-06	1.071447e-09	1.733692e+01	6.975106e+01
2.410000e-06	2.482890e-06	1.118270e-09	1.762347e+01	7.298888e+01
2.420000e-06	2.523051e-06	1.161713e-09	1.790853e+01	7.615201e+01
2.430000e-06	2.563051e-06	1.202062e-09	1.819245e+01	7.923790e+01
2.440000e-06	2.602986e-06	1.242116e-09	1.847591e+01	8.224447e+01
2.450000e-06	2.642825e-06	1.282688e-09	1.875868e+01	8.517014e+01
2.460000e-06	2.682538e-06	1.322288e-09	1.904057e+01	8.801379e+01
2.470000e-06	2.722196e-06	1.362084e-09	1.932205e+01	9.077479e+01
2.480000e-06	2.761776e-06	1.404451e-09	1.960299e+01	9.345293e+01
2.490000e-06	2.801065e-06	1.445716e-09	1.988186e+01	9.604847e+01
2.500000e-06	2.840042e-06	1.482444e-09	2.015852e+01	9.856208e+01
2.510000e-06	2.878853e-06	1.516837e-09	2.043400e+01	1.009948e+02
2.520000e-06	2.917501e-06	1.550631e-09	2.070832e+01	1.033480e+02
2.530000e-06	2.955985e-06	1.581602e-09	2.098148e+01	1.056234e+02
2.540000e-06	2.994315e-06	1.606524e-09	2.125354e+01	1.078230e+02
2.550000e-06	3.032446e-06	1.631221e-09	2.152420e+01	1.099489e+02
2.560000e-06	3.070312e-06	1.664017e-09	2.179297e+01	1.120035e+02
2.570000e-06	3.107971e-06	1.700383e-09	2.206027e+01	1.139893e+02
2.580000e-06	3.145515e-06	1.732501e-09	2.232676e+01	1.159088e+02
2.590000e-06	3.182851e-06	1.759271e-09	2.259177e+01	1.177646e+02
2.600000e-06	3.219921e-06	1.783565e-09	2.285489e+01	1.195594e+02
2.610000e-06	3.256651e-06	1.806984e-09	2.311560e+01	1.212957e+02
2.620000e-06	3.293038e-06	1.826027e-09	2.337387e+01	1.229759e+02
2.630000e-06	3.329238e-06	1.843442e-09	2.363082e+01	1.246025e+02
2.640000e-06	3.365371e-06	1.866012e-09	2.388729e+01	1.261776e+02
2.650000e-06	3.401372e-06	1.892113e-09	2.414282e+01	1.277034e+02
2.660000e-06	3.437194e-06	1.915603e-09	2.439709e+01	1.291816e+02
2.670000e-06	3.472888e-06	1.936995e-09	2.465044e+01	1.306141e+02
2.680000e-06	3.508376e-06	1.959372e-09	2.490234e+01	1.320022e+02
2.690000e-06	3.543645e-06	1.980241e-09	2.515267e+01	1.333474e+02
2.700000e-06	3.578620e-06	1.994629e-09	2.540092e+01	1.346507e+02
2.710000e-06	3.613176e-06	2.004682e-09	2.564620e+01	1.359130e+02
2.720000e-06	3.647249e-06	2.019524e-09	2.588805e+01	1.371351e+02
2.730000e-06	3.680802e-06	2.040954e-09	2.612621e+01	1.383176e+02
2.740000e-06	3.713969e-06	2.061704e-09	2.636163e+01	1.394610e+02
2.750000e-06	3.746835e-06	2.078710e-09	2.659490e+01	1.405657e+02
2.760000e-06	3.779287e-06	2.094912e-09	2.682525e+01	1.416320e+02
2.770000e-06	3.811433e-06	2.112345e-09	2.705342e+01	1.426600e+02
2.780000e-06	3.843445e-06	2.128677e-09	2.728064e+01	1.436500e+02
2.790000e-06	3.875328e-06	2.141983e-09	2.750694e+01	1.446023e+02
2.800000e-06	3.907072e-06	2.152885e-09	2.773227e+01	1.455170e+02
2.810000e-06	3.938563e-06	2.163683e-09	2.795578e+01	1.463944e+02
2.820000e-06	3.969783e-06	2.176418e-09	2.817738e+01	1.472348e+02
2.830000e-06	4.000677e-06	2.188607e-09	2.839667e+01	1.480388e+02
2.840000e-06	4.031242e-06	2.197447e-09	2.861362e+01	1.488069e+02
2.850000e-06	4.061613e-06	2.207015e-09	2.882919e+01	1.495396e+02
2.860000e-06	4.091793e-06	2.221080e-09	2.904341e+01	1.502379e+02
2.870000e-06	4.121711e-06	2.237470e-09	2.925576e+01	1.509025e+02
2.880000e-06	4.151409e-06	2.250582e-09	2.946656e+01	1.515347e+02
2.890000e-06	4.180777e-06	2.257661e-09	2.967501e+01	1.521355e+02
2.900000e-06	4.209850e-06	2.262220e-09	2.988137e+01	1.527063e+02
