# Temperatura_=_17.8
# Concentracion g/m^3_=_4090.0
# C_Vs_to_Am_M_A/Vsm_=_65563218390.804596
# pendiente_HvsI_1/m_=_3716.3
# ordenada_HvsI_A/m_=_1297.0
# frecuencia_Hz_=_135079.07329660957

Tiempo_(s)	Campo_(V.s)	Magnetizacion_(V.s)	Campo_(kA/m)	Magnetizacion_(A/m)
0.000000e+00	-5.422529e-06	-2.697695e-09	-3.839159e+01	-1.731392e+02
1.000000e-08	-5.422755e-06	-2.701124e-09	-3.839319e+01	-1.730677e+02
2.000000e-08	-5.422803e-06	-2.703267e-09	-3.839354e+01	-1.729950e+02
3.000000e-08	-5.422633e-06	-2.701569e-09	-3.839233e+01	-1.729228e+02
4.000000e-08	-5.422114e-06	-2.697494e-09	-3.838865e+01	-1.728530e+02
5.000000e-08	-5.421165e-06	-2.692049e-09	-3.838194e+01	-1.727875e+02
6.000000e-08	-5.419653e-06	-2.687764e-09	-3.837123e+01	-1.727282e+02
7.000000e-08	-5.417580e-06	-2.695522e-09	-3.835656e+01	-1.726771e+02
8.000000e-08	-5.414863e-06	-2.697735e-09	-3.833732e+01	-1.726359e+02
9.000000e-08	-5.411396e-06	-2.671341e-09	-3.831277e+01	-1.726062e+02
1.000000e-07	-5.407460e-06	-2.657806e-09	-3.828490e+01	-1.725896e+02
1.100000e-07	-5.403254e-06	-2.699793e-09	-3.825513e+01	-1.725874e+02
1.200000e-07	-5.398874e-06	-2.698475e-09	-3.822412e+01	-1.726006e+02
1.300000e-07	-5.394349e-06	-2.656899e-09	-3.819208e+01	-1.726302e+02
1.400000e-07	-5.389461e-06	-2.647346e-09	-3.815747e+01	-1.726767e+02
1.500000e-07	-5.384034e-06	-2.688665e-09	-3.811905e+01	-1.727404e+02
1.600000e-07	-5.378219e-06	-2.700076e-09	-3.807788e+01	-1.728212e+02
1.700000e-07	-5.372170e-06	-2.635999e-09	-3.803505e+01	-1.729187e+02
1.800000e-07	-5.365762e-06	-2.638295e-09	-3.798969e+01	-1.730323e+02
1.900000e-07	-5.358865e-06	-2.669866e-09	-3.794085e+01	-1.731611e+02
2.000000e-07	-5.351623e-06	-2.665648e-09	-3.788958e+01	-1.733037e+02
2.100000e-07	-5.344157e-06	-2.628832e-09	-3.783672e+01	-1.734586e+02
2.200000e-07	-5.336389e-06	-2.655796e-09	-3.778172e+01	-1.736241e+02
2.300000e-07	-5.328337e-06	-2.689511e-09	-3.772472e+01	-1.737980e+02
2.400000e-07	-5.320034e-06	-2.664859e-09	-3.766593e+01	-1.739782e+02
2.500000e-07	-5.311368e-06	-2.654954e-09	-3.760457e+01	-1.741623e+02
2.600000e-07	-5.302028e-06	-2.703498e-09	-3.753844e+01	-1.743479e+02
2.700000e-07	-5.291935e-06	-2.720789e-09	-3.746699e+01	-1.745324e+02
2.800000e-07	-5.281316e-06	-2.676133e-09	-3.739181e+01	-1.747131e+02
2.900000e-07	-5.270212e-06	-2.681314e-09	-3.731319e+01	-1.748877e+02
3.000000e-07	-5.258683e-06	-2.719494e-09	-3.723156e+01	-1.750534e+02
3.100000e-07	-5.246731e-06	-2.695251e-09	-3.714695e+01	-1.752081e+02
3.200000e-07	-5.234323e-06	-2.665332e-09	-3.705909e+01	-1.753493e+02
3.300000e-07	-5.221488e-06	-2.703253e-09	-3.696822e+01	-1.754750e+02
3.400000e-07	-5.208246e-06	-2.702668e-09	-3.687447e+01	-1.755834e+02
3.500000e-07	-5.194665e-06	-2.664304e-09	-3.677831e+01	-1.756728e+02
3.600000e-07	-5.180763e-06	-2.681059e-09	-3.667989e+01	-1.757419e+02
3.700000e-07	-5.166512e-06	-2.713606e-09	-3.657899e+01	-1.757895e+02
3.800000e-07	-5.151788e-06	-2.671449e-09	-3.647474e+01	-1.758148e+02
3.900000e-07	-5.136564e-06	-2.654427e-09	-3.636696e+01	-1.758174e+02
4.000000e-07	-5.120726e-06	-2.678710e-09	-3.625482e+01	-1.757970e+02
4.100000e-07	-5.104306e-06	-2.671968e-09	-3.613857e+01	-1.757537e+02
4.200000e-07	-5.087567e-06	-2.646989e-09	-3.602006e+01	-1.756878e+02
4.300000e-07	-5.070513e-06	-2.671393e-09	-3.589931e+01	-1.756000e+02
4.400000e-07	-5.053140e-06	-2.675577e-09	-3.577631e+01	-1.754911e+02
4.500000e-07	-5.035498e-06	-2.652022e-09	-3.565141e+01	-1.753623e+02
4.600000e-07	-5.017538e-06	-2.654051e-09	-3.552425e+01	-1.752147e+02
4.700000e-07	-4.999191e-06	-2.661809e-09	-3.539436e+01	-1.750498e+02
4.800000e-07	-4.980460e-06	-2.638044e-09	-3.526174e+01	-1.748692e+02
4.900000e-07	-4.961322e-06	-2.632752e-09	-3.512625e+01	-1.746744e+02
5.000000e-07	-4.941797e-06	-2.645496e-09	-3.498801e+01	-1.744673e+02
5.100000e-07	-4.922026e-06	-2.637384e-09	-3.484803e+01	-1.742494e+02
5.200000e-07	-4.902063e-06	-2.635035e-09	-3.470669e+01	-1.740226e+02
5.300000e-07	-4.881918e-06	-2.643090e-09	-3.456406e+01	-1.737884e+02
5.400000e-07	-4.861553e-06	-2.636348e-09	-3.441988e+01	-1.735484e+02
5.500000e-07	-4.840876e-06	-2.623162e-09	-3.427348e+01	-1.733042e+02
5.600000e-07	-4.819769e-06	-2.624555e-09	-3.412405e+01	-1.730571e+02
5.700000e-07	-4.798227e-06	-2.618433e-09	-3.397153e+01	-1.728083e+02
5.800000e-07	-4.776383e-06	-2.614218e-09	-3.381687e+01	-1.725589e+02
5.900000e-07	-4.754320e-06	-2.612308e-09	-3.366066e+01	-1.723097e+02
6.000000e-07	-4.732024e-06	-2.608655e-09	-3.350281e+01	-1.720615e+02
6.100000e-07	-4.709263e-06	-2.603377e-09	-3.334166e+01	-1.718148e+02
6.200000e-07	-4.685990e-06	-2.603648e-09	-3.317689e+01	-1.715700e+02
6.300000e-07	-4.662463e-06	-2.592480e-09	-3.301032e+01	-1.713272e+02
6.400000e-07	-4.638773e-06	-2.586459e-09	-3.284259e+01	-1.710866e+02
6.500000e-07	-4.614910e-06	-2.587092e-09	-3.267364e+01	-1.708479e+02
6.600000e-07	-4.590922e-06	-2.586519e-09	-3.250381e+01	-1.706109e+02
6.700000e-07	-4.566633e-06	-2.580509e-09	-3.233184e+01	-1.703753e+02
6.800000e-07	-4.541900e-06	-2.578062e-09	-3.215673e+01	-1.701406e+02
6.900000e-07	-4.516698e-06	-2.570783e-09	-3.197830e+01	-1.699062e+02
7.000000e-07	-4.490983e-06	-2.565313e-09	-3.179623e+01	-1.696716e+02
7.100000e-07	-4.464710e-06	-2.559473e-09	-3.161022e+01	-1.694361e+02
7.200000e-07	-4.437897e-06	-2.551363e-09	-3.142039e+01	-1.691991e+02
7.300000e-07	-4.410630e-06	-2.545964e-09	-3.122734e+01	-1.689599e+02
7.400000e-07	-4.383115e-06	-2.548548e-09	-3.103253e+01	-1.687179e+02
7.500000e-07	-4.355440e-06	-2.544928e-09	-3.083659e+01	-1.684726e+02
7.600000e-07	-4.327507e-06	-2.534710e-09	-3.063882e+01	-1.682233e+02
7.700000e-07	-4.299406e-06	-2.526490e-09	-3.043987e+01	-1.679696e+02
7.800000e-07	-4.271079e-06	-2.520837e-09	-3.023931e+01	-1.677110e+02
7.900000e-07	-4.242409e-06	-2.516454e-09	-3.003633e+01	-1.674473e+02
8.000000e-07	-4.213430e-06	-2.510928e-09	-2.983116e+01	-1.671781e+02
8.100000e-07	-4.184149e-06	-2.503924e-09	-2.962385e+01	-1.669033e+02
8.200000e-07	-4.154573e-06	-2.498962e-09	-2.941444e+01	-1.666227e+02
8.300000e-07	-4.124751e-06	-2.499951e-09	-2.920330e+01	-1.663362e+02
8.400000e-07	-4.094689e-06	-2.496884e-09	-2.899047e+01	-1.660438e+02
8.500000e-07	-4.064321e-06	-2.488666e-09	-2.877546e+01	-1.657457e+02
8.600000e-07	-4.033650e-06	-2.477228e-09	-2.855831e+01	-1.654418e+02
8.700000e-07	-4.002665e-06	-2.468016e-09	-2.833893e+01	-1.651323e+02
8.800000e-07	-3.971468e-06	-2.461399e-09	-2.811806e+01	-1.648173e+02
8.900000e-07	-3.940047e-06	-2.456691e-09	-2.789559e+01	-1.644969e+02
9.000000e-07	-3.908381e-06	-2.451067e-09	-2.767140e+01	-1.641714e+02
9.100000e-07	-3.876545e-06	-2.448512e-09	-2.744600e+01	-1.638408e+02
9.200000e-07	-3.844559e-06	-2.447070e-09	-2.721955e+01	-1.635052e+02
9.300000e-07	-3.812440e-06	-2.447210e-09	-2.699214e+01	-1.631647e+02
9.400000e-07	-3.780107e-06	-2.442692e-09	-2.676322e+01	-1.628194e+02
9.500000e-07	-3.747437e-06	-2.437433e-09	-2.653192e+01	-1.624693e+02
9.600000e-07	-3.714341e-06	-2.431219e-09	-2.629760e+01	-1.621143e+02
9.700000e-07	-3.680797e-06	-2.426963e-09	-2.606010e+01	-1.617544e+02
9.800000e-07	-3.646721e-06	-2.420701e-09	-2.581884e+01	-1.613895e+02
9.900000e-07	-3.612195e-06	-2.413083e-09	-2.557440e+01	-1.610194e+02
1.000000e-06	-3.577332e-06	-2.405463e-09	-2.532757e+01	-1.606440e+02
1.010000e-06	-3.542122e-06	-2.401691e-09	-2.507829e+01	-1.602631e+02
1.020000e-06	-3.506649e-06	-2.400786e-09	-2.482713e+01	-1.598765e+02
1.030000e-06	-3.471061e-06	-2.396452e-09	-2.457517e+01	-1.594840e+02
1.040000e-06	-3.435321e-06	-2.388074e-09	-2.432213e+01	-1.590855e+02
1.050000e-06	-3.399418e-06	-2.381017e-09	-2.406794e+01	-1.586806e+02
1.060000e-06	-3.363402e-06	-2.374985e-09	-2.381294e+01	-1.582694e+02
1.070000e-06	-3.327176e-06	-2.366136e-09	-2.355646e+01	-1.578515e+02
1.080000e-06	-3.290697e-06	-2.352391e-09	-2.329819e+01	-1.574270e+02
1.090000e-06	-3.253935e-06	-2.339853e-09	-2.303791e+01	-1.569958e+02
1.100000e-06	-3.216922e-06	-2.335113e-09	-2.277586e+01	-1.565580e+02
1.110000e-06	-3.179728e-06	-2.332978e-09	-2.251253e+01	-1.561134e+02
1.120000e-06	-3.142265e-06	-2.327839e-09	-2.224729e+01	-1.556624e+02
1.130000e-06	-3.104605e-06	-2.321837e-09	-2.198066e+01	-1.552049e+02
1.140000e-06	-3.066754e-06	-2.319141e-09	-2.171267e+01	-1.547412e+02
1.150000e-06	-3.028648e-06	-2.312933e-09	-2.144288e+01	-1.542716e+02
1.160000e-06	-2.990385e-06	-2.297771e-09	-2.117197e+01	-1.537962e+02
1.170000e-06	-2.951891e-06	-2.280227e-09	-2.089943e+01	-1.533155e+02
1.180000e-06	-2.913276e-06	-2.269851e-09	-2.062604e+01	-1.528296e+02
1.190000e-06	-2.874466e-06	-2.266304e-09	-2.035127e+01	-1.523388e+02
1.200000e-06	-2.835313e-06	-2.264700e-09	-2.007406e+01	-1.518435e+02
1.210000e-06	-2.796021e-06	-2.258439e-09	-1.979588e+01	-1.513439e+02
1.220000e-06	-2.756585e-06	-2.248986e-09	-1.951666e+01	-1.508402e+02
1.230000e-06	-2.716937e-06	-2.238416e-09	-1.923596e+01	-1.503324e+02
1.240000e-06	-2.677158e-06	-2.227752e-09	-1.895432e+01	-1.498206e+02
1.250000e-06	-2.637309e-06	-2.212825e-09	-1.867219e+01	-1.493049e+02
1.260000e-06	-2.597392e-06	-2.200170e-09	-1.838958e+01	-1.487850e+02
1.270000e-06	-2.557370e-06	-2.192469e-09	-1.810622e+01	-1.482607e+02
1.280000e-06	-2.517184e-06	-2.186360e-09	-1.782170e+01	-1.477316e+02
1.290000e-06	-2.476811e-06	-2.176623e-09	-1.753586e+01	-1.471972e+02
1.300000e-06	-2.436205e-06	-2.164820e-09	-1.724838e+01	-1.466570e+02
1.310000e-06	-2.395361e-06	-2.155316e-09	-1.695920e+01	-1.461102e+02
1.320000e-06	-2.354316e-06	-2.148229e-09	-1.666860e+01	-1.455558e+02
1.330000e-06	-2.313035e-06	-2.136924e-09	-1.637632e+01	-1.449930e+02
1.340000e-06	-2.271557e-06	-2.122417e-09	-1.608266e+01	-1.444206e+02
1.350000e-06	-2.229877e-06	-2.111659e-09	-1.578756e+01	-1.438375e+02
1.360000e-06	-2.187914e-06	-2.104713e-09	-1.549047e+01	-1.432424e+02
1.370000e-06	-2.145596e-06	-2.095043e-09	-1.519086e+01	-1.426340e+02
1.380000e-06	-2.102935e-06	-2.082324e-09	-1.488881e+01	-1.420110e+02
1.390000e-06	-2.060080e-06	-2.068918e-09	-1.458540e+01	-1.413720e+02
1.400000e-06	-2.017003e-06	-2.056743e-09	-1.428042e+01	-1.407157e+02
1.410000e-06	-1.973787e-06	-2.046596e-09	-1.397444e+01	-1.400406e+02
1.420000e-06	-1.930478e-06	-2.035679e-09	-1.366782e+01	-1.393456e+02
1.430000e-06	-1.887019e-06	-2.023480e-09	-1.336012e+01	-1.386293e+02
1.440000e-06	-1.843392e-06	-2.012275e-09	-1.305124e+01	-1.378906e+02
1.450000e-06	-1.799615e-06	-1.999503e-09	-1.274130e+01	-1.371285e+02
1.460000e-06	-1.755782e-06	-1.982572e-09	-1.243096e+01	-1.363420e+02
1.470000e-06	-1.711893e-06	-1.965248e-09	-1.212023e+01	-1.355303e+02
1.480000e-06	-1.667927e-06	-1.948288e-09	-1.180895e+01	-1.346927e+02
1.490000e-06	-1.623890e-06	-1.931763e-09	-1.149717e+01	-1.338287e+02
1.500000e-06	-1.579765e-06	-1.915613e-09	-1.118476e+01	-1.329378e+02
1.510000e-06	-1.535506e-06	-1.902017e-09	-1.087141e+01	-1.320198e+02
1.520000e-06	-1.491171e-06	-1.888818e-09	-1.055752e+01	-1.310745e+02
1.530000e-06	-1.446820e-06	-1.872760e-09	-1.024351e+01	-1.301020e+02
1.540000e-06	-1.402381e-06	-1.855131e-09	-9.928883e+00	-1.291021e+02
1.550000e-06	-1.357805e-06	-1.840472e-09	-9.613285e+00	-1.280751e+02
1.560000e-06	-1.313154e-06	-1.824291e-09	-9.297151e+00	-1.270213e+02
1.570000e-06	-1.268482e-06	-1.806260e-09	-8.980872e+00	-1.259407e+02
1.580000e-06	-1.223751e-06	-1.788728e-09	-8.664174e+00	-1.248337e+02
1.590000e-06	-1.178903e-06	-1.772290e-09	-8.346651e+00	-1.237004e+02
1.600000e-06	-1.133963e-06	-1.757260e-09	-8.028476e+00	-1.225412e+02
1.610000e-06	-1.088940e-06	-1.740666e-09	-7.709710e+00	-1.213560e+02
1.620000e-06	-1.043801e-06	-1.721503e-09	-7.390126e+00	-1.201448e+02
1.630000e-06	-9.985379e-07	-1.705247e-09	-7.069665e+00	-1.189077e+02
1.640000e-06	-9.531959e-07	-1.690462e-09	-6.748643e+00	-1.176442e+02
1.650000e-06	-9.078314e-07	-1.673909e-09	-6.427461e+00	-1.163539e+02
1.660000e-06	-8.624244e-07	-1.651621e-09	-6.105979e+00	-1.150362e+02
1.670000e-06	-8.169481e-07	-1.627675e-09	-5.784006e+00	-1.136904e+02
1.680000e-06	-7.714096e-07	-1.606394e-09	-5.461592e+00	-1.123152e+02
1.690000e-06	-7.258240e-07	-1.583904e-09	-5.138846e+00	-1.109095e+02
1.700000e-06	-6.800903e-07	-1.560041e-09	-4.815051e+00	-1.094719e+02
1.710000e-06	-6.342796e-07	-1.540595e-09	-4.490710e+00	-1.080005e+02
1.720000e-06	-5.885554e-07	-1.524975e-09	-4.166982e+00	-1.064936e+02
1.730000e-06	-5.428830e-07	-1.506129e-09	-3.843620e+00	-1.049490e+02
1.740000e-06	-4.971500e-07	-1.482049e-09	-3.519830e+00	-1.033647e+02
1.750000e-06	-4.513057e-07	-1.455301e-09	-3.195252e+00	-1.017382e+02
1.760000e-06	-4.054007e-07	-1.428307e-09	-2.870243e+00	-1.000670e+02
1.770000e-06	-3.595176e-07	-1.399380e-09	-2.545390e+00	-9.834878e+01
1.780000e-06	-3.136095e-07	-1.370306e-09	-2.220361e+00	-9.658088e+01
1.790000e-06	-2.676212e-07	-1.345521e-09	-1.894763e+00	-9.476080e+01
1.800000e-06	-2.216562e-07	-1.322768e-09	-1.569330e+00	-9.288606e+01
1.810000e-06	-1.757043e-07	-1.294588e-09	-1.243990e+00	-9.095429e+01
1.820000e-06	-1.297618e-07	-1.264379e-09	-9.187158e-01	-8.896322e+01
1.830000e-06	-8.373223e-08	-1.234292e-09	-5.928256e-01	-8.691080e+01
1.840000e-06	-3.770140e-08	-1.203988e-09	-2.669265e-01	-8.479516e+01
1.850000e-06	8.248258e-09	-1.171091e-09	5.839780e-02	-8.261468e+01
1.860000e-06	5.418783e-08	-1.133797e-09	3.836507e-01	-8.036805e+01
1.870000e-06	1.001786e-07	-1.096490e-09	7.092659e-01	-7.805423e+01
1.880000e-06	1.461644e-07	-1.062282e-09	1.034847e+00	-7.567255e+01
1.890000e-06	1.920926e-07	-1.027501e-09	1.360018e+00	-7.322267e+01
1.900000e-06	2.381096e-07	-9.890520e-10	1.685820e+00	-7.070462e+01
1.910000e-06	2.841224e-07	-9.504366e-10	2.011592e+00	-6.811881e+01
1.920000e-06	3.300888e-07	-9.114159e-10	2.337034e+00	-6.546601e+01
1.930000e-06	3.760630e-07	-8.699358e-10	2.662533e+00	-6.274738e+01
1.940000e-06	4.219237e-07	-8.268830e-10	2.987227e+00	-5.996443e+01
1.950000e-06	4.676942e-07	-7.834754e-10	3.311283e+00	-5.711900e+01
1.960000e-06	5.134832e-07	-7.415450e-10	3.635470e+00	-5.421327e+01
1.970000e-06	5.592406e-07	-6.974793e-10	3.959433e+00	-5.124971e+01
1.980000e-06	6.049545e-07	-6.503350e-10	4.283088e+00	-4.823106e+01
1.990000e-06	6.506250e-07	-6.016898e-10	4.606436e+00	-4.516029e+01
2.000000e-06	6.962508e-07	-5.543549e-10	4.929467e+00	-4.204059e+01
2.010000e-06	7.418623e-07	-5.096582e-10	5.252398e+00	-3.887528e+01
2.020000e-06	7.874701e-07	-4.633633e-10	5.575301e+00	-3.566782e+01
2.030000e-06	8.329990e-07	-4.124344e-10	5.897647e+00	-3.242176e+01
2.040000e-06	8.783902e-07	-3.602010e-10	6.219017e+00	-2.914070e+01
2.050000e-06	9.237319e-07	-3.099824e-10	6.540037e+00	-2.582823e+01
2.060000e-06	9.689562e-07	-2.611201e-10	6.860226e+00	-2.248795e+01
2.070000e-06	1.014124e-06	-2.120613e-10	7.180017e+00	-1.912339e+01
2.080000e-06	1.059263e-06	-1.615829e-10	7.499599e+00	-1.573799e+01
2.090000e-06	1.104294e-06	-1.112173e-10	7.818420e+00	-1.233510e+01
2.100000e-06	1.149234e-06	-6.303040e-11	8.136598e+00	-8.917943e+00
2.110000e-06	1.193989e-06	-1.506519e-11	8.453460e+00	-5.489603e+00
2.120000e-06	1.238649e-06	3.742519e-11	8.769654e+00	-2.053018e+00
2.130000e-06	1.283280e-06	9.256072e-11	9.085642e+00	1.389029e+00
2.140000e-06	1.327827e-06	1.461908e-10	9.401036e+00	4.833905e+00
2.150000e-06	1.372309e-06	1.981866e-10	9.715970e+00	8.279127e+00
2.160000e-06	1.416665e-06	2.504728e-10	1.003001e+01	1.172235e+01
2.170000e-06	1.460915e-06	3.009255e-10	1.034330e+01	1.516135e+01
2.180000e-06	1.505154e-06	3.497115e-10	1.065651e+01	1.859404e+01
2.190000e-06	1.549295e-06	3.984683e-10	1.096904e+01	2.201838e+01
2.200000e-06	1.593370e-06	4.503480e-10	1.128109e+01	2.543245e+01
2.210000e-06	1.637428e-06	5.053093e-10	1.159302e+01	2.883436e+01
2.220000e-06	1.681428e-06	5.597630e-10	1.190454e+01	3.222224e+01
2.230000e-06	1.725376e-06	6.115709e-10	1.221569e+01	3.559426e+01
2.240000e-06	1.769263e-06	6.608914e-10	1.252641e+01	3.894855e+01
2.250000e-06	1.813099e-06	7.079439e-10	1.283677e+01	4.228321e+01
2.260000e-06	1.856843e-06	7.533659e-10	1.314648e+01	4.559631e+01
2.270000e-06	1.900473e-06	7.981111e-10	1.345538e+01	4.888585e+01
2.280000e-06	1.944009e-06	8.422640e-10	1.376362e+01	5.214975e+01
2.290000e-06	1.987364e-06	8.895878e-10	1.407057e+01	5.538588e+01
2.300000e-06	2.030572e-06	9.380676e-10	1.437648e+01	5.859199e+01
2.310000e-06	2.073640e-06	9.843825e-10	1.468141e+01	6.176580e+01
2.320000e-06	2.116383e-06	1.029487e-09	1.498403e+01	6.490491e+01
2.330000e-06	2.158820e-06	1.073393e-09	1.528448e+01	6.800691e+01
2.340000e-06	2.200998e-06	1.116463e-09	1.558310e+01	7.106930e+01
2.350000e-06	2.242822e-06	1.157953e-09	1.587922e+01	7.408957e+01
2.360000e-06	2.284454e-06	1.199506e-09	1.617397e+01	7.706522e+01
2.370000e-06	2.325857e-06	1.241364e-09	1.646710e+01	7.999375e+01
2.380000e-06	2.366934e-06	1.281795e-09	1.675793e+01	8.287271e+01
2.390000e-06	2.407733e-06	1.321662e-09	1.704679e+01	8.569973e+01
2.400000e-06	2.448306e-06	1.360936e-09	1.733405e+01	8.847255e+01
2.410000e-06	2.488709e-06	1.399416e-09	1.762010e+01	9.118902e+01
2.420000e-06	2.528867e-06	1.435917e-09	1.790442e+01	9.384719e+01
2.430000e-06	2.568880e-06	1.472027e-09	1.818771e+01	9.644526e+01
2.440000e-06	2.608841e-06	1.509805e-09	1.847064e+01	9.898168e+01
2.450000e-06	2.648744e-06	1.548815e-09	1.875315e+01	1.014551e+02
2.460000e-06	2.688529e-06	1.585026e-09	1.903483e+01	1.038645e+02
2.470000e-06	2.728220e-06	1.617914e-09	1.931585e+01	1.062091e+02
2.480000e-06	2.767770e-06	1.648658e-09	1.959586e+01	1.084883e+02
2.490000e-06	2.807117e-06	1.678756e-09	1.987443e+01	1.107020e+02
2.500000e-06	2.846324e-06	1.708883e-09	2.015202e+01	1.128502e+02
2.510000e-06	2.885269e-06	1.739053e-09	2.042775e+01	1.149333e+02
2.520000e-06	2.923957e-06	1.770397e-09	2.070166e+01	1.169519e+02
2.530000e-06	2.962499e-06	1.799367e-09	2.097454e+01	1.189071e+02
2.540000e-06	3.000829e-06	1.823752e-09	2.124592e+01	1.207998e+02
2.550000e-06	3.038907e-06	1.847835e-09	2.151551e+01	1.226316e+02
2.560000e-06	3.076795e-06	1.873714e-09	2.178376e+01	1.244041e+02
2.570000e-06	3.114530e-06	1.901289e-09	2.205092e+01	1.261189e+02
2.580000e-06	3.152066e-06	1.928395e-09	2.231668e+01	1.277781e+02
2.590000e-06	3.189399e-06	1.955310e-09	2.258100e+01	1.293836e+02
2.600000e-06	3.226404e-06	1.981334e-09	2.284300e+01	1.309376e+02
2.610000e-06	3.263108e-06	2.001608e-09	2.310286e+01	1.324421e+02
2.620000e-06	3.299620e-06	2.017016e-09	2.336136e+01	1.338994e+02
2.630000e-06	3.335928e-06	2.032710e-09	2.361843e+01	1.353114e+02
2.640000e-06	3.372081e-06	2.054745e-09	2.387439e+01	1.366803e+02
2.650000e-06	3.408098e-06	2.080066e-09	2.412939e+01	1.380080e+02
2.660000e-06	3.443993e-06	2.101857e-09	2.438353e+01	1.392964e+02
2.670000e-06	3.479720e-06	2.123353e-09	2.463647e+01	1.405470e+02
2.680000e-06	3.515302e-06	2.148591e-09	2.488839e+01	1.417615e+02
2.690000e-06	3.550693e-06	2.168579e-09	2.513897e+01	1.429412e+02
2.700000e-06	3.585819e-06	2.177522e-09	2.538766e+01	1.440873e+02
2.710000e-06	3.620594e-06	2.180568e-09	2.563387e+01	1.452008e+02
2.720000e-06	3.654859e-06	2.191299e-09	2.587646e+01	1.462825e+02
2.730000e-06	3.688724e-06	2.212281e-09	2.611623e+01	1.473331e+02
2.740000e-06	3.722129e-06	2.234138e-09	2.635273e+01	1.483531e+02
2.750000e-06	3.755004e-06	2.251461e-09	2.658549e+01	1.493428e+02
2.760000e-06	3.787483e-06	2.268749e-09	2.681544e+01	1.503025e+02
2.770000e-06	3.819688e-06	2.287219e-09	2.704346e+01	1.512321e+02
2.780000e-06	3.851741e-06	2.300699e-09	2.727039e+01	1.521318e+02
2.790000e-06	3.883642e-06	2.306124e-09	2.749625e+01	1.530016e+02
2.800000e-06	3.915403e-06	2.309862e-09	2.772112e+01	1.538413e+02
2.810000e-06	3.947000e-06	2.322659e-09	2.794483e+01	1.546509e+02
2.820000e-06	3.978324e-06	2.342288e-09	2.816660e+01	1.554304e+02
2.830000e-06	4.009335e-06	2.357531e-09	2.838616e+01	1.561797e+02
2.840000e-06	4.040085e-06	2.364622e-09	2.860387e+01	1.568990e+02
2.850000e-06	4.070551e-06	2.369998e-09	2.881957e+01	1.575883e+02
2.860000e-06	4.100732e-06	2.377464e-09	2.903325e+01	1.582481e+02
2.870000e-06	4.130703e-06	2.385202e-09	2.924544e+01	1.588787e+02
2.880000e-06	4.160394e-06	2.390834e-09	2.945566e+01	1.594807e+02
2.890000e-06	4.189771e-06	2.397457e-09	2.966365e+01	1.600548e+02
2.900000e-06	4.218930e-06	2.407226e-09	2.987010e+01	1.606017e+02
