# Temperatura_=_17.76
# Concentracion g/m^3_=_4090.0
# C_Vs_to_Am_M_A/Vsm_=_65563218390.804596
# pendiente_HvsI_1/m_=_3716.3
# ordenada_HvsI_A/m_=_1297.0
# frecuencia_Hz_=_135078.8564910037

Tiempo_(s)	Campo_(V.s)	Magnetizacion_(V.s)	Campo_(kA/m)	Magnetizacion_(A/m)
0.000000e+00	-5.422178e-06	-2.681080e-09	-3.839210e+01	-1.720529e+02
1.000000e-08	-5.422376e-06	-2.676924e-09	-3.839351e+01	-1.719855e+02
2.000000e-08	-5.422357e-06	-2.666676e-09	-3.839337e+01	-1.719189e+02
3.000000e-08	-5.421913e-06	-2.659243e-09	-3.839022e+01	-1.718551e+02
4.000000e-08	-5.421093e-06	-2.656905e-09	-3.838442e+01	-1.717958e+02
5.000000e-08	-5.419887e-06	-2.658000e-09	-3.837588e+01	-1.717432e+02
6.000000e-08	-5.418082e-06	-2.680284e-09	-3.836310e+01	-1.716990e+02
7.000000e-08	-5.415673e-06	-2.708138e-09	-3.834604e+01	-1.716652e+02
8.000000e-08	-5.412685e-06	-2.660344e-09	-3.832489e+01	-1.716433e+02
9.000000e-08	-5.409232e-06	-2.555055e-09	-3.830044e+01	-1.716351e+02
1.000000e-07	-5.405305e-06	-2.580126e-09	-3.827263e+01	-1.716419e+02
1.100000e-07	-5.401029e-06	-2.698066e-09	-3.824235e+01	-1.716648e+02
1.200000e-07	-5.396581e-06	-2.686848e-09	-3.821086e+01	-1.717047e+02
1.300000e-07	-5.391852e-06	-2.536893e-09	-3.817738e+01	-1.717622e+02
1.400000e-07	-5.386702e-06	-2.582032e-09	-3.814091e+01	-1.718378e+02
1.500000e-07	-5.381123e-06	-2.743112e-09	-3.810141e+01	-1.719313e+02
1.600000e-07	-5.375203e-06	-2.730843e-09	-3.805949e+01	-1.720426e+02
1.700000e-07	-5.368991e-06	-2.537541e-09	-3.801550e+01	-1.721710e+02
1.800000e-07	-5.362444e-06	-2.525653e-09	-3.796915e+01	-1.723156e+02
1.900000e-07	-5.355466e-06	-2.683462e-09	-3.791975e+01	-1.724752e+02
2.000000e-07	-5.348131e-06	-2.649145e-09	-3.786781e+01	-1.726482e+02
2.100000e-07	-5.340589e-06	-2.583964e-09	-3.781440e+01	-1.728330e+02
2.200000e-07	-5.332814e-06	-2.657593e-09	-3.775935e+01	-1.730274e+02
2.300000e-07	-5.324680e-06	-2.774201e-09	-3.770176e+01	-1.732293e+02
2.400000e-07	-5.316131e-06	-2.660561e-09	-3.764123e+01	-1.734363e+02
2.500000e-07	-5.307098e-06	-2.626449e-09	-3.757727e+01	-1.736459e+02
2.600000e-07	-5.297405e-06	-2.731937e-09	-3.750863e+01	-1.738554e+02
2.700000e-07	-5.287091e-06	-2.753611e-09	-3.743561e+01	-1.740623e+02
2.800000e-07	-5.276258e-06	-2.632378e-09	-3.735890e+01	-1.742639e+02
2.900000e-07	-5.265033e-06	-2.693273e-09	-3.727943e+01	-1.744575e+02
3.000000e-07	-5.253353e-06	-2.802412e-09	-3.719673e+01	-1.746407e+02
3.100000e-07	-5.241224e-06	-2.725165e-09	-3.711084e+01	-1.748111e+02
3.200000e-07	-5.228737e-06	-2.626932e-09	-3.702243e+01	-1.749665e+02
3.300000e-07	-5.215842e-06	-2.700164e-09	-3.693113e+01	-1.751047e+02
3.400000e-07	-5.202562e-06	-2.741060e-09	-3.683710e+01	-1.752241e+02
3.500000e-07	-5.188946e-06	-2.676935e-09	-3.674069e+01	-1.753231e+02
3.600000e-07	-5.174913e-06	-2.697731e-09	-3.664132e+01	-1.754005e+02
3.700000e-07	-5.160379e-06	-2.743134e-09	-3.653841e+01	-1.754551e+02
3.800000e-07	-5.145424e-06	-2.715485e-09	-3.643253e+01	-1.754865e+02
3.900000e-07	-5.129843e-06	-2.696464e-09	-3.632220e+01	-1.754942e+02
4.000000e-07	-5.113667e-06	-2.723075e-09	-3.620766e+01	-1.754782e+02
4.100000e-07	-5.097189e-06	-2.664049e-09	-3.609099e+01	-1.754386e+02
4.200000e-07	-5.080397e-06	-2.638399e-09	-3.597209e+01	-1.753761e+02
4.300000e-07	-5.063254e-06	-2.699284e-09	-3.585071e+01	-1.752913e+02
4.400000e-07	-5.045879e-06	-2.725613e-09	-3.572769e+01	-1.751853e+02
4.500000e-07	-5.028130e-06	-2.660862e-09	-3.560202e+01	-1.750593e+02
4.600000e-07	-5.009937e-06	-2.680504e-09	-3.547320e+01	-1.749146e+02
4.700000e-07	-4.991481e-06	-2.708699e-09	-3.534252e+01	-1.747529e+02
4.800000e-07	-4.972702e-06	-2.686610e-09	-3.520956e+01	-1.745758e+02
4.900000e-07	-4.953527e-06	-2.642517e-09	-3.507378e+01	-1.743849e+02
5.000000e-07	-4.934064e-06	-2.654476e-09	-3.493598e+01	-1.741821e+02
5.100000e-07	-4.914344e-06	-2.657282e-09	-3.479635e+01	-1.739692e+02
5.200000e-07	-4.894332e-06	-2.679267e-09	-3.465465e+01	-1.737478e+02
5.300000e-07	-4.874103e-06	-2.676918e-09	-3.451142e+01	-1.735196e+02
5.400000e-07	-4.853604e-06	-2.656371e-09	-3.436627e+01	-1.732863e+02
5.500000e-07	-4.832707e-06	-2.642516e-09	-3.421831e+01	-1.730492e+02
5.600000e-07	-4.811472e-06	-2.664148e-09	-3.406795e+01	-1.728098e+02
5.700000e-07	-4.789876e-06	-2.646502e-09	-3.391504e+01	-1.725690e+02
5.800000e-07	-4.767935e-06	-2.618383e-09	-3.375969e+01	-1.723280e+02
5.900000e-07	-4.745713e-06	-2.615307e-09	-3.360235e+01	-1.720875e+02
6.000000e-07	-4.723135e-06	-2.633139e-09	-3.344248e+01	-1.718481e+02
6.100000e-07	-4.700197e-06	-2.632603e-09	-3.328007e+01	-1.716102e+02
6.200000e-07	-4.676965e-06	-2.616274e-09	-3.311557e+01	-1.713740e+02
6.300000e-07	-4.653457e-06	-2.594071e-09	-3.294912e+01	-1.711396e+02
6.400000e-07	-4.629672e-06	-2.591505e-09	-3.278071e+01	-1.709067e+02
6.500000e-07	-4.605700e-06	-2.603423e-09	-3.261097e+01	-1.706753e+02
6.600000e-07	-4.581559e-06	-2.589969e-09	-3.244004e+01	-1.704447e+02
6.700000e-07	-4.557093e-06	-2.569163e-09	-3.226680e+01	-1.702145e+02
6.800000e-07	-4.532132e-06	-2.568130e-09	-3.209007e+01	-1.699839e+02
6.900000e-07	-4.506557e-06	-2.580694e-09	-3.190899e+01	-1.697524e+02
7.000000e-07	-4.480471e-06	-2.566297e-09	-3.172428e+01	-1.695191e+02
7.100000e-07	-4.453919e-06	-2.546336e-09	-3.153628e+01	-1.692832e+02
7.200000e-07	-4.426938e-06	-2.531593e-09	-3.134524e+01	-1.690439e+02
7.300000e-07	-4.399673e-06	-2.544216e-09	-3.115219e+01	-1.688005e+02
7.400000e-07	-4.372148e-06	-2.549285e-09	-3.095729e+01	-1.685522e+02
7.500000e-07	-4.344400e-06	-2.542182e-09	-3.076082e+01	-1.682984e+02
7.600000e-07	-4.316419e-06	-2.524946e-09	-3.056270e+01	-1.680383e+02
7.700000e-07	-4.288252e-06	-2.528787e-09	-3.036326e+01	-1.677716e+02
7.800000e-07	-4.259804e-06	-2.523187e-09	-3.016183e+01	-1.674977e+02
7.900000e-07	-4.230921e-06	-2.506939e-09	-2.995732e+01	-1.672163e+02
8.000000e-07	-4.201742e-06	-2.486629e-09	-2.975072e+01	-1.669273e+02
8.100000e-07	-4.172333e-06	-2.491790e-09	-2.954249e+01	-1.666305e+02
8.200000e-07	-4.142654e-06	-2.501779e-09	-2.933234e+01	-1.663258e+02
8.300000e-07	-4.112744e-06	-2.506817e-09	-2.912057e+01	-1.660134e+02
8.400000e-07	-4.082548e-06	-2.491329e-09	-2.890676e+01	-1.656935e+02
8.500000e-07	-4.052007e-06	-2.480794e-09	-2.869052e+01	-1.653663e+02
8.600000e-07	-4.021244e-06	-2.475764e-09	-2.847270e+01	-1.650321e+02
8.700000e-07	-3.990192e-06	-2.468943e-09	-2.825282e+01	-1.646914e+02
8.800000e-07	-3.958779e-06	-2.450779e-09	-2.803040e+01	-1.643445e+02
8.900000e-07	-3.927181e-06	-2.440988e-09	-2.780668e+01	-1.639920e+02
9.000000e-07	-3.895431e-06	-2.445552e-09	-2.758187e+01	-1.636343e+02
9.100000e-07	-3.863490e-06	-2.451542e-09	-2.735571e+01	-1.632720e+02
9.200000e-07	-3.831408e-06	-2.443955e-09	-2.712855e+01	-1.629054e+02
9.300000e-07	-3.799166e-06	-2.429724e-09	-2.690025e+01	-1.625350e+02
9.400000e-07	-3.766506e-06	-2.424046e-09	-2.666901e+01	-1.621613e+02
9.500000e-07	-3.733440e-06	-2.422504e-09	-2.643488e+01	-1.617846e+02
9.600000e-07	-3.700082e-06	-2.416099e-09	-2.619868e+01	-1.614052e+02
9.700000e-07	-3.666391e-06	-2.403585e-09	-2.596013e+01	-1.610234e+02
9.800000e-07	-3.632249e-06	-2.400787e-09	-2.571838e+01	-1.606393e+02
9.900000e-07	-3.597543e-06	-2.402975e-09	-2.547265e+01	-1.602531e+02
1.000000e-06	-3.562498e-06	-2.403172e-09	-2.522451e+01	-1.598648e+02
1.010000e-06	-3.527260e-06	-2.394999e-09	-2.497500e+01	-1.594744e+02
1.020000e-06	-3.491802e-06	-2.388505e-09	-2.472394e+01	-1.590819e+02
1.030000e-06	-3.456184e-06	-2.381315e-09	-2.447175e+01	-1.586871e+02
1.040000e-06	-3.420416e-06	-2.377574e-09	-2.421849e+01	-1.582899e+02
1.050000e-06	-3.384466e-06	-2.367710e-09	-2.396394e+01	-1.578899e+02
1.060000e-06	-3.348359e-06	-2.359156e-09	-2.370829e+01	-1.574870e+02
1.070000e-06	-3.312027e-06	-2.351912e-09	-2.345104e+01	-1.570809e+02
1.080000e-06	-3.275479e-06	-2.349585e-09	-2.319225e+01	-1.566713e+02
1.090000e-06	-3.238729e-06	-2.341353e-09	-2.293204e+01	-1.562578e+02
1.100000e-06	-3.201700e-06	-2.334627e-09	-2.266986e+01	-1.558401e+02
1.110000e-06	-3.164422e-06	-2.328785e-09	-2.240590e+01	-1.554179e+02
1.120000e-06	-3.126980e-06	-2.328047e-09	-2.214079e+01	-1.549909e+02
1.130000e-06	-3.089356e-06	-2.323019e-09	-2.187439e+01	-1.545588e+02
1.140000e-06	-3.051469e-06	-2.313593e-09	-2.160614e+01	-1.541213e+02
1.150000e-06	-3.013392e-06	-2.302280e-09	-2.133653e+01	-1.536782e+02
1.160000e-06	-2.975103e-06	-2.296233e-09	-2.106542e+01	-1.532290e+02
1.170000e-06	-2.936504e-06	-2.289716e-09	-2.079211e+01	-1.527737e+02
1.180000e-06	-2.897603e-06	-2.281029e-09	-2.051667e+01	-1.523120e+02
1.190000e-06	-2.858528e-06	-2.272183e-09	-2.024001e+01	-1.518437e+02
1.200000e-06	-2.819320e-06	-2.267028e-09	-1.996239e+01	-1.513684e+02
1.210000e-06	-2.779892e-06	-2.259279e-09	-1.968322e+01	-1.508861e+02
1.220000e-06	-2.740271e-06	-2.244677e-09	-1.940268e+01	-1.503964e+02
1.230000e-06	-2.700564e-06	-2.229359e-09	-1.912153e+01	-1.498991e+02
1.240000e-06	-2.660784e-06	-2.219362e-09	-1.883986e+01	-1.493939e+02
1.250000e-06	-2.620932e-06	-2.213797e-09	-1.855768e+01	-1.488805e+02
1.260000e-06	-2.581022e-06	-2.204312e-09	-1.827510e+01	-1.483586e+02
1.270000e-06	-2.541000e-06	-2.192783e-09	-1.799172e+01	-1.478277e+02
1.280000e-06	-2.500704e-06	-2.182995e-09	-1.770641e+01	-1.472875e+02
1.290000e-06	-2.460205e-06	-2.176356e-09	-1.741965e+01	-1.467373e+02
1.300000e-06	-2.419612e-06	-2.164208e-09	-1.713223e+01	-1.461768e+02
1.310000e-06	-2.378827e-06	-2.151195e-09	-1.684345e+01	-1.456053e+02
1.320000e-06	-2.337783e-06	-2.140491e-09	-1.655283e+01	-1.450222e+02
1.330000e-06	-2.296415e-06	-2.131241e-09	-1.625992e+01	-1.444267e+02
1.340000e-06	-2.254760e-06	-2.117727e-09	-1.596498e+01	-1.438183e+02
1.350000e-06	-2.212865e-06	-2.103514e-09	-1.566834e+01	-1.431961e+02
1.360000e-06	-2.170655e-06	-2.089773e-09	-1.536947e+01	-1.425593e+02
1.370000e-06	-2.128222e-06	-2.079425e-09	-1.506902e+01	-1.419072e+02
1.380000e-06	-2.085606e-06	-2.065983e-09	-1.476727e+01	-1.412390e+02
1.390000e-06	-2.042653e-06	-2.049661e-09	-1.446314e+01	-1.405538e+02
1.400000e-06	-1.999452e-06	-2.036520e-09	-1.415725e+01	-1.398510e+02
1.410000e-06	-1.956117e-06	-2.029459e-09	-1.385042e+01	-1.391297e+02
1.420000e-06	-1.912670e-06	-2.018519e-09	-1.354279e+01	-1.383892e+02
1.430000e-06	-1.869061e-06	-2.001371e-09	-1.323402e+01	-1.376290e+02
1.440000e-06	-1.825313e-06	-1.983582e-09	-1.292425e+01	-1.368483e+02
1.450000e-06	-1.781568e-06	-1.972549e-09	-1.261451e+01	-1.360467e+02
1.460000e-06	-1.737782e-06	-1.961434e-09	-1.230448e+01	-1.352237e+02
1.470000e-06	-1.693890e-06	-1.944109e-09	-1.199370e+01	-1.343789e+02
1.480000e-06	-1.649930e-06	-1.926109e-09	-1.168244e+01	-1.335120e+02
1.490000e-06	-1.605918e-06	-1.913558e-09	-1.137081e+01	-1.326227e+02
1.500000e-06	-1.561849e-06	-1.902646e-09	-1.105878e+01	-1.317108e+02
1.510000e-06	-1.517698e-06	-1.886181e-09	-1.074617e+01	-1.307762e+02
1.520000e-06	-1.473504e-06	-1.865919e-09	-1.043325e+01	-1.298190e+02
1.530000e-06	-1.429201e-06	-1.851310e-09	-1.011956e+01	-1.288389e+02
1.540000e-06	-1.384758e-06	-1.843610e-09	-9.804874e+00	-1.278361e+02
1.550000e-06	-1.340214e-06	-1.834401e-09	-9.489474e+00	-1.268106e+02
1.560000e-06	-1.295629e-06	-1.817434e-09	-9.173791e+00	-1.257623e+02
1.570000e-06	-1.250974e-06	-1.799570e-09	-8.857606e+00	-1.246912e+02
1.580000e-06	-1.206215e-06	-1.786381e-09	-8.540686e+00	-1.235974e+02
1.590000e-06	-1.161286e-06	-1.770261e-09	-8.222562e+00	-1.224805e+02
1.600000e-06	-1.116191e-06	-1.752870e-09	-7.903270e+00	-1.213405e+02
1.610000e-06	-1.071039e-06	-1.735337e-09	-7.583564e+00	-1.201770e+02
1.620000e-06	-1.025806e-06	-1.719524e-09	-7.263287e+00	-1.189895e+02
1.630000e-06	-9.805617e-07	-1.704532e-09	-6.942934e+00	-1.177775e+02
1.640000e-06	-9.352273e-07	-1.686198e-09	-6.621941e+00	-1.165401e+02
1.650000e-06	-8.897863e-07	-1.666330e-09	-6.300192e+00	-1.152765e+02
1.660000e-06	-8.443277e-07	-1.650988e-09	-5.978320e+00	-1.139856e+02
1.670000e-06	-7.987910e-07	-1.638099e-09	-5.655894e+00	-1.126660e+02
1.680000e-06	-7.531834e-07	-1.618922e-09	-5.332966e+00	-1.113164e+02
1.690000e-06	-7.075391e-07	-1.591087e-09	-5.009779e+00	-1.099350e+02
1.700000e-06	-6.618352e-07	-1.563813e-09	-4.686170e+00	-1.085201e+02
1.710000e-06	-6.160731e-07	-1.540866e-09	-4.362147e+00	-1.070696e+02
1.720000e-06	-5.703164e-07	-1.520654e-09	-4.038164e+00	-1.055814e+02
1.730000e-06	-5.245736e-07	-1.499586e-09	-3.714279e+00	-1.040532e+02
1.740000e-06	-4.787486e-07	-1.481507e-09	-3.389812e+00	-1.024827e+02
1.750000e-06	-4.328340e-07	-1.464362e-09	-3.064711e+00	-1.008674e+02
1.760000e-06	-3.869476e-07	-1.442873e-09	-2.739809e+00	-9.920479e+01
1.770000e-06	-3.410761e-07	-1.414837e-09	-2.415013e+00	-9.749232e+01
1.780000e-06	-2.950837e-07	-1.383756e-09	-2.089360e+00	-9.572748e+01
1.790000e-06	-2.490450e-07	-1.352727e-09	-1.763380e+00	-9.390780e+01
1.800000e-06	-2.030538e-07	-1.321375e-09	-1.437736e+00	-9.203090e+01
1.810000e-06	-1.570681e-07	-1.291539e-09	-1.112132e+00	-9.009453e+01
1.820000e-06	-1.110944e-07	-1.267684e-09	-7.866116e-01	-8.809658e+01
1.830000e-06	-6.512449e-08	-1.247133e-09	-4.611184e-01	-8.603513e+01
1.840000e-06	-1.916370e-08	-1.220730e-09	-1.356899e-01	-8.390851e+01
1.850000e-06	2.678954e-08	-1.183532e-09	1.896851e-01	-8.171528e+01
1.860000e-06	7.271605e-08	-1.140840e-09	5.148710e-01	-7.945428e+01
1.870000e-06	1.186176e-07	-1.098033e-09	8.398798e-01	-7.712468e+01
1.880000e-06	1.645737e-07	-1.053160e-09	1.165275e+00	-7.472593e+01
1.890000e-06	2.105148e-07	-1.009937e-09	1.490565e+00	-7.225787e+01
1.900000e-06	2.564168e-07	-9.733438e-10	1.815576e+00	-6.972064e+01
1.910000e-06	3.023285e-07	-9.424961e-10	2.140658e+00	-6.711475e+01
1.920000e-06	3.482437e-07	-9.074678e-10	2.465763e+00	-6.444107e+01
1.930000e-06	3.941745e-07	-8.652148e-10	2.790980e+00	-6.170079e+01
1.940000e-06	4.401621e-07	-8.198148e-10	3.116598e+00	-5.889546e+01
1.950000e-06	4.860994e-07	-7.742212e-10	3.441860e+00	-5.602695e+01
1.960000e-06	5.318891e-07	-7.268574e-10	3.766077e+00	-5.309740e+01
1.970000e-06	5.776259e-07	-6.798788e-10	4.089920e+00	-5.010927e+01
1.980000e-06	6.233290e-07	-6.347349e-10	4.413523e+00	-4.706526e+01
1.990000e-06	6.690106e-07	-5.915958e-10	4.736975e+00	-4.396827e+01
2.000000e-06	7.146754e-07	-5.500633e-10	5.060308e+00	-4.082144e+01
2.010000e-06	7.602869e-07	-5.046063e-10	5.383263e+00	-3.762803e+01
2.020000e-06	8.058436e-07	-4.525976e-10	5.705831e+00	-3.439145e+01
2.030000e-06	8.513392e-07	-3.994285e-10	6.027965e+00	-3.111522e+01
2.040000e-06	8.967772e-07	-3.477672e-10	6.349692e+00	-2.780289e+01
2.050000e-06	9.421076e-07	-2.973195e-10	6.670657e+00	-2.445807e+01
2.060000e-06	9.873014e-07	-2.460498e-10	6.990655e+00	-2.108437e+01
2.070000e-06	1.032454e-06	-1.949627e-10	7.310360e+00	-1.768536e+01
2.080000e-06	1.077520e-06	-1.453799e-10	7.629456e+00	-1.426460e+01
2.090000e-06	1.122480e-06	-9.734437e-11	7.947799e+00	-1.082554e+01
2.100000e-06	1.167359e-06	-4.839851e-11	8.265568e+00	-7.371567e+00
2.110000e-06	1.212126e-06	4.402786e-12	8.582540e+00	-3.905973e+00
2.120000e-06	1.256856e-06	5.987030e-11	8.899256e+00	-4.319305e-01
2.130000e-06	1.301523e-06	1.145114e-10	9.215525e+00	3.047499e+00
2.140000e-06	1.346066e-06	1.675726e-10	9.530909e+00	6.529371e+00
2.150000e-06	1.390479e-06	2.208570e-10	9.845385e+00	1.001086e+01
2.160000e-06	1.434765e-06	2.717444e-10	1.015895e+01	1.348925e+01
2.170000e-06	1.479041e-06	3.206560e-10	1.047245e+01	1.696194e+01
2.180000e-06	1.523332e-06	3.703293e-10	1.078605e+01	2.042640e+01
2.190000e-06	1.567551e-06	4.210702e-10	1.109915e+01	2.388021e+01
2.200000e-06	1.611620e-06	4.712506e-10	1.141119e+01	2.732102e+01
2.210000e-06	1.655565e-06	5.219524e-10	1.172234e+01	3.074653e+01
2.220000e-06	1.699450e-06	5.750700e-10	1.203307e+01	3.415448e+01
2.230000e-06	1.743309e-06	6.287955e-10	1.234362e+01	3.754265e+01
2.240000e-06	1.787119e-06	6.800197e-10	1.265382e+01	4.090883e+01
2.250000e-06	1.830866e-06	7.301829e-10	1.296357e+01	4.425082e+01
2.260000e-06	1.874514e-06	7.795650e-10	1.327262e+01	4.756642e+01
2.270000e-06	1.918021e-06	8.258492e-10	1.358068e+01	5.085342e+01
2.280000e-06	1.961417e-06	8.689027e-10	1.388795e+01	5.410958e+01
2.290000e-06	2.004663e-06	9.112287e-10	1.419415e+01	5.733266e+01
2.300000e-06	2.047797e-06	9.569854e-10	1.449957e+01	6.052039e+01
2.310000e-06	2.090702e-06	1.003935e-09	1.480336e+01	6.367051e+01
2.320000e-06	2.133272e-06	1.046404e-09	1.510478e+01	6.678072e+01
2.330000e-06	2.175645e-06	1.086966e-09	1.540481e+01	6.984875e+01
2.340000e-06	2.217765e-06	1.127927e-09	1.570303e+01	7.287234e+01
2.350000e-06	2.259494e-06	1.170096e-09	1.599850e+01	7.584927e+01
2.360000e-06	2.300924e-06	1.211678e-09	1.629185e+01	7.877737e+01
2.370000e-06	2.342185e-06	1.249616e-09	1.658400e+01	8.165453e+01
2.380000e-06	2.383147e-06	1.284855e-09	1.687404e+01	8.447874e+01
2.390000e-06	2.423807e-06	1.321196e-09	1.716193e+01	8.724812e+01
2.400000e-06	2.464354e-06	1.357864e-09	1.744903e+01	8.996089e+01
2.410000e-06	2.504706e-06	1.390819e-09	1.773474e+01	9.261545e+01
2.420000e-06	2.544897e-06	1.424598e-09	1.801932e+01	9.521037e+01
2.430000e-06	2.584980e-06	1.463691e-09	1.830313e+01	9.774442e+01
2.440000e-06	2.624890e-06	1.506326e-09	1.858571e+01	1.002166e+02
2.450000e-06	2.664663e-06	1.545020e-09	1.886733e+01	1.026260e+02
2.460000e-06	2.704381e-06	1.577163e-09	1.914855e+01	1.049722e+02
2.470000e-06	2.743990e-06	1.607737e-09	1.942901e+01	1.072549e+02
2.480000e-06	2.783388e-06	1.638090e-09	1.970797e+01	1.094739e+02
2.490000e-06	2.822564e-06	1.664928e-09	1.998536e+01	1.116294e+02
2.500000e-06	2.861584e-06	1.690226e-09	2.026164e+01	1.137219e+02
2.510000e-06	2.900462e-06	1.721047e-09	2.053692e+01	1.157519e+02
2.520000e-06	2.939103e-06	1.754952e-09	2.081052e+01	1.177205e+02
2.530000e-06	2.977475e-06	1.785720e-09	2.108221e+01	1.196287e+02
2.540000e-06	3.015599e-06	1.812778e-09	2.135215e+01	1.214777e+02
2.550000e-06	3.053558e-06	1.838847e-09	2.162092e+01	1.232690e+02
2.560000e-06	3.091346e-06	1.864326e-09	2.188849e+01	1.250042e+02
2.570000e-06	3.128924e-06	1.886365e-09	2.215456e+01	1.266850e+02
2.580000e-06	3.166316e-06	1.905306e-09	2.241931e+01	1.283132e+02
2.590000e-06	3.203495e-06	1.927158e-09	2.268256e+01	1.298906e+02
2.600000e-06	3.240540e-06	1.954016e-09	2.294486e+01	1.314192e+02
2.610000e-06	3.277339e-06	1.982068e-09	2.320542e+01	1.329007e+02
2.620000e-06	3.313798e-06	2.006926e-09	2.346358e+01	1.343372e+02
2.630000e-06	3.350057e-06	2.029377e-09	2.372031e+01	1.357303e+02
2.640000e-06	3.386121e-06	2.052802e-09	2.397566e+01	1.370818e+02
2.650000e-06	3.422050e-06	2.071263e-09	2.423006e+01	1.383933e+02
2.660000e-06	3.457863e-06	2.082538e-09	2.448364e+01	1.396664e+02
2.670000e-06	3.493534e-06	2.097046e-09	2.473620e+01	1.409024e+02
2.680000e-06	3.529002e-06	2.118571e-09	2.498734e+01	1.421026e+02
2.690000e-06	3.564220e-06	2.141373e-09	2.523670e+01	1.432681e+02
2.700000e-06	3.599168e-06	2.159931e-09	2.548415e+01	1.443997e+02
2.710000e-06	3.633728e-06	2.173322e-09	2.572886e+01	1.454983e+02
2.720000e-06	3.667795e-06	2.187810e-09	2.597007e+01	1.465646e+02
2.730000e-06	3.701369e-06	2.203542e-09	2.620780e+01	1.475989e+02
2.740000e-06	3.734567e-06	2.215403e-09	2.644286e+01	1.486018e+02
2.750000e-06	3.767356e-06	2.225785e-09	2.667502e+01	1.495734e+02
2.760000e-06	3.799786e-06	2.242267e-09	2.690464e+01	1.505140e+02
2.770000e-06	3.831980e-06	2.264004e-09	2.713260e+01	1.514237e+02
2.780000e-06	3.863976e-06	2.281774e-09	2.735915e+01	1.523024e+02
2.790000e-06	3.895818e-06	2.293318e-09	2.758461e+01	1.531503e+02
2.800000e-06	3.927468e-06	2.303822e-09	2.780870e+01	1.539674e+02
2.810000e-06	3.958941e-06	2.314208e-09	2.803155e+01	1.547537e+02
2.820000e-06	3.990223e-06	2.320390e-09	2.825304e+01	1.555093e+02
2.830000e-06	4.021219e-06	2.324373e-09	2.847251e+01	1.562344e+02
2.840000e-06	4.051987e-06	2.332569e-09	2.869037e+01	1.569292e+02
2.850000e-06	4.082466e-06	2.344989e-09	2.890618e+01	1.575939e+02
2.860000e-06	4.112556e-06	2.358003e-09	2.911923e+01	1.582292e+02
2.870000e-06	4.142379e-06	2.368789e-09	2.933040e+01	1.588354e+02
2.880000e-06	4.171933e-06	2.375417e-09	2.953966e+01	1.594133e+02
2.890000e-06	4.201218e-06	2.378385e-09	2.974701e+01	1.599637e+02
2.900000e-06	4.230294e-06	2.379744e-09	2.995288e+01	1.604875e+02
