# Temperatura_=_19.6
# Concentracion g/m^3_=_4090.0
# C_Vs_to_Am_M_A/Vsm_=_65563218390.804596
# pendiente_HvsI_1/m_=_3716.3
# ordenada_HvsI_A/m_=_1297.0
# frecuencia_Hz_=_135074.43493026527

Tiempo_(s)	Campo_(V.s)	Magnetizacion_(V.s)	Campo_(kA/m)	Magnetizacion_(A/m)
0.000000e+00	-5.415257e-06	-2.682785e-09	-3.839226e+01	-1.736843e+02
1.000000e-08	-5.415429e-06	-2.679729e-09	-3.839348e+01	-1.736185e+02
2.000000e-08	-5.415303e-06	-2.676516e-09	-3.839259e+01	-1.735529e+02
3.000000e-08	-5.414849e-06	-2.674377e-09	-3.838937e+01	-1.734893e+02
4.000000e-08	-5.413993e-06	-2.671072e-09	-3.838330e+01	-1.734293e+02
5.000000e-08	-5.412720e-06	-2.672301e-09	-3.837427e+01	-1.733747e+02
6.000000e-08	-5.410897e-06	-2.705431e-09	-3.836135e+01	-1.733273e+02
7.000000e-08	-5.408459e-06	-2.754958e-09	-3.834406e+01	-1.732886e+02
8.000000e-08	-5.405398e-06	-2.700172e-09	-3.832236e+01	-1.732601e+02
9.000000e-08	-5.401753e-06	-2.549737e-09	-3.829652e+01	-1.732432e+02
1.000000e-07	-5.397776e-06	-2.554930e-09	-3.826833e+01	-1.732392e+02
1.100000e-07	-5.393575e-06	-2.681093e-09	-3.823854e+01	-1.732490e+02
1.200000e-07	-5.389109e-06	-2.752407e-09	-3.820688e+01	-1.732735e+02
1.300000e-07	-5.384294e-06	-2.600605e-09	-3.817274e+01	-1.733131e+02
1.400000e-07	-5.379050e-06	-2.563288e-09	-3.813556e+01	-1.733683e+02
1.500000e-07	-5.373418e-06	-2.756313e-09	-3.809564e+01	-1.734390e+02
1.600000e-07	-5.367475e-06	-2.805688e-09	-3.805350e+01	-1.735249e+02
1.700000e-07	-5.361186e-06	-2.648626e-09	-3.800892e+01	-1.736256e+02
1.800000e-07	-5.354464e-06	-2.504395e-09	-3.796126e+01	-1.737403e+02
1.900000e-07	-5.347405e-06	-2.640029e-09	-3.791121e+01	-1.738679e+02
2.000000e-07	-5.340072e-06	-2.697015e-09	-3.785922e+01	-1.740071e+02
2.100000e-07	-5.332394e-06	-2.668102e-09	-3.780479e+01	-1.741564e+02
2.200000e-07	-5.324438e-06	-2.649680e-09	-3.774839e+01	-1.743140e+02
2.300000e-07	-5.316285e-06	-2.733674e-09	-3.769058e+01	-1.744780e+02
2.400000e-07	-5.307620e-06	-2.706420e-09	-3.762915e+01	-1.746464e+02
2.500000e-07	-5.298349e-06	-2.664675e-09	-3.756342e+01	-1.748170e+02
2.600000e-07	-5.288443e-06	-2.694133e-09	-3.749320e+01	-1.749875e+02
2.700000e-07	-5.277954e-06	-2.726060e-09	-3.741883e+01	-1.751556e+02
2.800000e-07	-5.267130e-06	-2.674801e-09	-3.734209e+01	-1.753192e+02
2.900000e-07	-5.255815e-06	-2.685143e-09	-3.726187e+01	-1.754758e+02
3.000000e-07	-5.244033e-06	-2.764326e-09	-3.717835e+01	-1.756233e+02
3.100000e-07	-5.231896e-06	-2.739208e-09	-3.709230e+01	-1.757597e+02
3.200000e-07	-5.219348e-06	-2.660334e-09	-3.700334e+01	-1.758829e+02
3.300000e-07	-5.206503e-06	-2.646876e-09	-3.691227e+01	-1.759912e+02
3.400000e-07	-5.193332e-06	-2.708630e-09	-3.681889e+01	-1.760830e+02
3.500000e-07	-5.179729e-06	-2.725032e-09	-3.672245e+01	-1.761568e+02
3.600000e-07	-5.165708e-06	-2.723487e-09	-3.662305e+01	-1.762115e+02
3.700000e-07	-5.151318e-06	-2.703041e-09	-3.652103e+01	-1.762461e+02
3.800000e-07	-5.136528e-06	-2.705973e-09	-3.641617e+01	-1.762601e+02
3.900000e-07	-5.121016e-06	-2.707812e-09	-3.630619e+01	-1.762528e+02
4.000000e-07	-5.104856e-06	-2.703411e-09	-3.619163e+01	-1.762241e+02
4.100000e-07	-5.088324e-06	-2.643332e-09	-3.607442e+01	-1.761741e+02
4.200000e-07	-5.071370e-06	-2.635498e-09	-3.595422e+01	-1.761030e+02
4.300000e-07	-5.054171e-06	-2.670563e-09	-3.583229e+01	-1.760112e+02
4.400000e-07	-5.036733e-06	-2.719475e-09	-3.570866e+01	-1.758995e+02
4.500000e-07	-5.018934e-06	-2.684721e-09	-3.558247e+01	-1.757687e+02
4.600000e-07	-5.000860e-06	-2.656339e-09	-3.545433e+01	-1.756197e+02
4.700000e-07	-4.982358e-06	-2.654523e-09	-3.532316e+01	-1.754536e+02
4.800000e-07	-4.963401e-06	-2.683081e-09	-3.518876e+01	-1.752718e+02
4.900000e-07	-4.944046e-06	-2.645493e-09	-3.505154e+01	-1.750754e+02
5.000000e-07	-4.924450e-06	-2.608440e-09	-3.491261e+01	-1.748658e+02
5.100000e-07	-4.904679e-06	-2.618805e-09	-3.477244e+01	-1.746444e+02
5.200000e-07	-4.884631e-06	-2.672052e-09	-3.463031e+01	-1.744124e+02
5.300000e-07	-4.864318e-06	-2.667722e-09	-3.448630e+01	-1.741712e+02
5.400000e-07	-4.843713e-06	-2.637274e-09	-3.434022e+01	-1.739221e+02
5.500000e-07	-4.822760e-06	-2.620167e-09	-3.419167e+01	-1.736662e+02
5.600000e-07	-4.801496e-06	-2.635204e-09	-3.404091e+01	-1.734047e+02
5.700000e-07	-4.779929e-06	-2.640845e-09	-3.388801e+01	-1.731385e+02
5.800000e-07	-4.758084e-06	-2.619515e-09	-3.373314e+01	-1.728686e+02
5.900000e-07	-4.735882e-06	-2.589265e-09	-3.357573e+01	-1.725958e+02
6.000000e-07	-4.713258e-06	-2.605574e-09	-3.341534e+01	-1.723207e+02
6.100000e-07	-4.690359e-06	-2.642715e-09	-3.325299e+01	-1.720439e+02
6.200000e-07	-4.667141e-06	-2.624715e-09	-3.308838e+01	-1.717659e+02
6.300000e-07	-4.643637e-06	-2.582905e-09	-3.292175e+01	-1.714870e+02
6.400000e-07	-4.619876e-06	-2.578449e-09	-3.275329e+01	-1.712074e+02
6.500000e-07	-4.595917e-06	-2.602641e-09	-3.258343e+01	-1.709272e+02
6.600000e-07	-4.571756e-06	-2.594405e-09	-3.241213e+01	-1.706466e+02
6.700000e-07	-4.547180e-06	-2.572447e-09	-3.223790e+01	-1.703656e+02
6.800000e-07	-4.522142e-06	-2.557831e-09	-3.206039e+01	-1.700839e+02
6.900000e-07	-4.496644e-06	-2.578433e-09	-3.187962e+01	-1.698016e+02
7.000000e-07	-4.470671e-06	-2.582643e-09	-3.169548e+01	-1.695185e+02
7.100000e-07	-4.444286e-06	-2.561673e-09	-3.150842e+01	-1.692343e+02
7.200000e-07	-4.417381e-06	-2.534231e-09	-3.131767e+01	-1.689489e+02
7.300000e-07	-4.390056e-06	-2.553718e-09	-3.112395e+01	-1.686622e+02
7.400000e-07	-4.362542e-06	-2.567887e-09	-3.092888e+01	-1.683738e+02
7.500000e-07	-4.334796e-06	-2.555683e-09	-3.073217e+01	-1.680837e+02
7.600000e-07	-4.306817e-06	-2.526575e-09	-3.053381e+01	-1.677915e+02
7.700000e-07	-4.278605e-06	-2.528056e-09	-3.033380e+01	-1.674973e+02
7.800000e-07	-4.250097e-06	-2.532729e-09	-3.013169e+01	-1.672009e+02
7.900000e-07	-4.221352e-06	-2.525745e-09	-2.992789e+01	-1.669021e+02
8.000000e-07	-4.192398e-06	-2.498396e-09	-2.972262e+01	-1.666008e+02
8.100000e-07	-4.163093e-06	-2.493512e-09	-2.951486e+01	-1.662969e+02
8.200000e-07	-4.133438e-06	-2.506841e-09	-2.930462e+01	-1.659904e+02
8.300000e-07	-4.103487e-06	-2.513606e-09	-2.909227e+01	-1.656812e+02
8.400000e-07	-4.073268e-06	-2.494467e-09	-2.887803e+01	-1.653691e+02
8.500000e-07	-4.042787e-06	-2.482073e-09	-2.866193e+01	-1.650541e+02
8.600000e-07	-4.011985e-06	-2.485343e-09	-2.844356e+01	-1.647360e+02
8.700000e-07	-3.980871e-06	-2.487120e-09	-2.822297e+01	-1.644147e+02
8.800000e-07	-3.949550e-06	-2.467518e-09	-2.800092e+01	-1.640901e+02
8.900000e-07	-3.918012e-06	-2.446727e-09	-2.777732e+01	-1.637618e+02
9.000000e-07	-3.886301e-06	-2.449752e-09	-2.755250e+01	-1.634297e+02
9.100000e-07	-3.854383e-06	-2.461405e-09	-2.732621e+01	-1.630935e+02
9.200000e-07	-3.822180e-06	-2.460649e-09	-2.709790e+01	-1.627529e+02
9.300000e-07	-3.789839e-06	-2.448690e-09	-2.686862e+01	-1.624075e+02
9.400000e-07	-3.757257e-06	-2.448523e-09	-2.663763e+01	-1.620569e+02
9.500000e-07	-3.724278e-06	-2.451056e-09	-2.640382e+01	-1.617007e+02
9.600000e-07	-3.690957e-06	-2.441244e-09	-2.616758e+01	-1.613384e+02
9.700000e-07	-3.657257e-06	-2.415936e-09	-2.592866e+01	-1.609697e+02
9.800000e-07	-3.623001e-06	-2.403044e-09	-2.568580e+01	-1.605940e+02
9.900000e-07	-3.588323e-06	-2.404433e-09	-2.543994e+01	-1.602109e+02
1.000000e-06	-3.553397e-06	-2.412351e-09	-2.519233e+01	-1.598200e+02
1.010000e-06	-3.518130e-06	-2.408466e-09	-2.494230e+01	-1.594209e+02
1.020000e-06	-3.482600e-06	-2.405135e-09	-2.469041e+01	-1.590132e+02
1.030000e-06	-3.446899e-06	-2.400684e-09	-2.443730e+01	-1.585966e+02
1.040000e-06	-3.411040e-06	-2.395366e-09	-2.418307e+01	-1.581708e+02
1.050000e-06	-3.375030e-06	-2.373166e-09	-2.392777e+01	-1.577357e+02
1.060000e-06	-3.338856e-06	-2.352512e-09	-2.367131e+01	-1.572912e+02
1.070000e-06	-3.302525e-06	-2.341825e-09	-2.341374e+01	-1.568372e+02
1.080000e-06	-3.266010e-06	-2.341892e-09	-2.315486e+01	-1.563738e+02
1.090000e-06	-3.229230e-06	-2.336669e-09	-2.289410e+01	-1.559011e+02
1.100000e-06	-3.192122e-06	-2.329839e-09	-2.263102e+01	-1.554195e+02
1.110000e-06	-3.154777e-06	-2.323528e-09	-2.236626e+01	-1.549291e+02
1.120000e-06	-3.117219e-06	-2.320402e-09	-2.209998e+01	-1.544304e+02
1.130000e-06	-3.079487e-06	-2.309561e-09	-2.183247e+01	-1.539239e+02
1.140000e-06	-3.041640e-06	-2.292634e-09	-2.156416e+01	-1.534101e+02
1.150000e-06	-3.003634e-06	-2.277064e-09	-2.129471e+01	-1.528894e+02
1.160000e-06	-2.965441e-06	-2.270963e-09	-2.102393e+01	-1.523627e+02
1.170000e-06	-2.926994e-06	-2.267431e-09	-2.075136e+01	-1.518303e+02
1.180000e-06	-2.888277e-06	-2.260795e-09	-2.047686e+01	-1.512930e+02
1.190000e-06	-2.849403e-06	-2.254098e-09	-2.020126e+01	-1.507513e+02
1.200000e-06	-2.810301e-06	-2.248677e-09	-1.992404e+01	-1.502057e+02
1.210000e-06	-2.770931e-06	-2.239648e-09	-1.964492e+01	-1.496568e+02
1.220000e-06	-2.731389e-06	-2.223277e-09	-1.936459e+01	-1.491048e+02
1.230000e-06	-2.691698e-06	-2.207279e-09	-1.908318e+01	-1.485501e+02
1.240000e-06	-2.651867e-06	-2.195469e-09	-1.880080e+01	-1.479930e+02
1.250000e-06	-2.611964e-06	-2.189522e-09	-1.851790e+01	-1.474333e+02
1.260000e-06	-2.572034e-06	-2.181189e-09	-1.823481e+01	-1.468711e+02
1.270000e-06	-2.532032e-06	-2.174067e-09	-1.795121e+01	-1.463061e+02
1.280000e-06	-2.491880e-06	-2.166509e-09	-1.766655e+01	-1.457380e+02
1.290000e-06	-2.451494e-06	-2.159341e-09	-1.738022e+01	-1.451662e+02
1.300000e-06	-2.410944e-06	-2.146559e-09	-1.709274e+01	-1.445901e+02
1.310000e-06	-2.370206e-06	-2.134326e-09	-1.680392e+01	-1.440089e+02
1.320000e-06	-2.329241e-06	-2.122975e-09	-1.651350e+01	-1.434215e+02
1.330000e-06	-2.288069e-06	-2.113565e-09	-1.622160e+01	-1.428270e+02
1.340000e-06	-2.246480e-06	-2.102083e-09	-1.592675e+01	-1.422241e+02
1.350000e-06	-2.204489e-06	-2.092633e-09	-1.562905e+01	-1.416115e+02
1.360000e-06	-2.162255e-06	-2.081768e-09	-1.532963e+01	-1.409880e+02
1.370000e-06	-2.119719e-06	-2.070568e-09	-1.502806e+01	-1.403520e+02
1.380000e-06	-2.077016e-06	-2.056892e-09	-1.472531e+01	-1.397021e+02
1.390000e-06	-2.034216e-06	-2.043608e-09	-1.442188e+01	-1.390369e+02
1.400000e-06	-1.991137e-06	-2.032998e-09	-1.411646e+01	-1.383550e+02
1.410000e-06	-1.947838e-06	-2.025223e-09	-1.380948e+01	-1.376550e+02
1.420000e-06	-1.904391e-06	-2.015224e-09	-1.350146e+01	-1.369354e+02
1.430000e-06	-1.860806e-06	-2.002278e-09	-1.319246e+01	-1.361952e+02
1.440000e-06	-1.817184e-06	-1.985820e-09	-1.288319e+01	-1.354330e+02
1.450000e-06	-1.773491e-06	-1.968593e-09	-1.257342e+01	-1.346480e+02
1.460000e-06	-1.729734e-06	-1.952523e-09	-1.226320e+01	-1.338390e+02
1.470000e-06	-1.685848e-06	-1.937254e-09	-1.195207e+01	-1.330055e+02
1.480000e-06	-1.641822e-06	-1.922930e-09	-1.163994e+01	-1.321466e+02
1.490000e-06	-1.597798e-06	-1.909251e-09	-1.132782e+01	-1.312620e+02
1.500000e-06	-1.553768e-06	-1.898438e-09	-1.101567e+01	-1.303513e+02
1.510000e-06	-1.509632e-06	-1.885551e-09	-1.070276e+01	-1.294141e+02
1.520000e-06	-1.465382e-06	-1.867760e-09	-1.038904e+01	-1.284504e+02
1.530000e-06	-1.421056e-06	-1.849837e-09	-1.007478e+01	-1.274602e+02
1.540000e-06	-1.376621e-06	-1.834067e-09	-9.759759e+00	-1.264434e+02
1.550000e-06	-1.332161e-06	-1.819341e-09	-9.444554e+00	-1.254003e+02
1.560000e-06	-1.287692e-06	-1.806444e-09	-9.129283e+00	-1.243310e+02
1.570000e-06	-1.243098e-06	-1.793445e-09	-8.813126e+00	-1.232356e+02
1.580000e-06	-1.198384e-06	-1.780490e-09	-8.496119e+00	-1.221142e+02
1.590000e-06	-1.153495e-06	-1.763715e-09	-8.177869e+00	-1.209669e+02
1.600000e-06	-1.108529e-06	-1.743924e-09	-7.859079e+00	-1.197938e+02
1.610000e-06	-1.063625e-06	-1.722195e-09	-7.540725e+00	-1.185948e+02
1.620000e-06	-1.018605e-06	-1.700562e-09	-7.221549e+00	-1.173695e+02
1.630000e-06	-9.734222e-07	-1.680203e-09	-6.901220e+00	-1.161177e+02
1.640000e-06	-9.281763e-07	-1.661404e-09	-6.580442e+00	-1.148387e+02
1.650000e-06	-8.828809e-07	-1.643416e-09	-6.259314e+00	-1.135318e+02
1.660000e-06	-8.374919e-07	-1.627303e-09	-5.937522e+00	-1.121961e+02
1.670000e-06	-7.920119e-07	-1.609586e-09	-5.615085e+00	-1.108302e+02
1.680000e-06	-7.464857e-07	-1.589496e-09	-5.292320e+00	-1.094329e+02
1.690000e-06	-7.009491e-07	-1.565925e-09	-4.969482e+00	-1.080026e+02
1.700000e-06	-6.553810e-07	-1.542262e-09	-4.646420e+00	-1.065373e+02
1.710000e-06	-6.097529e-07	-1.516576e-09	-4.322932e+00	-1.050350e+02
1.720000e-06	-5.640513e-07	-1.490134e-09	-3.998924e+00	-1.034937e+02
1.730000e-06	-5.182815e-07	-1.466082e-09	-3.674433e+00	-1.019108e+02
1.740000e-06	-4.724822e-07	-1.445529e-09	-3.349732e+00	-1.002839e+02
1.750000e-06	-4.266837e-07	-1.424330e-09	-3.025037e+00	-9.861055e+01
1.760000e-06	-3.808764e-07	-1.400362e-09	-2.700279e+00	-9.688796e+01
1.770000e-06	-3.350604e-07	-1.373642e-09	-2.375460e+00	-9.511353e+01
1.780000e-06	-2.892298e-07	-1.345616e-09	-2.050537e+00	-9.328463e+01
1.790000e-06	-2.433197e-07	-1.316413e-09	-1.725051e+00	-9.139870e+01
1.800000e-06	-1.973009e-07	-1.282570e-09	-1.398794e+00	-8.945329e+01
1.810000e-06	-1.512704e-07	-1.248723e-09	-1.072454e+00	-8.744610e+01
1.820000e-06	-1.052950e-07	-1.218605e-09	-7.465046e-01	-8.537503e+01
1.830000e-06	-5.933647e-08	-1.189760e-09	-4.206746e-01	-8.323821e+01
1.840000e-06	-1.337451e-08	-1.159996e-09	-9.482056e-02	-8.103406e+01
1.850000e-06	3.250114e-08	-1.128722e-09	2.304216e-01	-7.876128e+01
1.860000e-06	7.836774e-08	-1.094424e-09	5.555996e-01	-7.641893e+01
1.870000e-06	1.243362e-07	-1.057592e-09	8.814996e-01	-7.400643e+01
1.880000e-06	1.702613e-07	-1.016650e-09	1.207093e+00	-7.152356e+01
1.890000e-06	2.161469e-07	-9.744508e-10	1.532405e+00	-6.897051e+01
1.900000e-06	2.620174e-07	-9.340384e-10	1.857611e+00	-6.634787e+01
1.910000e-06	3.078182e-07	-8.940172e-10	2.182322e+00	-6.365664e+01
1.920000e-06	3.536209e-07	-8.525579e-10	2.507047e+00	-6.089818e+01
1.930000e-06	3.995019e-07	-8.129759e-10	2.832327e+00	-5.807426e+01
1.940000e-06	4.454469e-07	-7.743886e-10	3.158061e+00	-5.518703e+01
1.950000e-06	4.913141e-07	-7.333060e-10	3.483243e+00	-5.223894e+01
1.960000e-06	5.370903e-07	-6.874890e-10	3.807780e+00	-4.923280e+01
1.970000e-06	5.828400e-07	-6.401612e-10	4.132130e+00	-4.617167e+01
1.980000e-06	6.284982e-07	-5.900340e-10	4.455830e+00	-4.305887e+01
1.990000e-06	6.741531e-07	-5.394805e-10	4.779507e+00	-3.989793e+01
2.000000e-06	7.197763e-07	-4.922293e-10	5.102960e+00	-3.669254e+01
2.010000e-06	7.652814e-07	-4.470447e-10	5.425575e+00	-3.344651e+01
2.020000e-06	8.107048e-07	-4.017819e-10	5.747611e+00	-3.016375e+01
2.030000e-06	8.561007e-07	-3.546394e-10	6.069452e+00	-2.684818e+01
2.040000e-06	9.014458e-07	-3.024841e-10	6.390932e+00	-2.350375e+01
2.050000e-06	9.466668e-07	-2.483147e-10	6.711533e+00	-2.013436e+01
2.060000e-06	9.917945e-07	-1.971633e-10	7.031473e+00	-1.674383e+01
2.070000e-06	1.036862e-06	-1.480652e-10	7.350983e+00	-1.333588e+01
2.080000e-06	1.081778e-06	-9.912245e-11	7.669424e+00	-9.914100e+00
2.090000e-06	1.126585e-06	-5.030014e-11	7.987093e+00	-6.481923e+00
2.100000e-06	1.171346e-06	-3.115062e-12	8.304430e+00	-3.042610e+00
2.110000e-06	1.215953e-06	4.683225e-11	8.620674e+00	4.007641e-01
2.120000e-06	1.260422e-06	1.017150e-10	8.935949e+00	3.845314e+00
2.130000e-06	1.304815e-06	1.588195e-10	9.250678e+00	7.288348e+00
2.140000e-06	1.349193e-06	2.133635e-10	9.565305e+00	1.072737e+01
2.150000e-06	1.393561e-06	2.635125e-10	9.879853e+00	1.416005e+01
2.160000e-06	1.437865e-06	3.102095e-10	1.019396e+01	1.758425e+01
2.170000e-06	1.482114e-06	3.550172e-10	1.050767e+01	2.099798e+01
2.180000e-06	1.526288e-06	4.009206e-10	1.082084e+01	2.439937e+01
2.190000e-06	1.570394e-06	4.512366e-10	1.113354e+01	2.778667e+01
2.200000e-06	1.614460e-06	5.056363e-10	1.144595e+01	3.115822e+01
2.210000e-06	1.658486e-06	5.592573e-10	1.175808e+01	3.451244e+01
2.220000e-06	1.702494e-06	6.096629e-10	1.207008e+01	3.784775e+01
2.230000e-06	1.746418e-06	6.600705e-10	1.238148e+01	4.116263e+01
2.240000e-06	1.790247e-06	7.080594e-10	1.269222e+01	4.445551e+01
2.250000e-06	1.833995e-06	7.522392e-10	1.300238e+01	4.772481e+01
2.260000e-06	1.877569e-06	7.933628e-10	1.331130e+01	5.096890e+01
2.270000e-06	1.921072e-06	8.358915e-10	1.361973e+01	5.418609e+01
2.280000e-06	1.964490e-06	8.831507e-10	1.392754e+01	5.737460e+01
2.290000e-06	2.007553e-06	9.337222e-10	1.423284e+01	6.053258e+01
2.300000e-06	2.050380e-06	9.833314e-10	1.453647e+01	6.365808e+01
2.310000e-06	2.093080e-06	1.030695e-09	1.483920e+01	6.674907e+01
2.320000e-06	2.135516e-06	1.075717e-09	1.514006e+01	6.980344e+01
2.330000e-06	2.177599e-06	1.117390e-09	1.543841e+01	7.281902e+01
2.340000e-06	2.219394e-06	1.155619e-09	1.573472e+01	7.579356e+01
2.350000e-06	2.260999e-06	1.193127e-09	1.602969e+01	7.872479e+01
2.360000e-06	2.302354e-06	1.234183e-09	1.632287e+01	8.161042e+01
2.370000e-06	2.343501e-06	1.277551e-09	1.661459e+01	8.444818e+01
2.380000e-06	2.384458e-06	1.319811e-09	1.690496e+01	8.723580e+01
2.390000e-06	2.425178e-06	1.359159e-09	1.719366e+01	8.997112e+01
2.400000e-06	2.465643e-06	1.395647e-09	1.748054e+01	9.265204e+01
2.410000e-06	2.505917e-06	1.431123e-09	1.776607e+01	9.527658e+01
2.420000e-06	2.546100e-06	1.465955e-09	1.805095e+01	9.784295e+01
2.430000e-06	2.586174e-06	1.500749e-09	1.833506e+01	1.003495e+02
2.440000e-06	2.626124e-06	1.538419e-09	1.861829e+01	1.027948e+02
2.450000e-06	2.665998e-06	1.575834e-09	1.890098e+01	1.051776e+02
2.460000e-06	2.705789e-06	1.611708e-09	1.918309e+01	1.074970e+02
2.470000e-06	2.745387e-06	1.644986e-09	1.946382e+01	1.097523e+02
2.480000e-06	2.784764e-06	1.674379e-09	1.974299e+01	1.119431e+02
2.490000e-06	2.823993e-06	1.702309e-09	2.002111e+01	1.140691e+02
2.500000e-06	2.862996e-06	1.731045e-09	2.029763e+01	1.161307e+02
2.510000e-06	2.901736e-06	1.761424e-09	2.057229e+01	1.181281e+02
2.520000e-06	2.940278e-06	1.791610e-09	2.084554e+01	1.200621e+02
2.530000e-06	2.978637e-06	1.817623e-09	2.111749e+01	1.219337e+02
2.540000e-06	3.016778e-06	1.839836e-09	2.138789e+01	1.237439e+02
2.550000e-06	3.054739e-06	1.862960e-09	2.165702e+01	1.254944e+02
2.560000e-06	3.092500e-06	1.889157e-09	2.192474e+01	1.271866e+02
2.570000e-06	3.129981e-06	1.913409e-09	2.219046e+01	1.288223e+02
2.580000e-06	3.167237e-06	1.933765e-09	2.245459e+01	1.304035e+02
2.590000e-06	3.204228e-06	1.955144e-09	2.271685e+01	1.319322e+02
2.600000e-06	3.241025e-06	1.979089e-09	2.297772e+01	1.334106e+02
2.610000e-06	3.277689e-06	2.001909e-09	2.323765e+01	1.348406e+02
2.620000e-06	3.314120e-06	2.022551e-09	2.349594e+01	1.362246e+02
2.630000e-06	3.350351e-06	2.043909e-09	2.375281e+01	1.375645e+02
2.640000e-06	3.386431e-06	2.065784e-09	2.400860e+01	1.388625e+02
2.650000e-06	3.422383e-06	2.084140e-09	2.426348e+01	1.401206e+02
2.660000e-06	3.458198e-06	2.097741e-09	2.451741e+01	1.413406e+02
2.670000e-06	3.493900e-06	2.113046e-09	2.477051e+01	1.425242e+02
2.680000e-06	3.529363e-06	2.132784e-09	2.502194e+01	1.436731e+02
2.690000e-06	3.564412e-06	2.151890e-09	2.527042e+01	1.447886e+02
2.700000e-06	3.599065e-06	2.165211e-09	2.551610e+01	1.458720e+02
2.710000e-06	3.633353e-06	2.176544e-09	2.575919e+01	1.469245e+02
2.720000e-06	3.667248e-06	2.190409e-09	2.599949e+01	1.479468e+02
2.730000e-06	3.700696e-06	2.205411e-09	2.623663e+01	1.489397e+02
2.740000e-06	3.733745e-06	2.219205e-09	2.647093e+01	1.499039e+02
2.750000e-06	3.766515e-06	2.231881e-09	2.670326e+01	1.508397e+02
2.760000e-06	3.799056e-06	2.246525e-09	2.693397e+01	1.517474e+02
2.770000e-06	3.831357e-06	2.264204e-09	2.716297e+01	1.526273e+02
2.780000e-06	3.863417e-06	2.278295e-09	2.739026e+01	1.534794e+02
2.790000e-06	3.895291e-06	2.287691e-09	2.761624e+01	1.543037e+02
2.800000e-06	3.926971e-06	2.298052e-09	2.784084e+01	1.551002e+02
2.810000e-06	3.958415e-06	2.309305e-09	2.806377e+01	1.558689e+02
2.820000e-06	3.989633e-06	2.318846e-09	2.828509e+01	1.566099e+02
2.830000e-06	4.020494e-06	2.325549e-09	2.850388e+01	1.573230e+02
2.840000e-06	4.050970e-06	2.331971e-09	2.871995e+01	1.580083e+02
2.850000e-06	4.081251e-06	2.338855e-09	2.893463e+01	1.586660e+02
2.860000e-06	4.111335e-06	2.349050e-09	2.914791e+01	1.592963e+02
2.870000e-06	4.141128e-06	2.360233e-09	2.935914e+01	1.598995e+02
2.880000e-06	4.170608e-06	2.371783e-09	2.956814e+01	1.604761e+02
2.890000e-06	4.199829e-06	2.383016e-09	2.977530e+01	1.610266e+02
2.900000e-06	4.228752e-06	2.391506e-09	2.998036e+01	1.615517e+02
