# Temperatura_=_16.45
# Concentracion g/m^3_=_4090.0
# C_Vs_to_Am_M_A/Vsm_=_65563218390.804596
# pendiente_HvsI_1/m_=_3716.3
# ordenada_HvsI_A/m_=_1297.0
# frecuencia_Hz_=_135079.80567084916

Tiempo_(s)	Campo_(V.s)	Magnetizacion_(V.s)	Campo_(kA/m)	Magnetizacion_(A/m)
0.000000e+00	-5.432228e-06	-2.668145e-09	-3.839667e+01	-1.705454e+02
1.000000e-08	-5.432253e-06	-2.667530e-09	-3.839684e+01	-1.705173e+02
2.000000e-08	-5.432088e-06	-2.666079e-09	-3.839568e+01	-1.704894e+02
3.000000e-08	-5.431717e-06	-2.664475e-09	-3.839305e+01	-1.704628e+02
4.000000e-08	-5.430915e-06	-2.660693e-09	-3.838738e+01	-1.704384e+02
5.000000e-08	-5.429543e-06	-2.659216e-09	-3.837769e+01	-1.704176e+02
6.000000e-08	-5.427542e-06	-2.675773e-09	-3.836354e+01	-1.704013e+02
7.000000e-08	-5.424806e-06	-2.683667e-09	-3.834420e+01	-1.703908e+02
8.000000e-08	-5.421511e-06	-2.630948e-09	-3.832092e+01	-1.703870e+02
9.000000e-08	-5.417721e-06	-2.572441e-09	-3.829412e+01	-1.703909e+02
1.000000e-07	-5.413550e-06	-2.673146e-09	-3.826465e+01	-1.704033e+02
1.100000e-07	-5.409172e-06	-2.748354e-09	-3.823370e+01	-1.704251e+02
1.200000e-07	-5.404610e-06	-2.648027e-09	-3.820146e+01	-1.704568e+02
1.300000e-07	-5.399803e-06	-2.520507e-09	-3.816747e+01	-1.704988e+02
1.400000e-07	-5.394577e-06	-2.643204e-09	-3.813054e+01	-1.705514e+02
1.500000e-07	-5.388896e-06	-2.774052e-09	-3.809038e+01	-1.706147e+02
1.600000e-07	-5.382874e-06	-2.635118e-09	-3.804782e+01	-1.706884e+02
1.700000e-07	-5.376535e-06	-2.455579e-09	-3.800301e+01	-1.707723e+02
1.800000e-07	-5.369786e-06	-2.604446e-09	-3.795531e+01	-1.708658e+02
1.900000e-07	-5.362623e-06	-2.732188e-09	-3.790468e+01	-1.709682e+02
2.000000e-07	-5.355108e-06	-2.619272e-09	-3.785155e+01	-1.710785e+02
2.100000e-07	-5.347351e-06	-2.518542e-09	-3.779673e+01	-1.711956e+02
2.200000e-07	-5.339410e-06	-2.662225e-09	-3.774060e+01	-1.713182e+02
2.300000e-07	-5.331103e-06	-2.701545e-09	-3.768188e+01	-1.714450e+02
2.400000e-07	-5.322429e-06	-2.569072e-09	-3.762057e+01	-1.715743e+02
2.500000e-07	-5.313227e-06	-2.593412e-09	-3.755553e+01	-1.717046e+02
2.600000e-07	-5.303252e-06	-2.721358e-09	-3.748502e+01	-1.718340e+02
2.700000e-07	-5.292573e-06	-2.677246e-09	-3.740954e+01	-1.719609e+02
2.800000e-07	-5.281404e-06	-2.574746e-09	-3.733059e+01	-1.720834e+02
2.900000e-07	-5.269933e-06	-2.680572e-09	-3.724952e+01	-1.721999e+02
3.000000e-07	-5.258062e-06	-2.725532e-09	-3.716561e+01	-1.723085e+02
3.100000e-07	-5.245794e-06	-2.604000e-09	-3.707889e+01	-1.724076e+02
3.200000e-07	-5.233173e-06	-2.557910e-09	-3.698968e+01	-1.724957e+02
3.300000e-07	-5.220145e-06	-2.692900e-09	-3.689760e+01	-1.725713e+02
3.400000e-07	-5.206759e-06	-2.668701e-09	-3.680298e+01	-1.726331e+02
3.500000e-07	-5.193013e-06	-2.605333e-09	-3.670582e+01	-1.726799e+02
3.600000e-07	-5.178904e-06	-2.632381e-09	-3.660609e+01	-1.727109e+02
3.700000e-07	-5.164338e-06	-2.678309e-09	-3.650314e+01	-1.727253e+02
3.800000e-07	-5.149296e-06	-2.609463e-09	-3.639681e+01	-1.727224e+02
3.900000e-07	-5.133702e-06	-2.622456e-09	-3.628659e+01	-1.727018e+02
4.000000e-07	-5.117413e-06	-2.636066e-09	-3.617145e+01	-1.726635e+02
4.100000e-07	-5.100719e-06	-2.590386e-09	-3.605346e+01	-1.726074e+02
4.200000e-07	-5.083761e-06	-2.586764e-09	-3.593359e+01	-1.725338e+02
4.300000e-07	-5.066476e-06	-2.661665e-09	-3.581142e+01	-1.724429e+02
4.400000e-07	-5.048915e-06	-2.628486e-09	-3.568729e+01	-1.723355e+02
4.500000e-07	-5.031103e-06	-2.568130e-09	-3.556139e+01	-1.722122e+02
4.600000e-07	-5.012957e-06	-2.598871e-09	-3.543313e+01	-1.720739e+02
4.700000e-07	-4.994391e-06	-2.630901e-09	-3.530190e+01	-1.719214e+02
4.800000e-07	-4.975410e-06	-2.589461e-09	-3.516773e+01	-1.717560e+02
4.900000e-07	-4.956063e-06	-2.572670e-09	-3.503098e+01	-1.715786e+02
5.000000e-07	-4.936389e-06	-2.597318e-09	-3.489192e+01	-1.713905e+02
5.100000e-07	-4.916491e-06	-2.605739e-09	-3.475128e+01	-1.711929e+02
5.200000e-07	-4.896398e-06	-2.609849e-09	-3.460926e+01	-1.709869e+02
5.300000e-07	-4.876049e-06	-2.593167e-09	-3.446542e+01	-1.707737e+02
5.400000e-07	-4.855420e-06	-2.570637e-09	-3.431961e+01	-1.705545e+02
5.500000e-07	-4.834369e-06	-2.576670e-09	-3.417081e+01	-1.703302e+02
5.600000e-07	-4.812879e-06	-2.599254e-09	-3.401892e+01	-1.701020e+02
5.700000e-07	-4.791160e-06	-2.572633e-09	-3.386540e+01	-1.698708e+02
5.800000e-07	-4.769112e-06	-2.554348e-09	-3.370956e+01	-1.696372e+02
5.900000e-07	-4.746692e-06	-2.563515e-09	-3.355109e+01	-1.694021e+02
6.000000e-07	-4.723984e-06	-2.581951e-09	-3.339058e+01	-1.691661e+02
6.100000e-07	-4.700939e-06	-2.566162e-09	-3.322769e+01	-1.689295e+02
6.200000e-07	-4.677573e-06	-2.545843e-09	-3.306253e+01	-1.686929e+02
6.300000e-07	-4.653976e-06	-2.529685e-09	-3.289574e+01	-1.684564e+02
6.400000e-07	-4.630191e-06	-2.548132e-09	-3.272762e+01	-1.682202e+02
6.500000e-07	-4.606169e-06	-2.551386e-09	-3.255782e+01	-1.679844e+02
6.600000e-07	-4.581842e-06	-2.533879e-09	-3.238587e+01	-1.677489e+02
6.700000e-07	-4.557157e-06	-2.516238e-09	-3.221139e+01	-1.675136e+02
6.800000e-07	-4.532019e-06	-2.532565e-09	-3.203371e+01	-1.672783e+02
6.900000e-07	-4.506295e-06	-2.532435e-09	-3.185189e+01	-1.670428e+02
7.000000e-07	-4.479988e-06	-2.514133e-09	-3.166594e+01	-1.668068e+02
7.100000e-07	-4.453238e-06	-2.493013e-09	-3.147686e+01	-1.665699e+02
7.200000e-07	-4.426167e-06	-2.499400e-09	-3.128551e+01	-1.663318e+02
7.300000e-07	-4.398785e-06	-2.512006e-09	-3.109197e+01	-1.660922e+02
7.400000e-07	-4.371119e-06	-2.511501e-09	-3.089642e+01	-1.658507e+02
7.500000e-07	-4.343168e-06	-2.491575e-09	-3.069885e+01	-1.656070e+02
7.600000e-07	-4.315017e-06	-2.487241e-09	-3.049987e+01	-1.653607e+02
7.700000e-07	-4.286700e-06	-2.494542e-09	-3.029972e+01	-1.651116e+02
7.800000e-07	-4.258105e-06	-2.486581e-09	-3.009760e+01	-1.648593e+02
7.900000e-07	-4.229250e-06	-2.465630e-09	-2.989365e+01	-1.646037e+02
8.000000e-07	-4.200145e-06	-2.458634e-09	-2.968792e+01	-1.643444e+02
8.100000e-07	-4.170652e-06	-2.466323e-09	-2.947945e+01	-1.640814e+02
8.200000e-07	-4.140858e-06	-2.467815e-09	-2.926887e+01	-1.638145e+02
8.300000e-07	-4.110813e-06	-2.455863e-09	-2.905649e+01	-1.635435e+02
8.400000e-07	-4.080512e-06	-2.441355e-09	-2.884232e+01	-1.632684e+02
8.500000e-07	-4.049885e-06	-2.445363e-09	-2.862584e+01	-1.629890e+02
8.600000e-07	-4.018949e-06	-2.446398e-09	-2.840717e+01	-1.627054e+02
8.700000e-07	-3.987777e-06	-2.435944e-09	-2.818684e+01	-1.624175e+02
8.800000e-07	-3.956322e-06	-2.417891e-09	-2.796451e+01	-1.621253e+02
8.900000e-07	-3.924643e-06	-2.419066e-09	-2.774059e+01	-1.618286e+02
9.000000e-07	-3.892843e-06	-2.422891e-09	-2.751582e+01	-1.615275e+02
9.100000e-07	-3.860908e-06	-2.418653e-09	-2.729009e+01	-1.612219e+02
9.200000e-07	-3.828739e-06	-2.402988e-09	-2.706271e+01	-1.609117e+02
9.300000e-07	-3.796259e-06	-2.401516e-09	-2.683313e+01	-1.605969e+02
9.400000e-07	-3.763483e-06	-2.405447e-09	-2.660146e+01	-1.602773e+02
9.500000e-07	-3.730385e-06	-2.405229e-09	-2.636752e+01	-1.599529e+02
9.600000e-07	-3.696920e-06	-2.391985e-09	-2.613097e+01	-1.596235e+02
9.700000e-07	-3.663102e-06	-2.386865e-09	-2.589194e+01	-1.592889e+02
9.800000e-07	-3.628742e-06	-2.386427e-09	-2.564907e+01	-1.589490e+02
9.900000e-07	-3.593868e-06	-2.383165e-09	-2.540257e+01	-1.586037e+02
1.000000e-06	-3.558729e-06	-2.369089e-09	-2.515420e+01	-1.582527e+02
1.010000e-06	-3.523396e-06	-2.362013e-09	-2.490445e+01	-1.578959e+02
1.020000e-06	-3.487871e-06	-2.361538e-09	-2.465335e+01	-1.575332e+02
1.030000e-06	-3.452171e-06	-2.360327e-09	-2.440101e+01	-1.571644e+02
1.040000e-06	-3.416312e-06	-2.349978e-09	-2.414755e+01	-1.567893e+02
1.050000e-06	-3.380261e-06	-2.338927e-09	-2.389273e+01	-1.564079e+02
1.060000e-06	-3.343966e-06	-2.334271e-09	-2.363619e+01	-1.560201e+02
1.070000e-06	-3.307415e-06	-2.331106e-09	-2.337783e+01	-1.556258e+02
1.080000e-06	-3.270623e-06	-2.321222e-09	-2.311777e+01	-1.552250e+02
1.090000e-06	-3.233618e-06	-2.309644e-09	-2.285621e+01	-1.548178e+02
1.100000e-06	-3.196448e-06	-2.304775e-09	-2.259348e+01	-1.544043e+02
1.110000e-06	-3.159065e-06	-2.302706e-09	-2.232924e+01	-1.539844e+02
1.120000e-06	-3.121444e-06	-2.297752e-09	-2.206333e+01	-1.535584e+02
1.130000e-06	-3.083610e-06	-2.289336e-09	-2.179591e+01	-1.531264e+02
1.140000e-06	-3.045486e-06	-2.286964e-09	-2.152644e+01	-1.526886e+02
1.150000e-06	-3.007224e-06	-2.285115e-09	-2.125599e+01	-1.522451e+02
1.160000e-06	-2.968864e-06	-2.278707e-09	-2.098485e+01	-1.517963e+02
1.170000e-06	-2.930259e-06	-2.263388e-09	-2.071198e+01	-1.513423e+02
1.180000e-06	-2.891433e-06	-2.251336e-09	-2.043754e+01	-1.508832e+02
1.190000e-06	-2.852405e-06	-2.242341e-09	-2.016168e+01	-1.504193e+02
1.200000e-06	-2.813051e-06	-2.234342e-09	-1.988352e+01	-1.499507e+02
1.210000e-06	-2.773458e-06	-2.220832e-09	-1.960366e+01	-1.494775e+02
1.220000e-06	-2.733760e-06	-2.210640e-09	-1.932306e+01	-1.489997e+02
1.230000e-06	-2.693972e-06	-2.204926e-09	-1.904183e+01	-1.485173e+02
1.240000e-06	-2.654137e-06	-2.200724e-09	-1.876026e+01	-1.480302e+02
1.250000e-06	-2.614143e-06	-2.189963e-09	-1.847757e+01	-1.475383e+02
1.260000e-06	-2.574088e-06	-2.178762e-09	-1.819445e+01	-1.470412e+02
1.270000e-06	-2.533967e-06	-2.168750e-09	-1.791086e+01	-1.465386e+02
1.280000e-06	-2.493561e-06	-2.159396e-09	-1.762526e+01	-1.460300e+02
1.290000e-06	-2.452970e-06	-2.145465e-09	-1.733835e+01	-1.455150e+02
1.300000e-06	-2.412253e-06	-2.130691e-09	-1.705055e+01	-1.449928e+02
1.310000e-06	-2.371359e-06	-2.121945e-09	-1.676150e+01	-1.444627e+02
1.320000e-06	-2.330206e-06	-2.118566e-09	-1.647061e+01	-1.439239e+02
1.330000e-06	-2.288608e-06	-2.110257e-09	-1.617658e+01	-1.433755e+02
1.340000e-06	-2.246705e-06	-2.099865e-09	-1.588040e+01	-1.428165e+02
1.350000e-06	-2.204634e-06	-2.091647e-09	-1.558303e+01	-1.422460e+02
1.360000e-06	-2.162225e-06	-2.083210e-09	-1.528328e+01	-1.416629e+02
1.370000e-06	-2.119575e-06	-2.070734e-09	-1.498181e+01	-1.410661e+02
1.380000e-06	-2.076712e-06	-2.053295e-09	-1.467884e+01	-1.404546e+02
1.390000e-06	-2.033536e-06	-2.037845e-09	-1.437366e+01	-1.398272e+02
1.400000e-06	-1.990220e-06	-2.029637e-09	-1.406749e+01	-1.391828e+02
1.410000e-06	-1.946788e-06	-2.024623e-09	-1.376050e+01	-1.385206e+02
1.420000e-06	-1.903213e-06	-2.013565e-09	-1.345250e+01	-1.378394e+02
1.430000e-06	-1.859592e-06	-2.000744e-09	-1.314417e+01	-1.371385e+02
1.440000e-06	-1.815959e-06	-1.989944e-09	-1.283576e+01	-1.364169e+02
1.450000e-06	-1.772231e-06	-1.978407e-09	-1.252667e+01	-1.356740e+02
1.460000e-06	-1.728389e-06	-1.961594e-09	-1.221679e+01	-1.349090e+02
1.470000e-06	-1.684459e-06	-1.942138e-09	-1.190628e+01	-1.341214e+02
1.480000e-06	-1.640421e-06	-1.923639e-09	-1.159500e+01	-1.333107e+02
1.490000e-06	-1.596300e-06	-1.912078e-09	-1.128314e+01	-1.324767e+02
1.500000e-06	-1.552106e-06	-1.902541e-09	-1.097076e+01	-1.316189e+02
1.510000e-06	-1.507860e-06	-1.890030e-09	-1.065802e+01	-1.307373e+02
1.520000e-06	-1.463532e-06	-1.874626e-09	-1.034470e+01	-1.298316e+02
1.530000e-06	-1.419087e-06	-1.861248e-09	-1.003055e+01	-1.289018e+02
1.540000e-06	-1.374537e-06	-1.849359e-09	-9.715654e+00	-1.279479e+02
1.550000e-06	-1.329832e-06	-1.834776e-09	-9.399662e+00	-1.269699e+02
1.560000e-06	-1.285037e-06	-1.818305e-09	-9.083041e+00	-1.259678e+02
1.570000e-06	-1.240207e-06	-1.803445e-09	-8.766164e+00	-1.249415e+02
1.580000e-06	-1.195234e-06	-1.787917e-09	-8.448284e+00	-1.238910e+02
1.590000e-06	-1.150207e-06	-1.773199e-09	-8.130017e+00	-1.228161e+02
1.600000e-06	-1.105092e-06	-1.757652e-09	-7.811131e+00	-1.217166e+02
1.610000e-06	-1.059770e-06	-1.742336e-09	-7.490782e+00	-1.205923e+02
1.620000e-06	-1.014358e-06	-1.725555e-09	-7.169796e+00	-1.194425e+02
1.630000e-06	-9.689321e-07	-1.706917e-09	-6.848712e+00	-1.182667e+02
1.640000e-06	-9.234506e-07	-1.688464e-09	-6.527234e+00	-1.170642e+02
1.650000e-06	-8.778745e-07	-1.670933e-09	-6.205088e+00	-1.158340e+02
1.660000e-06	-8.322299e-07	-1.651819e-09	-5.882458e+00	-1.145748e+02
1.670000e-06	-7.865575e-07	-1.632159e-09	-5.559631e+00	-1.132855e+02
1.680000e-06	-7.408733e-07	-1.612638e-09	-5.236721e+00	-1.119645e+02
1.690000e-06	-6.951889e-07	-1.591722e-09	-4.913810e+00	-1.106100e+02
1.700000e-06	-6.494411e-07	-1.569704e-09	-4.590450e+00	-1.092202e+02
1.710000e-06	-6.036678e-07	-1.545951e-09	-4.266910e+00	-1.077931e+02
1.720000e-06	-5.579079e-07	-1.523568e-09	-3.943465e+00	-1.063264e+02
1.730000e-06	-5.120399e-07	-1.502859e-09	-3.619256e+00	-1.048178e+02
1.740000e-06	-4.660976e-07	-1.482262e-09	-3.294521e+00	-1.032648e+02
1.750000e-06	-4.201614e-07	-1.457420e-09	-2.969831e+00	-1.016650e+02
1.760000e-06	-3.742623e-07	-1.433593e-09	-2.645402e+00	-1.000159e+02
1.770000e-06	-3.282796e-07	-1.412973e-09	-2.320382e+00	-9.831477e+01
1.780000e-06	-2.822114e-07	-1.391463e-09	-1.994758e+00	-9.655921e+01
1.790000e-06	-2.361683e-07	-1.365592e-09	-1.669310e+00	-9.474673e+01
1.800000e-06	-1.900989e-07	-1.335983e-09	-1.343678e+00	-9.287499e+01
1.810000e-06	-1.440321e-07	-1.307167e-09	-1.018063e+00	-9.094178e+01
1.820000e-06	-9.803073e-08	-1.279774e-09	-6.929115e-01	-8.894508e+01
1.830000e-06	-5.207457e-08	-1.248696e-09	-3.680791e-01	-8.688308e+01
1.840000e-06	-6.153461e-09	-1.214988e-09	-4.349457e-02	-8.475422e+01
1.850000e-06	3.980561e-08	-1.178942e-09	2.813584e-01	-8.255723e+01
1.860000e-06	8.585734e-08	-1.142883e-09	6.068662e-01	-8.029112e+01
1.870000e-06	1.319803e-07	-1.107868e-09	9.328776e-01	-7.795526e+01
1.880000e-06	1.781110e-07	-1.072205e-09	1.258943e+00	-7.554933e+01
1.890000e-06	2.242087e-07	-1.035211e-09	1.584777e+00	-7.307339e+01
1.900000e-06	2.702783e-07	-9.967072e-10	1.910411e+00	-7.052785e+01
1.910000e-06	3.162264e-07	-9.550775e-10	2.235186e+00	-6.791350e+01
1.920000e-06	3.621083e-07	-9.087950e-10	2.559493e+00	-6.523148e+01
1.930000e-06	4.080069e-07	-8.615500e-10	2.883919e+00	-6.248328e+01
1.940000e-06	4.539796e-07	-8.167971e-10	3.208868e+00	-5.967073e+01
1.950000e-06	4.999777e-07	-7.751136e-10	3.533997e+00	-5.679599e+01
1.960000e-06	5.458956e-07	-7.361172e-10	3.858559e+00	-5.386150e+01
1.970000e-06	5.917145e-07	-6.966448e-10	4.182421e+00	-5.086997e+01
1.980000e-06	6.374404e-07	-6.529822e-10	4.505625e+00	-4.782437e+01
1.990000e-06	6.830947e-07	-6.058399e-10	4.828324e+00	-4.472785e+01
2.000000e-06	7.287683e-07	-5.557856e-10	5.151159e+00	-4.158375e+01
2.010000e-06	7.744052e-07	-5.039522e-10	5.473735e+00	-3.839553e+01
2.020000e-06	8.199617e-07	-4.506742e-10	5.795742e+00	-3.516676e+01
2.030000e-06	8.654845e-07	-3.975486e-10	6.117512e+00	-3.190106e+01
2.040000e-06	9.109762e-07	-3.491891e-10	6.439061e+00	-2.860209e+01
2.050000e-06	9.564345e-07	-3.055503e-10	6.760375e+00	-2.527350e+01
2.060000e-06	1.001744e-06	-2.625198e-10	7.080636e+00	-2.191891e+01
2.070000e-06	1.046929e-06	-2.164734e-10	7.400016e+00	-1.854186e+01
2.080000e-06	1.092010e-06	-1.662498e-10	7.718667e+00	-1.514580e+01
2.090000e-06	1.137021e-06	-1.156555e-10	8.036815e+00	-1.173411e+01
2.100000e-06	1.182027e-06	-6.415890e-11	8.354931e+00	-8.309988e+00
2.110000e-06	1.226904e-06	-9.764854e-12	8.672136e+00	-4.876535e+00
2.120000e-06	1.271619e-06	4.548666e-11	8.988199e+00	-1.436691e+00
2.130000e-06	1.316309e-06	9.809930e-11	9.304075e+00	2.006749e+00
2.140000e-06	1.360930e-06	1.497855e-10	9.619475e+00	5.451139e+00
2.150000e-06	1.405472e-06	2.011191e-10	9.934312e+00	8.893970e+00
2.160000e-06	1.449969e-06	2.504923e-10	1.024883e+01	1.233287e+01
2.170000e-06	1.494393e-06	2.988363e-10	1.056283e+01	1.576559e+01
2.180000e-06	1.538743e-06	3.486365e-10	1.087631e+01	1.918998e+01
2.190000e-06	1.582994e-06	3.999409e-10	1.118909e+01	2.260397e+01
2.200000e-06	1.627167e-06	4.508781e-10	1.150132e+01	2.600559e+01
2.210000e-06	1.671190e-06	5.024062e-10	1.181249e+01	2.939289e+01
2.220000e-06	1.715059e-06	5.532393e-10	1.212256e+01	3.276395e+01
2.230000e-06	1.758900e-06	6.030942e-10	1.243245e+01	3.611688e+01
2.240000e-06	1.802793e-06	6.519775e-10	1.274270e+01	3.944978e+01
2.250000e-06	1.846642e-06	6.984767e-10	1.305263e+01	4.276070e+01
2.260000e-06	1.890258e-06	7.425064e-10	1.336093e+01	4.604768e+01
2.270000e-06	1.933677e-06	7.857518e-10	1.366783e+01	4.930870e+01
2.280000e-06	1.977072e-06	8.295732e-10	1.397455e+01	5.254166e+01
2.290000e-06	2.020307e-06	8.757012e-10	1.428015e+01	5.574444e+01
2.300000e-06	2.063265e-06	9.240188e-10	1.458379e+01	5.891480e+01
2.310000e-06	2.106069e-06	9.703894e-10	1.488634e+01	6.205049e+01
2.320000e-06	2.148699e-06	1.013880e-09	1.518767e+01	6.514918e+01
2.330000e-06	2.191137e-06	1.058020e-09	1.548763e+01	6.820849e+01
2.340000e-06	2.233280e-06	1.100362e-09	1.578551e+01	7.122602e+01
2.350000e-06	2.275101e-06	1.139857e-09	1.608112e+01	7.419937e+01
2.360000e-06	2.316678e-06	1.179162e-09	1.637500e+01	7.712611e+01
2.370000e-06	2.358004e-06	1.218722e-09	1.666710e+01	8.000389e+01
2.380000e-06	2.399001e-06	1.257011e-09	1.695688e+01	8.283039e+01
2.390000e-06	2.439704e-06	1.295328e-09	1.724458e+01	8.560337e+01
2.400000e-06	2.480173e-06	1.334162e-09	1.753063e+01	8.832073e+01
2.410000e-06	2.520475e-06	1.371139e-09	1.781550e+01	9.098047e+01
2.420000e-06	2.560671e-06	1.407053e-09	1.809962e+01	9.358079e+01
2.430000e-06	2.600738e-06	1.443694e-09	1.838282e+01	9.612007e+01
2.440000e-06	2.640734e-06	1.481151e-09	1.866552e+01	9.859690e+01
2.450000e-06	2.680593e-06	1.514804e-09	1.894726e+01	1.010101e+02
2.460000e-06	2.720320e-06	1.545404e-09	1.922806e+01	1.033588e+02
2.470000e-06	2.759944e-06	1.573528e-09	1.950814e+01	1.056423e+02
2.480000e-06	2.799407e-06	1.601023e-09	1.978707e+01	1.078603e+02
2.490000e-06	2.838686e-06	1.631868e-09	2.006471e+01	1.100127e+02
2.500000e-06	2.877699e-06	1.664612e-09	2.034046e+01	1.120997e+02
2.510000e-06	2.916441e-06	1.699493e-09	2.061430e+01	1.141218e+02
2.520000e-06	2.955053e-06	1.734077e-09	2.088723e+01	1.160797e+02
2.530000e-06	2.993498e-06	1.762354e-09	2.115897e+01	1.179745e+02
2.540000e-06	3.031762e-06	1.785051e-09	2.142943e+01	1.198074e+02
2.550000e-06	3.069844e-06	1.807658e-09	2.169861e+01	1.215800e+02
2.560000e-06	3.107644e-06	1.831550e-09	2.196579e+01	1.232938e+02
2.570000e-06	3.145257e-06	1.854280e-09	2.223165e+01	1.249509e+02
2.580000e-06	3.182679e-06	1.875937e-09	2.249616e+01	1.265532e+02
2.590000e-06	3.219801e-06	1.901168e-09	2.275854e+01	1.281028e+02
2.600000e-06	3.256731e-06	1.929706e-09	2.301958e+01	1.296019e+02
2.610000e-06	3.293480e-06	1.956134e-09	2.327933e+01	1.310526e+02
2.620000e-06	3.329929e-06	1.978466e-09	2.353696e+01	1.324573e+02
2.630000e-06	3.366150e-06	1.998406e-09	2.379299e+01	1.338182e+02
2.640000e-06	3.402258e-06	2.015917e-09	2.404821e+01	1.351373e+02
2.650000e-06	3.438258e-06	2.029428e-09	2.430267e+01	1.364166e+02
2.660000e-06	3.474109e-06	2.041801e-09	2.455607e+01	1.376583e+02
2.670000e-06	3.509797e-06	2.057941e-09	2.480833e+01	1.388640e+02
2.680000e-06	3.545253e-06	2.077136e-09	2.505895e+01	1.400353e+02
2.690000e-06	3.580464e-06	2.096972e-09	2.530782e+01	1.411738e+02
2.700000e-06	3.615313e-06	2.115645e-09	2.555415e+01	1.422807e+02
2.710000e-06	3.649731e-06	2.131539e-09	2.579742e+01	1.433571e+02
2.720000e-06	3.683765e-06	2.147003e-09	2.603799e+01	1.444040e+02
2.730000e-06	3.717337e-06	2.162171e-09	2.627529e+01	1.454220e+02
2.740000e-06	3.750558e-06	2.174836e-09	2.651011e+01	1.464117e+02
2.750000e-06	3.783418e-06	2.187742e-09	2.674237e+01	1.473734e+02
2.760000e-06	3.815860e-06	2.202578e-09	2.697168e+01	1.483075e+02
2.770000e-06	3.848104e-06	2.218376e-09	2.719959e+01	1.492139e+02
2.780000e-06	3.880187e-06	2.233690e-09	2.742636e+01	1.500928e+02
2.790000e-06	3.912029e-06	2.246938e-09	2.765143e+01	1.509439e+02
2.800000e-06	3.943702e-06	2.260182e-09	2.787530e+01	1.517671e+02
2.810000e-06	3.975179e-06	2.274161e-09	2.809780e+01	1.525623e+02
2.820000e-06	4.006397e-06	2.284859e-09	2.831845e+01	1.533292e+02
2.830000e-06	4.037311e-06	2.291939e-09	2.853696e+01	1.540677e+02
2.840000e-06	4.067919e-06	2.297886e-09	2.875331e+01	1.547776e+02
2.850000e-06	4.098290e-06	2.304629e-09	2.896798e+01	1.554590e+02
2.860000e-06	4.128402e-06	2.315278e-09	2.918082e+01	1.561117e+02
2.870000e-06	4.158184e-06	2.328771e-09	2.939133e+01	1.567361e+02
2.880000e-06	4.187721e-06	2.340489e-09	2.960011e+01	1.573322e+02
2.890000e-06	4.217132e-06	2.348396e-09	2.980799e+01	1.579006e+02
2.900000e-06	4.246254e-06	2.354776e-09	3.001383e+01	1.584417e+02
