# Temperatura_=_7.4
# Concentracion g/m^3_=_4090.0
# C_Vs_to_Am_M_A/Vsm_=_65563218390.804596
# pendiente_HvsI_1/m_=_3716.3
# ordenada_HvsI_A/m_=_1297.0
# frecuencia_Hz_=_135082.80592402647

Tiempo_(s)	Campo_(V.s)	Magnetizacion_(V.s)	Campo_(kA/m)	Magnetizacion_(A/m)
0.000000e+00	-5.439276e-06	-2.569518e-09	-3.839324e+01	-1.674597e+02
1.000000e-08	-5.439309e-06	-2.574331e-09	-3.839348e+01	-1.674251e+02
2.000000e-08	-5.439139e-06	-2.577157e-09	-3.839227e+01	-1.673933e+02
3.000000e-08	-5.438654e-06	-2.578310e-09	-3.838885e+01	-1.673658e+02
4.000000e-08	-5.437771e-06	-2.576309e-09	-3.838262e+01	-1.673441e+02
5.000000e-08	-5.436360e-06	-2.571844e-09	-3.837266e+01	-1.673298e+02
6.000000e-08	-5.434236e-06	-2.568499e-09	-3.835767e+01	-1.673244e+02
7.000000e-08	-5.431521e-06	-2.558844e-09	-3.833850e+01	-1.673293e+02
8.000000e-08	-5.428234e-06	-2.550479e-09	-3.831530e+01	-1.673457e+02
9.000000e-08	-5.424345e-06	-2.584287e-09	-3.828785e+01	-1.673750e+02
1.000000e-07	-5.420082e-06	-2.637020e-09	-3.825776e+01	-1.674181e+02
1.100000e-07	-5.415664e-06	-2.581199e-09	-3.822658e+01	-1.674760e+02
1.200000e-07	-5.411129e-06	-2.526949e-09	-3.819457e+01	-1.675491e+02
1.300000e-07	-5.406262e-06	-2.544141e-09	-3.816021e+01	-1.676380e+02
1.400000e-07	-5.400908e-06	-2.620369e-09	-3.812242e+01	-1.677429e+02
1.500000e-07	-5.395145e-06	-2.565918e-09	-3.808174e+01	-1.678636e+02
1.600000e-07	-5.389127e-06	-2.483409e-09	-3.803926e+01	-1.679998e+02
1.700000e-07	-5.382728e-06	-2.550284e-09	-3.799410e+01	-1.681510e+02
1.800000e-07	-5.375732e-06	-2.627679e-09	-3.794472e+01	-1.683161e+02
1.900000e-07	-5.368394e-06	-2.604699e-09	-3.789292e+01	-1.684942e+02
2.000000e-07	-5.360909e-06	-2.520024e-09	-3.784009e+01	-1.686838e+02
2.100000e-07	-5.353135e-06	-2.569754e-09	-3.778521e+01	-1.688834e+02
2.200000e-07	-5.345111e-06	-2.599164e-09	-3.772858e+01	-1.690912e+02
2.300000e-07	-5.336847e-06	-2.574827e-09	-3.767025e+01	-1.693053e+02
2.400000e-07	-5.328227e-06	-2.556819e-09	-3.760940e+01	-1.695235e+02
2.500000e-07	-5.318980e-06	-2.633758e-09	-3.754413e+01	-1.697436e+02
2.600000e-07	-5.308855e-06	-2.644718e-09	-3.747267e+01	-1.699633e+02
2.700000e-07	-5.298009e-06	-2.611914e-09	-3.739611e+01	-1.701803e+02
2.800000e-07	-5.286718e-06	-2.627774e-09	-3.731641e+01	-1.703923e+02
2.900000e-07	-5.275116e-06	-2.663017e-09	-3.723452e+01	-1.705969e+02
3.000000e-07	-5.263194e-06	-2.612016e-09	-3.715036e+01	-1.707919e+02
3.100000e-07	-5.250873e-06	-2.597614e-09	-3.706340e+01	-1.709751e+02
3.200000e-07	-5.238183e-06	-2.664562e-09	-3.697382e+01	-1.711445e+02
3.300000e-07	-5.225070e-06	-2.662910e-09	-3.688126e+01	-1.712983e+02
3.400000e-07	-5.211553e-06	-2.602407e-09	-3.678586e+01	-1.714349e+02
3.500000e-07	-5.197670e-06	-2.612632e-09	-3.668786e+01	-1.715527e+02
3.600000e-07	-5.183411e-06	-2.650214e-09	-3.658721e+01	-1.716505e+02
3.700000e-07	-5.168751e-06	-2.619769e-09	-3.648374e+01	-1.717275e+02
3.800000e-07	-5.153587e-06	-2.602273e-09	-3.637670e+01	-1.717829e+02
3.900000e-07	-5.137804e-06	-2.618952e-09	-3.626530e+01	-1.718161e+02
4.000000e-07	-5.121404e-06	-2.618766e-09	-3.614954e+01	-1.718272e+02
4.100000e-07	-5.104683e-06	-2.609265e-09	-3.603151e+01	-1.718161e+02
4.200000e-07	-5.087662e-06	-2.628884e-09	-3.591136e+01	-1.717832e+02
4.300000e-07	-5.070308e-06	-2.605568e-09	-3.578888e+01	-1.717290e+02
4.400000e-07	-5.052728e-06	-2.582596e-09	-3.566478e+01	-1.716542e+02
4.500000e-07	-5.034840e-06	-2.595856e-09	-3.553852e+01	-1.715600e+02
4.600000e-07	-5.016596e-06	-2.615164e-09	-3.540975e+01	-1.714474e+02
4.700000e-07	-4.997973e-06	-2.581917e-09	-3.527829e+01	-1.713177e+02
4.800000e-07	-4.978888e-06	-2.581344e-09	-3.514358e+01	-1.711723e+02
4.900000e-07	-4.959351e-06	-2.596788e-09	-3.500569e+01	-1.710127e+02
5.000000e-07	-4.939631e-06	-2.601282e-09	-3.486649e+01	-1.708405e+02
5.100000e-07	-4.919779e-06	-2.582046e-09	-3.472636e+01	-1.706572e+02
5.200000e-07	-4.899658e-06	-2.579928e-09	-3.458434e+01	-1.704646e+02
5.300000e-07	-4.879312e-06	-2.573321e-09	-3.444073e+01	-1.702640e+02
5.400000e-07	-4.858687e-06	-2.584598e-09	-3.429514e+01	-1.700570e+02
5.500000e-07	-4.837595e-06	-2.584052e-09	-3.414627e+01	-1.698450e+02
5.600000e-07	-4.816089e-06	-2.571526e-09	-3.399446e+01	-1.696295e+02
5.700000e-07	-4.794297e-06	-2.562028e-09	-3.384065e+01	-1.694115e+02
5.800000e-07	-4.772255e-06	-2.574076e-09	-3.368506e+01	-1.691921e+02
5.900000e-07	-4.749838e-06	-2.571241e-09	-3.352683e+01	-1.689724e+02
6.000000e-07	-4.727048e-06	-2.561565e-09	-3.336597e+01	-1.687530e+02
6.100000e-07	-4.703905e-06	-2.554238e-09	-3.320261e+01	-1.685347e+02
6.200000e-07	-4.680425e-06	-2.549890e-09	-3.303688e+01	-1.683179e+02
6.300000e-07	-4.656737e-06	-2.548535e-09	-3.286967e+01	-1.681029e+02
6.400000e-07	-4.632831e-06	-2.543570e-09	-3.270093e+01	-1.678900e+02
6.500000e-07	-4.608705e-06	-2.529470e-09	-3.253064e+01	-1.676791e+02
6.600000e-07	-4.584270e-06	-2.524582e-09	-3.235816e+01	-1.674702e+02
6.700000e-07	-4.559468e-06	-2.535003e-09	-3.218310e+01	-1.672632e+02
6.800000e-07	-4.534315e-06	-2.533224e-09	-3.200555e+01	-1.670578e+02
6.900000e-07	-4.508691e-06	-2.522823e-09	-3.182469e+01	-1.668535e+02
7.000000e-07	-4.482419e-06	-2.511345e-09	-3.163925e+01	-1.666500e+02
7.100000e-07	-4.455522e-06	-2.507780e-09	-3.144940e+01	-1.664468e+02
7.200000e-07	-4.428272e-06	-2.500906e-09	-3.125705e+01	-1.662434e+02
7.300000e-07	-4.400776e-06	-2.499018e-09	-3.106297e+01	-1.660394e+02
7.400000e-07	-4.373024e-06	-2.491946e-09	-3.086708e+01	-1.658341e+02
7.500000e-07	-4.345136e-06	-2.493854e-09	-3.067023e+01	-1.656271e+02
7.600000e-07	-4.316976e-06	-2.493554e-09	-3.047146e+01	-1.654180e+02
7.700000e-07	-4.288557e-06	-2.490514e-09	-3.027087e+01	-1.652062e+02
7.800000e-07	-4.259934e-06	-2.479901e-09	-3.006883e+01	-1.649915e+02
7.900000e-07	-4.230990e-06	-2.478881e-09	-2.986453e+01	-1.647735e+02
8.000000e-07	-4.201719e-06	-2.476593e-09	-2.965792e+01	-1.645519e+02
8.100000e-07	-4.172154e-06	-2.473387e-09	-2.944924e+01	-1.643264e+02
8.200000e-07	-4.142302e-06	-2.464172e-09	-2.923852e+01	-1.640970e+02
8.300000e-07	-4.112087e-06	-2.460434e-09	-2.902525e+01	-1.638635e+02
8.400000e-07	-4.081496e-06	-2.458223e-09	-2.880932e+01	-1.636258e+02
8.500000e-07	-4.050660e-06	-2.457868e-09	-2.859167e+01	-1.633840e+02
8.600000e-07	-4.019647e-06	-2.449139e-09	-2.837276e+01	-1.631380e+02
8.700000e-07	-3.988520e-06	-2.443035e-09	-2.815305e+01	-1.628878e+02
8.800000e-07	-3.957180e-06	-2.440667e-09	-2.793184e+01	-1.626336e+02
8.900000e-07	-3.925509e-06	-2.437844e-09	-2.770829e+01	-1.623754e+02
9.000000e-07	-3.893652e-06	-2.427763e-09	-2.748342e+01	-1.621133e+02
9.100000e-07	-3.861624e-06	-2.419630e-09	-2.725735e+01	-1.618474e+02
9.200000e-07	-3.829359e-06	-2.416207e-09	-2.702961e+01	-1.615776e+02
9.300000e-07	-3.796827e-06	-2.415291e-09	-2.679998e+01	-1.613042e+02
9.400000e-07	-3.763986e-06	-2.412709e-09	-2.656817e+01	-1.610270e+02
9.500000e-07	-3.730833e-06	-2.409010e-09	-2.633416e+01	-1.607462e+02
9.600000e-07	-3.697291e-06	-2.409140e-09	-2.609741e+01	-1.604615e+02
9.700000e-07	-3.663277e-06	-2.408243e-09	-2.585732e+01	-1.601731e+02
9.800000e-07	-3.628793e-06	-2.400991e-09	-2.561391e+01	-1.598807e+02
9.900000e-07	-3.593849e-06	-2.386757e-09	-2.536726e+01	-1.595842e+02
1.000000e-06	-3.558571e-06	-2.379284e-09	-2.511825e+01	-1.592835e+02
1.010000e-06	-3.522994e-06	-2.379295e-09	-2.486713e+01	-1.589784e+02
1.020000e-06	-3.487217e-06	-2.379577e-09	-2.461459e+01	-1.586686e+02
1.030000e-06	-3.451371e-06	-2.371835e-09	-2.436158e+01	-1.583541e+02
1.040000e-06	-3.415376e-06	-2.364938e-09	-2.410750e+01	-1.580345e+02
1.050000e-06	-3.379192e-06	-2.358449e-09	-2.385210e+01	-1.577097e+02
1.060000e-06	-3.342830e-06	-2.352689e-09	-2.359544e+01	-1.573794e+02
1.070000e-06	-3.306304e-06	-2.340897e-09	-2.333761e+01	-1.570435e+02
1.080000e-06	-3.269601e-06	-2.331141e-09	-2.307855e+01	-1.567018e+02
1.090000e-06	-3.232698e-06	-2.326192e-09	-2.281807e+01	-1.563541e+02
1.100000e-06	-3.195474e-06	-2.326515e-09	-2.255532e+01	-1.560004e+02
1.110000e-06	-3.157934e-06	-2.322151e-09	-2.229035e+01	-1.556406e+02
1.120000e-06	-3.120153e-06	-2.315945e-09	-2.202367e+01	-1.552746e+02
1.130000e-06	-3.082174e-06	-2.310482e-09	-2.175559e+01	-1.549025e+02
1.140000e-06	-3.044073e-06	-2.306309e-09	-2.148665e+01	-1.545243e+02
1.150000e-06	-3.005744e-06	-2.297595e-09	-2.121611e+01	-1.541399e+02
1.160000e-06	-2.967193e-06	-2.289451e-09	-2.094399e+01	-1.537496e+02
1.170000e-06	-2.928480e-06	-2.283161e-09	-2.067074e+01	-1.533535e+02
1.180000e-06	-2.889520e-06	-2.277879e-09	-2.039574e+01	-1.529516e+02
1.190000e-06	-2.850327e-06	-2.272474e-09	-2.011910e+01	-1.525441e+02
1.200000e-06	-2.810953e-06	-2.267716e-09	-1.984117e+01	-1.521311e+02
1.210000e-06	-2.771352e-06	-2.260676e-09	-1.956164e+01	-1.517127e+02
1.220000e-06	-2.731542e-06	-2.251866e-09	-1.928065e+01	-1.512890e+02
1.230000e-06	-2.691655e-06	-2.242234e-09	-1.899910e+01	-1.508600e+02
1.240000e-06	-2.651712e-06	-2.232293e-09	-1.871717e+01	-1.504257e+02
1.250000e-06	-2.611705e-06	-2.222371e-09	-1.843477e+01	-1.499859e+02
1.260000e-06	-2.571627e-06	-2.212198e-09	-1.815188e+01	-1.495407e+02
1.270000e-06	-2.531377e-06	-2.203742e-09	-1.786778e+01	-1.490897e+02
1.280000e-06	-2.490930e-06	-2.196348e-09	-1.758228e+01	-1.486326e+02
1.290000e-06	-2.450261e-06	-2.188941e-09	-1.729522e+01	-1.481690e+02
1.300000e-06	-2.409311e-06	-2.180734e-09	-1.700617e+01	-1.476985e+02
1.310000e-06	-2.368176e-06	-2.175147e-09	-1.671582e+01	-1.472205e+02
1.320000e-06	-2.326871e-06	-2.166505e-09	-1.642427e+01	-1.467342e+02
1.330000e-06	-2.285237e-06	-2.155282e-09	-1.613039e+01	-1.462390e+02
1.340000e-06	-2.243204e-06	-2.145055e-09	-1.583370e+01	-1.457341e+02
1.350000e-06	-2.200852e-06	-2.138181e-09	-1.553476e+01	-1.452184e+02
1.360000e-06	-2.158275e-06	-2.129670e-09	-1.523423e+01	-1.446911e+02
1.370000e-06	-2.115488e-06	-2.119228e-09	-1.493221e+01	-1.441511e+02
1.380000e-06	-2.072514e-06	-2.105921e-09	-1.462888e+01	-1.435974e+02
1.390000e-06	-2.029302e-06	-2.093926e-09	-1.432387e+01	-1.430289e+02
1.400000e-06	-1.985923e-06	-2.085763e-09	-1.401768e+01	-1.424445e+02
1.410000e-06	-1.942434e-06	-2.080367e-09	-1.371071e+01	-1.418432e+02
1.420000e-06	-1.898818e-06	-2.070767e-09	-1.340285e+01	-1.412240e+02
1.430000e-06	-1.855084e-06	-2.059338e-09	-1.309415e+01	-1.405858e+02
1.440000e-06	-1.811213e-06	-2.048670e-09	-1.278448e+01	-1.399277e+02
1.450000e-06	-1.767265e-06	-2.036248e-09	-1.247428e+01	-1.392488e+02
1.460000e-06	-1.723275e-06	-2.019656e-09	-1.216377e+01	-1.385483e+02
1.470000e-06	-1.679259e-06	-2.003219e-09	-1.185308e+01	-1.378255e+02
1.480000e-06	-1.635193e-06	-1.991017e-09	-1.154204e+01	-1.370799e+02
1.490000e-06	-1.590975e-06	-1.979652e-09	-1.122993e+01	-1.363109e+02
1.500000e-06	-1.546674e-06	-1.967487e-09	-1.091723e+01	-1.355180e+02
1.510000e-06	-1.502297e-06	-1.953818e-09	-1.060400e+01	-1.347010e+02
1.520000e-06	-1.457798e-06	-1.939319e-09	-1.028990e+01	-1.338597e+02
1.530000e-06	-1.413282e-06	-1.927274e-09	-9.975680e+00	-1.329939e+02
1.540000e-06	-1.368638e-06	-1.915799e-09	-9.660558e+00	-1.321036e+02
1.550000e-06	-1.323864e-06	-1.900521e-09	-9.344525e+00	-1.311888e+02
1.560000e-06	-1.279070e-06	-1.884006e-09	-9.028344e+00	-1.302495e+02
1.570000e-06	-1.234233e-06	-1.871343e-09	-8.711857e+00	-1.292858e+02
1.580000e-06	-1.189272e-06	-1.859477e-09	-8.394499e+00	-1.282978e+02
1.590000e-06	-1.144159e-06	-1.845295e-09	-8.076067e+00	-1.272856e+02
1.600000e-06	-1.098967e-06	-1.830772e-09	-7.757082e+00	-1.262491e+02
1.610000e-06	-1.053686e-06	-1.818248e-09	-7.437463e+00	-1.251885e+02
1.620000e-06	-1.008316e-06	-1.804169e-09	-7.117221e+00	-1.241035e+02
1.630000e-06	-9.628354e-07	-1.784958e-09	-6.796194e+00	-1.229941e+02
1.640000e-06	-9.172283e-07	-1.763763e-09	-6.474275e+00	-1.218598e+02
1.650000e-06	-8.716026e-07	-1.744872e-09	-6.152225e+00	-1.207001e+02
1.660000e-06	-8.259777e-07	-1.729588e-09	-5.830181e+00	-1.195146e+02
1.670000e-06	-7.802719e-07	-1.711952e-09	-5.507565e+00	-1.183024e+02
1.680000e-06	-7.345334e-07	-1.691322e-09	-5.184719e+00	-1.170624e+02
1.690000e-06	-6.887949e-07	-1.669529e-09	-4.861873e+00	-1.157937e+02
1.700000e-06	-6.430280e-07	-1.651528e-09	-4.538826e+00	-1.144948e+02
1.710000e-06	-5.971673e-07	-1.633434e-09	-4.215118e+00	-1.131643e+02
1.720000e-06	-5.512184e-07	-1.611787e-09	-3.890787e+00	-1.118004e+02
1.730000e-06	-5.052721e-07	-1.590244e-09	-3.566474e+00	-1.104013e+02
1.740000e-06	-4.591587e-07	-1.569893e-09	-3.240981e+00	-1.089651e+02
1.750000e-06	-4.130437e-07	-1.547835e-09	-2.915477e+00	-1.074895e+02
1.760000e-06	-3.669861e-07	-1.524361e-09	-2.590379e+00	-1.059724e+02
1.770000e-06	-3.208287e-07	-1.500065e-09	-2.264576e+00	-1.044115e+02
1.780000e-06	-2.747099e-07	-1.478879e-09	-1.939046e+00	-1.028043e+02
1.790000e-06	-2.284698e-07	-1.459051e-09	-1.612659e+00	-1.011485e+02
1.800000e-06	-1.822654e-07	-1.434717e-09	-1.286524e+00	-9.944165e+01
1.810000e-06	-1.361902e-07	-1.407380e-09	-9.613015e-01	-9.768150e+01
1.820000e-06	-9.008161e-08	-1.380310e-09	-6.358429e-01	-9.586576e+01
1.830000e-06	-4.401256e-08	-1.353173e-09	-3.106635e-01	-9.399228e+01
1.840000e-06	2.073463e-09	-1.324719e-09	1.463558e-02	-9.205908e+01
1.850000e-06	4.820409e-08	-1.292894e-09	3.402496e-01	-9.006433e+01
1.860000e-06	9.432471e-08	-1.260418e-09	6.657929e-01	-8.800643e+01
1.870000e-06	1.404380e-07	-1.229531e-09	9.912845e-01	-8.588399e+01
1.880000e-06	1.866015e-07	-1.196909e-09	1.317130e+00	-8.369592e+01
1.890000e-06	2.327381e-07	-1.164337e-09	1.642787e+00	-8.144138e+01
1.900000e-06	2.788186e-07	-1.133162e-09	1.968047e+00	-7.911982e+01
1.910000e-06	3.249339e-07	-1.098946e-09	2.293553e+00	-7.673104e+01
1.920000e-06	3.710101e-07	-1.059865e-09	2.618782e+00	-7.427511e+01
1.930000e-06	4.170433e-07	-1.020049e-09	2.943709e+00	-7.175246e+01
1.940000e-06	4.630180e-07	-9.812442e-10	3.268222e+00	-6.916380e+01
1.950000e-06	5.089352e-07	-9.426159e-10	3.592330e+00	-6.651017e+01
1.960000e-06	5.548507e-07	-9.016380e-10	3.916425e+00	-6.379294e+01
1.970000e-06	6.006719e-07	-8.605102e-10	4.239855e+00	-6.101371e+01
1.980000e-06	6.464404e-07	-8.192040e-10	4.562913e+00	-5.817440e+01
1.990000e-06	6.922206e-07	-7.775191e-10	4.886053e+00	-5.527716e+01
2.000000e-06	7.379670e-07	-7.343690e-10	5.208955e+00	-5.232437e+01
2.010000e-06	7.836141e-07	-6.885532e-10	5.531156e+00	-4.931859e+01
2.020000e-06	8.292146e-07	-6.409618e-10	5.853028e+00	-4.626258e+01
2.030000e-06	8.748475e-07	-5.926072e-10	6.175129e+00	-4.315922e+01
2.040000e-06	9.203437e-07	-5.441839e-10	6.496265e+00	-4.001153e+01
2.050000e-06	9.656687e-07	-4.973265e-10	6.816193e+00	-3.682259e+01
2.060000e-06	1.011016e-06	-4.529861e-10	7.136274e+00	-3.359556e+01
2.070000e-06	1.056333e-06	-4.103441e-10	7.456150e+00	-3.033361e+01
2.080000e-06	1.101513e-06	-3.664917e-10	7.775050e+00	-2.703993e+01
2.090000e-06	1.146538e-06	-3.197875e-10	8.092863e+00	-2.371770e+01
2.100000e-06	1.191523e-06	-2.701680e-10	8.410393e+00	-2.037007e+01
2.110000e-06	1.236502e-06	-2.181769e-10	8.727874e+00	-1.700012e+01
2.120000e-06	1.281312e-06	-1.642531e-10	9.044169e+00	-1.361087e+01
2.130000e-06	1.325943e-06	-1.086702e-10	9.359195e+00	-1.020530e+01
2.140000e-06	1.370451e-06	-5.444043e-11	9.673358e+00	-6.786277e+00
2.150000e-06	1.414993e-06	-4.079239e-12	9.987756e+00	-3.356594e+00
2.160000e-06	1.459477e-06	4.266162e-11	1.030175e+01	8.103317e-02
2.170000e-06	1.503769e-06	9.033284e-11	1.061439e+01	3.523969e+00
2.180000e-06	1.547990e-06	1.411703e-10	1.092652e+01	6.969653e+00
2.190000e-06	1.592148e-06	1.938067e-10	1.123821e+01	1.041559e+01
2.200000e-06	1.636276e-06	2.468375e-10	1.154969e+01	1.385933e+01
2.210000e-06	1.680418e-06	3.006367e-10	1.186126e+01	1.729849e+01
2.220000e-06	1.724511e-06	3.540170e-10	1.217249e+01	2.073070e+01
2.230000e-06	1.768492e-06	4.048027e-10	1.248294e+01	2.415362e+01
2.240000e-06	1.812383e-06	4.519115e-10	1.279274e+01	2.756491e+01
2.250000e-06	1.856191e-06	4.964251e-10	1.310197e+01	3.096224e+01
2.260000e-06	1.899888e-06	5.411358e-10	1.341040e+01	3.434325e+01
2.270000e-06	1.943484e-06	5.873788e-10	1.371812e+01	3.770559e+01
2.280000e-06	1.987046e-06	6.357301e-10	1.402560e+01	4.104684e+01
2.290000e-06	2.030496e-06	6.858762e-10	1.433230e+01	4.436459e+01
2.300000e-06	2.073753e-06	7.354053e-10	1.463763e+01	4.765636e+01
2.310000e-06	2.116821e-06	7.815169e-10	1.494162e+01	5.091967e+01
2.320000e-06	2.159601e-06	8.258620e-10	1.524359e+01	5.415198e+01
2.330000e-06	2.202085e-06	8.724625e-10	1.554346e+01	5.735076e+01
2.340000e-06	2.244225e-06	9.181885e-10	1.584091e+01	6.051345e+01
2.350000e-06	2.286055e-06	9.614513e-10	1.613616e+01	6.363749e+01
2.360000e-06	2.327559e-06	1.005512e-09	1.642913e+01	6.672036e+01
2.370000e-06	2.368768e-06	1.049347e-09	1.672000e+01	6.975954e+01
2.380000e-06	2.409797e-06	1.091020e-09	1.700960e+01	7.275258e+01
2.390000e-06	2.450589e-06	1.131112e-09	1.729753e+01	7.569711e+01
2.400000e-06	2.491155e-06	1.169725e-09	1.758387e+01	7.859084e+01
2.410000e-06	2.531468e-06	1.208101e-09	1.786842e+01	8.143160e+01
2.420000e-06	2.571610e-06	1.248611e-09	1.815177e+01	8.421737e+01
2.430000e-06	2.611670e-06	1.290478e-09	1.843453e+01	8.694626e+01
2.440000e-06	2.651644e-06	1.331954e-09	1.871668e+01	8.961657e+01
2.450000e-06	2.691483e-06	1.367482e-09	1.899789e+01	9.222681e+01
2.460000e-06	2.731219e-06	1.399736e-09	1.927837e+01	9.477569e+01
2.470000e-06	2.770891e-06	1.431010e-09	1.955839e+01	9.726212e+01
2.480000e-06	2.810362e-06	1.461318e-09	1.983700e+01	9.968527e+01
2.490000e-06	2.849598e-06	1.494258e-09	2.011394e+01	1.020446e+02
2.500000e-06	2.888687e-06	1.529514e-09	2.038986e+01	1.043396e+02
2.510000e-06	2.927540e-06	1.565156e-09	2.066410e+01	1.065703e+02
2.520000e-06	2.966166e-06	1.598409e-09	2.093674e+01	1.087369e+02
2.530000e-06	3.004675e-06	1.625855e-09	2.120856e+01	1.108395e+02
2.540000e-06	3.043006e-06	1.649542e-09	2.147912e+01	1.128790e+02
2.550000e-06	3.081078e-06	1.675483e-09	2.174786e+01	1.148559e+02
2.560000e-06	3.118922e-06	1.704281e-09	2.201498e+01	1.167714e+02
2.570000e-06	3.156609e-06	1.732675e-09	2.228099e+01	1.186265e+02
2.580000e-06	3.194107e-06	1.760509e-09	2.254567e+01	1.204227e+02
2.590000e-06	3.231378e-06	1.788243e-09	2.280875e+01	1.221612e+02
2.600000e-06	3.268390e-06	1.814725e-09	2.307000e+01	1.238436e+02
2.610000e-06	3.305107e-06	1.839297e-09	2.332917e+01	1.254716e+02
2.620000e-06	3.341544e-06	1.861056e-09	2.358636e+01	1.270467e+02
2.630000e-06	3.377771e-06	1.882822e-09	2.384207e+01	1.285707e+02
2.640000e-06	3.413877e-06	1.906694e-09	2.409692e+01	1.300453e+02
2.650000e-06	3.449873e-06	1.930081e-09	2.435100e+01	1.314720e+02
2.660000e-06	3.485698e-06	1.953299e-09	2.460387e+01	1.328526e+02
2.670000e-06	3.521413e-06	1.975098e-09	2.485597e+01	1.341884e+02
2.680000e-06	3.557019e-06	1.993207e-09	2.510729e+01	1.354811e+02
2.690000e-06	3.592311e-06	2.006879e-09	2.535640e+01	1.367320e+02
2.700000e-06	3.627250e-06	2.020101e-09	2.560302e+01	1.379424e+02
2.710000e-06	3.661835e-06	2.036608e-09	2.584714e+01	1.391134e+02
2.720000e-06	3.695873e-06	2.055541e-09	2.608740e+01	1.402461e+02
2.730000e-06	3.729381e-06	2.076657e-09	2.632391e+01	1.413414e+02
2.740000e-06	3.762459e-06	2.096075e-09	2.655739e+01	1.424003e+02
2.750000e-06	3.795203e-06	2.114066e-09	2.678852e+01	1.434234e+02
2.760000e-06	3.827676e-06	2.129039e-09	2.701773e+01	1.444114e+02
2.770000e-06	3.859865e-06	2.138382e-09	2.724494e+01	1.453650e+02
2.780000e-06	3.891873e-06	2.147499e-09	2.747086e+01	1.462845e+02
2.790000e-06	3.923775e-06	2.161024e-09	2.769605e+01	1.471705e+02
2.800000e-06	3.955513e-06	2.177928e-09	2.792007e+01	1.480235e+02
2.810000e-06	3.987112e-06	2.194616e-09	2.814311e+01	1.488438e+02
2.820000e-06	4.018468e-06	2.207192e-09	2.836444e+01	1.496319e+02
2.830000e-06	4.049440e-06	2.217160e-09	2.858306e+01	1.503882e+02
2.840000e-06	4.080047e-06	2.226455e-09	2.879910e+01	1.511132e+02
2.850000e-06	4.110345e-06	2.233742e-09	2.901295e+01	1.518075e+02
2.860000e-06	4.140415e-06	2.240960e-09	2.922520e+01	1.524716e+02
2.870000e-06	4.170293e-06	2.251511e-09	2.943610e+01	1.531063e+02
2.880000e-06	4.199937e-06	2.262490e-09	2.964534e+01	1.537122e+02
2.890000e-06	4.229198e-06	2.270161e-09	2.985188e+01	1.542903e+02
2.900000e-06	4.258093e-06	2.275532e-09	3.005583e+01	1.548413e+02
