# Temperatura_=_14.81
# Concentracion g/m^3_=_4090.0
# C_Vs_to_Am_M_A/Vsm_=_65563218390.804596
# pendiente_HvsI_1/m_=_3716.3
# ordenada_HvsI_A/m_=_1297.0
# frecuencia_Hz_=_135080.2446066132

Tiempo_(s)	Campo_(V.s)	Magnetizacion_(V.s)	Campo_(kA/m)	Magnetizacion_(A/m)
0.000000e+00	-5.415992e-06	-2.620261e-09	-3.839090e+01	-1.717850e+02
1.000000e-08	-5.416164e-06	-2.621454e-09	-3.839212e+01	-1.717581e+02
2.000000e-08	-5.416140e-06	-2.622234e-09	-3.839194e+01	-1.717323e+02
3.000000e-08	-5.415807e-06	-2.623692e-09	-3.838958e+01	-1.717088e+02
4.000000e-08	-5.415110e-06	-2.623073e-09	-3.838464e+01	-1.716887e+02
5.000000e-08	-5.414020e-06	-2.616694e-09	-3.837692e+01	-1.716732e+02
6.000000e-08	-5.412381e-06	-2.607547e-09	-3.836530e+01	-1.716637e+02
7.000000e-08	-5.409981e-06	-2.607515e-09	-3.834829e+01	-1.716611e+02
8.000000e-08	-5.406877e-06	-2.618461e-09	-3.832628e+01	-1.716667e+02
9.000000e-08	-5.403204e-06	-2.631570e-09	-3.830025e+01	-1.716813e+02
1.000000e-07	-5.399057e-06	-2.633626e-09	-3.827085e+01	-1.717059e+02
1.100000e-07	-5.394715e-06	-2.641111e-09	-3.824007e+01	-1.717411e+02
1.200000e-07	-5.390360e-06	-2.600341e-09	-3.820921e+01	-1.717876e+02
1.300000e-07	-5.385749e-06	-2.588584e-09	-3.817652e+01	-1.718457e+02
1.400000e-07	-5.380663e-06	-2.601795e-09	-3.814047e+01	-1.719157e+02
1.500000e-07	-5.375139e-06	-2.618705e-09	-3.810131e+01	-1.719976e+02
1.600000e-07	-5.369300e-06	-2.608165e-09	-3.805992e+01	-1.720911e+02
1.700000e-07	-5.363091e-06	-2.583355e-09	-3.801591e+01	-1.721959e+02
1.800000e-07	-5.356351e-06	-2.613645e-09	-3.796813e+01	-1.723113e+02
1.900000e-07	-5.349290e-06	-2.651724e-09	-3.791809e+01	-1.724366e+02
2.000000e-07	-5.341960e-06	-2.629288e-09	-3.786612e+01	-1.725708e+02
2.100000e-07	-5.334386e-06	-2.597042e-09	-3.781243e+01	-1.727126e+02
2.200000e-07	-5.326617e-06	-2.612911e-09	-3.775737e+01	-1.728607e+02
2.300000e-07	-5.318597e-06	-2.640560e-09	-3.770052e+01	-1.730136e+02
2.400000e-07	-5.310306e-06	-2.625430e-09	-3.764175e+01	-1.731697e+02
2.500000e-07	-5.301416e-06	-2.634148e-09	-3.757873e+01	-1.733273e+02
2.600000e-07	-5.291718e-06	-2.696129e-09	-3.750999e+01	-1.734846e+02
2.700000e-07	-5.281321e-06	-2.707590e-09	-3.743629e+01	-1.736398e+02
2.800000e-07	-5.270360e-06	-2.679103e-09	-3.735859e+01	-1.737910e+02
2.900000e-07	-5.258982e-06	-2.676925e-09	-3.727794e+01	-1.739363e+02
3.000000e-07	-5.247274e-06	-2.693142e-09	-3.719495e+01	-1.740741e+02
3.100000e-07	-5.235207e-06	-2.675129e-09	-3.710941e+01	-1.742026e+02
3.200000e-07	-5.222719e-06	-2.673467e-09	-3.702089e+01	-1.743201e+02
3.300000e-07	-5.209786e-06	-2.695934e-09	-3.692922e+01	-1.744252e+02
3.400000e-07	-5.196542e-06	-2.702066e-09	-3.683534e+01	-1.745165e+02
3.500000e-07	-5.183023e-06	-2.669738e-09	-3.673951e+01	-1.745929e+02
3.600000e-07	-5.169103e-06	-2.682340e-09	-3.664084e+01	-1.746533e+02
3.700000e-07	-5.154703e-06	-2.693054e-09	-3.653877e+01	-1.746968e+02
3.800000e-07	-5.139668e-06	-2.674080e-09	-3.643219e+01	-1.747230e+02
3.900000e-07	-5.123978e-06	-2.649989e-09	-3.632097e+01	-1.747313e+02
4.000000e-07	-5.107893e-06	-2.674441e-09	-3.620695e+01	-1.747215e+02
4.100000e-07	-5.091468e-06	-2.680432e-09	-3.609053e+01	-1.746937e+02
4.200000e-07	-5.074742e-06	-2.664160e-09	-3.597197e+01	-1.746480e+02
4.300000e-07	-5.057749e-06	-2.661906e-09	-3.585152e+01	-1.745847e+02
4.400000e-07	-5.040417e-06	-2.658878e-09	-3.572866e+01	-1.745045e+02
4.500000e-07	-5.022822e-06	-2.639984e-09	-3.560394e+01	-1.744080e+02
4.600000e-07	-5.004918e-06	-2.638892e-09	-3.547703e+01	-1.742960e+02
4.700000e-07	-4.986640e-06	-2.646070e-09	-3.534746e+01	-1.741694e+02
4.800000e-07	-4.967886e-06	-2.633240e-09	-3.521453e+01	-1.740293e+02
4.900000e-07	-4.948613e-06	-2.635787e-09	-3.507791e+01	-1.738768e+02
5.000000e-07	-4.928998e-06	-2.651420e-09	-3.493887e+01	-1.737130e+02
5.100000e-07	-4.909188e-06	-2.644572e-09	-3.479845e+01	-1.735391e+02
5.200000e-07	-4.889179e-06	-2.623157e-09	-3.465662e+01	-1.733563e+02
5.300000e-07	-4.868991e-06	-2.631216e-09	-3.451352e+01	-1.731656e+02
5.400000e-07	-4.848556e-06	-2.631156e-09	-3.436866e+01	-1.729682e+02
5.500000e-07	-4.827764e-06	-2.620665e-09	-3.422128e+01	-1.727651e+02
5.600000e-07	-4.806515e-06	-2.618243e-09	-3.407066e+01	-1.725573e+02
5.700000e-07	-4.784846e-06	-2.626028e-09	-3.391706e+01	-1.723456e+02
5.800000e-07	-4.762915e-06	-2.617308e-09	-3.376160e+01	-1.721308e+02
5.900000e-07	-4.740637e-06	-2.612884e-09	-3.360369e+01	-1.719136e+02
6.000000e-07	-4.718081e-06	-2.608174e-09	-3.344380e+01	-1.716944e+02
6.100000e-07	-4.695239e-06	-2.598613e-09	-3.328189e+01	-1.714737e+02
6.200000e-07	-4.671977e-06	-2.591847e-09	-3.311700e+01	-1.712518e+02
6.300000e-07	-4.648395e-06	-2.596284e-09	-3.294983e+01	-1.710289e+02
6.400000e-07	-4.624587e-06	-2.589438e-09	-3.278108e+01	-1.708050e+02
6.500000e-07	-4.600647e-06	-2.583709e-09	-3.261138e+01	-1.705802e+02
6.600000e-07	-4.576530e-06	-2.583346e-09	-3.244043e+01	-1.703544e+02
6.700000e-07	-4.552104e-06	-2.581804e-09	-3.226729e+01	-1.701274e+02
6.800000e-07	-4.527253e-06	-2.572882e-09	-3.209113e+01	-1.698988e+02
6.900000e-07	-4.501795e-06	-2.565830e-09	-3.191067e+01	-1.696686e+02
7.000000e-07	-4.475810e-06	-2.560892e-09	-3.172648e+01	-1.694362e+02
7.100000e-07	-4.449285e-06	-2.555607e-09	-3.153846e+01	-1.692014e+02
7.200000e-07	-4.422156e-06	-2.550753e-09	-3.134615e+01	-1.689638e+02
7.300000e-07	-4.394672e-06	-2.550034e-09	-3.115133e+01	-1.687231e+02
7.400000e-07	-4.366999e-06	-2.551076e-09	-3.095518e+01	-1.684789e+02
7.500000e-07	-4.339155e-06	-2.551298e-09	-3.075781e+01	-1.682309e+02
7.600000e-07	-4.311198e-06	-2.548867e-09	-3.055964e+01	-1.679788e+02
7.700000e-07	-4.283034e-06	-2.541551e-09	-3.036000e+01	-1.677224e+02
7.800000e-07	-4.254559e-06	-2.532836e-09	-3.015816e+01	-1.674616e+02
7.900000e-07	-4.225827e-06	-2.524555e-09	-2.995449e+01	-1.671961e+02
8.000000e-07	-4.196783e-06	-2.517347e-09	-2.974862e+01	-1.669258e+02
8.100000e-07	-4.167375e-06	-2.510188e-09	-2.954016e+01	-1.666508e+02
8.200000e-07	-4.137733e-06	-2.509203e-09	-2.933004e+01	-1.663711e+02
8.300000e-07	-4.107884e-06	-2.511804e-09	-2.911846e+01	-1.660866e+02
8.400000e-07	-4.077807e-06	-2.515713e-09	-2.890526e+01	-1.657976e+02
8.500000e-07	-4.047395e-06	-2.510292e-09	-2.868969e+01	-1.655039e+02
8.600000e-07	-4.016610e-06	-2.499396e-09	-2.847147e+01	-1.652059e+02
8.700000e-07	-3.985577e-06	-2.486430e-09	-2.825150e+01	-1.649036e+02
8.800000e-07	-3.954251e-06	-2.478206e-09	-2.802944e+01	-1.645973e+02
8.900000e-07	-3.922719e-06	-2.470244e-09	-2.780593e+01	-1.642869e+02
9.000000e-07	-3.891075e-06	-2.465676e-09	-2.758162e+01	-1.639727e+02
9.100000e-07	-3.859271e-06	-2.465938e-09	-2.735619e+01	-1.636547e+02
9.200000e-07	-3.827271e-06	-2.469974e-09	-2.712935e+01	-1.633330e+02
9.300000e-07	-3.795077e-06	-2.468113e-09	-2.690115e+01	-1.630076e+02
9.400000e-07	-3.762651e-06	-2.460159e-09	-2.667130e+01	-1.626786e+02
9.500000e-07	-3.729823e-06	-2.449184e-09	-2.643860e+01	-1.623459e+02
9.600000e-07	-3.696556e-06	-2.440070e-09	-2.620279e+01	-1.620093e+02
9.700000e-07	-3.662955e-06	-2.431670e-09	-2.596461e+01	-1.616688e+02
9.800000e-07	-3.628884e-06	-2.426977e-09	-2.572310e+01	-1.613241e+02
9.900000e-07	-3.594238e-06	-2.425692e-09	-2.547751e+01	-1.609751e+02
1.000000e-06	-3.559273e-06	-2.427177e-09	-2.522967e+01	-1.606214e+02
1.010000e-06	-3.524077e-06	-2.427559e-09	-2.498018e+01	-1.602629e+02
1.020000e-06	-3.488614e-06	-2.424911e-09	-2.472881e+01	-1.598991e+02
1.030000e-06	-3.452953e-06	-2.416149e-09	-2.447603e+01	-1.595299e+02
1.040000e-06	-3.417133e-06	-2.405592e-09	-2.422212e+01	-1.591548e+02
1.050000e-06	-3.381183e-06	-2.395352e-09	-2.396729e+01	-1.587736e+02
1.060000e-06	-3.345085e-06	-2.385333e-09	-2.371141e+01	-1.583860e+02
1.070000e-06	-3.308766e-06	-2.377592e-09	-2.345397e+01	-1.579917e+02
1.080000e-06	-3.272173e-06	-2.371421e-09	-2.319458e+01	-1.575905e+02
1.090000e-06	-3.235406e-06	-2.366500e-09	-2.293396e+01	-1.571821e+02
1.100000e-06	-3.198427e-06	-2.360060e-09	-2.267183e+01	-1.567666e+02
1.110000e-06	-3.161187e-06	-2.351552e-09	-2.240786e+01	-1.563436e+02
1.120000e-06	-3.123699e-06	-2.341151e-09	-2.214213e+01	-1.559133e+02
1.130000e-06	-3.085944e-06	-2.334616e-09	-2.187451e+01	-1.554756e+02
1.140000e-06	-3.048024e-06	-2.328357e-09	-2.160572e+01	-1.550306e+02
1.150000e-06	-3.010025e-06	-2.321601e-09	-2.133636e+01	-1.545785e+02
1.160000e-06	-2.971830e-06	-2.313540e-09	-2.106562e+01	-1.541193e+02
1.170000e-06	-2.933346e-06	-2.305493e-09	-2.079283e+01	-1.536533e+02
1.180000e-06	-2.894654e-06	-2.294186e-09	-2.051856e+01	-1.531807e+02
1.190000e-06	-2.855671e-06	-2.282767e-09	-2.024223e+01	-1.527018e+02
1.200000e-06	-2.816431e-06	-2.273949e-09	-1.996408e+01	-1.522169e+02
1.210000e-06	-2.777095e-06	-2.267178e-09	-1.968525e+01	-1.517262e+02
1.220000e-06	-2.737610e-06	-2.258689e-09	-1.940537e+01	-1.512300e+02
1.230000e-06	-2.697923e-06	-2.251355e-09	-1.912404e+01	-1.507285e+02
1.240000e-06	-2.658109e-06	-2.243042e-09	-1.884183e+01	-1.502219e+02
1.250000e-06	-2.618228e-06	-2.232750e-09	-1.855913e+01	-1.497104e+02
1.260000e-06	-2.578252e-06	-2.220683e-09	-1.827577e+01	-1.491940e+02
1.270000e-06	-2.538132e-06	-2.208967e-09	-1.799138e+01	-1.486726e+02
1.280000e-06	-2.497912e-06	-2.200384e-09	-1.770628e+01	-1.481463e+02
1.290000e-06	-2.457494e-06	-2.193953e-09	-1.741978e+01	-1.476147e+02
1.300000e-06	-2.416893e-06	-2.185829e-09	-1.713198e+01	-1.470776e+02
1.310000e-06	-2.376235e-06	-2.176797e-09	-1.684379e+01	-1.465346e+02
1.320000e-06	-2.335361e-06	-2.169558e-09	-1.655405e+01	-1.459852e+02
1.330000e-06	-2.294092e-06	-2.157292e-09	-1.626152e+01	-1.454287e+02
1.340000e-06	-2.252476e-06	-2.140310e-09	-1.596652e+01	-1.448645e+02
1.350000e-06	-2.210669e-06	-2.123663e-09	-1.567018e+01	-1.442916e+02
1.360000e-06	-2.168524e-06	-2.112763e-09	-1.537143e+01	-1.437092e+02
1.370000e-06	-2.126040e-06	-2.106674e-09	-1.507029e+01	-1.431163e+02
1.380000e-06	-2.083401e-06	-2.100735e-09	-1.476805e+01	-1.425117e+02
1.390000e-06	-2.040690e-06	-2.092621e-09	-1.446530e+01	-1.418944e+02
1.400000e-06	-1.997736e-06	-2.085022e-09	-1.416082e+01	-1.412632e+02
1.410000e-06	-1.954454e-06	-2.075232e-09	-1.385402e+01	-1.406169e+02
1.420000e-06	-1.911010e-06	-2.058180e-09	-1.354607e+01	-1.399542e+02
1.430000e-06	-1.867475e-06	-2.035565e-09	-1.323747e+01	-1.392741e+02
1.440000e-06	-1.823917e-06	-2.018148e-09	-1.292871e+01	-1.385752e+02
1.450000e-06	-1.780225e-06	-2.011685e-09	-1.261901e+01	-1.378566e+02
1.460000e-06	-1.736415e-06	-2.009576e-09	-1.230846e+01	-1.371170e+02
1.470000e-06	-1.692543e-06	-2.003307e-09	-1.199748e+01	-1.363555e+02
1.480000e-06	-1.648581e-06	-1.990831e-09	-1.168585e+01	-1.355711e+02
1.490000e-06	-1.604539e-06	-1.974948e-09	-1.137367e+01	-1.347630e+02
1.500000e-06	-1.560468e-06	-1.958006e-09	-1.106127e+01	-1.339304e+02
1.510000e-06	-1.516351e-06	-1.935362e-09	-1.074856e+01	-1.330727e+02
1.520000e-06	-1.472114e-06	-1.911842e-09	-1.043498e+01	-1.321893e+02
1.530000e-06	-1.427812e-06	-1.900053e-09	-1.012095e+01	-1.312797e+02
1.540000e-06	-1.383492e-06	-1.899847e-09	-9.806791e+00	-1.303434e+02
1.550000e-06	-1.339075e-06	-1.898821e-09	-9.491940e+00	-1.293803e+02
1.560000e-06	-1.294560e-06	-1.886786e-09	-9.176401e+00	-1.283899e+02
1.570000e-06	-1.250026e-06	-1.870571e-09	-8.860722e+00	-1.273722e+02
1.580000e-06	-1.205285e-06	-1.854420e-09	-8.543581e+00	-1.263269e+02
1.590000e-06	-1.160366e-06	-1.834995e-09	-8.225175e+00	-1.252538e+02
1.600000e-06	-1.115457e-06	-1.812680e-09	-7.906845e+00	-1.241528e+02
1.610000e-06	-1.070496e-06	-1.794375e-09	-7.588138e+00	-1.230237e+02
1.620000e-06	-1.025456e-06	-1.783153e-09	-7.268874e+00	-1.218662e+02
1.630000e-06	-9.803182e-07	-1.772790e-09	-6.948920e+00	-1.206801e+02
1.640000e-06	-9.350379e-07	-1.754331e-09	-6.627953e+00	-1.194649e+02
1.650000e-06	-8.895945e-07	-1.730775e-09	-6.305831e+00	-1.182202e+02
1.660000e-06	-8.440562e-07	-1.709136e-09	-5.983036e+00	-1.169452e+02
1.670000e-06	-7.985068e-07	-1.689794e-09	-5.660162e+00	-1.156393e+02
1.680000e-06	-7.529805e-07	-1.667362e-09	-5.337452e+00	-1.143015e+02
1.690000e-06	-7.074657e-07	-1.642971e-09	-5.014823e+00	-1.129308e+02
1.700000e-06	-6.618696e-07	-1.625808e-09	-4.691618e+00	-1.115259e+02
1.710000e-06	-6.161517e-07	-1.613606e-09	-4.367550e+00	-1.100854e+02
1.720000e-06	-5.704066e-07	-1.593716e-09	-4.043289e+00	-1.086079e+02
1.730000e-06	-5.246978e-07	-1.565227e-09	-3.719285e+00	-1.070915e+02
1.740000e-06	-4.788960e-07	-1.537780e-09	-3.394622e+00	-1.055345e+02
1.750000e-06	-4.329832e-07	-1.513397e-09	-3.069173e+00	-1.039349e+02
1.760000e-06	-3.871051e-07	-1.487301e-09	-2.743969e+00	-1.022907e+02
1.770000e-06	-3.412644e-07	-1.459281e-09	-2.419030e+00	-1.005997e+02
1.780000e-06	-2.953998e-07	-1.437008e-09	-2.093922e+00	-9.885970e+01
1.790000e-06	-2.494871e-07	-1.420904e-09	-1.768472e+00	-9.706857e+01
1.800000e-06	-2.034949e-07	-1.397929e-09	-1.442460e+00	-9.522409e+01
1.810000e-06	-1.574755e-07	-1.362581e-09	-1.116255e+00	-9.332409e+01
1.820000e-06	-1.114726e-07	-1.325536e-09	-7.901663e-01	-9.136652e+01
1.830000e-06	-6.550380e-08	-1.294115e-09	-4.643193e-01	-8.934941e+01
1.840000e-06	-1.956361e-08	-1.265073e-09	-1.386753e-01	-8.727095e+01
1.850000e-06	2.638520e-08	-1.232673e-09	1.870297e-01	-8.512951e+01
1.860000e-06	7.231895e-08	-1.198906e-09	5.126280e-01	-8.292369e+01
1.870000e-06	1.182424e-07	-1.168115e-09	8.381535e-01	-8.065231e+01
1.880000e-06	1.641936e-07	-1.135589e-09	1.163875e+00	-7.831447e+01
1.890000e-06	2.101504e-07	-1.095300e-09	1.489637e+00	-7.590956e+01
1.900000e-06	2.560625e-07	-1.052583e-09	1.815082e+00	-7.343731e+01
1.910000e-06	3.019534e-07	-1.014168e-09	2.140376e+00	-7.089773e+01
1.920000e-06	3.478691e-07	-9.769096e-10	2.465847e+00	-6.829121e+01
1.930000e-06	3.937227e-07	-9.382185e-10	2.790877e+00	-6.561847e+01
1.940000e-06	4.395017e-07	-8.980674e-10	3.115378e+00	-6.288057e+01
1.950000e-06	4.852373e-07	-8.582400e-10	3.439572e+00	-6.007892e+01
1.960000e-06	5.309729e-07	-8.191692e-10	3.763766e+00	-5.721525e+01
1.970000e-06	5.766875e-07	-7.761590e-10	4.087810e+00	-5.429164e+01
1.980000e-06	6.222320e-07	-7.294288e-10	4.410650e+00	-5.131042e+01
1.990000e-06	6.677749e-07	-6.837949e-10	4.733477e+00	-4.827425e+01
2.000000e-06	7.133571e-07	-6.400432e-10	5.056584e+00	-4.518599e+01
2.010000e-06	7.588363e-07	-5.934333e-10	5.378960e+00	-4.204878e+01
2.020000e-06	8.042747e-07	-5.450726e-10	5.701047e+00	-3.886589e+01
2.030000e-06	8.497576e-07	-4.968029e-10	6.023450e+00	-3.564081e+01
2.040000e-06	8.951269e-07	-4.503529e-10	6.345047e+00	-3.237711e+01
2.050000e-06	9.403820e-07	-4.018124e-10	6.665835e+00	-2.907847e+01
2.060000e-06	9.855888e-07	-3.520166e-10	6.986280e+00	-2.574861e+01
2.070000e-06	1.030594e-06	-3.042572e-10	7.305294e+00	-2.239130e+01
2.080000e-06	1.075493e-06	-2.581841e-10	7.623562e+00	-1.901028e+01
2.090000e-06	1.120405e-06	-2.106849e-10	7.941919e+00	-1.560924e+01
2.100000e-06	1.165278e-06	-1.586217e-10	8.259997e+00	-1.219182e+01
2.110000e-06	1.210008e-06	-1.071020e-10	8.577064e+00	-8.761567e+00
2.120000e-06	1.254613e-06	-5.702442e-11	8.893239e+00	-5.321905e+00
2.130000e-06	1.299175e-06	-6.471046e-12	9.209115e+00	-1.876132e+00
2.140000e-06	1.343658e-06	4.752724e-11	9.524428e+00	1.572598e+00
2.150000e-06	1.388059e-06	9.967451e-11	9.839161e+00	5.021286e+00
2.160000e-06	1.432383e-06	1.478284e-10	1.015335e+01	8.467090e+00
2.170000e-06	1.476622e-06	1.959918e-10	1.046694e+01	1.190733e+01
2.180000e-06	1.520782e-06	2.508120e-10	1.077996e+01	1.533948e+01
2.190000e-06	1.564851e-06	3.082012e-10	1.109234e+01	1.876118e+01
2.200000e-06	1.608830e-06	3.575671e-10	1.140408e+01	2.217020e+01
2.210000e-06	1.652739e-06	4.031204e-10	1.171533e+01	2.556444e+01
2.220000e-06	1.696600e-06	4.535406e-10	1.202623e+01	2.894193e+01
2.230000e-06	1.740439e-06	5.061947e-10	1.233699e+01	3.230079e+01
2.240000e-06	1.784247e-06	5.556118e-10	1.264751e+01	3.563924e+01
2.250000e-06	1.828002e-06	6.026270e-10	1.295767e+01	3.895556e+01
2.260000e-06	1.871739e-06	6.520698e-10	1.326770e+01	4.224809e+01
2.270000e-06	1.915393e-06	7.035044e-10	1.357713e+01	4.551518e+01
2.280000e-06	1.958872e-06	7.486326e-10	1.388533e+01	4.875523e+01
2.290000e-06	2.002104e-06	7.870686e-10	1.419178e+01	5.196662e+01
2.300000e-06	2.045026e-06	8.270752e-10	1.449603e+01	5.514774e+01
2.310000e-06	2.087714e-06	8.731509e-10	1.479862e+01	5.829694e+01
2.320000e-06	2.130217e-06	9.192112e-10	1.509990e+01	6.141257e+01
2.330000e-06	2.172480e-06	9.609021e-10	1.539948e+01	6.449292e+01
2.340000e-06	2.214552e-06	1.002752e-09	1.569770e+01	6.753626e+01
2.350000e-06	2.256308e-06	1.047508e-09	1.599369e+01	7.054085e+01
2.360000e-06	2.297645e-06	1.093725e-09	1.628671e+01	7.350489e+01
2.370000e-06	2.338644e-06	1.135206e-09	1.657732e+01	7.642657e+01
2.380000e-06	2.379367e-06	1.170277e-09	1.686598e+01	7.930409e+01
2.390000e-06	2.419914e-06	1.208136e-09	1.715340e+01	8.213562e+01
2.400000e-06	2.460249e-06	1.248096e-09	1.743931e+01	8.491939e+01
2.410000e-06	2.500450e-06	1.284453e-09	1.772427e+01	8.765363e+01
2.420000e-06	2.540573e-06	1.318557e-09	1.800868e+01	9.033664e+01
2.430000e-06	2.580592e-06	1.357059e-09	1.829236e+01	9.296678e+01
2.440000e-06	2.620521e-06	1.401480e-09	1.857539e+01	9.554252e+01
2.450000e-06	2.660374e-06	1.442267e-09	1.885788e+01	9.806244e+01
2.460000e-06	2.700210e-06	1.475998e-09	1.914025e+01	1.005252e+02
2.470000e-06	2.739946e-06	1.508898e-09	1.942193e+01	1.029297e+02
2.480000e-06	2.779450e-06	1.541817e-09	1.970195e+01	1.052749e+02
2.490000e-06	2.818737e-06	1.571776e-09	1.998043e+01	1.075601e+02
2.500000e-06	2.857825e-06	1.599646e-09	2.025750e+01	1.097845e+02
2.510000e-06	2.896633e-06	1.630464e-09	2.053259e+01	1.119478e+02
2.520000e-06	2.935168e-06	1.666729e-09	2.080574e+01	1.140497e+02
2.530000e-06	2.973480e-06	1.702007e-09	2.107731e+01	1.160903e+02
2.540000e-06	3.011607e-06	1.728438e-09	2.134757e+01	1.180696e+02
2.550000e-06	3.049585e-06	1.751706e-09	2.161678e+01	1.199882e+02
2.560000e-06	3.087414e-06	1.778951e-09	2.188493e+01	1.218466e+02
2.570000e-06	3.125084e-06	1.804935e-09	2.215195e+01	1.236455e+02
2.580000e-06	3.162554e-06	1.825377e-09	2.241755e+01	1.253860e+02
2.590000e-06	3.199734e-06	1.845569e-09	2.268110e+01	1.270691e+02
2.600000e-06	3.236644e-06	1.873321e-09	2.294274e+01	1.286961e+02
2.610000e-06	3.273316e-06	1.903133e-09	2.320268e+01	1.302684e+02
2.620000e-06	3.309700e-06	1.925935e-09	2.346059e+01	1.317874e+02
2.630000e-06	3.345900e-06	1.946244e-09	2.371719e+01	1.332548e+02
2.640000e-06	3.381970e-06	1.969953e-09	2.397287e+01	1.346721e+02
2.650000e-06	3.417901e-06	1.993064e-09	2.422756e+01	1.360410e+02
2.660000e-06	3.453719e-06	2.008292e-09	2.448145e+01	1.373631e+02
2.670000e-06	3.489382e-06	2.021039e-09	2.473425e+01	1.386402e+02
2.680000e-06	3.524853e-06	2.039047e-09	2.498568e+01	1.398740e+02
2.690000e-06	3.560029e-06	2.060901e-09	2.523503e+01	1.410659e+02
2.700000e-06	3.594837e-06	2.079562e-09	2.548176e+01	1.422177e+02
2.710000e-06	3.629383e-06	2.093223e-09	2.572664e+01	1.433307e+02
2.720000e-06	3.663539e-06	2.109608e-09	2.596875e+01	1.444064e+02
2.730000e-06	3.697101e-06	2.128657e-09	2.620665e+01	1.454461e+02
2.740000e-06	3.730220e-06	2.143173e-09	2.644142e+01	1.464510e+02
2.750000e-06	3.763025e-06	2.153942e-09	2.667395e+01	1.474224e+02
2.760000e-06	3.795493e-06	2.168148e-09	2.690409e+01	1.483611e+02
2.770000e-06	3.827647e-06	2.185292e-09	2.713202e+01	1.492682e+02
2.780000e-06	3.859663e-06	2.198459e-09	2.735896e+01	1.501445e+02
2.790000e-06	3.891653e-06	2.208105e-09	2.758572e+01	1.509909e+02
2.800000e-06	3.923520e-06	2.219387e-09	2.781161e+01	1.518080e+02
2.810000e-06	3.955165e-06	2.232591e-09	2.803592e+01	1.525965e+02
2.820000e-06	3.986488e-06	2.244220e-09	2.825795e+01	1.533569e+02
2.830000e-06	4.017456e-06	2.255383e-09	2.847747e+01	1.540900e+02
2.840000e-06	4.048039e-06	2.265848e-09	2.869425e+01	1.547962e+02
2.850000e-06	4.078223e-06	2.275624e-09	2.890821e+01	1.554760e+02
2.860000e-06	4.108168e-06	2.286448e-09	2.912048e+01	1.561301e+02
2.870000e-06	4.137977e-06	2.295073e-09	2.933178e+01	1.567588e+02
2.880000e-06	4.167640e-06	2.302478e-09	2.954204e+01	1.573630e+02
2.890000e-06	4.197122e-06	2.308885e-09	2.975102e+01	1.579430e+02
2.900000e-06	4.226256e-06	2.314392e-09	2.995754e+01	1.584997e+02
