# Temperatura_=_-6.37
# Concentracion g/m^3_=_4090.0
# C_Vs_to_Am_M_A/Vsm_=_65563218390.804596
# pendiente_HvsI_1/m_=_3716.3
# ordenada_HvsI_A/m_=_1297.0
# frecuencia_Hz_=_135059.81184293074

Tiempo_(s)	Campo_(V.s)	Magnetizacion_(V.s)	Campo_(kA/m)	Magnetizacion_(A/m)
0.000000e+00	-5.405472e-06	-2.072927e-09	-3.840977e+01	-1.310223e+02
1.000000e-08	-5.405444e-06	-2.071504e-09	-3.840957e+01	-1.310125e+02
2.000000e-08	-5.405213e-06	-2.068655e-09	-3.840793e+01	-1.310073e+02
3.000000e-08	-5.404689e-06	-2.066770e-09	-3.840420e+01	-1.310083e+02
4.000000e-08	-5.403713e-06	-2.062122e-09	-3.839727e+01	-1.310167e+02
5.000000e-08	-5.402129e-06	-2.059260e-09	-3.838602e+01	-1.310337e+02
6.000000e-08	-5.399956e-06	-2.074976e-09	-3.837057e+01	-1.310606e+02
7.000000e-08	-5.397247e-06	-2.082789e-09	-3.835132e+01	-1.310984e+02
8.000000e-08	-5.393926e-06	-2.036706e-09	-3.832772e+01	-1.311480e+02
9.000000e-08	-5.390123e-06	-1.999195e-09	-3.830070e+01	-1.312102e+02
1.000000e-07	-5.385960e-06	-2.061927e-09	-3.827112e+01	-1.312853e+02
1.100000e-07	-5.381521e-06	-2.105264e-09	-3.823958e+01	-1.313739e+02
1.200000e-07	-5.376906e-06	-2.061224e-09	-3.820679e+01	-1.314759e+02
1.300000e-07	-5.372052e-06	-1.971997e-09	-3.817230e+01	-1.315912e+02
1.400000e-07	-5.366827e-06	-2.049306e-09	-3.813517e+01	-1.317195e+02
1.500000e-07	-5.361190e-06	-2.122448e-09	-3.809511e+01	-1.318601e+02
1.600000e-07	-5.355192e-06	-2.044690e-09	-3.805249e+01	-1.320123e+02
1.700000e-07	-5.348774e-06	-1.956514e-09	-3.800689e+01	-1.321749e+02
1.800000e-07	-5.341915e-06	-2.007953e-09	-3.795815e+01	-1.323467e+02
1.900000e-07	-5.334694e-06	-2.092378e-09	-3.790684e+01	-1.325262e+02
2.000000e-07	-5.327262e-06	-2.024992e-09	-3.785403e+01	-1.327118e+02
2.100000e-07	-5.319622e-06	-2.001693e-09	-3.779974e+01	-1.329017e+02
2.200000e-07	-5.311695e-06	-2.051014e-09	-3.774341e+01	-1.330939e+02
2.300000e-07	-5.303457e-06	-2.070492e-09	-3.768488e+01	-1.332865e+02
2.400000e-07	-5.294795e-06	-1.998021e-09	-3.762333e+01	-1.334773e+02
2.500000e-07	-5.285479e-06	-2.021234e-09	-3.755713e+01	-1.336644e+02
2.600000e-07	-5.275415e-06	-2.069085e-09	-3.748562e+01	-1.338455e+02
2.700000e-07	-5.264889e-06	-2.038955e-09	-3.741082e+01	-1.340186e+02
2.800000e-07	-5.253896e-06	-1.981117e-09	-3.733271e+01	-1.341817e+02
2.900000e-07	-5.242361e-06	-2.034805e-09	-3.725075e+01	-1.343329e+02
3.000000e-07	-5.230460e-06	-2.057632e-09	-3.716618e+01	-1.344704e+02
3.100000e-07	-5.218219e-06	-1.995199e-09	-3.707920e+01	-1.345925e+02
3.200000e-07	-5.205643e-06	-1.978334e-09	-3.698984e+01	-1.346978e+02
3.300000e-07	-5.192763e-06	-2.036359e-09	-3.689832e+01	-1.347850e+02
3.400000e-07	-5.179475e-06	-2.040164e-09	-3.680390e+01	-1.348530e+02
3.500000e-07	-5.165764e-06	-2.004357e-09	-3.670647e+01	-1.349009e+02
3.600000e-07	-5.151683e-06	-2.010170e-09	-3.660641e+01	-1.349283e+02
3.700000e-07	-5.137089e-06	-2.011990e-09	-3.650272e+01	-1.349345e+02
3.800000e-07	-5.121947e-06	-1.989707e-09	-3.639512e+01	-1.349195e+02
3.900000e-07	-5.106232e-06	-2.001229e-09	-3.628345e+01	-1.348832e+02
4.000000e-07	-5.089921e-06	-2.015445e-09	-3.616755e+01	-1.348260e+02
4.100000e-07	-5.073189e-06	-1.986701e-09	-3.604866e+01	-1.347484e+02
4.200000e-07	-5.056160e-06	-1.992458e-09	-3.592765e+01	-1.346508e+02
4.300000e-07	-5.038806e-06	-2.024679e-09	-3.580435e+01	-1.345342e+02
4.400000e-07	-5.021243e-06	-2.013712e-09	-3.567954e+01	-1.343995e+02
4.500000e-07	-5.003404e-06	-1.961474e-09	-3.555279e+01	-1.342478e+02
4.600000e-07	-4.985137e-06	-1.968817e-09	-3.542299e+01	-1.340802e+02
4.700000e-07	-4.966442e-06	-1.987668e-09	-3.529014e+01	-1.338981e+02
4.800000e-07	-4.947392e-06	-1.982963e-09	-3.515478e+01	-1.337026e+02
4.900000e-07	-4.928067e-06	-1.963859e-09	-3.501747e+01	-1.334952e+02
5.000000e-07	-4.908463e-06	-1.981414e-09	-3.487816e+01	-1.332772e+02
5.100000e-07	-4.888588e-06	-1.994086e-09	-3.473694e+01	-1.330498e+02
5.200000e-07	-4.868458e-06	-1.996535e-09	-3.459390e+01	-1.328144e+02
5.300000e-07	-4.848147e-06	-1.973520e-09	-3.444958e+01	-1.325720e+02
5.400000e-07	-4.827582e-06	-1.961319e-09	-3.430344e+01	-1.323240e+02
5.500000e-07	-4.806585e-06	-1.954519e-09	-3.415425e+01	-1.320712e+02
5.600000e-07	-4.785227e-06	-1.963499e-09	-3.400248e+01	-1.318147e+02
5.700000e-07	-4.763545e-06	-1.957980e-09	-3.384842e+01	-1.315553e+02
5.800000e-07	-4.741592e-06	-1.948244e-09	-3.369243e+01	-1.312936e+02
5.900000e-07	-4.719393e-06	-1.944398e-09	-3.353469e+01	-1.310303e+02
6.000000e-07	-4.696790e-06	-1.961640e-09	-3.337407e+01	-1.307658e+02
6.100000e-07	-4.673798e-06	-1.959497e-09	-3.321070e+01	-1.305006e+02
6.200000e-07	-4.650467e-06	-1.932332e-09	-3.304492e+01	-1.302347e+02
6.300000e-07	-4.626823e-06	-1.917188e-09	-3.287691e+01	-1.299685e+02
6.400000e-07	-4.602981e-06	-1.926992e-09	-3.270750e+01	-1.297020e+02
6.500000e-07	-4.579010e-06	-1.926448e-09	-3.253716e+01	-1.294350e+02
6.600000e-07	-4.554835e-06	-1.912608e-09	-3.236538e+01	-1.291676e+02
6.700000e-07	-4.530389e-06	-1.907797e-09	-3.219167e+01	-1.288995e+02
6.800000e-07	-4.505568e-06	-1.911827e-09	-3.201531e+01	-1.286305e+02
6.900000e-07	-4.480206e-06	-1.917676e-09	-3.183509e+01	-1.283605e+02
7.000000e-07	-4.454262e-06	-1.911336e-09	-3.165073e+01	-1.280890e+02
7.100000e-07	-4.427738e-06	-1.896317e-09	-3.146227e+01	-1.278158e+02
7.200000e-07	-4.400722e-06	-1.884824e-09	-3.127029e+01	-1.275406e+02
7.300000e-07	-4.373345e-06	-1.891351e-09	-3.107576e+01	-1.272631e+02
7.400000e-07	-4.345642e-06	-1.886253e-09	-3.087892e+01	-1.269830e+02
7.500000e-07	-4.317710e-06	-1.874491e-09	-3.068044e+01	-1.267000e+02
7.600000e-07	-4.289627e-06	-1.865839e-09	-3.048089e+01	-1.264138e+02
7.700000e-07	-4.261379e-06	-1.869946e-09	-3.028016e+01	-1.261242e+02
7.800000e-07	-4.232880e-06	-1.867055e-09	-3.007766e+01	-1.258310e+02
7.900000e-07	-4.204067e-06	-1.860093e-09	-2.987293e+01	-1.255340e+02
8.000000e-07	-4.174925e-06	-1.846712e-09	-2.966585e+01	-1.252330e+02
8.100000e-07	-4.145434e-06	-1.843634e-09	-2.945629e+01	-1.249278e+02
8.200000e-07	-4.115614e-06	-1.842005e-09	-2.924440e+01	-1.246182e+02
8.300000e-07	-4.085606e-06	-1.837545e-09	-2.903117e+01	-1.243042e+02
8.400000e-07	-4.055407e-06	-1.826388e-09	-2.881659e+01	-1.239856e+02
8.500000e-07	-4.024934e-06	-1.824601e-09	-2.860005e+01	-1.236622e+02
8.600000e-07	-3.994221e-06	-1.822812e-09	-2.838181e+01	-1.233340e+02
8.700000e-07	-3.963195e-06	-1.818154e-09	-2.816135e+01	-1.230007e+02
8.800000e-07	-3.931889e-06	-1.804971e-09	-2.793890e+01	-1.226623e+02
8.900000e-07	-3.900401e-06	-1.797426e-09	-2.771516e+01	-1.223185e+02
9.000000e-07	-3.868710e-06	-1.797640e-09	-2.748997e+01	-1.219691e+02
9.100000e-07	-3.836851e-06	-1.798042e-09	-2.726359e+01	-1.216141e+02
9.200000e-07	-3.804784e-06	-1.789783e-09	-2.703573e+01	-1.212530e+02
9.300000e-07	-3.772432e-06	-1.781778e-09	-2.680584e+01	-1.208859e+02
9.400000e-07	-3.739852e-06	-1.778819e-09	-2.657434e+01	-1.205123e+02
9.500000e-07	-3.707077e-06	-1.775069e-09	-2.634145e+01	-1.201320e+02
9.600000e-07	-3.673970e-06	-1.766866e-09	-2.610620e+01	-1.197449e+02
9.700000e-07	-3.640358e-06	-1.759591e-09	-2.586737e+01	-1.193507e+02
9.800000e-07	-3.606155e-06	-1.756434e-09	-2.562433e+01	-1.189491e+02
9.900000e-07	-3.571515e-06	-1.752530e-09	-2.537819e+01	-1.185400e+02
1.000000e-06	-3.536563e-06	-1.747427e-09	-2.512983e+01	-1.181232e+02
1.010000e-06	-3.501317e-06	-1.740560e-09	-2.487938e+01	-1.176985e+02
1.020000e-06	-3.465863e-06	-1.736134e-09	-2.462745e+01	-1.172658e+02
1.030000e-06	-3.430229e-06	-1.727062e-09	-2.437425e+01	-1.168252e+02
1.040000e-06	-3.394459e-06	-1.718895e-09	-2.412007e+01	-1.163765e+02
1.050000e-06	-3.358516e-06	-1.707691e-09	-2.386468e+01	-1.159199e+02
1.060000e-06	-3.322389e-06	-1.699553e-09	-2.360796e+01	-1.154554e+02
1.070000e-06	-3.286104e-06	-1.691422e-09	-2.335013e+01	-1.149832e+02
1.080000e-06	-3.249615e-06	-1.683022e-09	-2.309085e+01	-1.145035e+02
1.090000e-06	-3.212812e-06	-1.672854e-09	-2.282934e+01	-1.140167e+02
1.100000e-06	-3.175732e-06	-1.667744e-09	-2.256586e+01	-1.135230e+02
1.110000e-06	-3.138441e-06	-1.662539e-09	-2.230088e+01	-1.130228e+02
1.120000e-06	-3.100988e-06	-1.657464e-09	-2.203475e+01	-1.125166e+02
1.130000e-06	-3.063385e-06	-1.649198e-09	-2.176756e+01	-1.120048e+02
1.140000e-06	-3.025506e-06	-1.639892e-09	-2.149840e+01	-1.114878e+02
1.150000e-06	-2.987404e-06	-1.631086e-09	-2.122765e+01	-1.109661e+02
1.160000e-06	-2.949166e-06	-1.621749e-09	-2.095595e+01	-1.104402e+02
1.170000e-06	-2.910675e-06	-1.608771e-09	-2.068244e+01	-1.099105e+02
1.180000e-06	-2.871917e-06	-1.599800e-09	-2.040703e+01	-1.093774e+02
1.190000e-06	-2.832939e-06	-1.594715e-09	-2.013007e+01	-1.088412e+02
1.200000e-06	-2.793805e-06	-1.590638e-09	-1.985199e+01	-1.083023e+02
1.210000e-06	-2.754565e-06	-1.579424e-09	-1.957317e+01	-1.077608e+02
1.220000e-06	-2.715053e-06	-1.565927e-09	-1.929241e+01	-1.072169e+02
1.230000e-06	-2.675324e-06	-1.554119e-09	-1.901010e+01	-1.066706e+02
1.240000e-06	-2.635517e-06	-1.543185e-09	-1.872725e+01	-1.061218e+02
1.250000e-06	-2.595619e-06	-1.532194e-09	-1.844374e+01	-1.055702e+02
1.260000e-06	-2.555637e-06	-1.520899e-09	-1.815964e+01	-1.050157e+02
1.270000e-06	-2.515572e-06	-1.513990e-09	-1.787495e+01	-1.044578e+02
1.280000e-06	-2.475396e-06	-1.508267e-09	-1.758947e+01	-1.038958e+02
1.290000e-06	-2.435078e-06	-1.500770e-09	-1.730298e+01	-1.033292e+02
1.300000e-06	-2.394577e-06	-1.489592e-09	-1.701519e+01	-1.027571e+02
1.310000e-06	-2.353909e-06	-1.477939e-09	-1.672622e+01	-1.021788e+02
1.320000e-06	-2.313077e-06	-1.465799e-09	-1.643608e+01	-1.015932e+02
1.330000e-06	-2.272016e-06	-1.451320e-09	-1.614431e+01	-1.009994e+02
1.340000e-06	-2.230645e-06	-1.437221e-09	-1.585034e+01	-1.003962e+02
1.350000e-06	-2.188937e-06	-1.429243e-09	-1.555398e+01	-9.978260e+01
1.360000e-06	-2.146881e-06	-1.424009e-09	-1.525514e+01	-9.915743e+01
1.370000e-06	-2.104476e-06	-1.418056e-09	-1.495382e+01	-9.851958e+01
1.380000e-06	-2.061790e-06	-1.404894e-09	-1.465050e+01	-9.786795e+01
1.390000e-06	-2.018892e-06	-1.388819e-09	-1.434568e+01	-9.720150e+01
1.400000e-06	-1.975823e-06	-1.373954e-09	-1.403964e+01	-9.651924e+01
1.410000e-06	-1.932594e-06	-1.359345e-09	-1.373247e+01	-9.582027e+01
1.420000e-06	-1.889199e-06	-1.341548e-09	-1.342412e+01	-9.510380e+01
1.430000e-06	-1.845679e-06	-1.327582e-09	-1.311488e+01	-9.436916e+01
1.440000e-06	-1.802072e-06	-1.318416e-09	-1.280502e+01	-9.361578e+01
1.450000e-06	-1.758369e-06	-1.312302e-09	-1.249448e+01	-9.284328e+01
1.460000e-06	-1.714536e-06	-1.300684e-09	-1.218301e+01	-9.205138e+01
1.470000e-06	-1.670588e-06	-1.286359e-09	-1.187073e+01	-9.124000e+01
1.480000e-06	-1.626614e-06	-1.271819e-09	-1.155827e+01	-9.040917e+01
1.490000e-06	-1.582616e-06	-1.257767e-09	-1.124563e+01	-8.955910e+01
1.500000e-06	-1.538518e-06	-1.240272e-09	-1.093228e+01	-8.869013e+01
1.510000e-06	-1.494302e-06	-1.220308e-09	-1.061809e+01	-8.780274e+01
1.520000e-06	-1.450025e-06	-1.204049e-09	-1.030347e+01	-8.689754e+01
1.530000e-06	-1.405709e-06	-1.194308e-09	-9.988575e+00	-8.597524e+01
1.540000e-06	-1.361345e-06	-1.186272e-09	-9.673339e+00	-8.503662e+01
1.550000e-06	-1.316935e-06	-1.173330e-09	-9.357771e+00	-8.408255e+01
1.560000e-06	-1.272459e-06	-1.159694e-09	-9.041736e+00	-8.311395e+01
1.570000e-06	-1.227871e-06	-1.148937e-09	-8.724909e+00	-8.213174e+01
1.580000e-06	-1.183207e-06	-1.135431e-09	-8.407538e+00	-8.113684e+01
1.590000e-06	-1.138461e-06	-1.115588e-09	-8.089585e+00	-8.013015e+01
1.600000e-06	-1.093563e-06	-1.093993e-09	-7.770551e+00	-7.911252e+01
1.610000e-06	-1.048520e-06	-1.075630e-09	-7.450492e+00	-7.808471e+01
1.620000e-06	-1.003402e-06	-1.061298e-09	-7.129896e+00	-7.704740e+01
1.630000e-06	-9.582459e-07	-1.045665e-09	-6.809027e+00	-7.600113e+01
1.640000e-06	-9.130916e-07	-1.032625e-09	-6.488173e+00	-7.494634e+01
1.650000e-06	-8.678472e-07	-1.024047e-09	-6.166679e+00	-7.388328e+01
1.660000e-06	-8.224445e-07	-1.015344e-09	-5.844060e+00	-7.281207e+01
1.670000e-06	-7.770712e-07	-9.991999e-10	-5.521650e+00	-7.173265e+01
1.680000e-06	-7.317664e-07	-9.740894e-10	-5.199727e+00	-7.064479e+01
1.690000e-06	-6.863003e-07	-9.459743e-10	-4.876657e+00	-6.954808e+01
1.700000e-06	-6.406697e-07	-9.264970e-10	-4.552420e+00	-6.844197e+01
1.710000e-06	-5.950280e-07	-9.119030e-10	-4.228102e+00	-6.732572e+01
1.720000e-06	-5.493797e-07	-8.976890e-10	-3.903738e+00	-6.619845e+01
1.730000e-06	-5.037319e-07	-8.847090e-10	-3.579378e+00	-6.505915e+01
1.740000e-06	-4.580663e-07	-8.742357e-10	-3.254891e+00	-6.390670e+01
1.750000e-06	-4.124134e-07	-8.586046e-10	-2.930494e+00	-6.273988e+01
1.760000e-06	-3.667437e-07	-8.363356e-10	-2.605978e+00	-6.155738e+01
1.770000e-06	-3.209934e-07	-8.115293e-10	-2.280889e+00	-6.035786e+01
1.780000e-06	-2.751679e-07	-7.921923e-10	-1.955266e+00	-5.913995e+01
1.790000e-06	-2.293130e-07	-7.761077e-10	-1.629434e+00	-5.790228e+01
1.800000e-06	-1.834936e-07	-7.561356e-10	-1.303854e+00	-5.664352e+01
1.810000e-06	-1.377097e-07	-7.344958e-10	-9.785264e-01	-5.536237e+01
1.820000e-06	-9.191438e-08	-7.151595e-10	-6.531178e-01	-5.405763e+01
1.830000e-06	-4.610658e-08	-6.974288e-10	-3.276205e-01	-5.272818e+01
1.840000e-06	-2.679711e-10	-6.777331e-10	-1.904128e-03	-5.137302e+01
1.850000e-06	4.557479e-08	-6.553945e-10	3.238417e-01	-4.999129e+01
1.860000e-06	9.138014e-08	-6.335285e-10	6.493217e-01	-4.858228e+01
1.870000e-06	1.372105e-07	-6.130945e-10	9.749797e-01	-4.714543e+01
1.880000e-06	1.830658e-07	-5.900991e-10	1.300814e+00	-4.568037e+01
1.890000e-06	2.289326e-07	-5.645423e-10	1.626731e+00	-4.418686e+01
1.900000e-06	2.747721e-07	-5.398836e-10	1.952453e+00	-4.266487e+01
1.910000e-06	3.205789e-07	-5.158722e-10	2.277944e+00	-4.111450e+01
1.920000e-06	3.663973e-07	-4.921491e-10	2.603516e+00	-3.953603e+01
1.930000e-06	4.122031e-07	-4.714011e-10	2.929000e+00	-3.792989e+01
1.940000e-06	4.579205e-07	-4.513503e-10	3.253854e+00	-3.629663e+01
1.950000e-06	5.035214e-07	-4.322804e-10	3.577882e+00	-3.463692e+01
1.960000e-06	5.490676e-07	-4.105614e-10	3.901521e+00	-3.295154e+01
1.970000e-06	5.945804e-07	-3.825768e-10	4.224921e+00	-3.124134e+01
1.980000e-06	6.401476e-07	-3.494607e-10	4.548709e+00	-2.950724e+01
1.990000e-06	6.857109e-07	-3.188243e-10	4.872470e+00	-2.775019e+01
2.000000e-06	7.311416e-07	-2.926035e-10	5.195287e+00	-2.597117e+01
2.010000e-06	7.765660e-07	-2.679633e-10	5.518061e+00	-2.417116e+01
2.020000e-06	8.219993e-07	-2.435221e-10	5.840896e+00	-2.235112e+01
2.030000e-06	8.672801e-07	-2.201375e-10	6.162650e+00	-2.051197e+01
2.040000e-06	9.123668e-07	-1.957935e-10	6.483023e+00	-1.865461e+01
2.050000e-06	9.574472e-07	-1.688750e-10	6.803352e+00	-1.677983e+01
2.060000e-06	1.002609e-06	-1.392664e-10	7.124261e+00	-1.488841e+01
2.070000e-06	1.047685e-06	-1.096563e-10	7.444559e+00	-1.298103e+01
2.080000e-06	1.092645e-06	-8.158013e-11	7.764030e+00	-1.105829e+01
2.090000e-06	1.137538e-06	-5.512097e-11	8.083026e+00	-9.120746e+00
2.100000e-06	1.182290e-06	-2.790521e-11	8.401021e+00	-7.168860e+00
2.110000e-06	1.226875e-06	1.828262e-12	8.717833e+00	-5.203056e+00
2.120000e-06	1.271346e-06	3.043265e-11	9.033826e+00	-3.223707e+00
2.130000e-06	1.315683e-06	6.025979e-11	9.348872e+00	-1.231158e+00
2.140000e-06	1.359922e-06	9.468032e-11	9.663227e+00	7.742602e-01
2.150000e-06	1.404161e-06	1.295402e-10	9.977572e+00	2.792213e+00
2.160000e-06	1.448361e-06	1.590051e-10	1.029164e+01	4.822338e+00
2.170000e-06	1.492467e-06	1.861773e-10	1.060505e+01	6.864228e+00
2.180000e-06	1.536532e-06	2.155862e-10	1.091817e+01	8.917409e+00
2.190000e-06	1.580560e-06	2.445580e-10	1.123102e+01	1.098132e+01
2.200000e-06	1.624529e-06	2.705025e-10	1.154345e+01	1.305529e+01
2.210000e-06	1.668452e-06	2.974773e-10	1.185555e+01	1.513852e+01
2.220000e-06	1.712324e-06	3.306605e-10	1.216729e+01	1.723008e+01
2.230000e-06	1.756096e-06	3.655085e-10	1.247833e+01	1.932889e+01
2.240000e-06	1.799757e-06	3.934660e-10	1.278857e+01	2.143368e+01
2.250000e-06	1.843342e-06	4.182625e-10	1.309827e+01	2.354304e+01
2.260000e-06	1.886869e-06	4.472914e-10	1.340756e+01	2.565538e+01
2.270000e-06	1.930236e-06	4.798666e-10	1.371572e+01	2.776894e+01
2.280000e-06	1.973361e-06	5.079640e-10	1.402215e+01	2.988178e+01
2.290000e-06	2.016300e-06	5.319162e-10	1.432726e+01	3.199183e+01
2.300000e-06	2.059052e-06	5.612553e-10	1.463104e+01	3.409688e+01
2.310000e-06	2.101551e-06	5.948770e-10	1.493303e+01	3.619457e+01
2.320000e-06	2.143829e-06	6.235496e-10	1.523345e+01	3.828248e+01
2.330000e-06	2.185855e-06	6.470839e-10	1.553207e+01	4.035808e+01
2.340000e-06	2.227518e-06	6.734677e-10	1.582812e+01	4.241882e+01
2.350000e-06	2.268910e-06	7.067809e-10	1.612224e+01	4.446212e+01
2.360000e-06	2.310090e-06	7.397202e-10	1.641485e+01	4.648541e+01
2.370000e-06	2.351032e-06	7.652134e-10	1.670577e+01	4.848618e+01
2.380000e-06	2.391703e-06	7.899127e-10	1.699477e+01	5.046199e+01
2.390000e-06	2.432079e-06	8.187346e-10	1.728167e+01	5.241050e+01
2.400000e-06	2.472270e-06	8.448515e-10	1.756725e+01	5.432955e+01
2.410000e-06	2.512362e-06	8.646162e-10	1.785214e+01	5.621709e+01
2.420000e-06	2.552384e-06	8.859720e-10	1.813653e+01	5.807133e+01
2.430000e-06	2.592331e-06	9.167357e-10	1.842038e+01	5.989067e+01
2.440000e-06	2.632186e-06	9.519537e-10	1.870358e+01	6.167373e+01
2.450000e-06	2.671962e-06	9.789781e-10	1.898622e+01	6.341943e+01
2.460000e-06	2.711628e-06	9.995452e-10	1.926807e+01	6.512693e+01
2.470000e-06	2.751089e-06	1.021465e-09	1.954847e+01	6.679566e+01
2.480000e-06	2.790376e-06	1.044239e-09	1.982763e+01	6.842534e+01
2.490000e-06	2.829465e-06	1.063187e-09	2.010538e+01	7.001597e+01
2.500000e-06	2.868181e-06	1.078733e-09	2.038049e+01	7.156778e+01
2.510000e-06	2.906713e-06	1.100105e-09	2.065429e+01	7.308128e+01
2.520000e-06	2.945162e-06	1.129286e-09	2.092750e+01	7.455721e+01
2.530000e-06	2.983339e-06	1.154700e-09	2.119877e+01	7.599652e+01
2.540000e-06	3.021287e-06	1.170538e-09	2.146842e+01	7.740035e+01
2.550000e-06	3.059108e-06	1.187490e-09	2.173717e+01	7.876999e+01
2.560000e-06	3.096733e-06	1.209386e-09	2.200452e+01	8.010688e+01
2.570000e-06	3.134095e-06	1.226712e-09	2.227000e+01	8.141254e+01
2.580000e-06	3.171241e-06	1.238540e-09	2.253395e+01	8.268857e+01
2.590000e-06	3.208133e-06	1.254750e-09	2.279609e+01	8.393659e+01
2.600000e-06	3.244674e-06	1.278523e-09	2.305574e+01	8.515824e+01
2.610000e-06	3.281004e-06	1.303256e-09	2.331389e+01	8.635509e+01
2.620000e-06	3.317258e-06	1.323140e-09	2.357150e+01	8.752869e+01
2.630000e-06	3.353368e-06	1.340261e-09	2.382809e+01	8.868048e+01
2.640000e-06	3.389297e-06	1.357256e-09	2.408340e+01	8.981177e+01
2.650000e-06	3.425120e-06	1.369677e-09	2.433794e+01	9.092377e+01
2.660000e-06	3.460892e-06	1.377007e-09	2.459213e+01	9.201749e+01
2.670000e-06	3.496540e-06	1.387323e-09	2.484543e+01	9.309382e+01
2.680000e-06	3.531860e-06	1.405871e-09	2.509641e+01	9.415343e+01
2.690000e-06	3.566829e-06	1.428294e-09	2.534488e+01	9.519684e+01
2.700000e-06	3.601349e-06	1.446984e-09	2.559018e+01	9.622438e+01
2.710000e-06	3.635406e-06	1.462592e-09	2.583217e+01	9.723620e+01
2.720000e-06	3.669085e-06	1.479368e-09	2.607149e+01	9.823228e+01
2.730000e-06	3.702349e-06	1.495660e-09	2.630785e+01	9.921245e+01
2.740000e-06	3.735264e-06	1.505686e-09	2.654174e+01	1.001764e+02
2.750000e-06	3.767843e-06	1.509968e-09	2.677324e+01	1.011237e+02
2.760000e-06	3.800143e-06	1.517054e-09	2.700275e+01	1.020539e+02
2.770000e-06	3.832246e-06	1.532589e-09	2.723087e+01	1.029662e+02
2.780000e-06	3.864199e-06	1.551428e-09	2.745792e+01	1.038601e+02
2.790000e-06	3.895995e-06	1.568706e-09	2.768385e+01	1.047350e+02
2.800000e-06	3.927530e-06	1.586111e-09	2.790793e+01	1.055900e+02
2.810000e-06	3.958816e-06	1.602608e-09	2.813024e+01	1.064246e+02
2.820000e-06	3.989899e-06	1.612825e-09	2.835110e+01	1.072382e+02
2.830000e-06	4.020649e-06	1.615862e-09	2.856960e+01	1.080303e+02
2.840000e-06	4.051033e-06	1.617915e-09	2.878550e+01	1.088003e+02
2.850000e-06	4.081181e-06	1.625412e-09	2.899973e+01	1.095481e+02
2.860000e-06	4.111121e-06	1.639564e-09	2.921247e+01	1.102733e+02
2.870000e-06	4.140814e-06	1.655399e-09	2.942346e+01	1.109760e+02
2.880000e-06	4.170322e-06	1.668941e-09	2.963314e+01	1.116561e+02
2.890000e-06	4.199509e-06	1.677733e-09	2.984053e+01	1.123140e+02
2.900000e-06	4.228310e-06	1.683838e-09	3.004519e+01	1.129499e+02
