# Temperatura_=_-3.32
# Concentracion g/m^3_=_4090.0
# C_Vs_to_Am_M_A/Vsm_=_65563218390.804596
# pendiente_HvsI_1/m_=_3716.3
# ordenada_HvsI_A/m_=_1297.0
# frecuencia_Hz_=_135078.0596190486

Tiempo_(s)	Campo_(V.s)	Magnetizacion_(V.s)	Campo_(kA/m)	Magnetizacion_(A/m)
0.000000e+00	-5.428947e-06	-2.374886e-09	-3.839879e+01	-1.520071e+02
1.000000e-08	-5.429029e-06	-2.373533e-09	-3.839937e+01	-1.519869e+02
2.000000e-08	-5.428958e-06	-2.371288e-09	-3.839886e+01	-1.519697e+02
3.000000e-08	-5.428653e-06	-2.371105e-09	-3.839671e+01	-1.519562e+02
4.000000e-08	-5.427974e-06	-2.371033e-09	-3.839191e+01	-1.519476e+02
5.000000e-08	-5.426811e-06	-2.367767e-09	-3.838368e+01	-1.519446e+02
6.000000e-08	-5.425090e-06	-2.364036e-09	-3.837151e+01	-1.519481e+02
7.000000e-08	-5.422652e-06	-2.366633e-09	-3.835426e+01	-1.519590e+02
8.000000e-08	-5.419575e-06	-2.372453e-09	-3.833250e+01	-1.519780e+02
9.000000e-08	-5.416001e-06	-2.382394e-09	-3.830722e+01	-1.520056e+02
1.000000e-07	-5.411948e-06	-2.379053e-09	-3.827855e+01	-1.520425e+02
1.100000e-07	-5.407679e-06	-2.359067e-09	-3.824835e+01	-1.520889e+02
1.200000e-07	-5.403363e-06	-2.339837e-09	-3.821783e+01	-1.521453e+02
1.300000e-07	-5.398874e-06	-2.363816e-09	-3.818608e+01	-1.522118e+02
1.400000e-07	-5.393790e-06	-2.366937e-09	-3.815012e+01	-1.522883e+02
1.500000e-07	-5.388154e-06	-2.335335e-09	-3.811026e+01	-1.523748e+02
1.600000e-07	-5.382330e-06	-2.331749e-09	-3.806906e+01	-1.524711e+02
1.700000e-07	-5.376207e-06	-2.376899e-09	-3.802576e+01	-1.525766e+02
1.800000e-07	-5.369540e-06	-2.387387e-09	-3.797860e+01	-1.526910e+02
1.900000e-07	-5.362471e-06	-2.346462e-09	-3.792860e+01	-1.528134e+02
2.000000e-07	-5.355233e-06	-2.336772e-09	-3.787741e+01	-1.529432e+02
2.100000e-07	-5.347675e-06	-2.364022e-09	-3.782395e+01	-1.530794e+02
2.200000e-07	-5.339800e-06	-2.363139e-09	-3.776825e+01	-1.532211e+02
2.300000e-07	-5.331764e-06	-2.335216e-09	-3.771141e+01	-1.533670e+02
2.400000e-07	-5.323465e-06	-2.348777e-09	-3.765271e+01	-1.535160e+02
2.500000e-07	-5.314622e-06	-2.380890e-09	-3.759017e+01	-1.536669e+02
2.600000e-07	-5.305019e-06	-2.393728e-09	-3.752225e+01	-1.538183e+02
2.700000e-07	-5.294725e-06	-2.391647e-09	-3.744944e+01	-1.539688e+02
2.800000e-07	-5.283833e-06	-2.412737e-09	-3.737240e+01	-1.541172e+02
2.900000e-07	-5.272417e-06	-2.413251e-09	-3.729165e+01	-1.542620e+02
3.000000e-07	-5.260654e-06	-2.384139e-09	-3.720846e+01	-1.544019e+02
3.100000e-07	-5.248564e-06	-2.391352e-09	-3.712294e+01	-1.545354e+02
3.200000e-07	-5.236063e-06	-2.432680e-09	-3.703452e+01	-1.546613e+02
3.300000e-07	-5.223219e-06	-2.415234e-09	-3.694367e+01	-1.547783e+02
3.400000e-07	-5.210032e-06	-2.384399e-09	-3.685041e+01	-1.548852e+02
3.500000e-07	-5.196389e-06	-2.405444e-09	-3.675391e+01	-1.549810e+02
3.600000e-07	-5.182337e-06	-2.431411e-09	-3.665452e+01	-1.550646e+02
3.700000e-07	-5.168010e-06	-2.404677e-09	-3.655318e+01	-1.551351e+02
3.800000e-07	-5.153264e-06	-2.390130e-09	-3.644889e+01	-1.551917e+02
3.900000e-07	-5.137637e-06	-2.398204e-09	-3.633836e+01	-1.552337e+02
4.000000e-07	-5.121377e-06	-2.395547e-09	-3.622335e+01	-1.552607e+02
4.100000e-07	-5.104868e-06	-2.400405e-09	-3.610658e+01	-1.552722e+02
4.200000e-07	-5.087991e-06	-2.405925e-09	-3.598721e+01	-1.552679e+02
4.300000e-07	-5.070738e-06	-2.386982e-09	-3.586519e+01	-1.552478e+02
4.400000e-07	-5.053187e-06	-2.375461e-09	-3.574105e+01	-1.552119e+02
4.500000e-07	-5.035369e-06	-2.396066e-09	-3.561502e+01	-1.551602e+02
4.600000e-07	-5.017274e-06	-2.392858e-09	-3.548703e+01	-1.550932e+02
4.700000e-07	-4.998858e-06	-2.367261e-09	-3.535678e+01	-1.550113e+02
4.800000e-07	-4.980019e-06	-2.370388e-09	-3.522353e+01	-1.549150e+02
4.900000e-07	-4.960712e-06	-2.390260e-09	-3.508697e+01	-1.548051e+02
5.000000e-07	-4.941039e-06	-2.384537e-09	-3.494783e+01	-1.546823e+02
5.100000e-07	-4.921199e-06	-2.372371e-09	-3.480750e+01	-1.545475e+02
5.200000e-07	-4.901136e-06	-2.366255e-09	-3.466559e+01	-1.544017e+02
5.300000e-07	-4.880797e-06	-2.371225e-09	-3.452174e+01	-1.542460e+02
5.400000e-07	-4.860198e-06	-2.380622e-09	-3.437604e+01	-1.540815e+02
5.500000e-07	-4.839296e-06	-2.375035e-09	-3.422820e+01	-1.539094e+02
5.600000e-07	-4.817990e-06	-2.353814e-09	-3.407750e+01	-1.537309e+02
5.700000e-07	-4.796318e-06	-2.354324e-09	-3.392422e+01	-1.535472e+02
5.800000e-07	-4.774442e-06	-2.363762e-09	-3.376949e+01	-1.533596e+02
5.900000e-07	-4.752269e-06	-2.351948e-09	-3.361266e+01	-1.531692e+02
6.000000e-07	-4.729712e-06	-2.337197e-09	-3.345312e+01	-1.529772e+02
6.100000e-07	-4.706821e-06	-2.341522e-09	-3.329121e+01	-1.527848e+02
6.200000e-07	-4.683511e-06	-2.345947e-09	-3.312634e+01	-1.525930e+02
6.300000e-07	-4.659890e-06	-2.343200e-09	-3.295927e+01	-1.524028e+02
6.400000e-07	-4.636089e-06	-2.334081e-09	-3.279092e+01	-1.522151e+02
6.500000e-07	-4.612066e-06	-2.322296e-09	-3.262101e+01	-1.520307e+02
6.600000e-07	-4.587865e-06	-2.318916e-09	-3.244984e+01	-1.518503e+02
6.700000e-07	-4.563440e-06	-2.322313e-09	-3.227708e+01	-1.516744e+02
6.800000e-07	-4.538678e-06	-2.314117e-09	-3.210194e+01	-1.515036e+02
6.900000e-07	-4.513405e-06	-2.302128e-09	-3.192318e+01	-1.513380e+02
7.000000e-07	-4.487531e-06	-2.302823e-09	-3.174018e+01	-1.511778e+02
7.100000e-07	-4.461094e-06	-2.306363e-09	-3.155319e+01	-1.510231e+02
7.200000e-07	-4.434108e-06	-2.302005e-09	-3.136232e+01	-1.508737e+02
7.300000e-07	-4.406668e-06	-2.295079e-09	-3.116823e+01	-1.507294e+02
7.400000e-07	-4.378947e-06	-2.294272e-09	-3.097217e+01	-1.505898e+02
7.500000e-07	-4.351046e-06	-2.295877e-09	-3.077482e+01	-1.504544e+02
7.600000e-07	-4.322964e-06	-2.291663e-09	-3.057620e+01	-1.503226e+02
7.700000e-07	-4.294707e-06	-2.278162e-09	-3.037634e+01	-1.501937e+02
7.800000e-07	-4.266251e-06	-2.271500e-09	-3.017507e+01	-1.500668e+02
7.900000e-07	-4.237475e-06	-2.272629e-09	-2.997154e+01	-1.499410e+02
8.000000e-07	-4.208356e-06	-2.270352e-09	-2.976558e+01	-1.498155e+02
8.100000e-07	-4.178931e-06	-2.263262e-09	-2.955746e+01	-1.496891e+02
8.200000e-07	-4.149238e-06	-2.266505e-09	-2.934744e+01	-1.495610e+02
8.300000e-07	-4.119289e-06	-2.277892e-09	-2.913561e+01	-1.494300e+02
8.400000e-07	-4.089031e-06	-2.280115e-09	-2.892160e+01	-1.492951e+02
8.500000e-07	-4.058490e-06	-2.266535e-09	-2.870558e+01	-1.491554e+02
8.600000e-07	-4.027738e-06	-2.249054e-09	-2.848808e+01	-1.490098e+02
8.700000e-07	-3.996692e-06	-2.239948e-09	-2.826849e+01	-1.488575e+02
8.800000e-07	-3.965361e-06	-2.237351e-09	-2.804689e+01	-1.486978e+02
8.900000e-07	-3.933740e-06	-2.233140e-09	-2.782323e+01	-1.485297e+02
9.000000e-07	-3.901881e-06	-2.231973e-09	-2.759789e+01	-1.483528e+02
9.100000e-07	-3.869894e-06	-2.239640e-09	-2.737165e+01	-1.481664e+02
9.200000e-07	-3.837747e-06	-2.249871e-09	-2.714427e+01	-1.479702e+02
9.300000e-07	-3.805379e-06	-2.248871e-09	-2.691533e+01	-1.477639e+02
9.400000e-07	-3.772729e-06	-2.235532e-09	-2.668441e+01	-1.475474e+02
9.500000e-07	-3.739856e-06	-2.221495e-09	-2.645189e+01	-1.473206e+02
9.600000e-07	-3.706738e-06	-2.213799e-09	-2.621765e+01	-1.470836e+02
9.700000e-07	-3.673094e-06	-2.209733e-09	-2.597969e+01	-1.468366e+02
9.800000e-07	-3.638906e-06	-2.204885e-09	-2.573788e+01	-1.465800e+02
9.900000e-07	-3.604340e-06	-2.203284e-09	-2.549339e+01	-1.463142e+02
1.000000e-06	-3.569362e-06	-2.208229e-09	-2.524600e+01	-1.460397e+02
1.010000e-06	-3.534126e-06	-2.213540e-09	-2.499677e+01	-1.457573e+02
1.020000e-06	-3.498650e-06	-2.210100e-09	-2.474585e+01	-1.454674e+02
1.030000e-06	-3.462855e-06	-2.198620e-09	-2.449267e+01	-1.451710e+02
1.040000e-06	-3.426904e-06	-2.187755e-09	-2.423839e+01	-1.448688e+02
1.050000e-06	-3.390868e-06	-2.180033e-09	-2.398352e+01	-1.445616e+02
1.060000e-06	-3.354681e-06	-2.171446e-09	-2.372756e+01	-1.442501e+02
1.070000e-06	-3.318353e-06	-2.163675e-09	-2.347061e+01	-1.439353e+02
1.080000e-06	-3.281801e-06	-2.159445e-09	-2.321209e+01	-1.436177e+02
1.090000e-06	-3.244946e-06	-2.158591e-09	-2.295141e+01	-1.432982e+02
1.100000e-06	-3.207822e-06	-2.157072e-09	-2.268883e+01	-1.429774e+02
1.110000e-06	-3.170472e-06	-2.151202e-09	-2.242466e+01	-1.426558e+02
1.120000e-06	-3.132910e-06	-2.141639e-09	-2.215898e+01	-1.423340e+02
1.130000e-06	-3.095086e-06	-2.132483e-09	-2.189146e+01	-1.420122e+02
1.140000e-06	-3.057136e-06	-2.124113e-09	-2.162303e+01	-1.416909e+02
1.150000e-06	-3.018993e-06	-2.117999e-09	-2.135325e+01	-1.413701e+02
1.160000e-06	-2.980474e-06	-2.112535e-09	-2.108080e+01	-1.410499e+02
1.170000e-06	-2.941806e-06	-2.105273e-09	-2.080731e+01	-1.407302e+02
1.180000e-06	-2.903028e-06	-2.096101e-09	-2.053304e+01	-1.404109e+02
1.190000e-06	-2.863986e-06	-2.088262e-09	-2.025689e+01	-1.400916e+02
1.200000e-06	-2.824700e-06	-2.084558e-09	-1.997902e+01	-1.397720e+02
1.210000e-06	-2.785219e-06	-2.080924e-09	-1.969978e+01	-1.394515e+02
1.220000e-06	-2.745577e-06	-2.075035e-09	-1.941939e+01	-1.391296e+02
1.230000e-06	-2.705825e-06	-2.068394e-09	-1.913823e+01	-1.388056e+02
1.240000e-06	-2.665952e-06	-2.061126e-09	-1.885621e+01	-1.384788e+02
1.250000e-06	-2.625981e-06	-2.052147e-09	-1.857349e+01	-1.381485e+02
1.260000e-06	-2.585934e-06	-2.041533e-09	-1.829024e+01	-1.378138e+02
1.270000e-06	-2.545759e-06	-2.031479e-09	-1.800608e+01	-1.374739e+02
1.280000e-06	-2.505470e-06	-2.025278e-09	-1.772112e+01	-1.371280e+02
1.290000e-06	-2.465036e-06	-2.020449e-09	-1.743513e+01	-1.367754e+02
1.300000e-06	-2.424470e-06	-2.015118e-09	-1.714821e+01	-1.364151e+02
1.310000e-06	-2.383668e-06	-2.011498e-09	-1.685962e+01	-1.360465e+02
1.320000e-06	-2.342596e-06	-2.007389e-09	-1.656911e+01	-1.356689e+02
1.330000e-06	-2.301270e-06	-1.999125e-09	-1.627682e+01	-1.352815e+02
1.340000e-06	-2.259668e-06	-1.987380e-09	-1.598256e+01	-1.348840e+02
1.350000e-06	-2.217836e-06	-1.975123e-09	-1.568669e+01	-1.344756e+02
1.360000e-06	-2.175628e-06	-1.964913e-09	-1.538816e+01	-1.340560e+02
1.370000e-06	-2.133138e-06	-1.957412e-09	-1.508762e+01	-1.336249e+02
1.380000e-06	-2.090477e-06	-1.950250e-09	-1.478588e+01	-1.331819e+02
1.390000e-06	-2.047562e-06	-1.942338e-09	-1.448234e+01	-1.327268e+02
1.400000e-06	-2.004418e-06	-1.937865e-09	-1.417719e+01	-1.322595e+02
1.410000e-06	-1.961177e-06	-1.935737e-09	-1.387135e+01	-1.317799e+02
1.420000e-06	-1.917770e-06	-1.928111e-09	-1.356434e+01	-1.312880e+02
1.430000e-06	-1.874144e-06	-1.911833e-09	-1.325576e+01	-1.307837e+02
1.440000e-06	-1.830362e-06	-1.898087e-09	-1.294610e+01	-1.302672e+02
1.450000e-06	-1.786416e-06	-1.889542e-09	-1.263527e+01	-1.297384e+02
1.460000e-06	-1.742398e-06	-1.880268e-09	-1.232393e+01	-1.291975e+02
1.470000e-06	-1.698351e-06	-1.867350e-09	-1.201238e+01	-1.286444e+02
1.480000e-06	-1.654284e-06	-1.854314e-09	-1.170070e+01	-1.280794e+02
1.490000e-06	-1.610153e-06	-1.848601e-09	-1.138857e+01	-1.275023e+02
1.500000e-06	-1.565945e-06	-1.845928e-09	-1.107589e+01	-1.269132e+02
1.510000e-06	-1.521635e-06	-1.839579e-09	-1.076248e+01	-1.263120e+02
1.520000e-06	-1.477296e-06	-1.826788e-09	-1.044887e+01	-1.256985e+02
1.530000e-06	-1.432933e-06	-1.814347e-09	-1.013509e+01	-1.250727e+02
1.540000e-06	-1.388487e-06	-1.804780e-09	-9.820726e+00	-1.244341e+02
1.550000e-06	-1.343897e-06	-1.792272e-09	-9.505342e+00	-1.237825e+02
1.560000e-06	-1.299221e-06	-1.775657e-09	-9.189353e+00	-1.231175e+02
1.570000e-06	-1.254478e-06	-1.764898e-09	-8.872885e+00	-1.224386e+02
1.580000e-06	-1.209590e-06	-1.761443e-09	-8.555396e+00	-1.217451e+02
1.590000e-06	-1.164657e-06	-1.757843e-09	-8.237585e+00	-1.210365e+02
1.600000e-06	-1.119610e-06	-1.750140e-09	-7.918971e+00	-1.203120e+02
1.610000e-06	-1.074402e-06	-1.740649e-09	-7.599217e+00	-1.195709e+02
1.620000e-06	-1.029066e-06	-1.730008e-09	-7.278555e+00	-1.188122e+02
1.630000e-06	-9.836673e-07	-1.713487e-09	-6.957451e+00	-1.180351e+02
1.640000e-06	-9.382926e-07	-1.691867e-09	-6.636517e+00	-1.172385e+02
1.650000e-06	-8.929144e-07	-1.672062e-09	-6.315558e+00	-1.164216e+02
1.660000e-06	-8.474551e-07	-1.660486e-09	-5.994026e+00	-1.155832e+02
1.670000e-06	-8.018671e-07	-1.656357e-09	-5.671583e+00	-1.147223e+02
1.680000e-06	-7.561862e-07	-1.650716e-09	-5.348483e+00	-1.138379e+02
1.690000e-06	-7.105050e-07	-1.638623e-09	-5.025381e+00	-1.129286e+02
1.700000e-06	-6.647833e-07	-1.624569e-09	-4.701993e+00	-1.119936e+02
1.710000e-06	-6.189932e-07	-1.608209e-09	-4.378121e+00	-1.110315e+02
1.720000e-06	-5.732070e-07	-1.587056e-09	-4.054276e+00	-1.100413e+02
1.730000e-06	-5.273973e-07	-1.564587e-09	-3.730266e+00	-1.090216e+02
1.740000e-06	-4.815471e-07	-1.548603e-09	-3.405969e+00	-1.079714e+02
1.750000e-06	-4.356432e-07	-1.539304e-09	-3.081291e+00	-1.068894e+02
1.760000e-06	-3.896282e-07	-1.531183e-09	-2.755829e+00	-1.057742e+02
1.770000e-06	-3.435671e-07	-1.519579e-09	-2.430040e+00	-1.046245e+02
1.780000e-06	-2.974754e-07	-1.505642e-09	-2.104035e+00	-1.034390e+02
1.790000e-06	-2.513021e-07	-1.489273e-09	-1.777452e+00	-1.022162e+02
1.800000e-06	-2.051595e-07	-1.466369e-09	-1.451087e+00	-1.009545e+02
1.810000e-06	-1.590361e-07	-1.438859e-09	-1.124858e+00	-9.965238e+01
1.820000e-06	-1.129313e-07	-1.413954e-09	-7.987599e-01	-9.830800e+01
1.830000e-06	-6.689071e-08	-1.394608e-09	-4.731161e-01	-9.691954e+01
1.840000e-06	-2.085213e-08	-1.378760e-09	-1.474865e-01	-9.548505e+01
1.850000e-06	2.516638e-08	-1.361450e-09	1.780010e-01	-9.400244e+01
1.860000e-06	7.123341e-08	-1.341095e-09	5.038318e-01	-9.246947e+01
1.870000e-06	1.173615e-07	-1.318244e-09	8.300945e-01	-9.088379e+01
1.880000e-06	1.635237e-07	-1.290884e-09	1.156599e+00	-8.924293e+01
1.890000e-06	2.097075e-07	-1.259412e-09	1.483255e+00	-8.754426e+01
1.900000e-06	2.557345e-07	-1.226464e-09	1.808803e+00	-8.578507e+01
1.910000e-06	3.016581e-07	-1.196733e-09	2.133619e+00	-8.396253e+01
1.920000e-06	3.476354e-07	-1.168359e-09	2.458815e+00	-8.207375e+01
1.930000e-06	3.935817e-07	-1.140925e-09	2.783792e+00	-8.011576e+01
1.940000e-06	4.395154e-07	-1.116116e-09	3.108680e+00	-7.808557e+01
1.950000e-06	4.854354e-07	-1.092163e-09	3.433471e+00	-7.598019e+01
1.960000e-06	5.313432e-07	-1.066066e-09	3.758175e+00	-7.379669e+01
1.970000e-06	5.772101e-07	-1.032262e-09	4.082591e+00	-7.153219e+01
1.980000e-06	6.229651e-07	-9.922109e-10	4.406214e+00	-6.918395e+01
1.990000e-06	6.687330e-07	-9.500788e-10	4.729929e+00	-6.674940e+01
2.000000e-06	7.144663e-07	-9.088750e-10	5.053399e+00	-6.422619e+01
2.010000e-06	7.599947e-07	-8.677062e-10	5.375421e+00	-6.161223e+01
2.020000e-06	8.054916e-07	-8.269650e-10	5.697219e+00	-5.890575e+01
2.030000e-06	8.510834e-07	-7.882830e-10	6.019689e+00	-5.610535e+01
2.040000e-06	8.966349e-07	-7.515414e-10	6.341873e+00	-5.321007e+01
2.050000e-06	9.421105e-07	-7.127248e-10	6.663521e+00	-5.021939e+01
2.060000e-06	9.874396e-07	-6.687936e-10	6.984132e+00	-4.713329e+01
2.070000e-06	1.032618e-06	-6.221978e-10	7.303676e+00	-4.395234e+01
2.080000e-06	1.077714e-06	-5.740970e-10	7.622643e+00	-4.067766e+01
2.090000e-06	1.122768e-06	-5.245879e-10	7.941307e+00	-3.731099e+01
2.100000e-06	1.167707e-06	-4.719527e-10	8.259157e+00	-3.385472e+01
2.110000e-06	1.212523e-06	-4.171956e-10	8.576137e+00	-3.031187e+01
2.120000e-06	1.257295e-06	-3.637413e-10	8.892808e+00	-2.668616e+01
2.130000e-06	1.301958e-06	-3.093061e-10	9.208711e+00	-2.298191e+01
2.140000e-06	1.346475e-06	-2.525631e-10	9.523580e+00	-1.920416e+01
2.150000e-06	1.390875e-06	-1.946853e-10	9.837621e+00	-1.535852e+01
2.160000e-06	1.435254e-06	-1.375929e-10	1.015151e+01	-1.145126e+01
2.170000e-06	1.479645e-06	-8.205207e-11	1.046549e+01	-7.489195e+00
2.180000e-06	1.523966e-06	-2.153311e-11	1.077897e+01	-3.479669e+00
2.190000e-06	1.568180e-06	4.323789e-11	1.109169e+01	5.694856e-01
2.200000e-06	1.612266e-06	1.078094e-10	1.140351e+01	4.650020e+00
2.210000e-06	1.656273e-06	1.714588e-10	1.171477e+01	8.753331e+00
2.220000e-06	1.700281e-06	2.350751e-10	1.202604e+01	1.287053e+01
2.230000e-06	1.744232e-06	2.986496e-10	1.233690e+01	1.699253e+01
2.240000e-06	1.788042e-06	3.622658e-10	1.264677e+01	2.111011e+01
2.250000e-06	1.831776e-06	4.234234e-10	1.295610e+01	2.521401e+01
2.260000e-06	1.875490e-06	4.807367e-10	1.326529e+01	2.929500e+01
2.270000e-06	1.919090e-06	5.397553e-10	1.357367e+01	3.334398e+01
2.280000e-06	1.962541e-06	6.005624e-10	1.388100e+01	3.735206e+01
2.290000e-06	2.005869e-06	6.603505e-10	1.418746e+01	4.131065e+01
2.300000e-06	2.048964e-06	7.175045e-10	1.449226e+01	4.521151e+01
2.310000e-06	2.091694e-06	7.739222e-10	1.479449e+01	4.904685e+01
2.320000e-06	2.134230e-06	8.303778e-10	1.509535e+01	5.280940e+01
2.330000e-06	2.176592e-06	8.847075e-10	1.539497e+01	5.649244e+01
2.340000e-06	2.218724e-06	9.339244e-10	1.569297e+01	6.008989e+01
2.350000e-06	2.260563e-06	9.817322e-10	1.598890e+01	6.359633e+01
2.360000e-06	2.302103e-06	1.030103e-09	1.628271e+01	6.700706e+01
2.370000e-06	2.343377e-06	1.076747e-09	1.657464e+01	7.031810e+01
2.380000e-06	2.384322e-06	1.121363e-09	1.686424e+01	7.352622e+01
2.390000e-06	2.425025e-06	1.164846e-09	1.715213e+01	7.662894e+01
2.400000e-06	2.465558e-06	1.205563e-09	1.743882e+01	7.962456e+01
2.410000e-06	2.505933e-06	1.244190e-09	1.772439e+01	8.251208e+01
2.420000e-06	2.546145e-06	1.282644e-09	1.800881e+01	8.529127e+01
2.430000e-06	2.586275e-06	1.321581e-09	1.829265e+01	8.796254e+01
2.440000e-06	2.626337e-06	1.362476e-09	1.857601e+01	9.052698e+01
2.450000e-06	2.666307e-06	1.399736e-09	1.885871e+01	9.298628e+01
2.460000e-06	2.706099e-06	1.431781e-09	1.914016e+01	9.534267e+01
2.470000e-06	2.745750e-06	1.461859e-09	1.942061e+01	9.759889e+01
2.480000e-06	2.785374e-06	1.491769e-09	1.970087e+01	9.975809e+01
2.490000e-06	2.824807e-06	1.519892e-09	1.997978e+01	1.018238e+02
2.500000e-06	2.863936e-06	1.546774e-09	2.025654e+01	1.037999e+02
2.510000e-06	2.902844e-06	1.576076e-09	2.053173e+01	1.056903e+02
2.520000e-06	2.941529e-06	1.608352e-09	2.080535e+01	1.074994e+02
2.530000e-06	2.980016e-06	1.635825e-09	2.107757e+01	1.092314e+02
2.540000e-06	3.018317e-06	1.655107e-09	2.134847e+01	1.108906e+02
2.550000e-06	3.056397e-06	1.671950e-09	2.161781e+01	1.124814e+02
2.560000e-06	3.094278e-06	1.694474e-09	2.188574e+01	1.140081e+02
2.570000e-06	3.131975e-06	1.719745e-09	2.215237e+01	1.154746e+02
2.580000e-06	3.169439e-06	1.740247e-09	2.241735e+01	1.168849e+02
2.590000e-06	3.206638e-06	1.758628e-09	2.268045e+01	1.182427e+02
2.600000e-06	3.243640e-06	1.781368e-09	2.294217e+01	1.195513e+02
2.610000e-06	3.280401e-06	1.804551e-09	2.320218e+01	1.208141e+02
2.620000e-06	3.316875e-06	1.822396e-09	2.346016e+01	1.220337e+02
2.630000e-06	3.353189e-06	1.837565e-09	2.371701e+01	1.232128e+02
2.640000e-06	3.389356e-06	1.854124e-09	2.397282e+01	1.243535e+02
2.650000e-06	3.425387e-06	1.870865e-09	2.422766e+01	1.254579e+02
2.660000e-06	3.461293e-06	1.884552e-09	2.448163e+01	1.265275e+02
2.670000e-06	3.497074e-06	1.899491e-09	2.473471e+01	1.275637e+02
2.680000e-06	3.532646e-06	1.918200e-09	2.498630e+01	1.285676e+02
2.690000e-06	3.567872e-06	1.936287e-09	2.523546e+01	1.295400e+02
2.700000e-06	3.602795e-06	1.948426e-09	2.548247e+01	1.304815e+02
2.710000e-06	3.637363e-06	1.957576e-09	2.572697e+01	1.313927e+02
2.720000e-06	3.671470e-06	1.969120e-09	2.596820e+01	1.322737e+02
2.730000e-06	3.705101e-06	1.981805e-09	2.620607e+01	1.331249e+02
2.740000e-06	3.738284e-06	1.993560e-09	2.644077e+01	1.339463e+02
2.750000e-06	3.771035e-06	2.005762e-09	2.667242e+01	1.347379e+02
2.760000e-06	3.803463e-06	2.019603e-09	2.690178e+01	1.354999e+02
2.770000e-06	3.835699e-06	2.034044e-09	2.712979e+01	1.362324e+02
2.780000e-06	3.867812e-06	2.045238e-09	2.735693e+01	1.369353e+02
2.790000e-06	3.899800e-06	2.053684e-09	2.758317e+01	1.376090e+02
2.800000e-06	3.931585e-06	2.064480e-09	2.780799e+01	1.382537e+02
2.810000e-06	3.963149e-06	2.075739e-09	2.803124e+01	1.388697e+02
2.820000e-06	3.994415e-06	2.084231e-09	2.825238e+01	1.394576e+02
2.830000e-06	4.025299e-06	2.090458e-09	2.847083e+01	1.400179e+02
2.840000e-06	4.055879e-06	2.096451e-09	2.868712e+01	1.405514e+02
2.850000e-06	4.086266e-06	2.105829e-09	2.890204e+01	1.410590e+02
2.860000e-06	4.116398e-06	2.116008e-09	2.911516e+01	1.415416e+02
2.870000e-06	4.146292e-06	2.123298e-09	2.932660e+01	1.420003e+02
2.880000e-06	4.175961e-06	2.129205e-09	2.953645e+01	1.424364e+02
2.890000e-06	4.205357e-06	2.133073e-09	2.974437e+01	1.428510e+02
2.900000e-06	4.234474e-06	2.133220e-09	2.995032e+01	1.432456e+02
