# Temperatura_=_18.42
# Concentracion g/m^3_=_4090.0
# C_Vs_to_Am_M_A/Vsm_=_65563218390.804596
# pendiente_HvsI_1/m_=_3716.3
# ordenada_HvsI_A/m_=_1297.0
# frecuencia_Hz_=_135079.72264463062

Tiempo_(s)	Campo_(V.s)	Magnetizacion_(V.s)	Campo_(kA/m)	Magnetizacion_(A/m)
0.000000e+00	-5.427145e-06	-2.715833e-09	-3.838949e+01	-1.743648e+02
1.000000e-08	-5.427333e-06	-2.714024e-09	-3.839082e+01	-1.742888e+02
2.000000e-08	-5.427409e-06	-2.711714e-09	-3.839135e+01	-1.742091e+02
3.000000e-08	-5.427246e-06	-2.711354e-09	-3.839020e+01	-1.741277e+02
4.000000e-08	-5.426730e-06	-2.714128e-09	-3.838655e+01	-1.740464e+02
5.000000e-08	-5.425732e-06	-2.714511e-09	-3.837950e+01	-1.739675e+02
6.000000e-08	-5.424133e-06	-2.709936e-09	-3.836818e+01	-1.738932e+02
7.000000e-08	-5.421901e-06	-2.702234e-09	-3.835240e+01	-1.738255e+02
8.000000e-08	-5.418997e-06	-2.701987e-09	-3.833185e+01	-1.737667e+02
9.000000e-08	-5.415459e-06	-2.729363e-09	-3.830683e+01	-1.737188e+02
1.000000e-07	-5.411414e-06	-2.771318e-09	-3.827821e+01	-1.736839e+02
1.100000e-07	-5.407039e-06	-2.749487e-09	-3.824727e+01	-1.736636e+02
1.200000e-07	-5.402633e-06	-2.681932e-09	-3.821610e+01	-1.736597e+02
1.300000e-07	-5.398167e-06	-2.664053e-09	-3.818451e+01	-1.736735e+02
1.400000e-07	-5.393266e-06	-2.731193e-09	-3.814985e+01	-1.737060e+02
1.500000e-07	-5.387764e-06	-2.721993e-09	-3.811092e+01	-1.737582e+02
1.600000e-07	-5.381907e-06	-2.652562e-09	-3.806949e+01	-1.738305e+02
1.700000e-07	-5.375795e-06	-2.647629e-09	-3.802626e+01	-1.739230e+02
1.800000e-07	-5.369185e-06	-2.757673e-09	-3.797951e+01	-1.740355e+02
1.900000e-07	-5.361995e-06	-2.772542e-09	-3.792864e+01	-1.741675e+02
2.000000e-07	-5.354537e-06	-2.698922e-09	-3.787589e+01	-1.743182e+02
2.100000e-07	-5.346993e-06	-2.678730e-09	-3.782253e+01	-1.744861e+02
2.200000e-07	-5.339276e-06	-2.731195e-09	-3.776794e+01	-1.746699e+02
2.300000e-07	-5.331289e-06	-2.720925e-09	-3.771144e+01	-1.748675e+02
2.400000e-07	-5.323021e-06	-2.685838e-09	-3.765296e+01	-1.750770e+02
2.500000e-07	-5.314328e-06	-2.728993e-09	-3.759147e+01	-1.752958e+02
2.600000e-07	-5.304799e-06	-2.771083e-09	-3.752406e+01	-1.755213e+02
2.700000e-07	-5.294529e-06	-2.753315e-09	-3.745141e+01	-1.757509e+02
2.800000e-07	-5.283875e-06	-2.737203e-09	-3.737606e+01	-1.759817e+02
2.900000e-07	-5.272755e-06	-2.771645e-09	-3.729739e+01	-1.762107e+02
3.000000e-07	-5.261139e-06	-2.741412e-09	-3.721523e+01	-1.764349e+02
3.100000e-07	-5.249168e-06	-2.695187e-09	-3.713055e+01	-1.766515e+02
3.200000e-07	-5.236850e-06	-2.721759e-09	-3.704342e+01	-1.768574e+02
3.300000e-07	-5.224165e-06	-2.779710e-09	-3.695369e+01	-1.770501e+02
3.400000e-07	-5.211050e-06	-2.736721e-09	-3.686092e+01	-1.772268e+02
3.500000e-07	-5.197587e-06	-2.713621e-09	-3.676569e+01	-1.773853e+02
3.600000e-07	-5.183659e-06	-2.740106e-09	-3.666717e+01	-1.775233e+02
3.700000e-07	-5.169265e-06	-2.755861e-09	-3.656535e+01	-1.776390e+02
3.800000e-07	-5.154495e-06	-2.711805e-09	-3.646087e+01	-1.777307e+02
3.900000e-07	-5.138974e-06	-2.709275e-09	-3.635108e+01	-1.777974e+02
4.000000e-07	-5.122761e-06	-2.711506e-09	-3.623640e+01	-1.778379e+02
4.100000e-07	-5.106246e-06	-2.712599e-09	-3.611958e+01	-1.778516e+02
4.200000e-07	-5.089391e-06	-2.718698e-09	-3.600035e+01	-1.778385e+02
4.300000e-07	-5.072159e-06	-2.718898e-09	-3.587846e+01	-1.777984e+02
4.400000e-07	-5.054722e-06	-2.686153e-09	-3.575512e+01	-1.777318e+02
4.500000e-07	-5.037095e-06	-2.688035e-09	-3.563043e+01	-1.776394e+02
4.600000e-07	-5.019103e-06	-2.713275e-09	-3.550316e+01	-1.775222e+02
4.700000e-07	-5.000668e-06	-2.696627e-09	-3.537276e+01	-1.773813e+02
4.800000e-07	-4.981848e-06	-2.665677e-09	-3.523964e+01	-1.772184e+02
4.900000e-07	-4.962664e-06	-2.674034e-09	-3.510394e+01	-1.770350e+02
5.000000e-07	-4.943105e-06	-2.688435e-09	-3.496558e+01	-1.768330e+02
5.100000e-07	-4.923334e-06	-2.671838e-09	-3.482573e+01	-1.766143e+02
5.200000e-07	-4.903419e-06	-2.657831e-09	-3.468485e+01	-1.763809e+02
5.300000e-07	-4.883313e-06	-2.652828e-09	-3.454264e+01	-1.761349e+02
5.400000e-07	-4.862912e-06	-2.666221e-09	-3.439833e+01	-1.758784e+02
5.500000e-07	-4.842063e-06	-2.675490e-09	-3.425085e+01	-1.756133e+02
5.600000e-07	-4.820743e-06	-2.664110e-09	-3.410004e+01	-1.753417e+02
5.700000e-07	-4.799122e-06	-2.638455e-09	-3.394710e+01	-1.750653e+02
5.800000e-07	-4.777334e-06	-2.644085e-09	-3.379298e+01	-1.747859e+02
5.900000e-07	-4.755256e-06	-2.645219e-09	-3.363681e+01	-1.745051e+02
6.000000e-07	-4.732841e-06	-2.626782e-09	-3.347826e+01	-1.742242e+02
6.100000e-07	-4.710077e-06	-2.609056e-09	-3.331724e+01	-1.739445e+02
6.200000e-07	-4.686850e-06	-2.619336e-09	-3.315293e+01	-1.736669e+02
6.300000e-07	-4.663246e-06	-2.626158e-09	-3.298597e+01	-1.733922e+02
6.400000e-07	-4.639438e-06	-2.627948e-09	-3.281756e+01	-1.731209e+02
6.500000e-07	-4.615524e-06	-2.613326e-09	-3.264840e+01	-1.728534e+02
6.600000e-07	-4.591441e-06	-2.600823e-09	-3.247805e+01	-1.725899e+02
6.700000e-07	-4.567025e-06	-2.598582e-09	-3.230534e+01	-1.723302e+02
6.800000e-07	-4.542220e-06	-2.601356e-09	-3.212988e+01	-1.720741e+02
6.900000e-07	-4.516932e-06	-2.585791e-09	-3.195100e+01	-1.718212e+02
7.000000e-07	-4.491048e-06	-2.576618e-09	-3.176791e+01	-1.715710e+02
7.100000e-07	-4.464543e-06	-2.582323e-09	-3.158042e+01	-1.713227e+02
7.200000e-07	-4.437555e-06	-2.590299e-09	-3.138952e+01	-1.710756e+02
7.300000e-07	-4.410231e-06	-2.583552e-09	-3.119624e+01	-1.708288e+02
7.400000e-07	-4.382592e-06	-2.573468e-09	-3.100073e+01	-1.705813e+02
7.500000e-07	-4.354742e-06	-2.570289e-09	-3.080373e+01	-1.703324e+02
7.600000e-07	-4.326806e-06	-2.574627e-09	-3.060612e+01	-1.700809e+02
7.700000e-07	-4.298693e-06	-2.571474e-09	-3.040726e+01	-1.698259e+02
7.800000e-07	-4.270327e-06	-2.559772e-09	-3.020661e+01	-1.695666e+02
7.900000e-07	-4.241637e-06	-2.557147e-09	-3.000367e+01	-1.693021e+02
8.000000e-07	-4.212545e-06	-2.560344e-09	-2.979789e+01	-1.690315e+02
8.100000e-07	-4.183124e-06	-2.557136e-09	-2.958977e+01	-1.687542e+02
8.200000e-07	-4.153448e-06	-2.546487e-09	-2.937986e+01	-1.684697e+02
8.300000e-07	-4.123603e-06	-2.541605e-09	-2.916875e+01	-1.681772e+02
8.400000e-07	-4.093497e-06	-2.541649e-09	-2.895579e+01	-1.678766e+02
8.500000e-07	-4.063060e-06	-2.540688e-09	-2.874049e+01	-1.675673e+02
8.600000e-07	-4.032309e-06	-2.527790e-09	-2.852297e+01	-1.672493e+02
8.700000e-07	-4.001161e-06	-2.515071e-09	-2.830264e+01	-1.669225e+02
8.800000e-07	-3.969716e-06	-2.508332e-09	-2.808021e+01	-1.665867e+02
8.900000e-07	-3.938083e-06	-2.508521e-09	-2.785645e+01	-1.662422e+02
9.000000e-07	-3.906284e-06	-2.501582e-09	-2.763152e+01	-1.658890e+02
9.100000e-07	-3.874408e-06	-2.494863e-09	-2.740604e+01	-1.655274e+02
9.200000e-07	-3.842463e-06	-2.491328e-09	-2.718007e+01	-1.651577e+02
9.300000e-07	-3.810298e-06	-2.494010e-09	-2.695255e+01	-1.647802e+02
9.400000e-07	-3.777886e-06	-2.489433e-09	-2.672328e+01	-1.643953e+02
9.500000e-07	-3.745130e-06	-2.479381e-09	-2.649158e+01	-1.640034e+02
9.600000e-07	-3.711914e-06	-2.468632e-09	-2.625662e+01	-1.636048e+02
9.700000e-07	-3.678230e-06	-2.463063e-09	-2.601835e+01	-1.631999e+02
9.800000e-07	-3.644058e-06	-2.455120e-09	-2.577663e+01	-1.627892e+02
9.900000e-07	-3.609485e-06	-2.443719e-09	-2.553208e+01	-1.623730e+02
1.000000e-06	-3.574536e-06	-2.434159e-09	-2.528486e+01	-1.619517e+02
1.010000e-06	-3.539242e-06	-2.433962e-09	-2.503521e+01	-1.615255e+02
1.020000e-06	-3.503713e-06	-2.434794e-09	-2.478389e+01	-1.610948e+02
1.030000e-06	-3.467995e-06	-2.427125e-09	-2.453124e+01	-1.606598e+02
1.040000e-06	-3.432136e-06	-2.413763e-09	-2.427758e+01	-1.602206e+02
1.050000e-06	-3.396160e-06	-2.403346e-09	-2.402310e+01	-1.597774e+02
1.060000e-06	-3.360008e-06	-2.393334e-09	-2.376737e+01	-1.593304e+02
1.070000e-06	-3.323706e-06	-2.380045e-09	-2.351059e+01	-1.588795e+02
1.080000e-06	-3.287262e-06	-2.366508e-09	-2.325280e+01	-1.584249e+02
1.090000e-06	-3.250506e-06	-2.357281e-09	-2.299280e+01	-1.579665e+02
1.100000e-06	-3.213402e-06	-2.352649e-09	-2.273034e+01	-1.575043e+02
1.110000e-06	-3.176087e-06	-2.347634e-09	-2.246639e+01	-1.570381e+02
1.120000e-06	-3.138569e-06	-2.338224e-09	-2.220100e+01	-1.565680e+02
1.130000e-06	-3.100831e-06	-2.329088e-09	-2.193406e+01	-1.560937e+02
1.140000e-06	-3.062921e-06	-2.323840e-09	-2.166590e+01	-1.556152e+02
1.150000e-06	-3.024787e-06	-2.316928e-09	-2.139615e+01	-1.551322e+02
1.160000e-06	-2.986512e-06	-2.306589e-09	-2.112541e+01	-1.546447e+02
1.170000e-06	-2.948019e-06	-2.291606e-09	-2.085313e+01	-1.541523e+02
1.180000e-06	-2.909251e-06	-2.279606e-09	-2.057889e+01	-1.536549e+02
1.190000e-06	-2.870355e-06	-2.270133e-09	-2.030376e+01	-1.531522e+02
1.200000e-06	-2.831143e-06	-2.263308e-09	-2.002639e+01	-1.526441e+02
1.210000e-06	-2.791660e-06	-2.252916e-09	-1.974710e+01	-1.521302e+02
1.220000e-06	-2.752143e-06	-2.241908e-09	-1.946757e+01	-1.516104e+02
1.230000e-06	-2.712539e-06	-2.232930e-09	-1.918743e+01	-1.510841e+02
1.240000e-06	-2.672784e-06	-2.226567e-09	-1.890622e+01	-1.505513e+02
1.250000e-06	-2.632902e-06	-2.215905e-09	-1.862412e+01	-1.500115e+02
1.260000e-06	-2.592961e-06	-2.201604e-09	-1.834159e+01	-1.494643e+02
1.270000e-06	-2.552925e-06	-2.187057e-09	-1.805839e+01	-1.489093e+02
1.280000e-06	-2.512732e-06	-2.177705e-09	-1.777407e+01	-1.483461e+02
1.290000e-06	-2.472357e-06	-2.167817e-09	-1.748848e+01	-1.477743e+02
1.300000e-06	-2.431718e-06	-2.155050e-09	-1.720102e+01	-1.471932e+02
1.310000e-06	-2.390902e-06	-2.145713e-09	-1.691230e+01	-1.466025e+02
1.320000e-06	-2.349896e-06	-2.143114e-09	-1.662224e+01	-1.460015e+02
1.330000e-06	-2.308583e-06	-2.139274e-09	-1.633001e+01	-1.453897e+02
1.340000e-06	-2.266953e-06	-2.128235e-09	-1.603553e+01	-1.447664e+02
1.350000e-06	-2.225127e-06	-2.115014e-09	-1.573967e+01	-1.441310e+02
1.360000e-06	-2.183017e-06	-2.103419e-09	-1.544180e+01	-1.434829e+02
1.370000e-06	-2.140501e-06	-2.090760e-09	-1.514106e+01	-1.428214e+02
1.380000e-06	-2.097770e-06	-2.075058e-09	-1.483880e+01	-1.421457e+02
1.390000e-06	-2.054833e-06	-2.058427e-09	-1.453508e+01	-1.414554e+02
1.400000e-06	-2.011651e-06	-2.048366e-09	-1.422962e+01	-1.407497e+02
1.410000e-06	-1.968381e-06	-2.045758e-09	-1.392356e+01	-1.400280e+02
1.420000e-06	-1.925015e-06	-2.039199e-09	-1.361680e+01	-1.392896e+02
1.430000e-06	-1.881491e-06	-2.024566e-09	-1.330893e+01	-1.385340e+02
1.440000e-06	-1.837810e-06	-2.007791e-09	-1.299995e+01	-1.377607e+02
1.450000e-06	-1.793968e-06	-1.995857e-09	-1.268982e+01	-1.369690e+02
1.460000e-06	-1.750079e-06	-1.982903e-09	-1.237937e+01	-1.361586e+02
1.470000e-06	-1.706132e-06	-1.965602e-09	-1.206851e+01	-1.353290e+02
1.480000e-06	-1.662119e-06	-1.949534e-09	-1.175718e+01	-1.344797e+02
1.490000e-06	-1.618072e-06	-1.940011e-09	-1.144561e+01	-1.336104e+02
1.500000e-06	-1.573980e-06	-1.932799e-09	-1.113372e+01	-1.327208e+02
1.510000e-06	-1.529729e-06	-1.920529e-09	-1.082070e+01	-1.318105e+02
1.520000e-06	-1.485286e-06	-1.902134e-09	-1.050633e+01	-1.308792e+02
1.530000e-06	-1.440847e-06	-1.886447e-09	-1.019198e+01	-1.299266e+02
1.540000e-06	-1.396383e-06	-1.874548e-09	-9.877467e+00	-1.289525e+02
1.550000e-06	-1.351823e-06	-1.860849e-09	-9.562264e+00	-1.279565e+02
1.560000e-06	-1.307154e-06	-1.843394e-09	-9.246296e+00	-1.269382e+02
1.570000e-06	-1.262399e-06	-1.827962e-09	-8.929716e+00	-1.258974e+02
1.580000e-06	-1.217609e-06	-1.816726e-09	-8.612889e+00	-1.248334e+02
1.590000e-06	-1.172719e-06	-1.803213e-09	-8.295353e+00	-1.237458e+02
1.600000e-06	-1.127690e-06	-1.782480e-09	-7.976837e+00	-1.226340e+02
1.610000e-06	-1.082543e-06	-1.761178e-09	-7.657486e+00	-1.214971e+02
1.620000e-06	-1.037288e-06	-1.745234e-09	-7.337369e+00	-1.203345e+02
1.630000e-06	-9.920003e-07	-1.731704e-09	-7.017020e+00	-1.191451e+02
1.640000e-06	-9.466087e-07	-1.711415e-09	-6.695937e+00	-1.179277e+02
1.650000e-06	-9.011049e-07	-1.688161e-09	-6.374062e+00	-1.166812e+02
1.660000e-06	-8.554813e-07	-1.670286e-09	-6.051338e+00	-1.154041e+02
1.670000e-06	-8.097882e-07	-1.654646e-09	-5.728123e+00	-1.140948e+02
1.680000e-06	-7.641520e-07	-1.631815e-09	-5.405311e+00	-1.127517e+02
1.690000e-06	-7.184564e-07	-1.601711e-09	-5.082078e+00	-1.113729e+02
1.700000e-06	-6.727518e-07	-1.575309e-09	-4.758781e+00	-1.099564e+02
1.710000e-06	-6.270409e-07	-1.556095e-09	-4.435441e+00	-1.085001e+02
1.720000e-06	-5.812036e-07	-1.536395e-09	-4.111206e+00	-1.070018e+02
1.730000e-06	-5.352987e-07	-1.511135e-09	-3.786493e+00	-1.054592e+02
1.740000e-06	-4.894002e-07	-1.487014e-09	-3.461824e+00	-1.038698e+02
1.750000e-06	-4.435039e-07	-1.465744e-09	-3.137173e+00	-1.022314e+02
1.760000e-06	-3.975614e-07	-1.441712e-09	-2.812193e+00	-1.005415e+02
1.770000e-06	-3.515866e-07	-1.410480e-09	-2.486985e+00	-9.879771e+01
1.780000e-06	-3.055653e-07	-1.379229e-09	-2.161449e+00	-9.699769e+01
1.790000e-06	-2.595444e-07	-1.355014e-09	-1.835915e+00	-9.513918e+01
1.800000e-06	-2.134976e-07	-1.330986e-09	-1.510198e+00	-9.322007e+01
1.810000e-06	-1.673961e-07	-1.300061e-09	-1.184094e+00	-9.123835e+01
1.820000e-06	-1.213376e-07	-1.267734e-09	-8.582947e-01	-8.919224e+01
1.830000e-06	-7.531432e-08	-1.238687e-09	-5.327439e-01	-8.708014e+01
1.840000e-06	-2.928896e-08	-1.210228e-09	-2.071786e-01	-8.490071e+01
1.850000e-06	1.673744e-08	-1.175265e-09	1.183941e-01	-8.265288e+01
1.860000e-06	6.268434e-08	-1.135270e-09	4.434043e-01	-8.033585e+01
1.870000e-06	1.086189e-07	-1.097882e-09	7.683273e-01	-7.794917e+01
1.880000e-06	1.545557e-07	-1.063808e-09	1.093267e+00	-7.549268e+01
1.890000e-06	2.005318e-07	-1.026430e-09	1.418483e+00	-7.296656e+01
1.900000e-06	2.465479e-07	-9.848673e-10	1.743983e+00	-7.037137e+01
1.910000e-06	2.925059e-07	-9.444669e-10	2.069071e+00	-6.770797e+01
1.920000e-06	3.384496e-07	-9.053880e-10	2.394059e+00	-6.497759e+01
1.930000e-06	3.843898e-07	-8.642831e-10	2.719022e+00	-6.218178e+01
1.940000e-06	4.303368e-07	-8.209507e-10	3.044033e+00	-5.932242e+01
1.950000e-06	4.762605e-07	-7.772828e-10	3.368880e+00	-5.640170e+01
1.960000e-06	5.220933e-07	-7.361999e-10	3.693083e+00	-5.342208e+01
1.970000e-06	5.679123e-07	-6.935376e-10	4.017188e+00	-5.038628e+01
1.980000e-06	6.136855e-07	-6.443637e-10	4.340970e+00	-4.729727e+01
1.990000e-06	6.593573e-07	-5.935626e-10	4.664034e+00	-4.415820e+01
2.000000e-06	7.049740e-07	-5.468884e-10	4.986709e+00	-4.097240e+01
2.010000e-06	7.505921e-07	-5.020816e-10	5.309394e+00	-3.774335e+01
2.020000e-06	7.961957e-07	-4.560437e-10	5.631975e+00	-3.447460e+01
2.030000e-06	8.416834e-07	-4.089585e-10	5.953738e+00	-3.116979e+01
2.040000e-06	8.871318e-07	-3.613274e-10	6.275222e+00	-2.783260e+01
2.050000e-06	9.325831e-07	-3.126888e-10	6.596726e+00	-2.446670e+01
2.060000e-06	9.779448e-07	-2.619667e-10	6.917597e+00	-2.107573e+01
2.070000e-06	1.023265e-06	-2.107319e-10	7.238171e+00	-1.766329e+01
2.080000e-06	1.068513e-06	-1.620894e-10	7.558243e+00	-1.423289e+01
2.090000e-06	1.113623e-06	-1.169935e-10	7.877329e+00	-1.078795e+01
2.100000e-06	1.158570e-06	-7.276342e-11	8.195268e+00	-7.331748e+00
2.110000e-06	1.203363e-06	-2.495120e-11	8.512114e+00	-3.867461e+00
2.120000e-06	1.248070e-06	2.837345e-11	8.828357e+00	-3.981083e-01
2.130000e-06	1.292670e-06	8.219900e-11	9.143837e+00	3.073436e+00
2.140000e-06	1.337221e-06	1.369277e-10	9.458976e+00	6.544443e+00
2.150000e-06	1.381698e-06	1.932279e-10	9.773590e+00	1.001233e+01
2.160000e-06	1.426000e-06	2.471283e-10	1.008696e+01	1.347466e+01
2.170000e-06	1.470290e-06	2.945057e-10	1.040025e+01	1.692911e+01
2.180000e-06	1.514566e-06	3.386436e-10	1.071345e+01	2.037350e+01
2.190000e-06	1.558754e-06	3.864807e-10	1.102601e+01	2.380573e+01
2.200000e-06	1.602916e-06	4.386778e-10	1.133840e+01	2.722380e+01
2.210000e-06	1.646981e-06	4.896736e-10	1.165010e+01	3.062577e+01
2.220000e-06	1.690987e-06	5.406160e-10	1.196138e+01	3.400978e+01
2.230000e-06	1.734973e-06	5.942323e-10	1.227252e+01	3.737398e+01
2.240000e-06	1.778869e-06	6.461867e-10	1.258302e+01	4.071654e+01
2.250000e-06	1.822657e-06	6.919919e-10	1.289276e+01	4.403564e+01
2.260000e-06	1.866344e-06	7.360387e-10	1.320178e+01	4.732944e+01
2.270000e-06	1.909887e-06	7.833677e-10	1.350979e+01	5.059608e+01
2.280000e-06	1.953314e-06	8.300070e-10	1.381698e+01	5.383366e+01
2.290000e-06	1.996651e-06	8.746564e-10	1.412352e+01	5.704025e+01
2.300000e-06	2.039808e-06	9.207328e-10	1.442880e+01	6.021387e+01
2.310000e-06	2.082769e-06	9.706414e-10	1.473269e+01	6.335250e+01
2.320000e-06	2.125550e-06	1.019921e-09	1.503531e+01	6.645408e+01
2.330000e-06	2.168021e-06	1.064241e-09	1.533573e+01	6.951651e+01
2.340000e-06	2.210102e-06	1.106072e-09	1.563339e+01	7.253768e+01
2.350000e-06	2.252000e-06	1.149048e-09	1.592976e+01	7.551547e+01
2.360000e-06	2.293636e-06	1.192948e-09	1.622428e+01	7.844775e+01
2.370000e-06	2.334864e-06	1.234810e-09	1.651591e+01	8.133246e+01
2.380000e-06	2.375834e-06	1.272853e-09	1.680572e+01	8.416753e+01
2.390000e-06	2.416567e-06	1.310828e-09	1.709385e+01	8.695102e+01
2.400000e-06	2.457103e-06	1.350499e-09	1.738058e+01	8.968104e+01
2.410000e-06	2.497539e-06	1.389172e-09	1.766661e+01	9.235584e+01
2.420000e-06	2.537798e-06	1.426583e-09	1.795139e+01	9.497380e+01
2.430000e-06	2.577902e-06	1.466280e-09	1.823507e+01	9.753347e+01
2.440000e-06	2.617935e-06	1.510149e-09	1.851824e+01	1.000336e+02
2.450000e-06	2.657856e-06	1.551321e-09	1.880063e+01	1.024730e+02
2.460000e-06	2.697679e-06	1.584423e-09	1.908232e+01	1.048510e+02
2.470000e-06	2.737341e-06	1.612663e-09	1.936287e+01	1.071669e+02
2.480000e-06	2.776825e-06	1.640386e-09	1.964217e+01	1.094203e+02
2.490000e-06	2.816102e-06	1.668696e-09	1.992000e+01	1.116110e+02
2.500000e-06	2.855144e-06	1.695472e-09	2.019616e+01	1.137392e+02
2.510000e-06	2.894061e-06	1.724526e-09	2.047145e+01	1.158052e+02
2.520000e-06	2.932812e-06	1.760342e-09	2.074556e+01	1.178096e+02
2.530000e-06	2.971368e-06	1.796768e-09	2.101829e+01	1.197531e+02
2.540000e-06	3.009756e-06	1.825415e-09	2.128983e+01	1.216369e+02
2.550000e-06	3.047855e-06	1.848448e-09	2.155933e+01	1.234621e+02
2.560000e-06	3.085703e-06	1.872465e-09	2.182705e+01	1.252300e+02
2.570000e-06	3.123390e-06	1.895827e-09	2.209363e+01	1.269423e+02
2.580000e-06	3.160901e-06	1.914388e-09	2.235897e+01	1.286005e+02
2.590000e-06	3.198230e-06	1.931990e-09	2.262302e+01	1.302064e+02
2.600000e-06	3.235326e-06	1.957422e-09	2.288542e+01	1.317617e+02
2.610000e-06	3.272095e-06	1.988558e-09	2.314552e+01	1.332684e+02
2.620000e-06	3.308605e-06	2.015886e-09	2.340377e+01	1.347281e+02
2.630000e-06	3.344954e-06	2.037407e-09	2.366089e+01	1.361428e+02
2.640000e-06	3.381137e-06	2.057803e-09	2.391683e+01	1.375142e+02
2.650000e-06	3.417156e-06	2.077202e-09	2.417162e+01	1.388439e+02
2.660000e-06	3.453000e-06	2.089628e-09	2.442517e+01	1.401336e+02
2.670000e-06	3.488763e-06	2.098435e-09	2.467814e+01	1.413847e+02
2.680000e-06	3.524431e-06	2.113025e-09	2.493044e+01	1.425985e+02
2.690000e-06	3.559780e-06	2.133824e-09	2.518048e+01	1.437763e+02
2.700000e-06	3.594779e-06	2.154854e-09	2.542805e+01	1.449191e+02
2.710000e-06	3.629402e-06	2.169276e-09	2.567297e+01	1.460279e+02
2.720000e-06	3.663626e-06	2.180326e-09	2.591505e+01	1.471033e+02
2.730000e-06	3.697494e-06	2.195319e-09	2.615462e+01	1.481461e+02
2.740000e-06	3.730933e-06	2.210282e-09	2.639115e+01	1.491566e+02
2.750000e-06	3.763894e-06	2.220253e-09	2.662431e+01	1.501353e+02
2.760000e-06	3.796462e-06	2.229046e-09	2.685468e+01	1.510824e+02
2.770000e-06	3.828780e-06	2.244529e-09	2.708328e+01	1.519981e+02
2.780000e-06	3.860873e-06	2.262880e-09	2.731030e+01	1.528825e+02
2.790000e-06	3.892805e-06	2.276728e-09	2.753617e+01	1.537358e+02
2.800000e-06	3.924625e-06	2.288205e-09	2.776125e+01	1.545579e+02
2.810000e-06	3.956297e-06	2.301837e-09	2.798529e+01	1.553490e+02
2.820000e-06	3.987704e-06	2.315395e-09	2.820745e+01	1.561092e+02
2.830000e-06	4.018776e-06	2.323338e-09	2.842724e+01	1.568385e+02
2.840000e-06	4.049591e-06	2.327776e-09	2.864521e+01	1.575374e+02
2.850000e-06	4.080137e-06	2.335424e-09	2.886128e+01	1.582060e+02
2.860000e-06	4.110413e-06	2.348327e-09	2.907545e+01	1.588449e+02
2.870000e-06	4.140449e-06	2.361962e-09	2.928791e+01	1.594546e+02
2.880000e-06	4.170244e-06	2.371643e-09	2.949866e+01	1.600357e+02
2.890000e-06	4.199729e-06	2.377332e-09	2.970723e+01	1.605892e+02
2.900000e-06	4.228844e-06	2.382202e-09	2.991318e+01	1.611160e+02
