# Temperatura_=_-2.8
# Concentracion g/m^3_=_4090.0
# C_Vs_to_Am_M_A/Vsm_=_65563218390.804596
# pendiente_HvsI_1/m_=_3716.3
# ordenada_HvsI_A/m_=_1297.0
# frecuencia_Hz_=_135079.59190632685

Tiempo_(s)	Campo_(V.s)	Magnetizacion_(V.s)	Campo_(kA/m)	Magnetizacion_(A/m)
0.000000e+00	-5.445710e-06	-2.400880e-09	-3.839257e+01	-1.551212e+02
1.000000e-08	-5.445737e-06	-2.401580e-09	-3.839276e+01	-1.550974e+02
2.000000e-08	-5.445618e-06	-2.401718e-09	-3.839192e+01	-1.550730e+02
3.000000e-08	-5.445155e-06	-2.401922e-09	-3.838866e+01	-1.550494e+02
4.000000e-08	-5.444275e-06	-2.401161e-09	-3.838245e+01	-1.550278e+02
5.000000e-08	-5.442854e-06	-2.404101e-09	-3.837243e+01	-1.550097e+02
6.000000e-08	-5.440776e-06	-2.423900e-09	-3.835778e+01	-1.549964e+02
7.000000e-08	-5.438079e-06	-2.414977e-09	-3.833877e+01	-1.549893e+02
8.000000e-08	-5.434722e-06	-2.341504e-09	-3.831511e+01	-1.549897e+02
9.000000e-08	-5.430928e-06	-2.308564e-09	-3.828836e+01	-1.549989e+02
1.000000e-07	-5.426789e-06	-2.413508e-09	-3.825918e+01	-1.550180e+02
1.100000e-07	-5.422328e-06	-2.474101e-09	-3.822773e+01	-1.550481e+02
1.200000e-07	-5.417674e-06	-2.387990e-09	-3.819492e+01	-1.550901e+02
1.300000e-07	-5.412846e-06	-2.283589e-09	-3.816088e+01	-1.551446e+02
1.400000e-07	-5.407688e-06	-2.422070e-09	-3.812451e+01	-1.552122e+02
1.500000e-07	-5.402028e-06	-2.489415e-09	-3.808461e+01	-1.552933e+02
1.600000e-07	-5.395994e-06	-2.362687e-09	-3.804207e+01	-1.553879e+02
1.700000e-07	-5.389637e-06	-2.220841e-09	-3.799726e+01	-1.554961e+02
1.800000e-07	-5.382883e-06	-2.337835e-09	-3.794964e+01	-1.556175e+02
1.900000e-07	-5.375603e-06	-2.449469e-09	-3.789831e+01	-1.557515e+02
2.000000e-07	-5.368001e-06	-2.361619e-09	-3.784472e+01	-1.558976e+02
2.100000e-07	-5.360278e-06	-2.317921e-09	-3.779027e+01	-1.560547e+02
2.200000e-07	-5.352307e-06	-2.401557e-09	-3.773408e+01	-1.562218e+02
2.300000e-07	-5.344013e-06	-2.431449e-09	-3.767560e+01	-1.563975e+02
2.400000e-07	-5.335329e-06	-2.330405e-09	-3.761438e+01	-1.565805e+02
2.500000e-07	-5.326010e-06	-2.377397e-09	-3.754868e+01	-1.567691e+02
2.600000e-07	-5.315859e-06	-2.458789e-09	-3.747711e+01	-1.569615e+02
2.700000e-07	-5.305203e-06	-2.438036e-09	-3.740199e+01	-1.571561e+02
2.800000e-07	-5.294111e-06	-2.388571e-09	-3.732379e+01	-1.573509e+02
2.900000e-07	-5.282561e-06	-2.487219e-09	-3.724236e+01	-1.575441e+02
3.000000e-07	-5.270683e-06	-2.494019e-09	-3.715862e+01	-1.577337e+02
3.100000e-07	-5.258463e-06	-2.406488e-09	-3.707247e+01	-1.579178e+02
3.200000e-07	-5.245810e-06	-2.385031e-09	-3.698327e+01	-1.580945e+02
3.300000e-07	-5.232757e-06	-2.480475e-09	-3.689124e+01	-1.582622e+02
3.400000e-07	-5.219348e-06	-2.471209e-09	-3.679671e+01	-1.584191e+02
3.500000e-07	-5.205571e-06	-2.435755e-09	-3.669958e+01	-1.585636e+02
3.600000e-07	-5.191342e-06	-2.444222e-09	-3.659926e+01	-1.586944e+02
3.700000e-07	-5.176631e-06	-2.465979e-09	-3.649555e+01	-1.588100e+02
3.800000e-07	-5.161469e-06	-2.441426e-09	-3.638866e+01	-1.589096e+02
3.900000e-07	-5.145828e-06	-2.445271e-09	-3.627839e+01	-1.589921e+02
4.000000e-07	-5.129665e-06	-2.432381e-09	-3.616444e+01	-1.590568e+02
4.100000e-07	-5.113034e-06	-2.407986e-09	-3.604719e+01	-1.591033e+02
4.200000e-07	-5.096044e-06	-2.435898e-09	-3.592740e+01	-1.591312e+02
4.300000e-07	-5.078733e-06	-2.478738e-09	-3.580536e+01	-1.591405e+02
4.400000e-07	-5.061185e-06	-2.446063e-09	-3.568165e+01	-1.591313e+02
4.500000e-07	-5.043312e-06	-2.397663e-09	-3.555564e+01	-1.591039e+02
4.600000e-07	-5.024998e-06	-2.425496e-09	-3.542653e+01	-1.590589e+02
4.700000e-07	-5.006221e-06	-2.441340e-09	-3.529415e+01	-1.589968e+02
4.800000e-07	-4.987055e-06	-2.417607e-09	-3.515902e+01	-1.589186e+02
4.900000e-07	-4.967627e-06	-2.395883e-09	-3.502206e+01	-1.588253e+02
5.000000e-07	-4.947954e-06	-2.424760e-09	-3.488336e+01	-1.587180e+02
5.100000e-07	-4.928020e-06	-2.442032e-09	-3.474283e+01	-1.585979e+02
5.200000e-07	-4.907907e-06	-2.445166e-09	-3.460103e+01	-1.584663e+02
5.300000e-07	-4.887559e-06	-2.414860e-09	-3.445757e+01	-1.583246e+02
5.400000e-07	-4.866799e-06	-2.402015e-09	-3.431121e+01	-1.581744e+02
5.500000e-07	-4.845629e-06	-2.406321e-09	-3.416196e+01	-1.580169e+02
5.600000e-07	-4.824116e-06	-2.424065e-09	-3.401030e+01	-1.578537e+02
5.700000e-07	-4.802256e-06	-2.398206e-09	-3.385618e+01	-1.576861e+02
5.800000e-07	-4.780155e-06	-2.383374e-09	-3.370037e+01	-1.575156e+02
5.900000e-07	-4.757791e-06	-2.395987e-09	-3.354270e+01	-1.573434e+02
6.000000e-07	-4.735039e-06	-2.424720e-09	-3.338230e+01	-1.571708e+02
6.100000e-07	-4.711924e-06	-2.407919e-09	-3.321934e+01	-1.569990e+02
6.200000e-07	-4.688481e-06	-2.384346e-09	-3.305406e+01	-1.568288e+02
6.300000e-07	-4.664791e-06	-2.378363e-09	-3.288705e+01	-1.566613e+02
6.400000e-07	-4.640950e-06	-2.394651e-09	-3.271897e+01	-1.564972e+02
6.500000e-07	-4.616901e-06	-2.389137e-09	-3.254942e+01	-1.563370e+02
6.600000e-07	-4.592536e-06	-2.371398e-09	-3.237764e+01	-1.561814e+02
6.700000e-07	-4.567735e-06	-2.362454e-09	-3.220279e+01	-1.560306e+02
6.800000e-07	-4.542477e-06	-2.380309e-09	-3.202473e+01	-1.558847e+02
6.900000e-07	-4.516641e-06	-2.390627e-09	-3.184258e+01	-1.557439e+02
7.000000e-07	-4.490277e-06	-2.376016e-09	-3.165671e+01	-1.556080e+02
7.100000e-07	-4.463502e-06	-2.357435e-09	-3.146795e+01	-1.554768e+02
7.200000e-07	-4.436161e-06	-2.360267e-09	-3.127519e+01	-1.553500e+02
7.300000e-07	-4.408475e-06	-2.370678e-09	-3.108000e+01	-1.552270e+02
7.400000e-07	-4.380677e-06	-2.360998e-09	-3.088403e+01	-1.551073e+02
7.500000e-07	-4.352768e-06	-2.344002e-09	-3.068727e+01	-1.549903e+02
7.600000e-07	-4.324764e-06	-2.340819e-09	-3.048984e+01	-1.548751e+02
7.700000e-07	-4.296554e-06	-2.354391e-09	-3.029096e+01	-1.547611e+02
7.800000e-07	-4.267962e-06	-2.352545e-09	-3.008938e+01	-1.546473e+02
7.900000e-07	-4.238988e-06	-2.340774e-09	-2.988511e+01	-1.545330e+02
8.000000e-07	-4.209714e-06	-2.331403e-09	-2.967873e+01	-1.544171e+02
8.100000e-07	-4.180092e-06	-2.341590e-09	-2.946989e+01	-1.542989e+02
8.200000e-07	-4.150119e-06	-2.344082e-09	-2.925858e+01	-1.541775e+02
8.300000e-07	-4.119941e-06	-2.335841e-09	-2.904582e+01	-1.540521e+02
8.400000e-07	-4.089602e-06	-2.321984e-09	-2.883193e+01	-1.539218e+02
8.500000e-07	-4.058996e-06	-2.325641e-09	-2.861616e+01	-1.537860e+02
8.600000e-07	-4.028020e-06	-2.327606e-09	-2.839777e+01	-1.536440e+02
8.700000e-07	-3.996708e-06	-2.322725e-09	-2.817703e+01	-1.534952e+02
8.800000e-07	-3.965191e-06	-2.307232e-09	-2.795483e+01	-1.533391e+02
8.900000e-07	-3.933513e-06	-2.306503e-09	-2.773150e+01	-1.531753e+02
9.000000e-07	-3.901712e-06	-2.310187e-09	-2.750730e+01	-1.530036e+02
9.100000e-07	-3.869753e-06	-2.310388e-09	-2.728198e+01	-1.528236e+02
9.200000e-07	-3.837543e-06	-2.301129e-09	-2.705490e+01	-1.526353e+02
9.300000e-07	-3.805044e-06	-2.299964e-09	-2.682578e+01	-1.524386e+02
9.400000e-07	-3.772246e-06	-2.305072e-09	-2.659456e+01	-1.522336e+02
9.500000e-07	-3.739064e-06	-2.306889e-09	-2.636062e+01	-1.520205e+02
9.600000e-07	-3.705419e-06	-2.296076e-09	-2.612342e+01	-1.517995e+02
9.700000e-07	-3.671301e-06	-2.287244e-09	-2.588289e+01	-1.515710e+02
9.800000e-07	-3.636665e-06	-2.286367e-09	-2.563870e+01	-1.513353e+02
9.900000e-07	-3.601613e-06	-2.289097e-09	-2.539158e+01	-1.510929e+02
1.000000e-06	-3.566301e-06	-2.285254e-09	-2.514263e+01	-1.508443e+02
1.010000e-06	-3.530743e-06	-2.279752e-09	-2.489194e+01	-1.505900e+02
1.020000e-06	-3.495016e-06	-2.280688e-09	-2.464006e+01	-1.503307e+02
1.030000e-06	-3.459179e-06	-2.280160e-09	-2.438741e+01	-1.500669e+02
1.040000e-06	-3.423254e-06	-2.272799e-09	-2.413414e+01	-1.497993e+02
1.050000e-06	-3.387205e-06	-2.258556e-09	-2.387999e+01	-1.495283e+02
1.060000e-06	-3.350951e-06	-2.250089e-09	-2.362440e+01	-1.492547e+02
1.070000e-06	-3.314437e-06	-2.247915e-09	-2.336697e+01	-1.489789e+02
1.080000e-06	-3.277607e-06	-2.245735e-09	-2.310732e+01	-1.487014e+02
1.090000e-06	-3.240426e-06	-2.237441e-09	-2.284519e+01	-1.484228e+02
1.100000e-06	-3.203049e-06	-2.232613e-09	-2.258168e+01	-1.481435e+02
1.110000e-06	-3.165549e-06	-2.229797e-09	-2.231731e+01	-1.478637e+02
1.120000e-06	-3.127839e-06	-2.224870e-09	-2.205145e+01	-1.475839e+02
1.130000e-06	-3.089979e-06	-2.212952e-09	-2.178453e+01	-1.473041e+02
1.140000e-06	-3.051888e-06	-2.205051e-09	-2.151599e+01	-1.470245e+02
1.150000e-06	-3.013491e-06	-2.201379e-09	-2.124528e+01	-1.467453e+02
1.160000e-06	-2.974836e-06	-2.200947e-09	-2.097277e+01	-1.464663e+02
1.170000e-06	-2.935918e-06	-2.193711e-09	-2.069839e+01	-1.461875e+02
1.180000e-06	-2.896841e-06	-2.184533e-09	-2.042290e+01	-1.459088e+02
1.190000e-06	-2.857643e-06	-2.177679e-09	-2.014655e+01	-1.456297e+02
1.200000e-06	-2.818165e-06	-2.175840e-09	-1.986823e+01	-1.453501e+02
1.210000e-06	-2.778492e-06	-2.168694e-09	-1.958853e+01	-1.450695e+02
1.220000e-06	-2.738824e-06	-2.158079e-09	-1.930887e+01	-1.447876e+02
1.230000e-06	-2.699059e-06	-2.149776e-09	-1.902852e+01	-1.445037e+02
1.240000e-06	-2.659155e-06	-2.150266e-09	-1.874720e+01	-1.442174e+02
1.250000e-06	-2.619155e-06	-2.148569e-09	-1.846519e+01	-1.439281e+02
1.260000e-06	-2.579036e-06	-2.140013e-09	-1.818235e+01	-1.436351e+02
1.270000e-06	-2.538807e-06	-2.129122e-09	-1.789874e+01	-1.433379e+02
1.280000e-06	-2.498398e-06	-2.121742e-09	-1.761385e+01	-1.430357e+02
1.290000e-06	-2.457758e-06	-2.115742e-09	-1.732733e+01	-1.427279e+02
1.300000e-06	-2.416977e-06	-2.106927e-09	-1.703983e+01	-1.424139e+02
1.310000e-06	-2.376005e-06	-2.100816e-09	-1.675097e+01	-1.420930e+02
1.320000e-06	-2.334640e-06	-2.100768e-09	-1.645935e+01	-1.417645e+02
1.330000e-06	-2.292890e-06	-2.100053e-09	-1.616501e+01	-1.414279e+02
1.340000e-06	-2.250867e-06	-2.092482e-09	-1.586874e+01	-1.410824e+02
1.350000e-06	-2.208512e-06	-2.081328e-09	-1.557014e+01	-1.407276e+02
1.360000e-06	-2.165856e-06	-2.069596e-09	-1.526941e+01	-1.403630e+02
1.370000e-06	-2.122900e-06	-2.062595e-09	-1.496657e+01	-1.399878e+02
1.380000e-06	-2.079671e-06	-2.054768e-09	-1.466180e+01	-1.396018e+02
1.390000e-06	-2.036394e-06	-2.045650e-09	-1.435669e+01	-1.392044e+02
1.400000e-06	-1.993109e-06	-2.041416e-09	-1.405153e+01	-1.387952e+02
1.410000e-06	-1.949756e-06	-2.041389e-09	-1.374589e+01	-1.383739e+02
1.420000e-06	-1.906166e-06	-2.035356e-09	-1.343858e+01	-1.379399e+02
1.430000e-06	-1.862407e-06	-2.024074e-09	-1.313008e+01	-1.374931e+02
1.440000e-06	-1.818646e-06	-2.012575e-09	-1.282156e+01	-1.370330e+02
1.450000e-06	-1.774785e-06	-2.003533e-09	-1.251234e+01	-1.365593e+02
1.460000e-06	-1.730823e-06	-1.993376e-09	-1.220241e+01	-1.360718e+02
1.470000e-06	-1.686850e-06	-1.982201e-09	-1.189239e+01	-1.355701e+02
1.480000e-06	-1.642774e-06	-1.972172e-09	-1.158165e+01	-1.350539e+02
1.490000e-06	-1.598520e-06	-1.968009e-09	-1.126966e+01	-1.345230e+02
1.500000e-06	-1.554187e-06	-1.964661e-09	-1.095711e+01	-1.339770e+02
1.510000e-06	-1.509781e-06	-1.955806e-09	-1.064405e+01	-1.334156e+02
1.520000e-06	-1.465259e-06	-1.941851e-09	-1.033016e+01	-1.328385e+02
1.530000e-06	-1.420737e-06	-1.930996e-09	-1.001628e+01	-1.322454e+02
1.540000e-06	-1.376233e-06	-1.923302e-09	-9.702520e+00	-1.316358e+02
1.550000e-06	-1.331590e-06	-1.914237e-09	-9.387786e+00	-1.310094e+02
1.560000e-06	-1.286784e-06	-1.901559e-09	-9.071901e+00	-1.303657e+02
1.570000e-06	-1.241839e-06	-1.891406e-09	-8.755036e+00	-1.297044e+02
1.580000e-06	-1.196785e-06	-1.884236e-09	-8.437404e+00	-1.290248e+02
1.590000e-06	-1.151592e-06	-1.876003e-09	-8.118791e+00	-1.283266e+02
1.600000e-06	-1.106211e-06	-1.865170e-09	-7.798849e+00	-1.276092e+02
1.610000e-06	-1.060769e-06	-1.852910e-09	-7.478485e+00	-1.268720e+02
1.620000e-06	-1.015271e-06	-1.842166e-09	-7.157717e+00	-1.261144e+02
1.630000e-06	-9.696989e-07	-1.830520e-09	-6.836433e+00	-1.253359e+02
1.640000e-06	-9.241385e-07	-1.816477e-09	-6.515230e+00	-1.245356e+02
1.650000e-06	-8.784844e-07	-1.803907e-09	-6.193366e+00	-1.237130e+02
1.660000e-06	-8.327388e-07	-1.793794e-09	-5.870857e+00	-1.228674e+02
1.670000e-06	-7.870089e-07	-1.782486e-09	-5.548458e+00	-1.219978e+02
1.680000e-06	-7.412832e-07	-1.767289e-09	-5.226089e+00	-1.211036e+02
1.690000e-06	-6.955438e-07	-1.749142e-09	-4.903624e+00	-1.201838e+02
1.700000e-06	-6.497232e-07	-1.734784e-09	-4.580586e+00	-1.192376e+02
1.710000e-06	-6.038455e-07	-1.722029e-09	-4.257146e+00	-1.182640e+02
1.720000e-06	-5.579703e-07	-1.706742e-09	-3.933723e+00	-1.172619e+02
1.730000e-06	-5.120338e-07	-1.690189e-09	-3.609868e+00	-1.162304e+02
1.740000e-06	-4.660244e-07	-1.676899e-09	-3.285499e+00	-1.151681e+02
1.750000e-06	-4.200349e-07	-1.664350e-09	-2.961270e+00	-1.140739e+02
1.760000e-06	-3.740186e-07	-1.648080e-09	-2.636853e+00	-1.129464e+02
1.770000e-06	-3.279121e-07	-1.627139e-09	-2.311799e+00	-1.117841e+02
1.780000e-06	-2.817397e-07	-1.608181e-09	-1.986281e+00	-1.105855e+02
1.790000e-06	-2.354790e-07	-1.592490e-09	-1.660141e+00	-1.093490e+02
1.800000e-06	-1.892354e-07	-1.574612e-09	-1.334121e+00	-1.080726e+02
1.810000e-06	-1.430442e-07	-1.554675e-09	-1.008470e+00	-1.067546e+02
1.820000e-06	-9.690217e-08	-1.537493e-09	-6.831659e-01	-1.053928e+02
1.830000e-06	-5.079603e-08	-1.520199e-09	-3.581150e-01	-1.039849e+02
1.840000e-06	-4.633611e-09	-1.498581e-09	-3.266723e-02	-1.025288e+02
1.850000e-06	4.150645e-08	-1.471471e-09	2.926229e-01	-1.010218e+02
1.860000e-06	8.763443e-08	-1.441110e-09	6.178278e-01	-9.946132e+01
1.870000e-06	1.337542e-07	-1.414119e-09	9.429746e-01	-9.784463e+01
1.880000e-06	1.798147e-07	-1.388502e-09	1.267704e+00	-9.616883e+01
1.890000e-06	2.259142e-07	-1.363078e-09	1.592709e+00	-9.443093e+01
1.900000e-06	2.719870e-07	-1.339325e-09	1.917524e+00	-9.262785e+01
1.910000e-06	3.180365e-07	-1.314734e-09	2.242176e+00	-9.075643e+01
1.920000e-06	3.641048e-07	-1.288287e-09	2.566960e+00	-8.881347e+01
1.930000e-06	4.101549e-07	-1.258387e-09	2.891616e+00	-8.679574e+01
1.940000e-06	4.562550e-07	-1.223933e-09	3.216624e+00	-8.470003e+01
1.950000e-06	5.022450e-07	-1.188780e-09	3.540856e+00	-8.252318e+01
1.960000e-06	5.481033e-07	-1.154026e-09	3.864160e+00	-8.026211e+01
1.970000e-06	5.939513e-07	-1.116208e-09	4.187391e+00	-7.791385e+01
1.980000e-06	6.397822e-07	-1.076541e-09	4.510502e+00	-7.547562e+01
1.990000e-06	6.855281e-07	-1.040634e-09	4.833013e+00	-7.294483e+01
2.000000e-06	7.312163e-07	-1.007954e-09	5.155117e+00	-7.031917e+01
2.010000e-06	7.768693e-07	-9.730760e-10	5.476974e+00	-6.759662e+01
2.020000e-06	8.225361e-07	-9.322476e-10	5.798928e+00	-6.477552e+01
2.030000e-06	8.681847e-07	-8.871335e-10	6.120752e+00	-6.185460e+01
2.040000e-06	9.137342e-07	-8.394450e-10	6.441879e+00	-5.883303e+01
2.050000e-06	9.592296e-07	-7.876808e-10	6.762625e+00	-5.571049e+01
2.060000e-06	1.004690e-06	-7.355815e-10	7.083126e+00	-5.248715e+01
2.070000e-06	1.050136e-06	-6.879664e-10	7.403517e+00	-4.916377e+01
2.080000e-06	1.095411e-06	-6.443929e-10	7.722710e+00	-4.574168e+01
2.090000e-06	1.140504e-06	-6.010126e-10	8.040620e+00	-4.222283e+01
2.100000e-06	1.185583e-06	-5.535107e-10	8.358430e+00	-3.860981e+01
2.110000e-06	1.230661e-06	-4.984789e-10	8.676232e+00	-3.490587e+01
2.120000e-06	1.275531e-06	-4.369098e-10	8.992566e+00	-3.111489e+01
2.130000e-06	1.320337e-06	-3.725924e-10	9.308451e+00	-2.724142e+01
2.140000e-06	1.365205e-06	-3.062381e-10	9.624776e+00	-2.329067e+01
2.150000e-06	1.409830e-06	-2.403218e-10	9.939382e+00	-1.926845e+01
2.160000e-06	1.454291e-06	-1.804451e-10	1.025283e+01	-1.518120e+01
2.170000e-06	1.498676e-06	-1.233314e-10	1.056575e+01	-1.103590e+01
2.180000e-06	1.542904e-06	-6.409393e-11	1.087756e+01	-6.840084e+00
2.190000e-06	1.587040e-06	-1.138637e-12	1.118873e+01	-2.601767e+00
2.200000e-06	1.631161e-06	6.231877e-11	1.149978e+01	1.670615e+00
2.210000e-06	1.675225e-06	1.263348e-10	1.181043e+01	5.968260e+00
2.220000e-06	1.719183e-06	1.947617e-10	1.212034e+01	1.028207e+01
2.230000e-06	1.763054e-06	2.666457e-10	1.242963e+01	1.460271e+01
2.240000e-06	1.806847e-06	3.377365e-10	1.273838e+01	1.892070e+01
2.250000e-06	1.850612e-06	4.038019e-10	1.304692e+01	2.322651e+01
2.260000e-06	1.894327e-06	4.698954e-10	1.335512e+01	2.751059e+01
2.270000e-06	1.937908e-06	5.368244e-10	1.366236e+01	3.176349e+01
2.280000e-06	1.981338e-06	5.973266e-10	1.396855e+01	3.597596e+01
2.290000e-06	2.024740e-06	6.525239e-10	1.427454e+01	4.013899e+01
2.300000e-06	2.068051e-06	7.085697e-10	1.457988e+01	4.424390e+01
2.310000e-06	2.111205e-06	7.664293e-10	1.488412e+01	4.828242e+01
2.320000e-06	2.154199e-06	8.243593e-10	1.518723e+01	5.224677e+01
2.330000e-06	2.196904e-06	8.808709e-10	1.548830e+01	5.612973e+01
2.340000e-06	2.239286e-06	9.382102e-10	1.578710e+01	5.992464e+01
2.350000e-06	2.281346e-06	9.968115e-10	1.608362e+01	6.362555e+01
2.360000e-06	2.323075e-06	1.052391e-09	1.637781e+01	6.722716e+01
2.370000e-06	2.364532e-06	1.099351e-09	1.667009e+01	7.072492e+01
2.380000e-06	2.405788e-06	1.139795e-09	1.696095e+01	7.411504e+01
2.390000e-06	2.446825e-06	1.179452e-09	1.725026e+01	7.739450e+01
2.400000e-06	2.487569e-06	1.218265e-09	1.753750e+01	8.056104e+01
2.410000e-06	2.528038e-06	1.257164e-09	1.782282e+01	8.361320e+01
2.420000e-06	2.568305e-06	1.300478e-09	1.810670e+01	8.655025e+01
2.430000e-06	2.608460e-06	1.348631e-09	1.838980e+01	8.937222e+01
2.440000e-06	2.648504e-06	1.396926e-09	1.867211e+01	9.207983e+01
2.450000e-06	2.688423e-06	1.436138e-09	1.895354e+01	9.467448e+01
2.460000e-06	2.728201e-06	1.467346e-09	1.923398e+01	9.715817e+01
2.470000e-06	2.767872e-06	1.495663e-09	1.951366e+01	9.953349e+01
2.480000e-06	2.807488e-06	1.522756e-09	1.979295e+01	1.018035e+02
2.490000e-06	2.846899e-06	1.549394e-09	2.007080e+01	1.039717e+02
2.500000e-06	2.886016e-06	1.578334e-09	2.034658e+01	1.060421e+02
2.510000e-06	2.924976e-06	1.613081e-09	2.062125e+01	1.080188e+02
2.520000e-06	2.963827e-06	1.648261e-09	2.089515e+01	1.099063e+02
2.530000e-06	3.002389e-06	1.675772e-09	2.116701e+01	1.117092e+02
2.540000e-06	3.040638e-06	1.696727e-09	2.143668e+01	1.134322e+02
2.550000e-06	3.078685e-06	1.719632e-09	2.170491e+01	1.150801e+02
2.560000e-06	3.116531e-06	1.744572e-09	2.197172e+01	1.166575e+02
2.570000e-06	3.154164e-06	1.765719e-09	2.223704e+01	1.181690e+02
2.580000e-06	3.191572e-06	1.782446e-09	2.250077e+01	1.196192e+02
2.590000e-06	3.228799e-06	1.801687e-09	2.276322e+01	1.210122e+02
2.600000e-06	3.265847e-06	1.825776e-09	2.302441e+01	1.223521e+02
2.610000e-06	3.302676e-06	1.847773e-09	2.328406e+01	1.236426e+02
2.620000e-06	3.339285e-06	1.863787e-09	2.354215e+01	1.248872e+02
2.630000e-06	3.375651e-06	1.881738e-09	2.379854e+01	1.260890e+02
2.640000e-06	3.411812e-06	1.903994e-09	2.405347e+01	1.272506e+02
2.650000e-06	3.447794e-06	1.922755e-09	2.430715e+01	1.283747e+02
2.660000e-06	3.483595e-06	1.933417e-09	2.455955e+01	1.294631e+02
2.670000e-06	3.519238e-06	1.943595e-09	2.481083e+01	1.305177e+02
2.680000e-06	3.554754e-06	1.957242e-09	2.506122e+01	1.315399e+02
2.690000e-06	3.590072e-06	1.970096e-09	2.531022e+01	1.325307e+02
2.700000e-06	3.625077e-06	1.979867e-09	2.555701e+01	1.334910e+02
2.710000e-06	3.659725e-06	1.991261e-09	2.580127e+01	1.344213e+02
2.720000e-06	3.693958e-06	2.009872e-09	2.604262e+01	1.353221e+02
2.730000e-06	3.727790e-06	2.030114e-09	2.628114e+01	1.361935e+02
2.740000e-06	3.761249e-06	2.044551e-09	2.651703e+01	1.370355e+02
2.750000e-06	3.794295e-06	2.056082e-09	2.675000e+01	1.378481e+02
2.760000e-06	3.826916e-06	2.069330e-09	2.697998e+01	1.386311e+02
2.770000e-06	3.859165e-06	2.081506e-09	2.720734e+01	1.393844e+02
2.780000e-06	3.891165e-06	2.089521e-09	2.743294e+01	1.401077e+02
2.790000e-06	3.923054e-06	2.097172e-09	2.765776e+01	1.408010e+02
2.800000e-06	3.954811e-06	2.107938e-09	2.788165e+01	1.414643e+02
2.810000e-06	3.986324e-06	2.120063e-09	2.810382e+01	1.420975e+02
2.820000e-06	4.017607e-06	2.130302e-09	2.832436e+01	1.427009e+02
2.830000e-06	4.048645e-06	2.137787e-09	2.854318e+01	1.432746e+02
2.840000e-06	4.079421e-06	2.144070e-09	2.876016e+01	1.438193e+02
2.850000e-06	4.109999e-06	2.151354e-09	2.897573e+01	1.443354e+02
2.860000e-06	4.140246e-06	2.159561e-09	2.918897e+01	1.448238e+02
2.870000e-06	4.170129e-06	2.167016e-09	2.939965e+01	1.452853e+02
2.880000e-06	4.199773e-06	2.174524e-09	2.960865e+01	1.457211e+02
2.890000e-06	4.229141e-06	2.180422e-09	2.981569e+01	1.461323e+02
2.900000e-06	4.258223e-06	2.184655e-09	3.002072e+01	1.465203e+02
