# Temperatura_=_15.05
# Concentracion g/m^3_=_4090.0
# C_Vs_to_Am_M_A/Vsm_=_65563218390.804596
# pendiente_HvsI_1/m_=_3716.3
# ordenada_HvsI_A/m_=_1297.0
# frecuencia_Hz_=_135080.55943171674

Tiempo_(s)	Campo_(V.s)	Magnetizacion_(V.s)	Campo_(kA/m)	Magnetizacion_(A/m)
0.000000e+00	-5.419169e-06	-2.669704e-09	-3.838439e+01	-1.725910e+02
1.000000e-08	-5.419386e-06	-2.674457e-09	-3.838593e+01	-1.725858e+02
2.000000e-08	-5.419426e-06	-2.674691e-09	-3.838622e+01	-1.725733e+02
3.000000e-08	-5.419143e-06	-2.669300e-09	-3.838421e+01	-1.725540e+02
4.000000e-08	-5.418535e-06	-2.663906e-09	-3.837991e+01	-1.725291e+02
5.000000e-08	-5.417586e-06	-2.659850e-09	-3.837318e+01	-1.724998e+02
6.000000e-08	-5.416062e-06	-2.659308e-09	-3.836239e+01	-1.724672e+02
7.000000e-08	-5.413948e-06	-2.671784e-09	-3.834741e+01	-1.724329e+02
8.000000e-08	-5.411200e-06	-2.664082e-09	-3.832795e+01	-1.723984e+02
9.000000e-08	-5.407721e-06	-2.627536e-09	-3.830330e+01	-1.723652e+02
1.000000e-07	-5.403773e-06	-2.640067e-09	-3.827534e+01	-1.723350e+02
1.100000e-07	-5.399558e-06	-2.722170e-09	-3.824549e+01	-1.723093e+02
1.200000e-07	-5.395110e-06	-2.704122e-09	-3.821398e+01	-1.722897e+02
1.300000e-07	-5.390449e-06	-2.580324e-09	-3.818096e+01	-1.722775e+02
1.400000e-07	-5.385486e-06	-2.579083e-09	-3.814581e+01	-1.722740e+02
1.500000e-07	-5.380106e-06	-2.704572e-09	-3.810771e+01	-1.722805e+02
1.600000e-07	-5.374282e-06	-2.699471e-09	-3.806646e+01	-1.722978e+02
1.700000e-07	-5.368132e-06	-2.558880e-09	-3.802289e+01	-1.723267e+02
1.800000e-07	-5.361624e-06	-2.560426e-09	-3.797679e+01	-1.723677e+02
1.900000e-07	-5.354638e-06	-2.719145e-09	-3.792731e+01	-1.724211e+02
2.000000e-07	-5.347259e-06	-2.697999e-09	-3.787505e+01	-1.724867e+02
2.100000e-07	-5.339712e-06	-2.566406e-09	-3.782159e+01	-1.725643e+02
2.200000e-07	-5.332030e-06	-2.574953e-09	-3.776718e+01	-1.726534e+02
2.300000e-07	-5.324018e-06	-2.686053e-09	-3.771043e+01	-1.727530e+02
2.400000e-07	-5.315642e-06	-2.637621e-09	-3.765111e+01	-1.728621e+02
2.500000e-07	-5.306912e-06	-2.573036e-09	-3.758927e+01	-1.729794e+02
2.600000e-07	-5.297557e-06	-2.655989e-09	-3.752301e+01	-1.731032e+02
2.700000e-07	-5.287501e-06	-2.722590e-09	-3.745178e+01	-1.732317e+02
2.800000e-07	-5.276954e-06	-2.640923e-09	-3.737708e+01	-1.733631e+02
2.900000e-07	-5.265992e-06	-2.634392e-09	-3.729943e+01	-1.734953e+02
3.000000e-07	-5.254529e-06	-2.730707e-09	-3.721824e+01	-1.736261e+02
3.100000e-07	-5.242570e-06	-2.697164e-09	-3.713353e+01	-1.737532e+02
3.200000e-07	-5.230248e-06	-2.627233e-09	-3.704625e+01	-1.738745e+02
3.300000e-07	-5.217551e-06	-2.692492e-09	-3.695632e+01	-1.739877e+02
3.400000e-07	-5.204403e-06	-2.761167e-09	-3.686319e+01	-1.740906e+02
3.500000e-07	-5.190897e-06	-2.679178e-09	-3.676753e+01	-1.741811e+02
3.600000e-07	-5.177152e-06	-2.655985e-09	-3.667016e+01	-1.742574e+02
3.700000e-07	-5.163033e-06	-2.704491e-09	-3.657016e+01	-1.743177e+02
3.800000e-07	-5.148388e-06	-2.686921e-09	-3.646643e+01	-1.743603e+02
3.900000e-07	-5.133220e-06	-2.641201e-09	-3.635900e+01	-1.743840e+02
4.000000e-07	-5.117463e-06	-2.678144e-09	-3.624739e+01	-1.743876e+02
4.100000e-07	-5.100982e-06	-2.681840e-09	-3.613065e+01	-1.743703e+02
4.200000e-07	-5.084185e-06	-2.655369e-09	-3.601168e+01	-1.743316e+02
4.300000e-07	-5.067170e-06	-2.686600e-09	-3.589116e+01	-1.742711e+02
4.400000e-07	-5.049825e-06	-2.710376e-09	-3.576830e+01	-1.741888e+02
4.500000e-07	-5.032242e-06	-2.642590e-09	-3.564376e+01	-1.740851e+02
4.600000e-07	-5.014371e-06	-2.628819e-09	-3.551718e+01	-1.739603e+02
4.700000e-07	-4.996168e-06	-2.671201e-09	-3.538824e+01	-1.738153e+02
4.800000e-07	-4.977556e-06	-2.662556e-09	-3.525642e+01	-1.736512e+02
4.900000e-07	-4.958550e-06	-2.624027e-09	-3.512180e+01	-1.734690e+02
5.000000e-07	-4.939124e-06	-2.647854e-09	-3.498420e+01	-1.732702e+02
5.100000e-07	-4.919369e-06	-2.667982e-09	-3.484427e+01	-1.730564e+02
5.200000e-07	-4.899373e-06	-2.654665e-09	-3.470264e+01	-1.728292e+02
5.300000e-07	-4.879172e-06	-2.638663e-09	-3.455955e+01	-1.725903e+02
5.400000e-07	-4.858788e-06	-2.629105e-09	-3.441517e+01	-1.723415e+02
5.500000e-07	-4.838014e-06	-2.619699e-09	-3.426803e+01	-1.720847e+02
5.600000e-07	-4.816818e-06	-2.630576e-09	-3.411789e+01	-1.718217e+02
5.700000e-07	-4.795309e-06	-2.629606e-09	-3.396555e+01	-1.715541e+02
5.800000e-07	-4.773477e-06	-2.610658e-09	-3.381091e+01	-1.712836e+02
5.900000e-07	-4.751334e-06	-2.609616e-09	-3.365407e+01	-1.710119e+02
6.000000e-07	-4.728924e-06	-2.623291e-09	-3.349533e+01	-1.707402e+02
6.100000e-07	-4.706215e-06	-2.616882e-09	-3.333448e+01	-1.704700e+02
6.200000e-07	-4.683109e-06	-2.593404e-09	-3.317082e+01	-1.702023e+02
6.300000e-07	-4.659607e-06	-2.583255e-09	-3.300436e+01	-1.699380e+02
6.400000e-07	-4.635826e-06	-2.587345e-09	-3.283591e+01	-1.696779e+02
6.500000e-07	-4.611888e-06	-2.591874e-09	-3.266636e+01	-1.694224e+02
6.600000e-07	-4.587767e-06	-2.576611e-09	-3.249551e+01	-1.691720e+02
6.700000e-07	-4.563386e-06	-2.563604e-09	-3.232281e+01	-1.689266e+02
6.800000e-07	-4.538655e-06	-2.564293e-09	-3.214764e+01	-1.686864e+02
6.900000e-07	-4.513454e-06	-2.568568e-09	-3.196914e+01	-1.684509e+02
7.000000e-07	-4.487741e-06	-2.553030e-09	-3.178702e+01	-1.682199e+02
7.100000e-07	-4.461524e-06	-2.538912e-09	-3.160132e+01	-1.679926e+02
7.200000e-07	-4.434722e-06	-2.534426e-09	-3.141148e+01	-1.677685e+02
7.300000e-07	-4.407468e-06	-2.543478e-09	-3.121844e+01	-1.675468e+02
7.400000e-07	-4.379947e-06	-2.540098e-09	-3.102350e+01	-1.673264e+02
7.500000e-07	-4.352172e-06	-2.525809e-09	-3.082677e+01	-1.671065e+02
7.600000e-07	-4.324203e-06	-2.513301e-09	-3.062867e+01	-1.668860e+02
7.700000e-07	-4.296019e-06	-2.517377e-09	-3.042903e+01	-1.666639e+02
7.800000e-07	-4.267612e-06	-2.514675e-09	-3.022782e+01	-1.664391e+02
7.900000e-07	-4.239013e-06	-2.504464e-09	-3.002525e+01	-1.662106e+02
8.000000e-07	-4.210134e-06	-2.496140e-09	-2.982070e+01	-1.659774e+02
8.100000e-07	-4.180858e-06	-2.499934e-09	-2.961334e+01	-1.657385e+02
8.200000e-07	-4.151243e-06	-2.502610e-09	-2.940358e+01	-1.654931e+02
8.300000e-07	-4.121414e-06	-2.495299e-09	-2.919230e+01	-1.652405e+02
8.400000e-07	-4.091398e-06	-2.479782e-09	-2.897969e+01	-1.649798e+02
8.500000e-07	-4.061044e-06	-2.473430e-09	-2.876469e+01	-1.647106e+02
8.600000e-07	-4.030374e-06	-2.472561e-09	-2.854745e+01	-1.644323e+02
8.700000e-07	-3.999502e-06	-2.465539e-09	-2.832878e+01	-1.641446e+02
8.800000e-07	-3.968286e-06	-2.454271e-09	-2.810768e+01	-1.638473e+02
8.900000e-07	-3.936783e-06	-2.448799e-09	-2.788454e+01	-1.635402e+02
9.000000e-07	-3.905116e-06	-2.449595e-09	-2.766024e+01	-1.632232e+02
9.100000e-07	-3.873282e-06	-2.448049e-09	-2.743475e+01	-1.628965e+02
9.200000e-07	-3.841296e-06	-2.440300e-09	-2.720819e+01	-1.625603e+02
9.300000e-07	-3.809107e-06	-2.431088e-09	-2.698020e+01	-1.622147e+02
9.400000e-07	-3.776695e-06	-2.429493e-09	-2.675062e+01	-1.618602e+02
9.500000e-07	-3.744054e-06	-2.427941e-09	-2.651942e+01	-1.614972e+02
9.600000e-07	-3.711060e-06	-2.422097e-09	-2.628572e+01	-1.611260e+02
9.700000e-07	-3.677551e-06	-2.410862e-09	-2.604838e+01	-1.607474e+02
9.800000e-07	-3.643604e-06	-2.407744e-09	-2.580793e+01	-1.603617e+02
9.900000e-07	-3.609341e-06	-2.406351e-09	-2.556524e+01	-1.599696e+02
1.000000e-06	-3.574623e-06	-2.400632e-09	-2.531933e+01	-1.595716e+02
1.010000e-06	-3.539387e-06	-2.392047e-09	-2.506975e+01	-1.591685e+02
1.020000e-06	-3.503838e-06	-2.391482e-09	-2.481796e+01	-1.587606e+02
1.030000e-06	-3.468110e-06	-2.391242e-09	-2.456489e+01	-1.583487e+02
1.040000e-06	-3.432288e-06	-2.383519e-09	-2.431116e+01	-1.579331e+02
1.050000e-06	-3.396396e-06	-2.368690e-09	-2.405694e+01	-1.575146e+02
1.060000e-06	-3.360300e-06	-2.359564e-09	-2.380127e+01	-1.570934e+02
1.070000e-06	-3.324016e-06	-2.355745e-09	-2.354427e+01	-1.566701e+02
1.080000e-06	-3.287584e-06	-2.351282e-09	-2.328621e+01	-1.562449e+02
1.090000e-06	-3.251030e-06	-2.339524e-09	-2.302730e+01	-1.558183e+02
1.100000e-06	-3.214233e-06	-2.330346e-09	-2.276666e+01	-1.553904e+02
1.110000e-06	-3.177120e-06	-2.327142e-09	-2.250378e+01	-1.549614e+02
1.120000e-06	-3.139685e-06	-2.324515e-09	-2.223863e+01	-1.545315e+02
1.130000e-06	-3.101998e-06	-2.315837e-09	-2.197169e+01	-1.541008e+02
1.140000e-06	-3.064129e-06	-2.304888e-09	-2.170346e+01	-1.536692e+02
1.150000e-06	-3.026015e-06	-2.299705e-09	-2.143350e+01	-1.532366e+02
1.160000e-06	-2.987709e-06	-2.296588e-09	-2.116218e+01	-1.528029e+02
1.170000e-06	-2.949239e-06	-2.286503e-09	-2.088969e+01	-1.523680e+02
1.180000e-06	-2.910612e-06	-2.273179e-09	-2.061609e+01	-1.519314e+02
1.190000e-06	-2.871768e-06	-2.265404e-09	-2.034095e+01	-1.514929e+02
1.200000e-06	-2.832701e-06	-2.262772e-09	-2.006424e+01	-1.510520e+02
1.210000e-06	-2.793423e-06	-2.258243e-09	-1.978603e+01	-1.506084e+02
1.220000e-06	-2.753856e-06	-2.247073e-09	-1.950578e+01	-1.501613e+02
1.230000e-06	-2.714127e-06	-2.237222e-09	-1.922437e+01	-1.497102e+02
1.240000e-06	-2.674284e-06	-2.230048e-09	-1.894216e+01	-1.492545e+02
1.250000e-06	-2.634309e-06	-2.221036e-09	-1.865902e+01	-1.487933e+02
1.260000e-06	-2.594289e-06	-2.209146e-09	-1.837555e+01	-1.483260e+02
1.270000e-06	-2.554203e-06	-2.199419e-09	-1.809162e+01	-1.478517e+02
1.280000e-06	-2.513972e-06	-2.194661e-09	-1.780665e+01	-1.473695e+02
1.290000e-06	-2.473616e-06	-2.188703e-09	-1.752081e+01	-1.468785e+02
1.300000e-06	-2.433147e-06	-2.174896e-09	-1.723417e+01	-1.463778e+02
1.310000e-06	-2.392524e-06	-2.161068e-09	-1.694643e+01	-1.458663e+02
1.320000e-06	-2.351742e-06	-2.152920e-09	-1.665757e+01	-1.453432e+02
1.330000e-06	-2.310616e-06	-2.146251e-09	-1.636627e+01	-1.448074e+02
1.340000e-06	-2.269142e-06	-2.135224e-09	-1.607251e+01	-1.442579e+02
1.350000e-06	-2.227456e-06	-2.125844e-09	-1.577725e+01	-1.436937e+02
1.360000e-06	-2.185461e-06	-2.118726e-09	-1.547979e+01	-1.431140e+02
1.370000e-06	-2.143214e-06	-2.110663e-09	-1.518055e+01	-1.425177e+02
1.380000e-06	-2.100789e-06	-2.097401e-09	-1.488005e+01	-1.419039e+02
1.390000e-06	-2.058031e-06	-2.077928e-09	-1.457719e+01	-1.412719e+02
1.400000e-06	-2.015038e-06	-2.061799e-09	-1.427267e+01	-1.406209e+02
1.410000e-06	-1.971901e-06	-2.053146e-09	-1.396713e+01	-1.399501e+02
1.420000e-06	-1.928513e-06	-2.042961e-09	-1.365981e+01	-1.392589e+02
1.430000e-06	-1.884882e-06	-2.028769e-09	-1.335076e+01	-1.385468e+02
1.440000e-06	-1.841124e-06	-2.016168e-09	-1.304082e+01	-1.378132e+02
1.450000e-06	-1.797329e-06	-2.009417e-09	-1.273062e+01	-1.370578e+02
1.460000e-06	-1.753462e-06	-1.999484e-09	-1.241991e+01	-1.362803e+02
1.470000e-06	-1.709517e-06	-1.983940e-09	-1.210864e+01	-1.354804e+02
1.480000e-06	-1.665515e-06	-1.964799e-09	-1.179697e+01	-1.346581e+02
1.490000e-06	-1.621408e-06	-1.948457e-09	-1.148456e+01	-1.338132e+02
1.500000e-06	-1.577200e-06	-1.933261e-09	-1.117143e+01	-1.329457e+02
1.510000e-06	-1.532989e-06	-1.914649e-09	-1.085828e+01	-1.320557e+02
1.520000e-06	-1.488768e-06	-1.895058e-09	-1.054506e+01	-1.311433e+02
1.530000e-06	-1.444487e-06	-1.881653e-09	-1.023141e+01	-1.302086e+02
1.540000e-06	-1.400072e-06	-1.874868e-09	-9.916821e+00	-1.292518e+02
1.550000e-06	-1.355531e-06	-1.867208e-09	-9.601330e+00	-1.282729e+02
1.560000e-06	-1.310933e-06	-1.855440e-09	-9.285442e+00	-1.272721e+02
1.570000e-06	-1.266355e-06	-1.839804e-09	-8.969688e+00	-1.262494e+02
1.580000e-06	-1.221712e-06	-1.821666e-09	-8.653480e+00	-1.252048e+02
1.590000e-06	-1.176938e-06	-1.801834e-09	-8.336345e+00	-1.241382e+02
1.600000e-06	-1.132096e-06	-1.781780e-09	-8.018725e+00	-1.230494e+02
1.610000e-06	-1.087075e-06	-1.761094e-09	-7.699840e+00	-1.219382e+02
1.620000e-06	-1.041924e-06	-1.743773e-09	-7.380026e+00	-1.208039e+02
1.630000e-06	-9.967458e-07	-1.729941e-09	-7.060028e+00	-1.196460e+02
1.640000e-06	-9.514622e-07	-1.715990e-09	-6.739281e+00	-1.184638e+02
1.650000e-06	-9.060350e-07	-1.698811e-09	-6.417516e+00	-1.172561e+02
1.660000e-06	-8.605402e-07	-1.679776e-09	-6.095273e+00	-1.160220e+02
1.670000e-06	-8.149677e-07	-1.657546e-09	-5.772479e+00	-1.147600e+02
1.680000e-06	-7.693104e-07	-1.633479e-09	-5.449085e+00	-1.134686e+02
1.690000e-06	-7.236802e-07	-1.610055e-09	-5.125883e+00	-1.121461e+02
1.700000e-06	-6.779945e-07	-1.589874e-09	-4.802288e+00	-1.107907e+02
1.710000e-06	-6.322493e-07	-1.572079e-09	-4.478271e+00	-1.094002e+02
1.720000e-06	-5.865447e-07	-1.554513e-09	-4.154542e+00	-1.079725e+02
1.730000e-06	-5.407957e-07	-1.535576e-09	-3.830498e+00	-1.065053e+02
1.740000e-06	-4.949375e-07	-1.515002e-09	-3.505681e+00	-1.049961e+02
1.750000e-06	-4.490956e-07	-1.491509e-09	-3.180979e+00	-1.034424e+02
1.760000e-06	-4.032812e-07	-1.465752e-09	-2.856472e+00	-1.018418e+02
1.770000e-06	-3.574066e-07	-1.438655e-09	-2.531539e+00	-1.001916e+02
1.780000e-06	-3.114409e-07	-1.415252e-09	-2.205960e+00	-9.848932e+01
1.790000e-06	-2.654155e-07	-1.395119e-09	-1.879958e+00	-9.673246e+01
1.800000e-06	-2.194341e-07	-1.373505e-09	-1.554269e+00	-9.491865e+01
1.810000e-06	-1.734497e-07	-1.346963e-09	-1.228558e+00	-9.304561e+01
1.820000e-06	-1.274365e-07	-1.318586e-09	-9.026426e-01	-9.111124e+01
1.830000e-06	-8.137023e-08	-1.289656e-09	-5.763516e-01	-8.911363e+01
1.840000e-06	-3.531274e-08	-1.257138e-09	-2.501229e-01	-8.705110e+01
1.850000e-06	1.061128e-08	-1.223859e-09	7.516050e-02	-8.492221e+01
1.860000e-06	5.649373e-08	-1.192527e-09	4.001494e-01	-8.272582e+01
1.870000e-06	1.024503e-07	-1.163779e-09	7.256635e-01	-8.046107e+01
1.880000e-06	1.484803e-07	-1.133221e-09	1.051697e+00	-7.812744e+01
1.890000e-06	1.945320e-07	-1.096702e-09	1.377885e+00	-7.572472e+01
1.900000e-06	2.405581e-07	-1.057420e-09	1.703892e+00	-7.325307e+01
1.910000e-06	2.865327e-07	-1.018374e-09	2.029533e+00	-7.071296e+01
1.920000e-06	3.324443e-07	-9.760398e-10	2.354729e+00	-6.810523e+01
1.930000e-06	3.783285e-07	-9.322485e-10	2.679730e+00	-6.543105e+01
1.940000e-06	4.242106e-07	-8.922625e-10	3.004717e+00	-6.269191e+01
1.950000e-06	4.700087e-07	-8.559520e-10	3.329108e+00	-5.988961e+01
1.960000e-06	5.157568e-07	-8.172875e-10	3.653145e+00	-5.702625e+01
1.970000e-06	5.614703e-07	-7.736046e-10	3.976937e+00	-5.410419e+01
1.980000e-06	6.071676e-07	-7.246097e-10	4.300615e+00	-5.112602e+01
1.990000e-06	6.528770e-07	-6.746977e-10	4.624378e+00	-4.809457e+01
2.000000e-06	6.985129e-07	-6.259772e-10	4.947621e+00	-4.501281e+01
2.010000e-06	7.441478e-07	-5.768475e-10	5.270856e+00	-4.188390e+01
2.020000e-06	7.897234e-07	-5.284699e-10	5.593672e+00	-3.871107e+01
2.030000e-06	8.351138e-07	-4.850233e-10	5.915176e+00	-3.549766e+01
2.040000e-06	8.804323e-07	-4.437112e-10	6.236170e+00	-3.224704e+01
2.050000e-06	9.258078e-07	-3.967128e-10	6.557568e+00	-2.896262e+01
2.060000e-06	9.711617e-07	-3.417558e-10	6.878814e+00	-2.564776e+01
2.070000e-06	1.016367e-06	-2.861445e-10	7.199006e+00	-2.230580e+01
2.080000e-06	1.061464e-06	-2.356143e-10	7.518430e+00	-1.894004e+01
2.090000e-06	1.106443e-06	-1.854176e-10	7.837018e+00	-1.555365e+01
2.100000e-06	1.151286e-06	-1.339655e-10	8.154645e+00	-1.214973e+01
2.110000e-06	1.196008e-06	-8.686899e-11	8.471416e+00	-8.731273e+00
2.120000e-06	1.240658e-06	-4.232196e-11	8.787679e+00	-5.301138e+00
2.130000e-06	1.285255e-06	7.661948e-12	9.103559e+00	-1.862070e+00
2.140000e-06	1.329769e-06	6.494416e-11	9.418854e+00	1.583309e+00
2.150000e-06	1.374227e-06	1.229263e-10	9.733753e+00	5.032494e+00
2.160000e-06	1.418564e-06	1.757471e-10	1.004780e+01	8.483087e+00
2.170000e-06	1.462830e-06	2.241987e-10	1.036134e+01	1.193279e+01
2.180000e-06	1.507078e-06	2.729859e-10	1.067475e+01	1.537938e+01
2.190000e-06	1.551248e-06	3.242028e-10	1.098761e+01	1.882072e+01
2.200000e-06	1.595341e-06	3.732869e-10	1.129992e+01	2.225469e+01
2.210000e-06	1.639378e-06	4.199327e-10	1.161184e+01	2.567923e+01
2.220000e-06	1.683391e-06	4.708054e-10	1.192359e+01	2.909227e+01
2.230000e-06	1.727367e-06	5.282078e-10	1.223508e+01	3.249175e+01
2.240000e-06	1.771269e-06	5.839738e-10	1.254603e+01	3.587556e+01
2.250000e-06	1.815044e-06	6.333104e-10	1.285610e+01	3.924156e+01
2.260000e-06	1.858674e-06	6.792053e-10	1.316513e+01	4.258757e+01
2.270000e-06	1.902174e-06	7.263399e-10	1.347324e+01	4.591132e+01
2.280000e-06	1.945503e-06	7.744168e-10	1.378015e+01	4.921047e+01
2.290000e-06	1.988724e-06	8.204967e-10	1.408629e+01	5.248261e+01
2.300000e-06	2.031807e-06	8.678168e-10	1.439145e+01	5.572524e+01
2.310000e-06	2.074647e-06	9.184806e-10	1.469488e+01	5.893579e+01
2.320000e-06	2.117146e-06	9.663723e-10	1.499591e+01	6.211163e+01
2.330000e-06	2.159302e-06	1.008390e-09	1.529450e+01	6.525008e+01
2.340000e-06	2.201311e-06	1.048335e-09	1.559205e+01	6.834841e+01
2.350000e-06	2.243068e-06	1.090162e-09	1.588782e+01	7.140387e+01
2.360000e-06	2.284480e-06	1.134414e-09	1.618115e+01	7.441374e+01
2.370000e-06	2.325658e-06	1.176320e-09	1.647282e+01	7.737530e+01
2.380000e-06	2.366508e-06	1.214089e-09	1.676216e+01	8.028592e+01
2.390000e-06	2.407104e-06	1.252705e-09	1.704970e+01	8.314304e+01
2.400000e-06	2.447576e-06	1.292663e-09	1.733637e+01	8.594423e+01
2.410000e-06	2.487928e-06	1.328404e-09	1.762219e+01	8.868721e+01
2.420000e-06	2.528209e-06	1.361104e-09	1.790750e+01	9.136990e+01
2.430000e-06	2.568326e-06	1.398165e-09	1.819165e+01	9.399039e+01
2.440000e-06	2.608283e-06	1.437086e-09	1.847467e+01	9.654705e+01
2.450000e-06	2.648195e-06	1.475403e-09	1.875737e+01	9.903850e+01
2.460000e-06	2.688004e-06	1.508815e-09	1.903934e+01	1.014636e+02
2.470000e-06	2.727658e-06	1.540027e-09	1.932021e+01	1.038217e+02
2.480000e-06	2.767198e-06	1.571450e-09	1.960028e+01	1.061121e+02
2.490000e-06	2.806650e-06	1.603843e-09	1.987972e+01	1.083347e+02
2.500000e-06	2.845944e-06	1.636191e-09	2.015804e+01	1.104898e+02
2.510000e-06	2.884903e-06	1.666289e-09	2.043399e+01	1.125777e+02
2.520000e-06	2.923517e-06	1.699107e-09	2.070750e+01	1.145993e+02
2.530000e-06	2.961901e-06	1.731056e-09	2.097937e+01	1.165557e+02
2.540000e-06	3.000102e-06	1.756220e-09	2.124995e+01	1.184481e+02
2.550000e-06	3.038132e-06	1.777527e-09	2.151932e+01	1.202782e+02
2.560000e-06	3.076002e-06	1.799927e-09	2.178756e+01	1.220480e+02
2.570000e-06	3.113702e-06	1.821984e-09	2.205459e+01	1.237593e+02
2.580000e-06	3.151200e-06	1.842119e-09	2.232019e+01	1.254143e+02
2.590000e-06	3.188474e-06	1.863679e-09	2.258421e+01	1.270155e+02
2.600000e-06	3.225442e-06	1.890544e-09	2.284606e+01	1.285652e+02
2.610000e-06	3.262113e-06	1.919000e-09	2.310580e+01	1.300658e+02
2.620000e-06	3.298589e-06	1.942850e-09	2.336416e+01	1.315198e+02
2.630000e-06	3.334875e-06	1.962640e-09	2.362118e+01	1.329295e+02
2.640000e-06	3.371007e-06	1.982617e-09	2.387710e+01	1.342973e+02
2.650000e-06	3.407043e-06	2.000000e-09	2.413235e+01	1.356255e+02
2.660000e-06	3.442948e-06	2.012740e-09	2.438667e+01	1.369159e+02
2.670000e-06	3.478676e-06	2.025474e-09	2.463973e+01	1.381707e+02
2.680000e-06	3.514238e-06	2.045995e-09	2.489162e+01	1.393915e+02
2.690000e-06	3.549623e-06	2.070709e-09	2.514225e+01	1.405797e+02
2.700000e-06	3.584660e-06	2.089321e-09	2.539043e+01	1.417367e+02
2.710000e-06	3.619352e-06	2.100346e-09	2.563615e+01	1.428635e+02
2.720000e-06	3.653637e-06	2.112191e-09	2.587900e+01	1.439609e+02
2.730000e-06	3.687334e-06	2.129537e-09	2.611767e+01	1.450295e+02
2.740000e-06	3.720523e-06	2.146007e-09	2.635275e+01	1.460697e+02
2.750000e-06	3.753353e-06	2.159118e-09	2.658529e+01	1.470816e+02
2.760000e-06	3.785911e-06	2.174669e-09	2.681590e+01	1.480652e+02
2.770000e-06	3.818213e-06	2.193663e-09	2.704470e+01	1.490203e+02
2.780000e-06	3.850324e-06	2.211128e-09	2.727215e+01	1.499466e+02
2.790000e-06	3.882282e-06	2.222320e-09	2.749850e+01	1.508437e+02
2.800000e-06	3.914096e-06	2.233111e-09	2.772384e+01	1.517111e+02
2.810000e-06	3.945731e-06	2.248699e-09	2.794791e+01	1.525483e+02
2.820000e-06	3.977077e-06	2.262549e-09	2.816994e+01	1.533548e+02
2.830000e-06	4.008116e-06	2.269445e-09	2.838979e+01	1.541301e+02
2.840000e-06	4.038876e-06	2.273727e-09	2.860767e+01	1.548739e+02
2.850000e-06	4.069339e-06	2.280932e-09	2.882344e+01	1.555857e+02
2.860000e-06	4.099508e-06	2.291086e-09	2.903713e+01	1.562656e+02
2.870000e-06	4.129411e-06	2.303115e-09	2.924893e+01	1.569134e+02
2.880000e-06	4.159051e-06	2.315084e-09	2.945888e+01	1.575293e+02
2.890000e-06	4.188505e-06	2.324927e-09	2.966751e+01	1.581138e+02
2.900000e-06	4.217730e-06	2.331814e-09	2.987450e+01	1.586673e+02
