# Temperatura_=_10.03
# Concentracion g/m^3_=_4090.0
# C_Vs_to_Am_M_A/Vsm_=_65563218390.804596
# pendiente_HvsI_1/m_=_3716.3
# ordenada_HvsI_A/m_=_1297.0
# frecuencia_Hz_=_135081.7606452539

Tiempo_(s)	Campo_(V.s)	Magnetizacion_(V.s)	Campo_(kA/m)	Magnetizacion_(A/m)
0.000000e+00	-5.434231e-06	-2.599828e-09	-3.839420e+01	-1.694571e+02
1.000000e-08	-5.434459e-06	-2.596671e-09	-3.839581e+01	-1.694084e+02
2.000000e-08	-5.434385e-06	-2.591702e-09	-3.839529e+01	-1.693567e+02
3.000000e-08	-5.434074e-06	-2.587996e-09	-3.839309e+01	-1.693036e+02
4.000000e-08	-5.433467e-06	-2.587546e-09	-3.838880e+01	-1.692509e+02
5.000000e-08	-5.432457e-06	-2.588410e-09	-3.838166e+01	-1.692002e+02
6.000000e-08	-5.430858e-06	-2.589583e-09	-3.837037e+01	-1.691535e+02
7.000000e-08	-5.428589e-06	-2.599281e-09	-3.835434e+01	-1.691125e+02
8.000000e-08	-5.425759e-06	-2.611258e-09	-3.833434e+01	-1.690793e+02
9.000000e-08	-5.422302e-06	-2.587703e-09	-3.830992e+01	-1.690553e+02
1.000000e-07	-5.418230e-06	-2.549751e-09	-3.828115e+01	-1.690425e+02
1.100000e-07	-5.413854e-06	-2.590768e-09	-3.825023e+01	-1.690421e+02
1.200000e-07	-5.409401e-06	-2.599759e-09	-3.821877e+01	-1.690555e+02
1.300000e-07	-5.404744e-06	-2.600754e-09	-3.818587e+01	-1.690839e+02
1.400000e-07	-5.399719e-06	-2.518556e-09	-3.815036e+01	-1.691281e+02
1.500000e-07	-5.394321e-06	-2.562412e-09	-3.811223e+01	-1.691887e+02
1.600000e-07	-5.388521e-06	-2.619246e-09	-3.807124e+01	-1.692661e+02
1.700000e-07	-5.382389e-06	-2.579928e-09	-3.802792e+01	-1.693603e+02
1.800000e-07	-5.375847e-06	-2.542949e-09	-3.798170e+01	-1.694710e+02
1.900000e-07	-5.368799e-06	-2.565992e-09	-3.793190e+01	-1.695977e+02
2.000000e-07	-5.361413e-06	-2.644026e-09	-3.787972e+01	-1.697396e+02
2.100000e-07	-5.353876e-06	-2.596303e-09	-3.782647e+01	-1.698955e+02
2.200000e-07	-5.346140e-06	-2.588266e-09	-3.777181e+01	-1.700640e+02
2.300000e-07	-5.338149e-06	-2.597189e-09	-3.771535e+01	-1.702435e+02
2.400000e-07	-5.329839e-06	-2.629602e-09	-3.765664e+01	-1.704321e+02
2.500000e-07	-5.320967e-06	-2.593952e-09	-3.759396e+01	-1.706279e+02
2.600000e-07	-5.311434e-06	-2.637587e-09	-3.752661e+01	-1.708285e+02
2.700000e-07	-5.301166e-06	-2.664543e-09	-3.745406e+01	-1.710317e+02
2.800000e-07	-5.290372e-06	-2.670058e-09	-3.737780e+01	-1.712351e+02
2.900000e-07	-5.279144e-06	-2.638757e-09	-3.729847e+01	-1.714362e+02
3.000000e-07	-5.267501e-06	-2.673717e-09	-3.721621e+01	-1.716327e+02
3.100000e-07	-5.255500e-06	-2.691223e-09	-3.713142e+01	-1.718221e+02
3.200000e-07	-5.243017e-06	-2.661952e-09	-3.704322e+01	-1.720021e+02
3.300000e-07	-5.230057e-06	-2.642035e-09	-3.695166e+01	-1.721705e+02
3.400000e-07	-5.216856e-06	-2.669734e-09	-3.685839e+01	-1.723254e+02
3.500000e-07	-5.203317e-06	-2.675390e-09	-3.676273e+01	-1.724647e+02
3.600000e-07	-5.189317e-06	-2.666957e-09	-3.666382e+01	-1.725870e+02
3.700000e-07	-5.174984e-06	-2.671059e-09	-3.656256e+01	-1.726907e+02
3.800000e-07	-5.160193e-06	-2.668228e-09	-3.645805e+01	-1.727748e+02
3.900000e-07	-5.144773e-06	-2.650278e-09	-3.634911e+01	-1.728382e+02
4.000000e-07	-5.128801e-06	-2.654868e-09	-3.623626e+01	-1.728804e+02
4.100000e-07	-5.112386e-06	-2.661434e-09	-3.612028e+01	-1.729011e+02
4.200000e-07	-5.095498e-06	-2.632305e-09	-3.600097e+01	-1.729001e+02
4.300000e-07	-5.078347e-06	-2.641744e-09	-3.587979e+01	-1.728776e+02
4.400000e-07	-5.060912e-06	-2.659656e-09	-3.575660e+01	-1.728340e+02
4.500000e-07	-5.043174e-06	-2.663991e-09	-3.563128e+01	-1.727701e+02
4.600000e-07	-5.025166e-06	-2.629703e-09	-3.550406e+01	-1.726867e+02
4.700000e-07	-5.006680e-06	-2.643159e-09	-3.537345e+01	-1.725848e+02
4.800000e-07	-4.987709e-06	-2.639893e-09	-3.523941e+01	-1.724657e+02
4.900000e-07	-4.968399e-06	-2.643869e-09	-3.510298e+01	-1.723307e+02
5.000000e-07	-4.948890e-06	-2.626373e-09	-3.496514e+01	-1.721814e+02
5.100000e-07	-4.929200e-06	-2.633558e-09	-3.482603e+01	-1.720193e+02
5.200000e-07	-4.909269e-06	-2.625306e-09	-3.468521e+01	-1.718458e+02
5.300000e-07	-4.889052e-06	-2.647807e-09	-3.454237e+01	-1.716628e+02
5.400000e-07	-4.868564e-06	-2.635615e-09	-3.439762e+01	-1.714716e+02
5.500000e-07	-4.847807e-06	-2.622353e-09	-3.425096e+01	-1.712739e+02
5.600000e-07	-4.826618e-06	-2.611253e-09	-3.410126e+01	-1.710710e+02
5.700000e-07	-4.805031e-06	-2.629128e-09	-3.394874e+01	-1.708645e+02
5.800000e-07	-4.783142e-06	-2.616263e-09	-3.379409e+01	-1.706554e+02
5.900000e-07	-4.760978e-06	-2.606693e-09	-3.363750e+01	-1.704450e+02
6.000000e-07	-4.738449e-06	-2.603246e-09	-3.347832e+01	-1.702341e+02
6.100000e-07	-4.715506e-06	-2.610820e-09	-3.331623e+01	-1.700237e+02
6.200000e-07	-4.692224e-06	-2.605214e-09	-3.315174e+01	-1.698144e+02
6.300000e-07	-4.668640e-06	-2.596638e-09	-3.298511e+01	-1.696067e+02
6.400000e-07	-4.644847e-06	-2.584898e-09	-3.281701e+01	-1.694008e+02
6.500000e-07	-4.620923e-06	-2.584132e-09	-3.264798e+01	-1.691971e+02
6.600000e-07	-4.596784e-06	-2.590554e-09	-3.247743e+01	-1.689956e+02
6.700000e-07	-4.572304e-06	-2.586241e-09	-3.230447e+01	-1.687961e+02
6.800000e-07	-4.547370e-06	-2.576810e-09	-3.212830e+01	-1.685984e+02
6.900000e-07	-4.521986e-06	-2.571676e-09	-3.194896e+01	-1.684022e+02
7.000000e-07	-4.496118e-06	-2.574216e-09	-3.176620e+01	-1.682071e+02
7.100000e-07	-4.469658e-06	-2.562292e-09	-3.157925e+01	-1.680126e+02
7.200000e-07	-4.442736e-06	-2.554794e-09	-3.138904e+01	-1.678180e+02
7.300000e-07	-4.415489e-06	-2.548837e-09	-3.119653e+01	-1.676229e+02
7.400000e-07	-4.387961e-06	-2.558032e-09	-3.100204e+01	-1.674264e+02
7.500000e-07	-4.360160e-06	-2.552259e-09	-3.080562e+01	-1.672281e+02
7.600000e-07	-4.332148e-06	-2.546842e-09	-3.060771e+01	-1.670272e+02
7.700000e-07	-4.303979e-06	-2.533545e-09	-3.040869e+01	-1.668231e+02
7.800000e-07	-4.275537e-06	-2.535923e-09	-3.020774e+01	-1.666153e+02
7.900000e-07	-4.246758e-06	-2.529034e-09	-3.000440e+01	-1.664031e+02
8.000000e-07	-4.217728e-06	-2.524259e-09	-2.979930e+01	-1.661861e+02
8.100000e-07	-4.188391e-06	-2.513900e-09	-2.959203e+01	-1.659638e+02
8.200000e-07	-4.158678e-06	-2.518383e-09	-2.938210e+01	-1.657358e+02
8.300000e-07	-4.128662e-06	-2.520542e-09	-2.917003e+01	-1.655018e+02
8.400000e-07	-4.098444e-06	-2.522748e-09	-2.895653e+01	-1.652615e+02
8.500000e-07	-4.067998e-06	-2.512040e-09	-2.874142e+01	-1.650148e+02
8.600000e-07	-4.037172e-06	-2.505086e-09	-2.852363e+01	-1.647614e+02
8.700000e-07	-4.006029e-06	-2.493684e-09	-2.830360e+01	-1.645012e+02
8.800000e-07	-3.974735e-06	-2.484759e-09	-2.808250e+01	-1.642343e+02
8.900000e-07	-3.943268e-06	-2.470196e-09	-2.786018e+01	-1.639607e+02
9.000000e-07	-3.911532e-06	-2.466475e-09	-2.763595e+01	-1.636803e+02
9.100000e-07	-3.879626e-06	-2.471133e-09	-2.741052e+01	-1.633933e+02
9.200000e-07	-3.847582e-06	-2.479535e-09	-2.718413e+01	-1.630997e+02
9.300000e-07	-3.815249e-06	-2.479345e-09	-2.695569e+01	-1.627997e+02
9.400000e-07	-3.782714e-06	-2.471579e-09	-2.672582e+01	-1.624934e+02
9.500000e-07	-3.749909e-06	-2.462360e-09	-2.649404e+01	-1.621810e+02
9.600000e-07	-3.716773e-06	-2.451801e-09	-2.625993e+01	-1.618627e+02
9.700000e-07	-3.683118e-06	-2.439906e-09	-2.602215e+01	-1.615384e+02
9.800000e-07	-3.648826e-06	-2.429353e-09	-2.577986e+01	-1.612085e+02
9.900000e-07	-3.614118e-06	-2.429688e-09	-2.553465e+01	-1.608730e+02
1.000000e-06	-3.579086e-06	-2.434576e-09	-2.528714e+01	-1.605321e+02
1.010000e-06	-3.543793e-06	-2.441453e-09	-2.503778e+01	-1.601859e+02
1.020000e-06	-3.508294e-06	-2.438480e-09	-2.478697e+01	-1.598345e+02
1.030000e-06	-3.472594e-06	-2.431068e-09	-2.453474e+01	-1.594781e+02
1.040000e-06	-3.436688e-06	-2.417452e-09	-2.428106e+01	-1.591167e+02
1.050000e-06	-3.400630e-06	-2.404999e-09	-2.402630e+01	-1.587504e+02
1.060000e-06	-3.364365e-06	-2.388951e-09	-2.377008e+01	-1.583794e+02
1.070000e-06	-3.327926e-06	-2.380299e-09	-2.351263e+01	-1.580037e+02
1.080000e-06	-3.291358e-06	-2.376479e-09	-2.325427e+01	-1.576234e+02
1.090000e-06	-3.254599e-06	-2.378446e-09	-2.299455e+01	-1.572386e+02
1.100000e-06	-3.217560e-06	-2.374913e-09	-2.273286e+01	-1.568494e+02
1.110000e-06	-3.180255e-06	-2.370036e-09	-2.246930e+01	-1.564560e+02
1.120000e-06	-3.142739e-06	-2.360108e-09	-2.220424e+01	-1.560583e+02
1.130000e-06	-3.104983e-06	-2.352669e-09	-2.193748e+01	-1.556566e+02
1.140000e-06	-3.066999e-06	-2.340325e-09	-2.166911e+01	-1.552508e+02
1.150000e-06	-3.028815e-06	-2.329453e-09	-2.139934e+01	-1.548410e+02
1.160000e-06	-2.990519e-06	-2.321165e-09	-2.112877e+01	-1.544274e+02
1.170000e-06	-2.952054e-06	-2.318783e-09	-2.085700e+01	-1.540099e+02
1.180000e-06	-2.913267e-06	-2.312250e-09	-2.058296e+01	-1.535885e+02
1.190000e-06	-2.874268e-06	-2.302418e-09	-2.030742e+01	-1.531632e+02
1.200000e-06	-2.835094e-06	-2.290683e-09	-2.003064e+01	-1.527340e+02
1.210000e-06	-2.795675e-06	-2.282247e-09	-1.975214e+01	-1.523008e+02
1.220000e-06	-2.756084e-06	-2.273506e-09	-1.947242e+01	-1.518634e+02
1.230000e-06	-2.716365e-06	-2.265115e-09	-1.919180e+01	-1.514216e+02
1.240000e-06	-2.676507e-06	-2.253816e-09	-1.891019e+01	-1.509751e+02
1.250000e-06	-2.636546e-06	-2.242518e-09	-1.862786e+01	-1.505236e+02
1.260000e-06	-2.596508e-06	-2.234826e-09	-1.834498e+01	-1.500668e+02
1.270000e-06	-2.556359e-06	-2.225105e-09	-1.806131e+01	-1.496041e+02
1.280000e-06	-2.516074e-06	-2.217389e-09	-1.777669e+01	-1.491350e+02
1.290000e-06	-2.475654e-06	-2.209147e-09	-1.749112e+01	-1.486588e+02
1.300000e-06	-2.435062e-06	-2.205199e-09	-1.720432e+01	-1.481750e+02
1.310000e-06	-2.394319e-06	-2.199893e-09	-1.691646e+01	-1.476828e+02
1.320000e-06	-2.353295e-06	-2.192389e-09	-1.662662e+01	-1.471814e+02
1.330000e-06	-2.312026e-06	-2.177909e-09	-1.633504e+01	-1.466699e+02
1.340000e-06	-2.270562e-06	-2.161152e-09	-1.604209e+01	-1.461475e+02
1.350000e-06	-2.228716e-06	-2.145916e-09	-1.574644e+01	-1.456133e+02
1.360000e-06	-2.186473e-06	-2.134942e-09	-1.544798e+01	-1.450663e+02
1.370000e-06	-2.144009e-06	-2.126951e-09	-1.514796e+01	-1.445055e+02
1.380000e-06	-2.101398e-06	-2.123289e-09	-1.484690e+01	-1.439302e+02
1.390000e-06	-2.058472e-06	-2.116679e-09	-1.454362e+01	-1.433392e+02
1.400000e-06	-2.015247e-06	-2.108683e-09	-1.423822e+01	-1.427319e+02
1.410000e-06	-1.971802e-06	-2.097124e-09	-1.393128e+01	-1.421072e+02
1.420000e-06	-1.928272e-06	-2.082277e-09	-1.362373e+01	-1.414644e+02
1.430000e-06	-1.884673e-06	-2.063963e-09	-1.331568e+01	-1.408027e+02
1.440000e-06	-1.840928e-06	-2.046744e-09	-1.300662e+01	-1.401216e+02
1.450000e-06	-1.797131e-06	-2.033684e-09	-1.269718e+01	-1.394203e+02
1.460000e-06	-1.753273e-06	-2.027168e-09	-1.238731e+01	-1.386985e+02
1.470000e-06	-1.709267e-06	-2.022382e-09	-1.207640e+01	-1.379555e+02
1.480000e-06	-1.665176e-06	-2.013969e-09	-1.176489e+01	-1.371912e+02
1.490000e-06	-1.621066e-06	-2.000278e-09	-1.145323e+01	-1.364051e+02
1.500000e-06	-1.576876e-06	-1.983293e-09	-1.114102e+01	-1.355972e+02
1.510000e-06	-1.532580e-06	-1.963411e-09	-1.082806e+01	-1.347672e+02
1.520000e-06	-1.488210e-06	-1.942336e-09	-1.051457e+01	-1.339151e+02
1.530000e-06	-1.443779e-06	-1.923610e-09	-1.020066e+01	-1.330408e+02
1.540000e-06	-1.399292e-06	-1.913785e-09	-9.886345e+00	-1.321444e+02
1.550000e-06	-1.354765e-06	-1.910388e-09	-9.571753e+00	-1.312257e+02
1.560000e-06	-1.310181e-06	-1.903077e-09	-9.256755e+00	-1.302848e+02
1.570000e-06	-1.265413e-06	-1.892513e-09	-8.940462e+00	-1.293217e+02
1.580000e-06	-1.220496e-06	-1.878254e-09	-8.623110e+00	-1.283362e+02
1.590000e-06	-1.175512e-06	-1.859554e-09	-8.305288e+00	-1.273283e+02
1.600000e-06	-1.130452e-06	-1.838329e-09	-7.986923e+00	-1.262976e+02
1.610000e-06	-1.085287e-06	-1.818254e-09	-7.667824e+00	-1.252439e+02
1.620000e-06	-1.040017e-06	-1.800937e-09	-7.347978e+00	-1.241666e+02
1.630000e-06	-9.946780e-07	-1.787340e-09	-7.027649e+00	-1.230653e+02
1.640000e-06	-9.492723e-07	-1.774379e-09	-6.706846e+00	-1.219391e+02
1.650000e-06	-9.037949e-07	-1.758534e-09	-6.385537e+00	-1.207871e+02
1.660000e-06	-8.582755e-07	-1.740333e-09	-6.063931e+00	-1.196084e+02
1.670000e-06	-8.127490e-07	-1.722465e-09	-5.742275e+00	-1.184017e+02
1.680000e-06	-7.672019e-07	-1.702071e-09	-5.420473e+00	-1.171655e+02
1.690000e-06	-7.215853e-07	-1.678434e-09	-5.098180e+00	-1.158984e+02
1.700000e-06	-6.758820e-07	-1.655002e-09	-4.775275e+00	-1.145986e+02
1.710000e-06	-6.300889e-07	-1.635129e-09	-4.451735e+00	-1.132643e+02
1.720000e-06	-5.842602e-07	-1.614806e-09	-4.127944e+00	-1.118935e+02
1.730000e-06	-5.383771e-07	-1.593908e-09	-3.803769e+00	-1.104841e+02
1.740000e-06	-4.924022e-07	-1.572922e-09	-3.478944e+00	-1.090339e+02
1.750000e-06	-4.464055e-07	-1.552727e-09	-3.153966e+00	-1.075406e+02
1.760000e-06	-4.003845e-07	-1.531098e-09	-2.828816e+00	-1.060019e+02
1.770000e-06	-3.542814e-07	-1.507862e-09	-2.503087e+00	-1.044157e+02
1.780000e-06	-3.081346e-07	-1.483216e-09	-2.177048e+00	-1.027794e+02
1.790000e-06	-2.619809e-07	-1.460619e-09	-1.850960e+00	-1.010910e+02
1.800000e-06	-2.158463e-07	-1.436344e-09	-1.525008e+00	-9.934819e+01
1.810000e-06	-1.697200e-07	-1.406950e-09	-1.199114e+00	-9.754900e+01
1.820000e-06	-1.236130e-07	-1.376507e-09	-8.733565e-01	-9.569150e+01
1.830000e-06	-7.754490e-08	-1.348841e-09	-5.478741e-01	-9.377395e+01
1.840000e-06	-3.156645e-08	-1.321539e-09	-2.230248e-01	-9.179481e+01
1.850000e-06	1.436566e-08	-1.290497e-09	1.014970e-01	-8.975275e+01
1.860000e-06	6.038748e-08	-1.256649e-09	4.266526e-01	-8.764668e+01
1.870000e-06	1.064389e-07	-1.222847e-09	7.520171e-01	-8.547578e+01
1.880000e-06	1.525048e-07	-1.189465e-09	1.077485e+00	-8.323948e+01
1.890000e-06	1.985396e-07	-1.153048e-09	1.402732e+00	-8.093752e+01
1.900000e-06	2.444986e-07	-1.114081e-09	1.727443e+00	-7.856990e+01
1.910000e-06	2.904379e-07	-1.075555e-09	2.052017e+00	-7.613692e+01
1.920000e-06	3.364649e-07	-1.038174e-09	2.377209e+00	-7.363914e+01
1.930000e-06	3.824811e-07	-1.000615e-09	2.702325e+00	-7.107743e+01
1.940000e-06	4.284335e-07	-9.625561e-10	3.026989e+00	-6.845291e+01
1.950000e-06	4.743394e-07	-9.234474e-10	3.351326e+00	-6.576695e+01
1.960000e-06	5.201841e-07	-8.845459e-10	3.675230e+00	-6.302115e+01
1.970000e-06	5.659848e-07	-8.444576e-10	3.998824e+00	-6.021734e+01
1.980000e-06	6.117262e-07	-8.010237e-10	4.321998e+00	-5.735753e+01
1.990000e-06	6.575003e-07	-7.535309e-10	4.645404e+00	-5.444391e+01
2.000000e-06	7.032468e-07	-7.060106e-10	4.968615e+00	-5.147879e+01
2.010000e-06	7.488812e-07	-6.607784e-10	5.291033e+00	-4.846463e+01
2.020000e-06	7.944894e-07	-6.160894e-10	5.613266e+00	-4.540397e+01
2.030000e-06	8.400882e-07	-5.691032e-10	5.935433e+00	-4.229941e+01
2.040000e-06	8.856724e-07	-5.224128e-10	6.257497e+00	-3.915362e+01
2.050000e-06	9.312305e-07	-4.793615e-10	6.579376e+00	-3.596926e+01
2.060000e-06	9.766678e-07	-4.370178e-10	6.900402e+00	-3.274903e+01
2.070000e-06	1.022005e-06	-3.911628e-10	7.220719e+00	-2.949560e+01
2.080000e-06	1.067253e-06	-3.422637e-10	7.540412e+00	-2.621162e+01
2.090000e-06	1.112447e-06	-2.937392e-10	7.859716e+00	-2.289972e+01
2.100000e-06	1.157597e-06	-2.460567e-10	8.178709e+00	-1.956246e+01
2.110000e-06	1.202588e-06	-1.965733e-10	8.496582e+00	-1.620238e+01
2.120000e-06	1.247434e-06	-1.451575e-10	8.813430e+00	-1.282196e+01
2.130000e-06	1.292164e-06	-9.389121e-11	9.129462e+00	-9.423634e+00
2.140000e-06	1.336777e-06	-4.446308e-11	9.444661e+00	-6.009797e+00
2.150000e-06	1.381246e-06	5.508104e-12	9.758846e+00	-2.582817e+00
2.160000e-06	1.425646e-06	5.615176e-11	1.007254e+01	8.549668e-01
2.170000e-06	1.470003e-06	1.067488e-10	1.038594e+01	4.301223e+00
2.180000e-06	1.514308e-06	1.588567e-10	1.069897e+01	7.753622e+00
2.190000e-06	1.558611e-06	2.133238e-10	1.101198e+01	1.120982e+01
2.200000e-06	1.602797e-06	2.681702e-10	1.132416e+01	1.466744e+01
2.210000e-06	1.646887e-06	3.203611e-10	1.163567e+01	1.812408e+01
2.220000e-06	1.690932e-06	3.703818e-10	1.194686e+01	2.157727e+01
2.230000e-06	1.734891e-06	4.205596e-10	1.225744e+01	2.502449e+01
2.240000e-06	1.778843e-06	4.709765e-10	1.256797e+01	2.846314e+01
2.250000e-06	1.822784e-06	5.193322e-10	1.287843e+01	3.189055e+01
2.260000e-06	1.866591e-06	5.691849e-10	1.318793e+01	3.530398e+01
2.270000e-06	1.910256e-06	6.205113e-10	1.349644e+01	3.870060e+01
2.280000e-06	1.953822e-06	6.728403e-10	1.380424e+01	4.207751e+01
2.290000e-06	1.997282e-06	7.211922e-10	1.411130e+01	4.543174e+01
2.300000e-06	2.040572e-06	7.647519e-10	1.441715e+01	4.876026e+01
2.310000e-06	2.083585e-06	8.095073e-10	1.472105e+01	5.206000e+01
2.320000e-06	2.126360e-06	8.539105e-10	1.502326e+01	5.532787e+01
2.330000e-06	2.168876e-06	8.976079e-10	1.532365e+01	5.856077e+01
2.340000e-06	2.211067e-06	9.446756e-10	1.562174e+01	6.175560e+01
2.350000e-06	2.252982e-06	9.964139e-10	1.591788e+01	6.490932e+01
2.360000e-06	2.294628e-06	1.048962e-09	1.621212e+01	6.801895e+01
2.370000e-06	2.335986e-06	1.096486e-09	1.650433e+01	7.108161e+01
2.380000e-06	2.377090e-06	1.135322e-09	1.679474e+01	7.409453e+01
2.390000e-06	2.417963e-06	1.170229e-09	1.708352e+01	7.705509e+01
2.400000e-06	2.458615e-06	1.204592e-09	1.737073e+01	7.996086e+01
2.410000e-06	2.499117e-06	1.239036e-09	1.765688e+01	8.280961e+01
2.420000e-06	2.539467e-06	1.275089e-09	1.794197e+01	8.559932e+01
2.430000e-06	2.579689e-06	1.316458e-09	1.822615e+01	8.832824e+01
2.440000e-06	2.619790e-06	1.364265e-09	1.850947e+01	9.099485e+01
2.450000e-06	2.659752e-06	1.410313e-09	1.879181e+01	9.359795e+01
2.460000e-06	2.699597e-06	1.447582e-09	1.907333e+01	9.613660e+01
2.470000e-06	2.739313e-06	1.478391e-09	1.935393e+01	9.861015e+01
2.480000e-06	2.778865e-06	1.505366e-09	1.963338e+01	1.010183e+02
2.490000e-06	2.818279e-06	1.529379e-09	1.991185e+01	1.033609e+02
2.500000e-06	2.857544e-06	1.553935e-09	2.018926e+01	1.056383e+02
2.510000e-06	2.896554e-06	1.586577e-09	2.046488e+01	1.078509e+02
2.520000e-06	2.935294e-06	1.628972e-09	2.073858e+01	1.099995e+02
2.530000e-06	2.973768e-06	1.671721e-09	2.101042e+01	1.120851e+02
2.540000e-06	3.012030e-06	1.702951e-09	2.128075e+01	1.141089e+02
2.550000e-06	3.050139e-06	1.726013e-09	2.155000e+01	1.160723e+02
2.560000e-06	3.088135e-06	1.749512e-09	2.181845e+01	1.179767e+02
2.570000e-06	3.125944e-06	1.772529e-09	2.208558e+01	1.198239e+02
2.580000e-06	3.163577e-06	1.792602e-09	2.235146e+01	1.216156e+02
2.590000e-06	3.201072e-06	1.814455e-09	2.261637e+01	1.233535e+02
2.600000e-06	3.238219e-06	1.844435e-09	2.287882e+01	1.250394e+02
2.610000e-06	3.275073e-06	1.877955e-09	2.313921e+01	1.266752e+02
2.620000e-06	3.311754e-06	1.907015e-09	2.339837e+01	1.282626e+02
2.630000e-06	3.348196e-06	1.929692e-09	2.365584e+01	1.298033e+02
2.640000e-06	3.384437e-06	1.949452e-09	2.391189e+01	1.312989e+02
2.650000e-06	3.420559e-06	1.966977e-09	2.416710e+01	1.327508e+02
2.660000e-06	3.456574e-06	1.981196e-09	2.442156e+01	1.341604e+02
2.670000e-06	3.492454e-06	1.996363e-09	2.467506e+01	1.355288e+02
2.680000e-06	3.528180e-06	2.015904e-09	2.492747e+01	1.368571e+02
2.690000e-06	3.563667e-06	2.036971e-09	2.517819e+01	1.381462e+02
2.700000e-06	3.598806e-06	2.057388e-09	2.542646e+01	1.393968e+02
2.710000e-06	3.633568e-06	2.075766e-09	2.567207e+01	1.406094e+02
2.720000e-06	3.667833e-06	2.093054e-09	2.591415e+01	1.417845e+02
2.730000e-06	3.701596e-06	2.110478e-09	2.615270e+01	1.429223e+02
2.740000e-06	3.734956e-06	2.124714e-09	2.638839e+01	1.440231e+02
2.750000e-06	3.767825e-06	2.137565e-09	2.662063e+01	1.450869e+02
2.760000e-06	3.800349e-06	2.153514e-09	2.685041e+01	1.461136e+02
2.770000e-06	3.832720e-06	2.172087e-09	2.707913e+01	1.471034e+02
2.780000e-06	3.864926e-06	2.187817e-09	2.730667e+01	1.480562e+02
2.790000e-06	3.896942e-06	2.196687e-09	2.753287e+01	1.489719e+02
2.800000e-06	3.928800e-06	2.206451e-09	2.775795e+01	1.498506e+02
2.810000e-06	3.960509e-06	2.221069e-09	2.798198e+01	1.506923e+02
2.820000e-06	3.991951e-06	2.236817e-09	2.820413e+01	1.514972e+02
2.830000e-06	4.023033e-06	2.248074e-09	2.842373e+01	1.522656e+02
2.840000e-06	4.053855e-06	2.256132e-09	2.864150e+01	1.529980e+02
2.850000e-06	4.084460e-06	2.265787e-09	2.885773e+01	1.536947e+02
2.860000e-06	4.114685e-06	2.275579e-09	2.907128e+01	1.543567e+02
2.870000e-06	4.144590e-06	2.281660e-09	2.928257e+01	1.549847e+02
2.880000e-06	4.174288e-06	2.286578e-09	2.949239e+01	1.555799e+02
2.890000e-06	4.203743e-06	2.293507e-09	2.970050e+01	1.561434e+02
2.900000e-06	4.232919e-06	2.300847e-09	2.990663e+01	1.566767e+02
