# Temperatura_=_-1.5
# Concentracion g/m^3_=_4090.0
# C_Vs_to_Am_M_A/Vsm_=_65563218390.804596
# pendiente_HvsI_1/m_=_3716.3
# ordenada_HvsI_A/m_=_1297.0
# frecuencia_Hz_=_135085.54453327152

Tiempo_(s)	Campo_(V.s)	Magnetizacion_(V.s)	Campo_(kA/m)	Magnetizacion_(A/m)
0.000000e+00	-5.421062e-06	-2.594007e-09	-3.837965e+01	-1.673041e+02
1.000000e-08	-5.421377e-06	-2.601636e-09	-3.838188e+01	-1.673432e+02
2.000000e-08	-5.421497e-06	-2.602712e-09	-3.838273e+01	-1.673809e+02
3.000000e-08	-5.421216e-06	-2.600029e-09	-3.838074e+01	-1.674175e+02
4.000000e-08	-5.420608e-06	-2.596918e-09	-3.837644e+01	-1.674534e+02
5.000000e-08	-5.419628e-06	-2.593074e-09	-3.836950e+01	-1.674889e+02
6.000000e-08	-5.417991e-06	-2.592344e-09	-3.835791e+01	-1.675246e+02
7.000000e-08	-5.415690e-06	-2.608020e-09	-3.834162e+01	-1.675607e+02
8.000000e-08	-5.412719e-06	-2.606396e-09	-3.832058e+01	-1.675979e+02
9.000000e-08	-5.409211e-06	-2.570951e-09	-3.829575e+01	-1.676364e+02
1.000000e-07	-5.405292e-06	-2.572781e-09	-3.826800e+01	-1.676769e+02
1.100000e-07	-5.401051e-06	-2.646687e-09	-3.823798e+01	-1.677196e+02
1.200000e-07	-5.396639e-06	-2.621418e-09	-3.820674e+01	-1.677651e+02
1.300000e-07	-5.392041e-06	-2.538005e-09	-3.817419e+01	-1.678135e+02
1.400000e-07	-5.387158e-06	-2.515788e-09	-3.813962e+01	-1.678654e+02
1.500000e-07	-5.381784e-06	-2.636964e-09	-3.810157e+01	-1.679208e+02
1.600000e-07	-5.375971e-06	-2.627026e-09	-3.806042e+01	-1.679801e+02
1.700000e-07	-5.369929e-06	-2.510268e-09	-3.801764e+01	-1.680433e+02
1.800000e-07	-5.363384e-06	-2.507977e-09	-3.797130e+01	-1.681104e+02
1.900000e-07	-5.356338e-06	-2.637115e-09	-3.792142e+01	-1.681816e+02
2.000000e-07	-5.349054e-06	-2.624468e-09	-3.786985e+01	-1.682566e+02
2.100000e-07	-5.341504e-06	-2.513189e-09	-3.781640e+01	-1.683354e+02
2.200000e-07	-5.333730e-06	-2.521748e-09	-3.776136e+01	-1.684176e+02
2.300000e-07	-5.325807e-06	-2.595755e-09	-3.770527e+01	-1.685029e+02
2.400000e-07	-5.317531e-06	-2.556298e-09	-3.764668e+01	-1.685909e+02
2.500000e-07	-5.308665e-06	-2.507832e-09	-3.758391e+01	-1.686812e+02
2.600000e-07	-5.299103e-06	-2.590028e-09	-3.751621e+01	-1.687733e+02
2.700000e-07	-5.288919e-06	-2.622677e-09	-3.744411e+01	-1.688664e+02
2.800000e-07	-5.278187e-06	-2.568102e-09	-3.736813e+01	-1.689600e+02
2.900000e-07	-5.266947e-06	-2.563641e-09	-3.728856e+01	-1.690533e+02
3.000000e-07	-5.255273e-06	-2.642121e-09	-3.720591e+01	-1.691456e+02
3.100000e-07	-5.243171e-06	-2.600748e-09	-3.712023e+01	-1.692362e+02
3.200000e-07	-5.230792e-06	-2.557796e-09	-3.703259e+01	-1.693242e+02
3.300000e-07	-5.218076e-06	-2.598703e-09	-3.694256e+01	-1.694088e+02
3.400000e-07	-5.204943e-06	-2.650353e-09	-3.684958e+01	-1.694893e+02
3.500000e-07	-5.191404e-06	-2.586925e-09	-3.675373e+01	-1.695647e+02
3.600000e-07	-5.177488e-06	-2.591680e-09	-3.665521e+01	-1.696343e+02
3.700000e-07	-5.163160e-06	-2.614452e-09	-3.655377e+01	-1.696974e+02
3.800000e-07	-5.148378e-06	-2.606087e-09	-3.644912e+01	-1.697531e+02
3.900000e-07	-5.133145e-06	-2.579030e-09	-3.634128e+01	-1.698007e+02
4.000000e-07	-5.117289e-06	-2.609429e-09	-3.622902e+01	-1.698397e+02
4.100000e-07	-5.100841e-06	-2.592329e-09	-3.611257e+01	-1.698693e+02
4.200000e-07	-5.084033e-06	-2.576840e-09	-3.599358e+01	-1.698890e+02
4.300000e-07	-5.066936e-06	-2.604582e-09	-3.587254e+01	-1.698984e+02
4.400000e-07	-5.049533e-06	-2.612623e-09	-3.574932e+01	-1.698970e+02
4.500000e-07	-5.031887e-06	-2.570680e-09	-3.562440e+01	-1.698845e+02
4.600000e-07	-5.013979e-06	-2.571820e-09	-3.549761e+01	-1.698605e+02
4.700000e-07	-4.995657e-06	-2.601770e-09	-3.536790e+01	-1.698251e+02
4.800000e-07	-4.976896e-06	-2.586732e-09	-3.523507e+01	-1.697779e+02
4.900000e-07	-4.957727e-06	-2.572444e-09	-3.509936e+01	-1.697192e+02
5.000000e-07	-4.938281e-06	-2.579736e-09	-3.496169e+01	-1.696488e+02
5.100000e-07	-4.918613e-06	-2.586650e-09	-3.482244e+01	-1.695670e+02
5.200000e-07	-4.898675e-06	-2.576799e-09	-3.468129e+01	-1.694741e+02
5.300000e-07	-4.878534e-06	-2.578632e-09	-3.453870e+01	-1.693703e+02
5.400000e-07	-4.858159e-06	-2.564011e-09	-3.439445e+01	-1.692560e+02
5.500000e-07	-4.837472e-06	-2.567859e-09	-3.424799e+01	-1.691319e+02
5.600000e-07	-4.816360e-06	-2.580808e-09	-3.409852e+01	-1.689983e+02
5.700000e-07	-4.794845e-06	-2.587502e-09	-3.394621e+01	-1.688560e+02
5.800000e-07	-4.773052e-06	-2.568708e-09	-3.379192e+01	-1.687056e+02
5.900000e-07	-4.750934e-06	-2.572189e-09	-3.363533e+01	-1.685478e+02
6.000000e-07	-4.728430e-06	-2.572324e-09	-3.347601e+01	-1.683834e+02
6.100000e-07	-4.705661e-06	-2.565176e-09	-3.331480e+01	-1.682131e+02
6.200000e-07	-4.682592e-06	-2.545917e-09	-3.315148e+01	-1.680379e+02
6.300000e-07	-4.659163e-06	-2.544388e-09	-3.298561e+01	-1.678585e+02
6.400000e-07	-4.635465e-06	-2.544738e-09	-3.281783e+01	-1.676758e+02
6.500000e-07	-4.611568e-06	-2.553261e-09	-3.264865e+01	-1.674905e+02
6.600000e-07	-4.587481e-06	-2.546101e-09	-3.247812e+01	-1.673035e+02
6.700000e-07	-4.563173e-06	-2.540073e-09	-3.230603e+01	-1.671155e+02
6.800000e-07	-4.538489e-06	-2.535206e-09	-3.213128e+01	-1.669273e+02
6.900000e-07	-4.513253e-06	-2.537025e-09	-3.195261e+01	-1.667395e+02
7.000000e-07	-4.487391e-06	-2.526388e-09	-3.176951e+01	-1.665528e+02
7.100000e-07	-4.460909e-06	-2.516180e-09	-3.158203e+01	-1.663676e+02
7.200000e-07	-4.433917e-06	-2.512624e-09	-3.139093e+01	-1.661843e+02
7.300000e-07	-4.406609e-06	-2.517808e-09	-3.119760e+01	-1.660035e+02
7.400000e-07	-4.379075e-06	-2.516660e-09	-3.100266e+01	-1.658253e+02
7.500000e-07	-4.351340e-06	-2.507508e-09	-3.080631e+01	-1.656498e+02
7.600000e-07	-4.323469e-06	-2.499684e-09	-3.060899e+01	-1.654772e+02
7.700000e-07	-4.295368e-06	-2.497241e-09	-3.041004e+01	-1.653074e+02
7.800000e-07	-4.267018e-06	-2.493116e-09	-3.020933e+01	-1.651402e+02
7.900000e-07	-4.238424e-06	-2.483787e-09	-3.000689e+01	-1.649754e+02
8.000000e-07	-4.209514e-06	-2.480719e-09	-2.980222e+01	-1.648126e+02
8.100000e-07	-4.180230e-06	-2.480627e-09	-2.959490e+01	-1.646513e+02
8.200000e-07	-4.150558e-06	-2.483767e-09	-2.938483e+01	-1.644910e+02
8.300000e-07	-4.120665e-06	-2.478926e-09	-2.917319e+01	-1.643311e+02
8.400000e-07	-4.090552e-06	-2.474582e-09	-2.896000e+01	-1.641709e+02
8.500000e-07	-4.060110e-06	-2.468803e-09	-2.874448e+01	-1.640095e+02
8.600000e-07	-4.029378e-06	-2.467383e-09	-2.852691e+01	-1.638463e+02
8.700000e-07	-3.998399e-06	-2.460246e-09	-2.830758e+01	-1.636802e+02
8.800000e-07	-3.967183e-06	-2.455749e-09	-2.808658e+01	-1.635105e+02
8.900000e-07	-3.935744e-06	-2.448865e-09	-2.786400e+01	-1.633362e+02
9.000000e-07	-3.904194e-06	-2.448520e-09	-2.764064e+01	-1.631566e+02
9.100000e-07	-3.872494e-06	-2.444323e-09	-2.741620e+01	-1.629707e+02
9.200000e-07	-3.840616e-06	-2.442153e-09	-2.719052e+01	-1.627779e+02
9.300000e-07	-3.808602e-06	-2.438848e-09	-2.696387e+01	-1.625772e+02
9.400000e-07	-3.776284e-06	-2.439307e-09	-2.673507e+01	-1.623681e+02
9.500000e-07	-3.743555e-06	-2.435000e-09	-2.650335e+01	-1.621500e+02
9.600000e-07	-3.710409e-06	-2.428757e-09	-2.626869e+01	-1.619223e+02
9.700000e-07	-3.676770e-06	-2.419653e-09	-2.603054e+01	-1.616847e+02
9.800000e-07	-3.642721e-06	-2.417107e-09	-2.578948e+01	-1.614370e+02
9.900000e-07	-3.608312e-06	-2.414782e-09	-2.554587e+01	-1.611789e+02
1.000000e-06	-3.573491e-06	-2.412736e-09	-2.529935e+01	-1.609104e+02
1.010000e-06	-3.538370e-06	-2.411574e-09	-2.505070e+01	-1.606316e+02
1.020000e-06	-3.503004e-06	-2.411860e-09	-2.480032e+01	-1.603427e+02
1.030000e-06	-3.467449e-06	-2.409014e-09	-2.454860e+01	-1.600441e+02
1.040000e-06	-3.431722e-06	-2.402218e-09	-2.429566e+01	-1.597361e+02
1.050000e-06	-3.395827e-06	-2.393302e-09	-2.404154e+01	-1.594194e+02
1.060000e-06	-3.359824e-06	-2.385026e-09	-2.378664e+01	-1.590945e+02
1.070000e-06	-3.323636e-06	-2.378416e-09	-2.353044e+01	-1.587622e+02
1.080000e-06	-3.287162e-06	-2.372314e-09	-2.327221e+01	-1.584232e+02
1.090000e-06	-3.250399e-06	-2.366314e-09	-2.301195e+01	-1.580784e+02
1.100000e-06	-3.213348e-06	-2.359144e-09	-2.274964e+01	-1.577286e+02
1.110000e-06	-3.176064e-06	-2.354089e-09	-2.248567e+01	-1.573748e+02
1.120000e-06	-3.138518e-06	-2.348171e-09	-2.221985e+01	-1.570177e+02
1.130000e-06	-3.100791e-06	-2.344288e-09	-2.195276e+01	-1.566583e+02
1.140000e-06	-3.062913e-06	-2.338701e-09	-2.168459e+01	-1.562972e+02
1.150000e-06	-3.024836e-06	-2.332378e-09	-2.141502e+01	-1.559354e+02
1.160000e-06	-2.986613e-06	-2.323266e-09	-2.114441e+01	-1.555733e+02
1.170000e-06	-2.948168e-06	-2.314671e-09	-2.087223e+01	-1.552117e+02
1.180000e-06	-2.909405e-06	-2.305718e-09	-2.059780e+01	-1.548509e+02
1.190000e-06	-2.870418e-06	-2.301195e-09	-2.032178e+01	-1.544913e+02
1.200000e-06	-2.831343e-06	-2.295870e-09	-2.004514e+01	-1.541330e+02
1.210000e-06	-2.792046e-06	-2.289410e-09	-1.976693e+01	-1.537762e+02
1.220000e-06	-2.752537e-06	-2.279197e-09	-1.948722e+01	-1.534208e+02
1.230000e-06	-2.712868e-06	-2.273016e-09	-1.920637e+01	-1.530665e+02
1.240000e-06	-2.673096e-06	-2.267073e-09	-1.892479e+01	-1.527129e+02
1.250000e-06	-2.633313e-06	-2.259613e-09	-1.864314e+01	-1.523595e+02
1.260000e-06	-2.593439e-06	-2.250935e-09	-1.836084e+01	-1.520058e+02
1.270000e-06	-2.553393e-06	-2.243929e-09	-1.807733e+01	-1.516508e+02
1.280000e-06	-2.513141e-06	-2.238704e-09	-1.779236e+01	-1.512937e+02
1.290000e-06	-2.472775e-06	-2.234112e-09	-1.750658e+01	-1.509335e+02
1.300000e-06	-2.432292e-06	-2.225325e-09	-1.721997e+01	-1.505691e+02
1.310000e-06	-2.391527e-06	-2.216011e-09	-1.693136e+01	-1.501994e+02
1.320000e-06	-2.350408e-06	-2.208902e-09	-1.664025e+01	-1.498231e+02
1.330000e-06	-2.309039e-06	-2.202819e-09	-1.634737e+01	-1.494389e+02
1.340000e-06	-2.267430e-06	-2.195730e-09	-1.605279e+01	-1.490457e+02
1.350000e-06	-2.225528e-06	-2.187730e-09	-1.575613e+01	-1.486421e+02
1.360000e-06	-2.183373e-06	-2.180811e-09	-1.545769e+01	-1.482270e+02
1.370000e-06	-2.140948e-06	-2.175144e-09	-1.515733e+01	-1.477992e+02
1.380000e-06	-2.098288e-06	-2.166981e-09	-1.485531e+01	-1.473575e+02
1.390000e-06	-2.055484e-06	-2.151483e-09	-1.455227e+01	-1.469009e+02
1.400000e-06	-2.012471e-06	-2.136790e-09	-1.424775e+01	-1.464284e+02
1.410000e-06	-1.969198e-06	-2.129464e-09	-1.394139e+01	-1.459393e+02
1.420000e-06	-1.925787e-06	-2.124397e-09	-1.363405e+01	-1.454326e+02
1.430000e-06	-1.882283e-06	-2.113359e-09	-1.332605e+01	-1.449079e+02
1.440000e-06	-1.838662e-06	-2.101905e-09	-1.301723e+01	-1.443646e+02
1.450000e-06	-1.794980e-06	-2.093408e-09	-1.270797e+01	-1.438022e+02
1.460000e-06	-1.751242e-06	-2.086773e-09	-1.239832e+01	-1.432206e+02
1.470000e-06	-1.707397e-06	-2.076278e-09	-1.208791e+01	-1.426195e+02
1.480000e-06	-1.663471e-06	-2.062166e-09	-1.177693e+01	-1.419989e+02
1.490000e-06	-1.619470e-06	-2.048906e-09	-1.146541e+01	-1.413588e+02
1.500000e-06	-1.575393e-06	-2.038951e-09	-1.115336e+01	-1.406992e+02
1.510000e-06	-1.531169e-06	-2.026785e-09	-1.084026e+01	-1.400204e+02
1.520000e-06	-1.486932e-06	-2.013546e-09	-1.052708e+01	-1.393225e+02
1.530000e-06	-1.442686e-06	-2.002747e-09	-1.021383e+01	-1.386058e+02
1.540000e-06	-1.398174e-06	-1.997251e-09	-9.898694e+00	-1.378704e+02
1.550000e-06	-1.353573e-06	-1.990927e-09	-9.582928e+00	-1.371166e+02
1.560000e-06	-1.308956e-06	-1.979440e-09	-9.267052e+00	-1.363445e+02
1.570000e-06	-1.264269e-06	-1.964479e-09	-8.950681e+00	-1.355544e+02
1.580000e-06	-1.219479e-06	-1.950333e-09	-8.633578e+00	-1.347461e+02
1.590000e-06	-1.174546e-06	-1.937200e-09	-8.315471e+00	-1.339197e+02
1.600000e-06	-1.129533e-06	-1.922424e-09	-7.996787e+00	-1.330750e+02
1.610000e-06	-1.084418e-06	-1.908879e-09	-7.677383e+00	-1.322118e+02
1.620000e-06	-1.039256e-06	-1.899220e-09	-7.357654e+00	-1.313296e+02
1.630000e-06	-9.940631e-07	-1.892490e-09	-7.037697e+00	-1.304279e+02
1.640000e-06	-9.487881e-07	-1.880665e-09	-6.717162e+00	-1.295060e+02
1.650000e-06	-9.033916e-07	-1.863444e-09	-6.395767e+00	-1.285631e+02
1.660000e-06	-8.579470e-07	-1.847121e-09	-6.074032e+00	-1.275981e+02
1.670000e-06	-8.124579e-07	-1.832773e-09	-5.751982e+00	-1.266099e+02
1.680000e-06	-7.669170e-07	-1.815308e-09	-5.429565e+00	-1.255973e+02
1.690000e-06	-7.213656e-07	-1.794163e-09	-5.107073e+00	-1.245587e+02
1.700000e-06	-6.757555e-07	-1.776701e-09	-4.784166e+00	-1.234927e+02
1.710000e-06	-6.301092e-07	-1.764710e-09	-4.461003e+00	-1.223976e+02
1.720000e-06	-5.843401e-07	-1.750392e-09	-4.136969e+00	-1.212715e+02
1.730000e-06	-5.384989e-07	-1.732477e-09	-3.812426e+00	-1.201127e+02
1.740000e-06	-4.926919e-07	-1.714908e-09	-3.488125e+00	-1.189191e+02
1.750000e-06	-4.468616e-07	-1.696426e-09	-3.163659e+00	-1.176888e+02
1.760000e-06	-4.010258e-07	-1.675309e-09	-2.839154e+00	-1.164198e+02
1.770000e-06	-3.551698e-07	-1.653820e-09	-2.514506e+00	-1.151100e+02
1.780000e-06	-3.092797e-07	-1.634714e-09	-2.189617e+00	-1.137574e+02
1.790000e-06	-2.634094e-07	-1.618653e-09	-1.864867e+00	-1.123600e+02
1.800000e-06	-2.174527e-07	-1.600233e-09	-1.539506e+00	-1.109158e+02
1.810000e-06	-1.714096e-07	-1.575720e-09	-1.213533e+00	-1.094228e+02
1.820000e-06	-1.253481e-07	-1.550893e-09	-8.874307e-01	-1.078792e+02
1.830000e-06	-7.931462e-08	-1.529399e-09	-5.615260e-01	-1.062833e+02
1.840000e-06	-3.329993e-08	-1.506262e-09	-2.357545e-01	-1.046332e+02
1.850000e-06	1.279297e-08	-1.477988e-09	9.057079e-02	-1.029274e+02
1.860000e-06	5.884657e-08	-1.448901e-09	4.166178e-01	-1.011643e+02
1.870000e-06	1.048135e-07	-1.422981e-09	7.420513e-01	-9.934264e+01
1.880000e-06	1.508090e-07	-1.394956e-09	1.067687e+00	-9.746104e+01
1.890000e-06	1.968484e-07	-1.362491e-09	1.393633e+00	-9.551834e+01
1.900000e-06	2.428198e-07	-1.329924e-09	1.719098e+00	-9.351345e+01
1.910000e-06	2.886952e-07	-1.301392e-09	2.043884e+00	-9.144542e+01
1.920000e-06	3.345129e-07	-1.271717e-09	2.368260e+00	-8.931340e+01
1.930000e-06	3.803010e-07	-1.236426e-09	2.692428e+00	-8.711664e+01
1.940000e-06	4.260842e-07	-1.199899e-09	3.016561e+00	-8.485449e+01
1.950000e-06	4.718843e-07	-1.167755e-09	3.340813e+00	-8.252640e+01
1.960000e-06	5.177190e-07	-1.136943e-09	3.665310e+00	-8.013192e+01
1.970000e-06	5.634536e-07	-1.100011e-09	3.989099e+00	-7.767070e+01
1.980000e-06	6.090947e-07	-1.057652e-09	4.312225e+00	-7.514247e+01
1.990000e-06	6.547606e-07	-1.016909e-09	4.635528e+00	-7.254707e+01
2.000000e-06	7.003515e-07	-9.795398e-10	4.958298e+00	-6.988443e+01
2.010000e-06	7.459304e-07	-9.391510e-10	5.280985e+00	-6.715458e+01
2.020000e-06	7.914865e-07	-8.954097e-10	5.603510e+00	-6.435766e+01
2.030000e-06	8.369633e-07	-8.534297e-10	5.925473e+00	-6.149391e+01
2.040000e-06	8.823608e-07	-8.131764e-10	6.246875e+00	-5.856371e+01
2.050000e-06	9.276124e-07	-7.681728e-10	6.567244e+00	-5.556757e+01
2.060000e-06	9.728452e-07	-7.179555e-10	6.887480e+00	-5.250614e+01
2.070000e-06	1.018013e-06	-6.706682e-10	7.207254e+00	-4.938023e+01
2.080000e-06	1.063046e-06	-6.279818e-10	7.526080e+00	-4.619083e+01
2.090000e-06	1.108085e-06	-5.829595e-10	7.844943e+00	-4.293912e+01
2.100000e-06	1.153032e-06	-5.336402e-10	8.163152e+00	-3.962649e+01
2.110000e-06	1.197853e-06	-4.833442e-10	8.480477e+00	-3.625455e+01
2.120000e-06	1.242592e-06	-4.345203e-10	8.797211e+00	-3.282514e+01
2.130000e-06	1.287148e-06	-3.817017e-10	9.112659e+00	-2.934039e+01
2.140000e-06	1.331623e-06	-3.212953e-10	9.427531e+00	-2.580266e+01
2.150000e-06	1.376035e-06	-2.612703e-10	9.741953e+00	-2.221461e+01
2.160000e-06	1.420337e-06	-2.099061e-10	1.005560e+01	-1.857919e+01
2.170000e-06	1.464575e-06	-1.621732e-10	1.036880e+01	-1.489964e+01
2.180000e-06	1.508746e-06	-1.106087e-10	1.068151e+01	-1.117950e+01
2.190000e-06	1.552844e-06	-5.516946e-11	1.099372e+01	-7.422624e+00
2.200000e-06	1.596913e-06	1.093260e-12	1.130571e+01	-3.633146e+00
2.210000e-06	1.640994e-06	5.807656e-11	1.161779e+01	1.845039e-01
2.220000e-06	1.684982e-06	1.206784e-10	1.192921e+01	4.025625e+00
2.230000e-06	1.728868e-06	1.878520e-10	1.223991e+01	7.885256e+00
2.240000e-06	1.772711e-06	2.496388e-10	1.255032e+01	1.175820e+01
2.250000e-06	1.816481e-06	3.038210e-10	1.286019e+01	1.563905e+01
2.260000e-06	1.860140e-06	3.579888e-10	1.316929e+01	1.952222e+01
2.270000e-06	1.903651e-06	4.147048e-10	1.347733e+01	2.340198e+01
2.280000e-06	1.947074e-06	4.701714e-10	1.378476e+01	2.727248e+01
2.290000e-06	1.990382e-06	5.244559e-10	1.409136e+01	3.112782e+01
2.300000e-06	2.033486e-06	5.810879e-10	1.439653e+01	3.496204e+01
2.310000e-06	2.076404e-06	6.411973e-10	1.470038e+01	3.876925e+01
2.320000e-06	2.119160e-06	6.971707e-10	1.500308e+01	4.254357e+01
2.330000e-06	2.161701e-06	7.457870e-10	1.530426e+01	4.627928e+01
2.340000e-06	2.204010e-06	7.930258e-10	1.560379e+01	4.997078e+01
2.350000e-06	2.246030e-06	8.453871e-10	1.590128e+01	5.361270e+01
2.360000e-06	2.287683e-06	9.030959e-10	1.619617e+01	5.719992e+01
2.370000e-06	2.328993e-06	9.577632e-10	1.648864e+01	6.072759e+01
2.380000e-06	2.370008e-06	1.007503e-09	1.677901e+01	6.419120e+01
2.390000e-06	2.410788e-06	1.056718e-09	1.706773e+01	6.758662e+01
2.400000e-06	2.451381e-06	1.103399e-09	1.735511e+01	7.091009e+01
2.410000e-06	2.491820e-06	1.143441e-09	1.764141e+01	7.415830e+01
2.420000e-06	2.532140e-06	1.179464e-09	1.792686e+01	7.732836e+01
2.430000e-06	2.572276e-06	1.220457e-09	1.821101e+01	8.041786e+01
2.440000e-06	2.612190e-06	1.270187e-09	1.849360e+01	8.342485e+01
2.450000e-06	2.652012e-06	1.320629e-09	1.877553e+01	8.634786e+01
2.460000e-06	2.691788e-06	1.364708e-09	1.905713e+01	8.918587e+01
2.470000e-06	2.731450e-06	1.403380e-09	1.933793e+01	9.193836e+01
2.480000e-06	2.770974e-06	1.438751e-09	1.961775e+01	9.460524e+01
2.490000e-06	2.810365e-06	1.467427e-09	1.989662e+01	9.718684e+01
2.500000e-06	2.849525e-06	1.492431e-09	2.017386e+01	9.968393e+01
2.510000e-06	2.888450e-06	1.524106e-09	2.044944e+01	1.020976e+02
2.520000e-06	2.927122e-06	1.565072e-09	2.072323e+01	1.044294e+02
2.530000e-06	2.965555e-06	1.605582e-09	2.099533e+01	1.066810e+02
2.540000e-06	3.003821e-06	1.637284e-09	2.126624e+01	1.088546e+02
2.550000e-06	3.041888e-06	1.666507e-09	2.153574e+01	1.109523e+02
2.560000e-06	3.079825e-06	1.699376e-09	2.180433e+01	1.129767e+02
2.570000e-06	3.117617e-06	1.726304e-09	2.207189e+01	1.149303e+02
2.580000e-06	3.155192e-06	1.743522e-09	2.233790e+01	1.168159e+02
2.590000e-06	3.192531e-06	1.763057e-09	2.260226e+01	1.186362e+02
2.600000e-06	3.229585e-06	1.792570e-09	2.286459e+01	1.203939e+02
2.610000e-06	3.266310e-06	1.824008e-09	2.312459e+01	1.220918e+02
2.620000e-06	3.302801e-06	1.850894e-09	2.338294e+01	1.237326e+02
2.630000e-06	3.339183e-06	1.876209e-09	2.364051e+01	1.253189e+02
2.640000e-06	3.375379e-06	1.902523e-09	2.389677e+01	1.268532e+02
2.650000e-06	3.411355e-06	1.928015e-09	2.415147e+01	1.283376e+02
2.660000e-06	3.447193e-06	1.946341e-09	2.440519e+01	1.297745e+02
2.670000e-06	3.482915e-06	1.959991e-09	2.465810e+01	1.311659e+02
2.680000e-06	3.518445e-06	1.976535e-09	2.490964e+01	1.325134e+02
2.690000e-06	3.553772e-06	1.995505e-09	2.515975e+01	1.338186e+02
2.700000e-06	3.588854e-06	2.011080e-09	2.540811e+01	1.350831e+02
2.710000e-06	3.623521e-06	2.023908e-09	2.565354e+01	1.363080e+02
2.720000e-06	3.657784e-06	2.041314e-09	2.589612e+01	1.374944e+02
2.730000e-06	3.691615e-06	2.064475e-09	2.613563e+01	1.386431e+02
2.740000e-06	3.724937e-06	2.086738e-09	2.637154e+01	1.397548e+02
2.750000e-06	3.757851e-06	2.104609e-09	2.660456e+01	1.408302e+02
2.760000e-06	3.790447e-06	2.120837e-09	2.683533e+01	1.418697e+02
2.770000e-06	3.822752e-06	2.135966e-09	2.706405e+01	1.428736e+02
2.780000e-06	3.854840e-06	2.146150e-09	2.729122e+01	1.438424e+02
2.790000e-06	3.886792e-06	2.151864e-09	2.751744e+01	1.447763e+02
2.800000e-06	3.918557e-06	2.161099e-09	2.774232e+01	1.456755e+02
2.810000e-06	3.950005e-06	2.177864e-09	2.796497e+01	1.465403e+02
2.820000e-06	3.981179e-06	2.196912e-09	2.818567e+01	1.473711e+02
2.830000e-06	4.012144e-06	2.211723e-09	2.840489e+01	1.481681e+02
2.840000e-06	4.042831e-06	2.223818e-09	2.862215e+01	1.489318e+02
2.850000e-06	4.073287e-06	2.235223e-09	2.883777e+01	1.496626e+02
2.860000e-06	4.103525e-06	2.243509e-09	2.905184e+01	1.503612e+02
2.870000e-06	4.133446e-06	2.248865e-09	2.926368e+01	1.510282e+02
2.880000e-06	4.163133e-06	2.254173e-09	2.947385e+01	1.516645e+02
2.890000e-06	4.192578e-06	2.261851e-09	2.968232e+01	1.522709e+02
2.900000e-06	4.221732e-06	2.269874e-09	2.988872e+01	1.528485e+02
