# Temperatura_=_-0.6
# Concentracion g/m^3_=_4090.0
# C_Vs_to_Am_M_A/Vsm_=_65563218390.804596
# pendiente_HvsI_1/m_=_3716.3
# ordenada_HvsI_A/m_=_1297.0
# frecuencia_Hz_=_135083.94370955604

Tiempo_(s)	Campo_(V.s)	Magnetizacion_(V.s)	Campo_(kA/m)	Magnetizacion_(A/m)
0.000000e+00	-5.413277e-06	-2.610790e-09	-3.838984e+01	-1.670941e+02
1.000000e-08	-5.413495e-06	-2.611903e-09	-3.839139e+01	-1.670334e+02
2.000000e-08	-5.413572e-06	-2.618070e-09	-3.839193e+01	-1.669761e+02
3.000000e-08	-5.413443e-06	-2.628515e-09	-3.839102e+01	-1.669242e+02
4.000000e-08	-5.412904e-06	-2.635836e-09	-3.838720e+01	-1.668800e+02
5.000000e-08	-5.411888e-06	-2.633117e-09	-3.837999e+01	-1.668455e+02
6.000000e-08	-5.410247e-06	-2.620587e-09	-3.836836e+01	-1.668228e+02
7.000000e-08	-5.408017e-06	-2.604307e-09	-3.835254e+01	-1.668138e+02
8.000000e-08	-5.405246e-06	-2.596888e-09	-3.833289e+01	-1.668204e+02
9.000000e-08	-5.401797e-06	-2.618492e-09	-3.830843e+01	-1.668440e+02
1.000000e-07	-5.397829e-06	-2.668164e-09	-3.828029e+01	-1.668862e+02
1.100000e-07	-5.393534e-06	-2.652455e-09	-3.824983e+01	-1.669480e+02
1.200000e-07	-5.389129e-06	-2.585824e-09	-3.821859e+01	-1.670301e+02
1.300000e-07	-5.384609e-06	-2.573653e-09	-3.818653e+01	-1.671332e+02
1.400000e-07	-5.379699e-06	-2.644004e-09	-3.815171e+01	-1.672573e+02
1.500000e-07	-5.374270e-06	-2.636397e-09	-3.811321e+01	-1.674024e+02
1.600000e-07	-5.368508e-06	-2.551493e-09	-3.807235e+01	-1.675679e+02
1.700000e-07	-5.362500e-06	-2.533608e-09	-3.802974e+01	-1.677529e+02
1.800000e-07	-5.356074e-06	-2.666200e-09	-3.798417e+01	-1.679564e+02
1.900000e-07	-5.349079e-06	-2.679253e-09	-3.793456e+01	-1.681768e+02
2.000000e-07	-5.341723e-06	-2.587777e-09	-3.788239e+01	-1.684123e+02
2.100000e-07	-5.334185e-06	-2.556838e-09	-3.782894e+01	-1.686609e+02
2.200000e-07	-5.326404e-06	-2.642831e-09	-3.777376e+01	-1.689202e+02
2.300000e-07	-5.318376e-06	-2.624601e-09	-3.771682e+01	-1.691879e+02
2.400000e-07	-5.310098e-06	-2.570751e-09	-3.765812e+01	-1.694613e+02
2.500000e-07	-5.301287e-06	-2.618579e-09	-3.759563e+01	-1.697375e+02
2.600000e-07	-5.291694e-06	-2.688103e-09	-3.752760e+01	-1.700138e+02
2.700000e-07	-5.281341e-06	-2.662928e-09	-3.745418e+01	-1.702873e+02
2.800000e-07	-5.270469e-06	-2.644147e-09	-3.737708e+01	-1.705552e+02
2.900000e-07	-5.259241e-06	-2.697023e-09	-3.729745e+01	-1.708146e+02
3.000000e-07	-5.247610e-06	-2.671698e-09	-3.721496e+01	-1.710630e+02
3.100000e-07	-5.235656e-06	-2.620057e-09	-3.713019e+01	-1.712977e+02
3.200000e-07	-5.223310e-06	-2.650643e-09	-3.704264e+01	-1.715164e+02
3.300000e-07	-5.210575e-06	-2.727312e-09	-3.695232e+01	-1.717171e+02
3.400000e-07	-5.197473e-06	-2.668626e-09	-3.685940e+01	-1.718979e+02
3.500000e-07	-5.183954e-06	-2.635443e-09	-3.676353e+01	-1.720571e+02
3.600000e-07	-5.170065e-06	-2.664071e-09	-3.666503e+01	-1.721936e+02
3.700000e-07	-5.155943e-06	-2.689728e-09	-3.656488e+01	-1.723063e+02
3.800000e-07	-5.141403e-06	-2.634176e-09	-3.646176e+01	-1.723945e+02
3.900000e-07	-5.126165e-06	-2.633460e-09	-3.635371e+01	-1.724578e+02
4.000000e-07	-5.110163e-06	-2.639757e-09	-3.624022e+01	-1.724963e+02
4.100000e-07	-5.093609e-06	-2.645944e-09	-3.612282e+01	-1.725102e+02
4.200000e-07	-5.076739e-06	-2.652985e-09	-3.600319e+01	-1.725001e+02
4.300000e-07	-5.059660e-06	-2.660865e-09	-3.588207e+01	-1.724666e+02
4.400000e-07	-5.042339e-06	-2.614525e-09	-3.575922e+01	-1.724109e+02
4.500000e-07	-5.024723e-06	-2.608794e-09	-3.563430e+01	-1.723342e+02
4.600000e-07	-5.006830e-06	-2.637633e-09	-3.550740e+01	-1.722380e+02
4.700000e-07	-4.988508e-06	-2.631629e-09	-3.537747e+01	-1.721238e+02
4.800000e-07	-4.969768e-06	-2.596115e-09	-3.524456e+01	-1.719933e+02
4.900000e-07	-4.950591e-06	-2.613310e-09	-3.510857e+01	-1.718482e+02
5.000000e-07	-4.930975e-06	-2.638983e-09	-3.496945e+01	-1.716905e+02
5.100000e-07	-4.911128e-06	-2.628134e-09	-3.482871e+01	-1.715218e+02
5.200000e-07	-4.891171e-06	-2.606497e-09	-3.468717e+01	-1.713440e+02
5.300000e-07	-4.871021e-06	-2.597113e-09	-3.454428e+01	-1.711587e+02
5.400000e-07	-4.850664e-06	-2.605217e-09	-3.439990e+01	-1.709678e+02
5.500000e-07	-4.829961e-06	-2.615244e-09	-3.425309e+01	-1.707726e+02
5.600000e-07	-4.808720e-06	-2.609664e-09	-3.410245e+01	-1.705746e+02
5.700000e-07	-4.787138e-06	-2.590261e-09	-3.394940e+01	-1.703751e+02
5.800000e-07	-4.765356e-06	-2.600059e-09	-3.379492e+01	-1.701751e+02
5.900000e-07	-4.743304e-06	-2.605451e-09	-3.363853e+01	-1.699756e+02
6.000000e-07	-4.720926e-06	-2.591008e-09	-3.347983e+01	-1.697773e+02
6.100000e-07	-4.698191e-06	-2.570788e-09	-3.331860e+01	-1.695809e+02
6.200000e-07	-4.675042e-06	-2.577769e-09	-3.315443e+01	-1.693867e+02
6.300000e-07	-4.651545e-06	-2.585361e-09	-3.298779e+01	-1.691951e+02
6.400000e-07	-4.627878e-06	-2.591666e-09	-3.281995e+01	-1.690061e+02
6.500000e-07	-4.604046e-06	-2.577199e-09	-3.265095e+01	-1.688197e+02
6.600000e-07	-4.579994e-06	-2.568251e-09	-3.248037e+01	-1.686358e+02
6.700000e-07	-4.555651e-06	-2.565964e-09	-3.230774e+01	-1.684540e+02
6.800000e-07	-4.530980e-06	-2.568711e-09	-3.213278e+01	-1.682741e+02
6.900000e-07	-4.505814e-06	-2.551225e-09	-3.195430e+01	-1.680957e+02
7.000000e-07	-4.480066e-06	-2.543809e-09	-3.177170e+01	-1.679183e+02
7.100000e-07	-4.453777e-06	-2.548034e-09	-3.158527e+01	-1.677414e+02
7.200000e-07	-4.427016e-06	-2.558672e-09	-3.139548e+01	-1.675644e+02
7.300000e-07	-4.399850e-06	-2.551899e-09	-3.120282e+01	-1.673870e+02
7.400000e-07	-4.372308e-06	-2.542826e-09	-3.100751e+01	-1.672086e+02
7.500000e-07	-4.344506e-06	-2.532686e-09	-3.081034e+01	-1.670288e+02
7.600000e-07	-4.316579e-06	-2.530260e-09	-3.061229e+01	-1.668471e+02
7.700000e-07	-4.288498e-06	-2.522082e-09	-3.041314e+01	-1.666632e+02
7.800000e-07	-4.260180e-06	-2.512061e-09	-3.021232e+01	-1.664769e+02
7.900000e-07	-4.231585e-06	-2.510265e-09	-3.000953e+01	-1.662877e+02
8.000000e-07	-4.202589e-06	-2.518783e-09	-2.980389e+01	-1.660956e+02
8.100000e-07	-4.173153e-06	-2.519378e-09	-2.959514e+01	-1.659004e+02
8.200000e-07	-4.143429e-06	-2.509776e-09	-2.938434e+01	-1.657020e+02
8.300000e-07	-4.113515e-06	-2.501468e-09	-2.917220e+01	-1.655003e+02
8.400000e-07	-4.083342e-06	-2.498894e-09	-2.895822e+01	-1.652954e+02
8.500000e-07	-4.052915e-06	-2.498243e-09	-2.874243e+01	-1.650872e+02
8.600000e-07	-4.022322e-06	-2.489879e-09	-2.852548e+01	-1.648759e+02
8.700000e-07	-3.991493e-06	-2.482371e-09	-2.830685e+01	-1.646613e+02
8.800000e-07	-3.960314e-06	-2.479605e-09	-2.808573e+01	-1.644436e+02
8.900000e-07	-3.928881e-06	-2.480050e-09	-2.786281e+01	-1.642227e+02
9.000000e-07	-3.897265e-06	-2.470600e-09	-2.763860e+01	-1.639987e+02
9.100000e-07	-3.865463e-06	-2.460736e-09	-2.741307e+01	-1.637716e+02
9.200000e-07	-3.833501e-06	-2.455282e-09	-2.718640e+01	-1.635413e+02
9.300000e-07	-3.801347e-06	-2.459116e-09	-2.695836e+01	-1.633076e+02
9.400000e-07	-3.769012e-06	-2.458709e-09	-2.672905e+01	-1.630704e+02
9.500000e-07	-3.736348e-06	-2.456091e-09	-2.649741e+01	-1.628296e+02
9.600000e-07	-3.703277e-06	-2.449589e-09	-2.626288e+01	-1.625849e+02
9.700000e-07	-3.669868e-06	-2.447668e-09	-2.602595e+01	-1.623360e+02
9.800000e-07	-3.635947e-06	-2.439323e-09	-2.578538e+01	-1.620826e+02
9.900000e-07	-3.601500e-06	-2.428288e-09	-2.554109e+01	-1.618244e+02
1.000000e-06	-3.566645e-06	-2.416725e-09	-2.529391e+01	-1.615609e+02
1.010000e-06	-3.531434e-06	-2.418960e-09	-2.504420e+01	-1.612919e+02
1.020000e-06	-3.495947e-06	-2.424085e-09	-2.479253e+01	-1.610169e+02
1.030000e-06	-3.460272e-06	-2.424247e-09	-2.453954e+01	-1.607355e+02
1.040000e-06	-3.424460e-06	-2.418913e-09	-2.428556e+01	-1.604474e+02
1.050000e-06	-3.388569e-06	-2.414977e-09	-2.403103e+01	-1.601522e+02
1.060000e-06	-3.352536e-06	-2.408836e-09	-2.377550e+01	-1.598496e+02
1.070000e-06	-3.316303e-06	-2.396892e-09	-2.351853e+01	-1.595394e+02
1.080000e-06	-3.279848e-06	-2.380917e-09	-2.326000e+01	-1.592213e+02
1.090000e-06	-3.243162e-06	-2.369817e-09	-2.299983e+01	-1.588953e+02
1.100000e-06	-3.206228e-06	-2.365692e-09	-2.273790e+01	-1.585612e+02
1.110000e-06	-3.169031e-06	-2.363318e-09	-2.247411e+01	-1.582190e+02
1.120000e-06	-3.131632e-06	-2.359274e-09	-2.220889e+01	-1.578688e+02
1.130000e-06	-3.094000e-06	-2.355240e-09	-2.194201e+01	-1.575108e+02
1.140000e-06	-3.056125e-06	-2.352468e-09	-2.167341e+01	-1.571450e+02
1.150000e-06	-3.018058e-06	-2.347124e-09	-2.140344e+01	-1.567718e+02
1.160000e-06	-2.979845e-06	-2.337911e-09	-2.113244e+01	-1.563914e+02
1.170000e-06	-2.941461e-06	-2.323141e-09	-2.086023e+01	-1.560042e+02
1.180000e-06	-2.902783e-06	-2.311224e-09	-2.058594e+01	-1.556105e+02
1.190000e-06	-2.863722e-06	-2.305309e-09	-2.030892e+01	-1.552107e+02
1.200000e-06	-2.824525e-06	-2.303194e-09	-2.003094e+01	-1.548053e+02
1.210000e-06	-2.785241e-06	-2.296557e-09	-1.975235e+01	-1.543945e+02
1.220000e-06	-2.745732e-06	-2.289771e-09	-1.947216e+01	-1.539787e+02
1.230000e-06	-2.706075e-06	-2.285810e-09	-1.919093e+01	-1.535583e+02
1.240000e-06	-2.666331e-06	-2.282091e-09	-1.890907e+01	-1.531334e+02
1.250000e-06	-2.626518e-06	-2.270193e-09	-1.862672e+01	-1.527042e+02
1.260000e-06	-2.586580e-06	-2.256820e-09	-1.834349e+01	-1.522708e+02
1.270000e-06	-2.546535e-06	-2.247359e-09	-1.805950e+01	-1.518333e+02
1.280000e-06	-2.506394e-06	-2.243300e-09	-1.777483e+01	-1.513915e+02
1.290000e-06	-2.466133e-06	-2.235756e-09	-1.748931e+01	-1.509452e+02
1.300000e-06	-2.425715e-06	-2.224537e-09	-1.720267e+01	-1.504941e+02
1.310000e-06	-2.385077e-06	-2.216905e-09	-1.691447e+01	-1.500377e+02
1.320000e-06	-2.344203e-06	-2.216308e-09	-1.662460e+01	-1.495756e+02
1.330000e-06	-2.303113e-06	-2.211809e-09	-1.633320e+01	-1.491071e+02
1.340000e-06	-2.261699e-06	-2.200656e-09	-1.603950e+01	-1.486315e+02
1.350000e-06	-2.219874e-06	-2.189776e-09	-1.574289e+01	-1.481479e+02
1.360000e-06	-2.177704e-06	-2.183764e-09	-1.544382e+01	-1.476554e+02
1.370000e-06	-2.135191e-06	-2.177330e-09	-1.514233e+01	-1.471531e+02
1.380000e-06	-2.092531e-06	-2.165497e-09	-1.483980e+01	-1.466400e+02
1.390000e-06	-2.049831e-06	-2.151626e-09	-1.453698e+01	-1.461150e+02
1.400000e-06	-2.006989e-06	-2.142635e-09	-1.423315e+01	-1.455771e+02
1.410000e-06	-1.963898e-06	-2.138666e-09	-1.392756e+01	-1.450251e+02
1.420000e-06	-1.920550e-06	-2.131243e-09	-1.362014e+01	-1.444582e+02
1.430000e-06	-1.877122e-06	-2.118201e-09	-1.331216e+01	-1.438752e+02
1.440000e-06	-1.833592e-06	-2.107010e-09	-1.300346e+01	-1.432752e+02
1.450000e-06	-1.789903e-06	-2.101920e-09	-1.269362e+01	-1.426574e+02
1.460000e-06	-1.746122e-06	-2.095912e-09	-1.238314e+01	-1.420210e+02
1.470000e-06	-1.702303e-06	-2.083018e-09	-1.207238e+01	-1.413652e+02
1.480000e-06	-1.658436e-06	-2.066198e-09	-1.176128e+01	-1.406894e+02
1.490000e-06	-1.614496e-06	-2.054234e-09	-1.144967e+01	-1.399931e+02
1.500000e-06	-1.570453e-06	-2.043498e-09	-1.113733e+01	-1.392759e+02
1.510000e-06	-1.526322e-06	-2.028448e-09	-1.082436e+01	-1.385374e+02
1.520000e-06	-1.482148e-06	-2.011498e-09	-1.051108e+01	-1.377773e+02
1.530000e-06	-1.437910e-06	-2.000003e-09	-1.019736e+01	-1.369956e+02
1.540000e-06	-1.393566e-06	-1.991093e-09	-9.882880e+00	-1.361922e+02
1.550000e-06	-1.349150e-06	-1.977915e-09	-9.567896e+00	-1.353669e+02
1.560000e-06	-1.304608e-06	-1.962152e-09	-9.252008e+00	-1.345198e+02
1.570000e-06	-1.259923e-06	-1.951186e-09	-8.935114e+00	-1.336510e+02
1.580000e-06	-1.215199e-06	-1.940003e-09	-8.617939e+00	-1.327603e+02
1.590000e-06	-1.170404e-06	-1.923804e-09	-8.300263e+00	-1.318479e+02
1.600000e-06	-1.125479e-06	-1.905650e-09	-7.981661e+00	-1.309137e+02
1.610000e-06	-1.080455e-06	-1.892165e-09	-7.662365e+00	-1.299575e+02
1.620000e-06	-1.035311e-06	-1.882218e-09	-7.342209e+00	-1.289792e+02
1.630000e-06	-9.900346e-07	-1.869255e-09	-7.021121e+00	-1.279785e+02
1.640000e-06	-9.448109e-07	-1.851940e-09	-6.700403e+00	-1.269549e+02
1.650000e-06	-8.995276e-07	-1.835768e-09	-6.379264e+00	-1.259078e+02
1.660000e-06	-8.540527e-07	-1.825042e-09	-6.056765e+00	-1.248366e+02
1.670000e-06	-8.085691e-07	-1.814048e-09	-5.734205e+00	-1.237403e+02
1.680000e-06	-7.630384e-07	-1.793369e-09	-5.411311e+00	-1.226179e+02
1.690000e-06	-7.173860e-07	-1.767686e-09	-5.087553e+00	-1.214682e+02
1.700000e-06	-6.716418e-07	-1.745258e-09	-4.763145e+00	-1.202897e+02
1.710000e-06	-6.259349e-07	-1.725313e-09	-4.439001e+00	-1.190809e+02
1.720000e-06	-5.802863e-07	-1.703928e-09	-4.115270e+00	-1.178402e+02
1.730000e-06	-5.345332e-07	-1.683339e-09	-3.790799e+00	-1.165655e+02
1.740000e-06	-4.887129e-07	-1.670909e-09	-3.465851e+00	-1.152549e+02
1.750000e-06	-4.429387e-07	-1.661514e-09	-3.141230e+00	-1.139064e+02
1.760000e-06	-3.971835e-07	-1.646945e-09	-2.816744e+00	-1.125177e+02
1.770000e-06	-3.513612e-07	-1.623985e-09	-2.491781e+00	-1.110866e+02
1.780000e-06	-3.054449e-07	-1.595794e-09	-2.166152e+00	-1.096108e+02
1.790000e-06	-2.595360e-07	-1.568605e-09	-1.840576e+00	-1.080880e+02
1.800000e-06	-2.136326e-07	-1.539845e-09	-1.515038e+00	-1.065161e+02
1.810000e-06	-1.676700e-07	-1.507936e-09	-1.189081e+00	-1.048927e+02
1.820000e-06	-1.217266e-07	-1.481076e-09	-8.632599e-01	-1.032158e+02
1.830000e-06	-7.580173e-08	-1.461476e-09	-5.375702e-01	-1.014835e+02
1.840000e-06	-2.990446e-08	-1.444705e-09	-2.120762e-01	-9.969374e+01
1.850000e-06	1.593027e-08	-1.423144e-09	1.129742e-01	-9.784501e+01
1.860000e-06	6.181385e-08	-1.394822e-09	4.383710e-01	-9.593577e+01
1.870000e-06	1.077718e-07	-1.362308e-09	7.642953e-01	-9.396474e+01
1.880000e-06	1.536979e-07	-1.326511e-09	1.089994e+00	-9.193087e+01
1.890000e-06	1.995626e-07	-1.287313e-09	1.415256e+00	-8.983336e+01
1.900000e-06	2.453988e-07	-1.249076e-09	1.740317e+00	-8.767163e+01
1.910000e-06	2.912566e-07	-1.217001e-09	2.065532e+00	-8.544539e+01
1.920000e-06	3.371754e-07	-1.187107e-09	2.391179e+00	-8.315457e+01
1.930000e-06	3.830662e-07	-1.157553e-09	2.716627e+00	-8.079938e+01
1.940000e-06	4.288492e-07	-1.126707e-09	3.041310e+00	-7.838024e+01
1.950000e-06	4.746516e-07	-1.092844e-09	3.366131e+00	-7.589784e+01
1.960000e-06	5.204972e-07	-1.054643e-09	3.691259e+00	-7.335306e+01
1.970000e-06	5.662260e-07	-1.012014e-09	4.015557e+00	-7.074702e+01
1.980000e-06	6.117981e-07	-9.681599e-10	4.338746e+00	-6.808098e+01
1.990000e-06	6.573394e-07	-9.243982e-10	4.661715e+00	-6.535642e+01
2.000000e-06	7.028817e-07	-8.829562e-10	4.984692e+00	-6.257493e+01
2.010000e-06	7.484145e-07	-8.430686e-10	5.307601e+00	-5.973824e+01
2.020000e-06	7.939492e-07	-8.031749e-10	5.630524e+00	-5.684819e+01
2.030000e-06	8.394505e-07	-7.629927e-10	5.953209e+00	-5.390669e+01
2.040000e-06	8.848822e-07	-7.189200e-10	6.275402e+00	-5.091575e+01
2.050000e-06	9.302477e-07	-6.708392e-10	6.597124e+00	-4.787738e+01
2.060000e-06	9.754720e-07	-6.228760e-10	6.917846e+00	-4.479367e+01
2.070000e-06	1.020520e-06	-5.770665e-10	7.237314e+00	-4.166670e+01
2.080000e-06	1.065461e-06	-5.316804e-10	7.556028e+00	-3.849858e+01
2.090000e-06	1.110284e-06	-4.849086e-10	7.873905e+00	-3.529142e+01
2.100000e-06	1.155054e-06	-4.370995e-10	8.191404e+00	-3.204732e+01
2.110000e-06	1.199753e-06	-3.911969e-10	8.508397e+00	-2.876838e+01
2.120000e-06	1.244366e-06	-3.434230e-10	8.824788e+00	-2.545673e+01
2.130000e-06	1.288960e-06	-2.904097e-10	9.141040e+00	-2.211446e+01
2.140000e-06	1.333560e-06	-2.377367e-10	9.457331e+00	-1.874370e+01
2.150000e-06	1.378064e-06	-1.862682e-10	9.772949e+00	-1.534662e+01
2.160000e-06	1.422384e-06	-1.365261e-10	1.008725e+01	-1.192538e+01
2.170000e-06	1.466594e-06	-8.767007e-11	1.040078e+01	-8.482217e+00
2.180000e-06	1.510761e-06	-3.565853e-11	1.071400e+01	-5.019431e+00
2.190000e-06	1.554837e-06	2.127680e-11	1.102658e+01	-1.539383e+00
2.200000e-06	1.598859e-06	7.814945e-11	1.133878e+01	1.955470e+00
2.210000e-06	1.642862e-06	1.328787e-10	1.165084e+01	5.462574e+00
2.220000e-06	1.686758e-06	1.873741e-10	1.196214e+01	8.979260e+00
2.230000e-06	1.730597e-06	2.393881e-10	1.227304e+01	1.250274e+01
2.240000e-06	1.774361e-06	2.889679e-10	1.258340e+01	1.603009e+01
2.250000e-06	1.818004e-06	3.371106e-10	1.289291e+01	1.955827e+01
2.260000e-06	1.861579e-06	3.856803e-10	1.320193e+01	2.308409e+01
2.270000e-06	1.905025e-06	4.396669e-10	1.351004e+01	2.660424e+01
2.280000e-06	1.948300e-06	4.962937e-10	1.381694e+01	3.011528e+01
2.290000e-06	1.991469e-06	5.496105e-10	1.412308e+01	3.361366e+01
2.300000e-06	2.034417e-06	6.009396e-10	1.442767e+01	3.709573e+01
2.310000e-06	2.077183e-06	6.538051e-10	1.473095e+01	4.055777e+01
2.320000e-06	2.119747e-06	7.046589e-10	1.503281e+01	4.399599e+01
2.330000e-06	2.161935e-06	7.513098e-10	1.533200e+01	4.740655e+01
2.340000e-06	2.203912e-06	7.986671e-10	1.562969e+01	5.078564e+01
2.350000e-06	2.245650e-06	8.504271e-10	1.592568e+01	5.412943e+01
2.360000e-06	2.287189e-06	9.045905e-10	1.622027e+01	5.743417e+01
2.370000e-06	2.328532e-06	9.541406e-10	1.651347e+01	6.069619e+01
2.380000e-06	2.369513e-06	9.986184e-10	1.680410e+01	6.391194e+01
2.390000e-06	2.410174e-06	1.043421e-09	1.709245e+01	6.707802e+01
2.400000e-06	2.450591e-06	1.087269e-09	1.737909e+01	7.019122e+01
2.410000e-06	2.490921e-06	1.126261e-09	1.766510e+01	7.324853e+01
2.420000e-06	2.531168e-06	1.166138e-09	1.795052e+01	7.624720e+01
2.430000e-06	2.571270e-06	1.212945e-09	1.823491e+01	7.918474e+01
2.440000e-06	2.611232e-06	1.263395e-09	1.851832e+01	8.205895e+01
2.450000e-06	2.651070e-06	1.305983e-09	1.880084e+01	8.486795e+01
2.460000e-06	2.690758e-06	1.338437e-09	1.908230e+01	8.761016e+01
2.470000e-06	2.730294e-06	1.371827e-09	1.936268e+01	9.028437e+01
2.480000e-06	2.769789e-06	1.410242e-09	1.964277e+01	9.288968e+01
2.490000e-06	2.809159e-06	1.446751e-09	1.992198e+01	9.542552e+01
2.500000e-06	2.848209e-06	1.479630e-09	2.019891e+01	9.789167e+01
2.510000e-06	2.886985e-06	1.515397e-09	2.047390e+01	1.002882e+02
2.520000e-06	2.925540e-06	1.556231e-09	2.074732e+01	1.026156e+02
2.530000e-06	2.963874e-06	1.593025e-09	2.101919e+01	1.048744e+02
2.540000e-06	3.002099e-06	1.617499e-09	2.129027e+01	1.070657e+02
2.550000e-06	3.040238e-06	1.637646e-09	2.156074e+01	1.091905e+02
2.560000e-06	3.078117e-06	1.664725e-09	2.182937e+01	1.112504e+02
2.570000e-06	3.115714e-06	1.696539e-09	2.209600e+01	1.132469e+02
2.580000e-06	3.153143e-06	1.725020e-09	2.236144e+01	1.151816e+02
2.590000e-06	3.190388e-06	1.751366e-09	2.262557e+01	1.170563e+02
2.600000e-06	3.227348e-06	1.782627e-09	2.288768e+01	1.188730e+02
2.610000e-06	3.264032e-06	1.815086e-09	2.314784e+01	1.206336e+02
2.620000e-06	3.300502e-06	1.839496e-09	2.340648e+01	1.223399e+02
2.630000e-06	3.336732e-06	1.858220e-09	2.366342e+01	1.239940e+02
2.640000e-06	3.372773e-06	1.880453e-09	2.391901e+01	1.255975e+02
2.650000e-06	3.408712e-06	1.905449e-09	2.417388e+01	1.271523e+02
2.660000e-06	3.444565e-06	1.925382e-09	2.442814e+01	1.286600e+02
2.670000e-06	3.480292e-06	1.941597e-09	2.468151e+01	1.301221e+02
2.680000e-06	3.515848e-06	1.962138e-09	2.493367e+01	1.315402e+02
2.690000e-06	3.551191e-06	1.987944e-09	2.518431e+01	1.329154e+02
2.700000e-06	3.586208e-06	2.009099e-09	2.543264e+01	1.342488e+02
2.710000e-06	3.620757e-06	2.023426e-09	2.567766e+01	1.355416e+02
2.720000e-06	3.654769e-06	2.038858e-09	2.591887e+01	1.367944e+02
2.730000e-06	3.688355e-06	2.058452e-09	2.615705e+01	1.380081e+02
2.740000e-06	3.721491e-06	2.077189e-09	2.639205e+01	1.391832e+02
2.750000e-06	3.754220e-06	2.092188e-09	2.662415e+01	1.403202e+02
2.760000e-06	3.786678e-06	2.108171e-09	2.685434e+01	1.414195e+02
2.770000e-06	3.818923e-06	2.127548e-09	2.708301e+01	1.424816e+02
2.780000e-06	3.850997e-06	2.145257e-09	2.731047e+01	1.435066e+02
2.790000e-06	3.882883e-06	2.157300e-09	2.753660e+01	1.444949e+02
2.800000e-06	3.914643e-06	2.169607e-09	2.776184e+01	1.454467e+02
2.810000e-06	3.946187e-06	2.188036e-09	2.798554e+01	1.463624e+02
2.820000e-06	3.977398e-06	2.205805e-09	2.820688e+01	1.472424e+02
2.830000e-06	4.008370e-06	2.215673e-09	2.842653e+01	1.480870e+02
2.840000e-06	4.039106e-06	2.222228e-09	2.864451e+01	1.488967e+02
2.850000e-06	4.069449e-06	2.232888e-09	2.885969e+01	1.496722e+02
2.860000e-06	4.099439e-06	2.247150e-09	2.907237e+01	1.504141e+02
2.870000e-06	4.129309e-06	2.260160e-09	2.928421e+01	1.511232e+02
2.880000e-06	4.159049e-06	2.271261e-09	2.949511e+01	1.518005e+02
2.890000e-06	4.188408e-06	2.281257e-09	2.970333e+01	1.524470e+02
2.900000e-06	4.217387e-06	2.290553e-09	2.990884e+01	1.530639e+02
