# Temperatura_=_19.8
# Concentracion g/m^3_=_4090.0
# C_Vs_to_Am_M_A/Vsm_=_65563218390.804596
# pendiente_HvsI_1/m_=_3716.3
# ordenada_HvsI_A/m_=_1297.0
# frecuencia_Hz_=_135072.81246452758

Tiempo_(s)	Campo_(V.s)	Magnetizacion_(V.s)	Campo_(kA/m)	Magnetizacion_(A/m)
0.000000e+00	-5.412585e-06	-2.744298e-09	-3.839630e+01	-1.756012e+02
1.000000e-08	-5.412772e-06	-2.752160e-09	-3.839762e+01	-1.755483e+02
2.000000e-08	-5.412715e-06	-2.755354e-09	-3.839722e+01	-1.754928e+02
3.000000e-08	-5.412445e-06	-2.755726e-09	-3.839531e+01	-1.754363e+02
4.000000e-08	-5.411811e-06	-2.753740e-09	-3.839081e+01	-1.753804e+02
5.000000e-08	-5.410660e-06	-2.747506e-09	-3.838264e+01	-1.753269e+02
6.000000e-08	-5.408946e-06	-2.737888e-09	-3.837048e+01	-1.752774e+02
7.000000e-08	-5.406677e-06	-2.738202e-09	-3.835439e+01	-1.752336e+02
8.000000e-08	-5.403881e-06	-2.754128e-09	-3.833455e+01	-1.751973e+02
9.000000e-08	-5.400519e-06	-2.740714e-09	-3.831070e+01	-1.751700e+02
1.000000e-07	-5.396631e-06	-2.695648e-09	-3.828312e+01	-1.751531e+02
1.100000e-07	-5.392375e-06	-2.730942e-09	-3.825293e+01	-1.751481e+02
1.200000e-07	-5.388016e-06	-2.799153e-09	-3.822201e+01	-1.751558e+02
1.300000e-07	-5.383399e-06	-2.732785e-09	-3.818925e+01	-1.751774e+02
1.400000e-07	-5.378317e-06	-2.665164e-09	-3.815320e+01	-1.752133e+02
1.500000e-07	-5.372891e-06	-2.688723e-09	-3.811471e+01	-1.752639e+02
1.600000e-07	-5.367128e-06	-2.800637e-09	-3.807383e+01	-1.753294e+02
1.700000e-07	-5.360888e-06	-2.726567e-09	-3.802956e+01	-1.754096e+02
1.800000e-07	-5.354205e-06	-2.628678e-09	-3.798216e+01	-1.755039e+02
1.900000e-07	-5.347290e-06	-2.710990e-09	-3.793310e+01	-1.756117e+02
2.000000e-07	-5.340141e-06	-2.798961e-09	-3.788239e+01	-1.757319e+02
2.100000e-07	-5.332629e-06	-2.725256e-09	-3.782910e+01	-1.758633e+02
2.200000e-07	-5.324841e-06	-2.648387e-09	-3.777385e+01	-1.760042e+02
2.300000e-07	-5.316879e-06	-2.757575e-09	-3.771737e+01	-1.761529e+02
2.400000e-07	-5.308670e-06	-2.782993e-09	-3.765914e+01	-1.763075e+02
2.500000e-07	-5.299837e-06	-2.700311e-09	-3.759647e+01	-1.764659e+02
2.600000e-07	-5.290304e-06	-2.693527e-09	-3.752885e+01	-1.766259e+02
2.700000e-07	-5.280270e-06	-2.805433e-09	-3.745767e+01	-1.767851e+02
2.800000e-07	-5.269505e-06	-2.753069e-09	-3.738130e+01	-1.769413e+02
2.900000e-07	-5.258202e-06	-2.662776e-09	-3.730112e+01	-1.770920e+02
3.000000e-07	-5.246608e-06	-2.718952e-09	-3.721888e+01	-1.772349e+02
3.100000e-07	-5.234568e-06	-2.793901e-09	-3.713346e+01	-1.773679e+02
3.200000e-07	-5.222104e-06	-2.699781e-09	-3.704504e+01	-1.774887e+02
3.300000e-07	-5.209342e-06	-2.671175e-09	-3.695451e+01	-1.775955e+02
3.400000e-07	-5.196200e-06	-2.758833e-09	-3.686128e+01	-1.776863e+02
3.500000e-07	-5.182644e-06	-2.759608e-09	-3.676512e+01	-1.777596e+02
3.600000e-07	-5.168782e-06	-2.687739e-09	-3.666679e+01	-1.778140e+02
3.700000e-07	-5.154520e-06	-2.717377e-09	-3.656561e+01	-1.778483e+02
3.800000e-07	-5.139655e-06	-2.737729e-09	-3.646016e+01	-1.778618e+02
3.900000e-07	-5.124186e-06	-2.692365e-09	-3.635042e+01	-1.778537e+02
4.000000e-07	-5.108204e-06	-2.704133e-09	-3.623705e+01	-1.778237e+02
4.100000e-07	-5.091759e-06	-2.736533e-09	-3.612039e+01	-1.777718e+02
4.200000e-07	-5.074958e-06	-2.684713e-09	-3.600121e+01	-1.776981e+02
4.300000e-07	-5.057960e-06	-2.673707e-09	-3.588062e+01	-1.776031e+02
4.400000e-07	-5.040689e-06	-2.736432e-09	-3.575811e+01	-1.774875e+02
4.500000e-07	-5.023070e-06	-2.708870e-09	-3.563312e+01	-1.773520e+02
4.600000e-07	-5.005116e-06	-2.655793e-09	-3.550576e+01	-1.771977e+02
4.700000e-07	-4.986750e-06	-2.682406e-09	-3.537547e+01	-1.770259e+02
4.800000e-07	-4.967928e-06	-2.715353e-09	-3.524195e+01	-1.768379e+02
4.900000e-07	-4.948691e-06	-2.676087e-09	-3.510548e+01	-1.766351e+02
5.000000e-07	-4.929165e-06	-2.671577e-09	-3.496697e+01	-1.764190e+02
5.100000e-07	-4.909387e-06	-2.676997e-09	-3.482666e+01	-1.761912e+02
5.200000e-07	-4.889415e-06	-2.676962e-09	-3.468499e+01	-1.759531e+02
5.300000e-07	-4.869247e-06	-2.676349e-09	-3.454191e+01	-1.757064e+02
5.400000e-07	-4.848760e-06	-2.675916e-09	-3.439658e+01	-1.754524e+02
5.500000e-07	-4.827912e-06	-2.643277e-09	-3.424869e+01	-1.751926e+02
5.600000e-07	-4.806687e-06	-2.654873e-09	-3.409812e+01	-1.749282e+02
5.700000e-07	-4.785131e-06	-2.669248e-09	-3.394521e+01	-1.746604e+02
5.800000e-07	-4.763250e-06	-2.649324e-09	-3.378999e+01	-1.743903e+02
5.900000e-07	-4.740998e-06	-2.622680e-09	-3.363213e+01	-1.741187e+02
6.000000e-07	-4.718443e-06	-2.636278e-09	-3.347213e+01	-1.738463e+02
6.100000e-07	-4.695532e-06	-2.636878e-09	-3.330960e+01	-1.735738e+02
6.200000e-07	-4.672261e-06	-2.628888e-09	-3.314452e+01	-1.733015e+02
6.300000e-07	-4.648748e-06	-2.614969e-09	-3.297772e+01	-1.730297e+02
6.400000e-07	-4.625100e-06	-2.605903e-09	-3.280996e+01	-1.727584e+02
6.500000e-07	-4.601286e-06	-2.607385e-09	-3.264103e+01	-1.724878e+02
6.600000e-07	-4.577193e-06	-2.611652e-09	-3.247012e+01	-1.722175e+02
6.700000e-07	-4.552703e-06	-2.592444e-09	-3.229639e+01	-1.719474e+02
6.800000e-07	-4.527813e-06	-2.577946e-09	-3.211982e+01	-1.716771e+02
6.900000e-07	-4.502486e-06	-2.584790e-09	-3.194015e+01	-1.714061e+02
7.000000e-07	-4.476600e-06	-2.585408e-09	-3.175652e+01	-1.711338e+02
7.100000e-07	-4.450192e-06	-2.571064e-09	-3.156919e+01	-1.708599e+02
7.200000e-07	-4.423380e-06	-2.556728e-09	-3.137898e+01	-1.705836e+02
7.300000e-07	-4.396224e-06	-2.555900e-09	-3.118634e+01	-1.703044e+02
7.400000e-07	-4.368747e-06	-2.559202e-09	-3.099142e+01	-1.700217e+02
7.500000e-07	-4.341006e-06	-2.555798e-09	-3.079463e+01	-1.697350e+02
7.600000e-07	-4.313041e-06	-2.535852e-09	-3.059625e+01	-1.694438e+02
7.700000e-07	-4.284910e-06	-2.529296e-09	-3.039669e+01	-1.691476e+02
7.800000e-07	-4.256618e-06	-2.531269e-09	-3.019599e+01	-1.688460e+02
7.900000e-07	-4.227947e-06	-2.530192e-09	-2.999260e+01	-1.685387e+02
8.000000e-07	-4.198863e-06	-2.514744e-09	-2.978628e+01	-1.682254e+02
8.100000e-07	-4.169493e-06	-2.508151e-09	-2.957793e+01	-1.679060e+02
8.200000e-07	-4.139871e-06	-2.506141e-09	-2.936780e+01	-1.675802e+02
8.300000e-07	-4.110031e-06	-2.508181e-09	-2.915612e+01	-1.672481e+02
8.400000e-07	-4.079905e-06	-2.496945e-09	-2.894241e+01	-1.669096e+02
8.500000e-07	-4.049514e-06	-2.484944e-09	-2.872682e+01	-1.665649e+02
8.600000e-07	-4.018877e-06	-2.475116e-09	-2.850948e+01	-1.662140e+02
8.700000e-07	-3.987879e-06	-2.474696e-09	-2.828958e+01	-1.658571e+02
8.800000e-07	-3.956618e-06	-2.466274e-09	-2.806782e+01	-1.654944e+02
8.900000e-07	-3.925212e-06	-2.455875e-09	-2.784503e+01	-1.651262e+02
9.000000e-07	-3.893586e-06	-2.448608e-09	-2.762068e+01	-1.647526e+02
9.100000e-07	-3.861762e-06	-2.451489e-09	-2.739493e+01	-1.643739e+02
9.200000e-07	-3.829803e-06	-2.448907e-09	-2.716821e+01	-1.639904e+02
9.300000e-07	-3.797685e-06	-2.439560e-09	-2.694037e+01	-1.636022e+02
9.400000e-07	-3.765254e-06	-2.428205e-09	-2.671030e+01	-1.632096e+02
9.500000e-07	-3.732474e-06	-2.423533e-09	-2.647777e+01	-1.628127e+02
9.600000e-07	-3.699367e-06	-2.420103e-09	-2.624291e+01	-1.624118e+02
9.700000e-07	-3.665744e-06	-2.412506e-09	-2.600440e+01	-1.620069e+02
9.800000e-07	-3.631648e-06	-2.405135e-09	-2.576252e+01	-1.615981e+02
9.900000e-07	-3.597125e-06	-2.402400e-09	-2.551762e+01	-1.611854e+02
1.000000e-06	-3.562283e-06	-2.401230e-09	-2.527045e+01	-1.607690e+02
1.010000e-06	-3.527188e-06	-2.396524e-09	-2.502150e+01	-1.603488e+02
1.020000e-06	-3.491738e-06	-2.388889e-09	-2.477002e+01	-1.599247e+02
1.030000e-06	-3.456087e-06	-2.379842e-09	-2.451711e+01	-1.594967e+02
1.040000e-06	-3.420301e-06	-2.372006e-09	-2.426325e+01	-1.590648e+02
1.050000e-06	-3.384341e-06	-2.360942e-09	-2.400815e+01	-1.586288e+02
1.060000e-06	-3.348219e-06	-2.349068e-09	-2.375191e+01	-1.581887e+02
1.070000e-06	-3.311994e-06	-2.338583e-09	-2.349493e+01	-1.577444e+02
1.080000e-06	-3.275657e-06	-2.334279e-09	-2.323716e+01	-1.572958e+02
1.090000e-06	-3.239118e-06	-2.329052e-09	-2.297795e+01	-1.568428e+02
1.100000e-06	-3.202246e-06	-2.323870e-09	-2.271639e+01	-1.563853e+02
1.110000e-06	-3.165050e-06	-2.314661e-09	-2.245253e+01	-1.559233e+02
1.120000e-06	-3.127590e-06	-2.307969e-09	-2.218679e+01	-1.554568e+02
1.130000e-06	-3.089892e-06	-2.299157e-09	-2.191936e+01	-1.549856e+02
1.140000e-06	-3.051974e-06	-2.288631e-09	-2.165038e+01	-1.545099e+02
1.150000e-06	-3.013876e-06	-2.276531e-09	-2.138011e+01	-1.540295e+02
1.160000e-06	-2.975601e-06	-2.269631e-09	-2.110860e+01	-1.535444e+02
1.170000e-06	-2.937081e-06	-2.262776e-09	-2.083534e+01	-1.530547e+02
1.180000e-06	-2.898379e-06	-2.255889e-09	-2.056079e+01	-1.525603e+02
1.190000e-06	-2.859445e-06	-2.245498e-09	-2.028460e+01	-1.520611e+02
1.200000e-06	-2.820234e-06	-2.237777e-09	-2.000644e+01	-1.515572e+02
1.210000e-06	-2.780916e-06	-2.230361e-09	-1.972752e+01	-1.510483e+02
1.220000e-06	-2.741412e-06	-2.220694e-09	-1.944728e+01	-1.505343e+02
1.230000e-06	-2.701719e-06	-2.207762e-09	-1.916571e+01	-1.500150e+02
1.240000e-06	-2.661982e-06	-2.196584e-09	-1.888381e+01	-1.494902e+02
1.250000e-06	-2.622144e-06	-2.188087e-09	-1.860121e+01	-1.489596e+02
1.260000e-06	-2.582192e-06	-2.181053e-09	-1.831779e+01	-1.484227e+02
1.270000e-06	-2.542149e-06	-2.171043e-09	-1.803373e+01	-1.478791e+02
1.280000e-06	-2.501946e-06	-2.157995e-09	-1.774853e+01	-1.473282e+02
1.290000e-06	-2.461582e-06	-2.147124e-09	-1.746220e+01	-1.467694e+02
1.300000e-06	-2.421064e-06	-2.137594e-09	-1.717477e+01	-1.462020e+02
1.310000e-06	-2.380374e-06	-2.126864e-09	-1.688611e+01	-1.456252e+02
1.320000e-06	-2.339441e-06	-2.115154e-09	-1.659574e+01	-1.450383e+02
1.330000e-06	-2.298198e-06	-2.106329e-09	-1.630317e+01	-1.444402e+02
1.340000e-06	-2.256719e-06	-2.097415e-09	-1.600892e+01	-1.438300e+02
1.350000e-06	-2.215062e-06	-2.087936e-09	-1.571342e+01	-1.432067e+02
1.360000e-06	-2.173172e-06	-2.075290e-09	-1.541625e+01	-1.425693e+02
1.370000e-06	-2.130978e-06	-2.060320e-09	-1.511693e+01	-1.419168e+02
1.380000e-06	-2.088511e-06	-2.043993e-09	-1.481567e+01	-1.412480e+02
1.390000e-06	-2.045708e-06	-2.028964e-09	-1.451203e+01	-1.405620e+02
1.400000e-06	-2.002711e-06	-2.015984e-09	-1.420701e+01	-1.398578e+02
1.410000e-06	-1.959572e-06	-2.007391e-09	-1.390100e+01	-1.391343e+02
1.420000e-06	-1.916206e-06	-1.998777e-09	-1.359336e+01	-1.383907e+02
1.430000e-06	-1.872738e-06	-1.988578e-09	-1.328500e+01	-1.376261e+02
1.440000e-06	-1.829218e-06	-1.976200e-09	-1.297628e+01	-1.368398e+02
1.450000e-06	-1.785604e-06	-1.964412e-09	-1.266689e+01	-1.360310e+02
1.460000e-06	-1.741838e-06	-1.949658e-09	-1.235641e+01	-1.351993e+02
1.470000e-06	-1.697955e-06	-1.930712e-09	-1.204511e+01	-1.343440e+02
1.480000e-06	-1.654006e-06	-1.911142e-09	-1.173334e+01	-1.334649e+02
1.490000e-06	-1.609978e-06	-1.896633e-09	-1.142101e+01	-1.325615e+02
1.500000e-06	-1.565892e-06	-1.885051e-09	-1.110827e+01	-1.316338e+02
1.510000e-06	-1.521749e-06	-1.872339e-09	-1.079512e+01	-1.306815e+02
1.520000e-06	-1.477480e-06	-1.856995e-09	-1.048108e+01	-1.297047e+02
1.530000e-06	-1.433181e-06	-1.842799e-09	-1.016683e+01	-1.287033e+02
1.540000e-06	-1.388870e-06	-1.831360e-09	-9.852497e+00	-1.276774e+02
1.550000e-06	-1.344409e-06	-1.817923e-09	-9.537094e+00	-1.266270e+02
1.560000e-06	-1.299836e-06	-1.798601e-09	-9.220897e+00	-1.255523e+02
1.570000e-06	-1.255246e-06	-1.778361e-09	-8.904578e+00	-1.244533e+02
1.580000e-06	-1.210582e-06	-1.762012e-09	-8.587741e+00	-1.233300e+02
1.590000e-06	-1.165845e-06	-1.747514e-09	-8.270376e+00	-1.221823e+02
1.600000e-06	-1.121004e-06	-1.732580e-09	-7.952280e+00	-1.210101e+02
1.610000e-06	-1.076012e-06	-1.715893e-09	-7.633110e+00	-1.198131e+02
1.620000e-06	-1.030902e-06	-1.699412e-09	-7.313107e+00	-1.185910e+02
1.630000e-06	-9.857505e-07	-1.683968e-09	-6.992808e+00	-1.173432e+02
1.640000e-06	-9.405796e-07	-1.665810e-09	-6.672371e+00	-1.160689e+02
1.650000e-06	-8.952570e-07	-1.644785e-09	-6.350857e+00	-1.147673e+02
1.660000e-06	-8.498710e-07	-1.624200e-09	-6.028893e+00	-1.134373e+02
1.670000e-06	-8.044234e-07	-1.605072e-09	-5.706493e+00	-1.120777e+02
1.680000e-06	-7.588675e-07	-1.585357e-09	-5.383324e+00	-1.106868e+02
1.690000e-06	-7.132798e-07	-1.561717e-09	-5.059930e+00	-1.092631e+02
1.700000e-06	-6.677012e-07	-1.538319e-09	-4.736600e+00	-1.078047e+02
1.710000e-06	-6.221023e-07	-1.518844e-09	-4.413127e+00	-1.063095e+02
1.720000e-06	-5.763587e-07	-1.500513e-09	-4.088627e+00	-1.047753e+02
1.730000e-06	-5.305465e-07	-1.478393e-09	-3.763640e+00	-1.031999e+02
1.740000e-06	-4.847358e-07	-1.453452e-09	-3.438664e+00	-1.015806e+02
1.750000e-06	-4.389320e-07	-1.427369e-09	-3.113737e+00	-9.991511e+01
1.760000e-06	-3.931120e-07	-1.402249e-09	-2.788694e+00	-9.820069e+01
1.770000e-06	-3.472027e-07	-1.375358e-09	-2.463019e+00	-9.643480e+01
1.780000e-06	-3.012462e-07	-1.347693e-09	-2.137008e+00	-9.461485e+01
1.790000e-06	-2.553496e-07	-1.321462e-09	-1.811423e+00	-9.273833e+01
1.800000e-06	-2.094402e-07	-1.295935e-09	-1.485746e+00	-9.080282e+01
1.810000e-06	-1.634741e-07	-1.266810e-09	-1.159668e+00	-8.880606e+01
1.820000e-06	-1.175874e-07	-1.234604e-09	-8.341521e-01	-8.674594e+01
1.830000e-06	-7.175722e-08	-1.202524e-09	-5.090380e-01	-8.462059e+01
1.840000e-06	-2.591664e-08	-1.170319e-09	-1.838499e-01	-8.242837e+01
1.850000e-06	1.993098e-08	-1.135164e-09	1.413882e-01	-8.016795e+01
1.860000e-06	6.582451e-08	-1.095883e-09	4.669520e-01	-7.783828e+01
1.870000e-06	1.116952e-07	-1.057069e-09	7.923534e-01	-7.543866e+01
1.880000e-06	1.575398e-07	-1.021889e-09	1.117570e+00	-7.296874e+01
1.890000e-06	2.034189e-07	-9.864749e-10	1.443032e+00	-7.042853e+01
1.900000e-06	2.493790e-07	-9.478724e-10	1.769068e+00	-6.781843e+01
1.910000e-06	2.953514e-07	-9.068913e-10	2.095191e+00	-6.513920e+01
1.920000e-06	3.411795e-07	-8.640286e-10	2.420291e+00	-6.239199e+01
1.930000e-06	3.869897e-07	-8.196284e-10	2.745263e+00	-5.957831e+01
1.940000e-06	4.327539e-07	-7.736060e-10	3.069910e+00	-5.670003e+01
1.950000e-06	4.784627e-07	-7.280430e-10	3.394163e+00	-5.375936e+01
1.960000e-06	5.241386e-07	-6.848431e-10	3.718183e+00	-5.075882e+01
1.970000e-06	5.698077e-07	-6.423140e-10	4.042155e+00	-4.770120e+01
1.980000e-06	6.154885e-07	-5.962929e-10	4.366209e+00	-4.458958e+01
1.990000e-06	6.610754e-07	-5.461628e-10	4.689598e+00	-4.142723e+01
2.000000e-06	7.066175e-07	-4.948907e-10	5.012669e+00	-3.821765e+01
2.010000e-06	7.521122e-07	-4.457974e-10	5.335403e+00	-3.496444e+01
2.020000e-06	7.975138e-07	-3.954467e-10	5.657477e+00	-3.167134e+01
2.030000e-06	8.429143e-07	-3.423960e-10	5.979543e+00	-2.834218e+01
2.040000e-06	8.883453e-07	-2.909419e-10	6.301826e+00	-2.498081e+01
2.050000e-06	9.337113e-07	-2.426475e-10	6.623648e+00	-2.159107e+01
2.060000e-06	9.789315e-07	-1.936024e-10	6.944435e+00	-1.817681e+01
2.070000e-06	1.024038e-06	-1.435787e-10	7.264416e+00	-1.474178e+01
2.080000e-06	1.069007e-06	-9.432904e-11	7.583420e+00	-1.128968e+01
2.090000e-06	1.113878e-06	-4.623248e-11	7.901730e+00	-7.824068e+00
2.100000e-06	1.158749e-06	2.422228e-12	8.220043e+00	-4.348394e+00
2.110000e-06	1.203511e-06	5.414668e-11	8.537580e+00	-8.659567e-01
2.120000e-06	1.248064e-06	1.072372e-10	8.853634e+00	2.620098e+00
2.130000e-06	1.292528e-06	1.591952e-10	9.169054e+00	6.106784e+00
2.140000e-06	1.337063e-06	2.120100e-10	9.484982e+00	9.591278e+00
2.150000e-06	1.381492e-06	2.648605e-10	9.800154e+00	1.307091e+01
2.160000e-06	1.425808e-06	3.156416e-10	1.011453e+01	1.654318e+01
2.170000e-06	1.470096e-06	3.627438e-10	1.042870e+01	2.000571e+01
2.180000e-06	1.514303e-06	4.088806e-10	1.074231e+01	2.345626e+01
2.190000e-06	1.558427e-06	4.590945e-10	1.105531e+01	2.689272e+01
2.200000e-06	1.602430e-06	5.133620e-10	1.136747e+01	3.031305e+01
2.210000e-06	1.646333e-06	5.681412e-10	1.167891e+01	3.371532e+01
2.220000e-06	1.690197e-06	6.210299e-10	1.199008e+01	3.709765e+01
2.230000e-06	1.734029e-06	6.729903e-10	1.230101e+01	4.045820e+01
2.240000e-06	1.777801e-06	7.225313e-10	1.261153e+01	4.379517e+01
2.250000e-06	1.821565e-06	7.680187e-10	1.292199e+01	4.710675e+01
2.260000e-06	1.865286e-06	8.105576e-10	1.323214e+01	5.039113e+01
2.270000e-06	1.908869e-06	8.542888e-10	1.354131e+01	5.364651e+01
2.280000e-06	1.952286e-06	9.000434e-10	1.384931e+01	5.687103e+01
2.290000e-06	1.995500e-06	9.454199e-10	1.415586e+01	6.006282e+01
2.300000e-06	2.038545e-06	9.895593e-10	1.446122e+01	6.321996e+01
2.310000e-06	2.081374e-06	1.032543e-09	1.476504e+01	6.634051e+01
2.320000e-06	2.123825e-06	1.074825e-09	1.506618e+01	6.942248e+01
2.330000e-06	2.166052e-06	1.117772e-09	1.536574e+01	7.246389e+01
2.340000e-06	2.208094e-06	1.160605e-09	1.566398e+01	7.546271e+01
2.350000e-06	2.249795e-06	1.203522e-09	1.595980e+01	7.841695e+01
2.360000e-06	2.291186e-06	1.246861e-09	1.625343e+01	8.132461e+01
2.370000e-06	2.332305e-06	1.288017e-09	1.654512e+01	8.418374e+01
2.380000e-06	2.373167e-06	1.325786e-09	1.683499e+01	8.699245e+01
2.390000e-06	2.413800e-06	1.362791e-09	1.712324e+01	8.974893e+01
2.400000e-06	2.454223e-06	1.399255e-09	1.741000e+01	9.245146e+01
2.410000e-06	2.494408e-06	1.435483e-09	1.769506e+01	9.509847e+01
2.420000e-06	2.534435e-06	1.473265e-09	1.797901e+01	9.768850e+01
2.430000e-06	2.574367e-06	1.513648e-09	1.826228e+01	1.002203e+02
2.440000e-06	2.614249e-06	1.554844e-09	1.854520e+01	1.026928e+02
2.450000e-06	2.654107e-06	1.592236e-09	1.882795e+01	1.051050e+02
2.460000e-06	2.693859e-06	1.624711e-09	1.910995e+01	1.074564e+02
2.470000e-06	2.733534e-06	1.655572e-09	1.939140e+01	1.097465e+02
2.480000e-06	2.773039e-06	1.687217e-09	1.967164e+01	1.119750e+02
2.490000e-06	2.812336e-06	1.717633e-09	1.995041e+01	1.141420e+02
2.500000e-06	2.851467e-06	1.744961e-09	2.022800e+01	1.162477e+02
2.510000e-06	2.890298e-06	1.774150e-09	2.050347e+01	1.182927e+02
2.520000e-06	2.928924e-06	1.807567e-09	2.077747e+01	1.202776e+02
2.530000e-06	2.967343e-06	1.839677e-09	2.105002e+01	1.222032e+02
2.540000e-06	3.005483e-06	1.865631e-09	2.132057e+01	1.240708e+02
2.550000e-06	3.043454e-06	1.887536e-09	2.158994e+01	1.258815e+02
2.560000e-06	3.081245e-06	1.911789e-09	2.185802e+01	1.276368e+02
2.570000e-06	3.118915e-06	1.937563e-09	2.212525e+01	1.293382e+02
2.580000e-06	3.156380e-06	1.959801e-09	2.239102e+01	1.309873e+02
2.590000e-06	3.193549e-06	1.979894e-09	2.265469e+01	1.325858e+02
2.600000e-06	3.230501e-06	2.004982e-09	2.291682e+01	1.341354e+02
2.610000e-06	3.267197e-06	2.034320e-09	2.317714e+01	1.356378e+02
2.620000e-06	3.303662e-06	2.062011e-09	2.343582e+01	1.370947e+02
2.630000e-06	3.339875e-06	2.084679e-09	2.369271e+01	1.385079e+02
2.640000e-06	3.375850e-06	2.103520e-09	2.394792e+01	1.398788e+02
2.650000e-06	3.411721e-06	2.120140e-09	2.420239e+01	1.412091e+02
2.660000e-06	3.447535e-06	2.131826e-09	2.445644e+01	1.425002e+02
2.670000e-06	3.483254e-06	2.143461e-09	2.470983e+01	1.437532e+02
2.680000e-06	3.518807e-06	2.161111e-09	2.496204e+01	1.449694e+02
2.690000e-06	3.554082e-06	2.185569e-09	2.521228e+01	1.461498e+02
2.700000e-06	3.589010e-06	2.209876e-09	2.546005e+01	1.472953e+02
2.710000e-06	3.623533e-06	2.228689e-09	2.570496e+01	1.484065e+02
2.720000e-06	3.657682e-06	2.244875e-09	2.594720e+01	1.494842e+02
2.730000e-06	3.691404e-06	2.258042e-09	2.618642e+01	1.505288e+02
2.740000e-06	3.724524e-06	2.267504e-09	2.642137e+01	1.515406e+02
2.750000e-06	3.757197e-06	2.274801e-09	2.665315e+01	1.525200e+02
2.760000e-06	3.789596e-06	2.286732e-09	2.688298e+01	1.534670e+02
2.770000e-06	3.821731e-06	2.307048e-09	2.711095e+01	1.543820e+02
2.780000e-06	3.853694e-06	2.328942e-09	2.733769e+01	1.552649e+02
2.790000e-06	3.885523e-06	2.346715e-09	2.756348e+01	1.561159e+02
2.800000e-06	3.917188e-06	2.357559e-09	2.778811e+01	1.569350e+02
2.810000e-06	3.948636e-06	2.364924e-09	2.801120e+01	1.577224e+02
2.820000e-06	3.979848e-06	2.371478e-09	2.823261e+01	1.584784e+02
2.830000e-06	4.010785e-06	2.376899e-09	2.845208e+01	1.592031e+02
2.840000e-06	4.041391e-06	2.384077e-09	2.866919e+01	1.598969e+02
2.850000e-06	4.071674e-06	2.395010e-09	2.888402e+01	1.605603e+02
2.860000e-06	4.101682e-06	2.409567e-09	2.909689e+01	1.611940e+02
2.870000e-06	4.131488e-06	2.424849e-09	2.930833e+01	1.617985e+02
2.880000e-06	4.161125e-06	2.435414e-09	2.951858e+01	1.623748e+02
2.890000e-06	4.190510e-06	2.439505e-09	2.972703e+01	1.629238e+02
2.900000e-06	4.219510e-06	2.440827e-09	2.993275e+01	1.634467e+02
