# Temperatura_=_-1.9
# Concentracion g/m^3_=_4090.0
# C_Vs_to_Am_M_A/Vsm_=_65563218390.804596
# pendiente_HvsI_1/m_=_3716.3
# ordenada_HvsI_A/m_=_1297.0
# frecuencia_Hz_=_135081.8264954725

Tiempo_(s)	Campo_(V.s)	Magnetizacion_(V.s)	Campo_(kA/m)	Magnetizacion_(A/m)
0.000000e+00	-5.387391e-06	-2.486511e-09	-3.838546e+01	-1.594821e+02
1.000000e-08	-5.387448e-06	-2.486032e-09	-3.838586e+01	-1.594635e+02
2.000000e-08	-5.387321e-06	-2.488801e-09	-3.838496e+01	-1.594501e+02
3.000000e-08	-5.386987e-06	-2.490878e-09	-3.838258e+01	-1.594433e+02
4.000000e-08	-5.386302e-06	-2.489411e-09	-3.837770e+01	-1.594441e+02
5.000000e-08	-5.385146e-06	-2.484691e-09	-3.836947e+01	-1.594537e+02
6.000000e-08	-5.383455e-06	-2.482905e-09	-3.835742e+01	-1.594731e+02
7.000000e-08	-5.381104e-06	-2.494309e-09	-3.834067e+01	-1.595031e+02
8.000000e-08	-5.378125e-06	-2.504344e-09	-3.831944e+01	-1.595445e+02
9.000000e-08	-5.374537e-06	-2.459481e-09	-3.829387e+01	-1.595980e+02
1.000000e-07	-5.370497e-06	-2.417201e-09	-3.826509e+01	-1.596638e+02
1.100000e-07	-5.366214e-06	-2.490045e-09	-3.823457e+01	-1.597423e+02
1.200000e-07	-5.361749e-06	-2.541158e-09	-3.820276e+01	-1.598336e+02
1.300000e-07	-5.357089e-06	-2.476909e-09	-3.816955e+01	-1.599374e+02
1.400000e-07	-5.352006e-06	-2.397457e-09	-3.813334e+01	-1.600535e+02
1.500000e-07	-5.346546e-06	-2.475938e-09	-3.809444e+01	-1.601813e+02
1.600000e-07	-5.340849e-06	-2.562655e-09	-3.805384e+01	-1.603200e+02
1.700000e-07	-5.334723e-06	-2.436819e-09	-3.801020e+01	-1.604689e+02
1.800000e-07	-5.328042e-06	-2.388056e-09	-3.796260e+01	-1.606268e+02
1.900000e-07	-5.321036e-06	-2.475399e-09	-3.791268e+01	-1.607926e+02
2.000000e-07	-5.313771e-06	-2.552672e-09	-3.786091e+01	-1.609648e+02
2.100000e-07	-5.306187e-06	-2.444711e-09	-3.780688e+01	-1.611421e+02
2.200000e-07	-5.298332e-06	-2.443446e-09	-3.775091e+01	-1.613229e+02
2.300000e-07	-5.290256e-06	-2.528095e-09	-3.769337e+01	-1.615055e+02
2.400000e-07	-5.281942e-06	-2.521061e-09	-3.763413e+01	-1.616885e+02
2.500000e-07	-5.272997e-06	-2.432755e-09	-3.757040e+01	-1.618701e+02
2.600000e-07	-5.263422e-06	-2.478435e-09	-3.750217e+01	-1.620486e+02
2.700000e-07	-5.253218e-06	-2.557333e-09	-3.742947e+01	-1.622225e+02
2.800000e-07	-5.242432e-06	-2.494762e-09	-3.735261e+01	-1.623903e+02
2.900000e-07	-5.231258e-06	-2.431613e-09	-3.727300e+01	-1.625504e+02
3.000000e-07	-5.219622e-06	-2.515422e-09	-3.719009e+01	-1.627015e+02
3.100000e-07	-5.207606e-06	-2.563855e-09	-3.710448e+01	-1.628424e+02
3.200000e-07	-5.195292e-06	-2.468855e-09	-3.701674e+01	-1.629719e+02
3.300000e-07	-5.182598e-06	-2.473923e-09	-3.692630e+01	-1.630892e+02
3.400000e-07	-5.169441e-06	-2.541725e-09	-3.683256e+01	-1.631933e+02
3.500000e-07	-5.155873e-06	-2.532743e-09	-3.673588e+01	-1.632837e+02
3.600000e-07	-5.141968e-06	-2.479271e-09	-3.663681e+01	-1.633599e+02
3.700000e-07	-5.127727e-06	-2.519141e-09	-3.653534e+01	-1.634216e+02
3.800000e-07	-5.112895e-06	-2.507734e-09	-3.642966e+01	-1.634686e+02
3.900000e-07	-5.097416e-06	-2.479764e-09	-3.631937e+01	-1.635010e+02
4.000000e-07	-5.081463e-06	-2.504147e-09	-3.620571e+01	-1.635188e+02
4.100000e-07	-5.065071e-06	-2.520638e-09	-3.608891e+01	-1.635225e+02
4.200000e-07	-5.048265e-06	-2.461797e-09	-3.596917e+01	-1.635125e+02
4.300000e-07	-5.031132e-06	-2.488936e-09	-3.584710e+01	-1.634892e+02
4.400000e-07	-5.013712e-06	-2.535591e-09	-3.572298e+01	-1.634534e+02
4.500000e-07	-4.996092e-06	-2.500558e-09	-3.559743e+01	-1.634057e+02
4.600000e-07	-4.978215e-06	-2.446233e-09	-3.547006e+01	-1.633470e+02
4.700000e-07	-4.959945e-06	-2.481696e-09	-3.533989e+01	-1.632781e+02
4.800000e-07	-4.941238e-06	-2.486572e-09	-3.520660e+01	-1.631998e+02
4.900000e-07	-4.922101e-06	-2.461258e-09	-3.507024e+01	-1.631131e+02
5.000000e-07	-4.902552e-06	-2.454807e-09	-3.493096e+01	-1.630188e+02
5.100000e-07	-4.882750e-06	-2.469884e-09	-3.478986e+01	-1.629177e+02
5.200000e-07	-4.862805e-06	-2.472754e-09	-3.464775e+01	-1.628108e+02
5.300000e-07	-4.842701e-06	-2.492988e-09	-3.450451e+01	-1.626987e+02
5.400000e-07	-4.822266e-06	-2.482031e-09	-3.435891e+01	-1.625823e+02
5.500000e-07	-4.801384e-06	-2.455344e-09	-3.421013e+01	-1.624623e+02
5.600000e-07	-4.780134e-06	-2.462677e-09	-3.405872e+01	-1.623392e+02
5.700000e-07	-4.758525e-06	-2.476587e-09	-3.390476e+01	-1.622136e+02
5.800000e-07	-4.736654e-06	-2.450004e-09	-3.374892e+01	-1.620860e+02
5.900000e-07	-4.714546e-06	-2.429511e-09	-3.359140e+01	-1.619568e+02
6.000000e-07	-4.692121e-06	-2.447878e-09	-3.343162e+01	-1.618264e+02
6.100000e-07	-4.669392e-06	-2.465076e-09	-3.326967e+01	-1.616949e+02
6.200000e-07	-4.646366e-06	-2.466077e-09	-3.310562e+01	-1.615627e+02
6.300000e-07	-4.622987e-06	-2.451774e-09	-3.293904e+01	-1.614299e+02
6.400000e-07	-4.599289e-06	-2.446004e-09	-3.277019e+01	-1.612965e+02
6.500000e-07	-4.575343e-06	-2.446393e-09	-3.259957e+01	-1.611627e+02
6.600000e-07	-4.551188e-06	-2.443354e-09	-3.242746e+01	-1.610283e+02
6.700000e-07	-4.526785e-06	-2.416015e-09	-3.225360e+01	-1.608935e+02
6.800000e-07	-4.502016e-06	-2.406107e-09	-3.207712e+01	-1.607581e+02
6.900000e-07	-4.476821e-06	-2.414858e-09	-3.189760e+01	-1.606220e+02
7.000000e-07	-4.451217e-06	-2.431803e-09	-3.171517e+01	-1.604851e+02
7.100000e-07	-4.425110e-06	-2.427298e-09	-3.152916e+01	-1.603474e+02
7.200000e-07	-4.398443e-06	-2.423201e-09	-3.133915e+01	-1.602087e+02
7.300000e-07	-4.371326e-06	-2.419832e-09	-3.114594e+01	-1.600689e+02
7.400000e-07	-4.343836e-06	-2.424179e-09	-3.095007e+01	-1.599278e+02
7.500000e-07	-4.316036e-06	-2.404638e-09	-3.075199e+01	-1.597854e+02
7.600000e-07	-4.288060e-06	-2.382765e-09	-3.055266e+01	-1.596415e+02
7.700000e-07	-4.259924e-06	-2.374636e-09	-3.035220e+01	-1.594960e+02
7.800000e-07	-4.231603e-06	-2.389832e-09	-3.015040e+01	-1.593489e+02
7.900000e-07	-4.203078e-06	-2.395920e-09	-2.994716e+01	-1.591999e+02
8.000000e-07	-4.174222e-06	-2.394706e-09	-2.974156e+01	-1.590491e+02
8.100000e-07	-4.145034e-06	-2.391266e-09	-2.953360e+01	-1.588963e+02
8.200000e-07	-4.115575e-06	-2.397215e-09	-2.932370e+01	-1.587414e+02
8.300000e-07	-4.085869e-06	-2.395161e-09	-2.911204e+01	-1.585844e+02
8.400000e-07	-4.055931e-06	-2.379294e-09	-2.889873e+01	-1.584250e+02
8.500000e-07	-4.025660e-06	-2.359640e-09	-2.868305e+01	-1.582632e+02
8.600000e-07	-3.995097e-06	-2.355772e-09	-2.846528e+01	-1.580989e+02
8.700000e-07	-3.964133e-06	-2.360291e-09	-2.824467e+01	-1.579320e+02
8.800000e-07	-3.932843e-06	-2.357388e-09	-2.802173e+01	-1.577622e+02
8.900000e-07	-3.901366e-06	-2.351280e-09	-2.779745e+01	-1.575896e+02
9.000000e-07	-3.869666e-06	-2.354227e-09	-2.757158e+01	-1.574138e+02
9.100000e-07	-3.837748e-06	-2.364897e-09	-2.734417e+01	-1.572347e+02
9.200000e-07	-3.805661e-06	-2.363384e-09	-2.711555e+01	-1.570523e+02
9.300000e-07	-3.773518e-06	-2.351565e-09	-2.688652e+01	-1.568662e+02
9.400000e-07	-3.741169e-06	-2.339686e-09	-2.665604e+01	-1.566763e+02
9.500000e-07	-3.708541e-06	-2.337859e-09	-2.642356e+01	-1.564826e+02
9.600000e-07	-3.675638e-06	-2.332186e-09	-2.618913e+01	-1.562847e+02
9.700000e-07	-3.642360e-06	-2.325619e-09	-2.595202e+01	-1.560825e+02
9.800000e-07	-3.608704e-06	-2.322176e-09	-2.571222e+01	-1.558760e+02
9.900000e-07	-3.574676e-06	-2.330486e-09	-2.546976e+01	-1.556649e+02
1.000000e-06	-3.540223e-06	-2.337260e-09	-2.522428e+01	-1.554492e+02
1.010000e-06	-3.505336e-06	-2.338064e-09	-2.497572e+01	-1.552288e+02
1.020000e-06	-3.470099e-06	-2.329573e-09	-2.472465e+01	-1.550036e+02
1.030000e-06	-3.434588e-06	-2.322061e-09	-2.447163e+01	-1.547737e+02
1.040000e-06	-3.398798e-06	-2.311124e-09	-2.421662e+01	-1.545390e+02
1.050000e-06	-3.362885e-06	-2.301360e-09	-2.396074e+01	-1.542995e+02
1.060000e-06	-3.326867e-06	-2.288394e-09	-2.370411e+01	-1.540554e+02
1.070000e-06	-3.290674e-06	-2.286233e-09	-2.344623e+01	-1.538067e+02
1.080000e-06	-3.254314e-06	-2.291210e-09	-2.318717e+01	-1.535535e+02
1.090000e-06	-3.217808e-06	-2.298716e-09	-2.292706e+01	-1.532959e+02
1.100000e-06	-3.181065e-06	-2.300463e-09	-2.266527e+01	-1.530342e+02
1.110000e-06	-3.143973e-06	-2.298573e-09	-2.240098e+01	-1.527685e+02
1.120000e-06	-3.106621e-06	-2.290806e-09	-2.213485e+01	-1.524989e+02
1.130000e-06	-3.069095e-06	-2.280940e-09	-2.186747e+01	-1.522256e+02
1.140000e-06	-3.031316e-06	-2.266555e-09	-2.159829e+01	-1.519488e+02
1.150000e-06	-2.993316e-06	-2.254924e-09	-2.132754e+01	-1.516687e+02
1.160000e-06	-2.955219e-06	-2.252916e-09	-2.105610e+01	-1.513853e+02
1.170000e-06	-2.916987e-06	-2.253776e-09	-2.078370e+01	-1.510988e+02
1.180000e-06	-2.878482e-06	-2.255528e-09	-2.050934e+01	-1.508092e+02
1.190000e-06	-2.839646e-06	-2.257283e-09	-2.023263e+01	-1.505167e+02
1.200000e-06	-2.800677e-06	-2.256518e-09	-1.995498e+01	-1.502210e+02
1.210000e-06	-2.761532e-06	-2.248320e-09	-1.967607e+01	-1.499223e+02
1.220000e-06	-2.722088e-06	-2.232384e-09	-1.939503e+01	-1.496204e+02
1.230000e-06	-2.682480e-06	-2.215885e-09	-1.911282e+01	-1.493151e+02
1.240000e-06	-2.642823e-06	-2.209521e-09	-1.883026e+01	-1.490061e+02
1.250000e-06	-2.603048e-06	-2.207748e-09	-1.854686e+01	-1.486932e+02
1.260000e-06	-2.563115e-06	-2.209116e-09	-1.826234e+01	-1.483761e+02
1.270000e-06	-2.523111e-06	-2.206114e-09	-1.797730e+01	-1.480543e+02
1.280000e-06	-2.483016e-06	-2.204094e-09	-1.769163e+01	-1.477274e+02
1.290000e-06	-2.442804e-06	-2.201201e-09	-1.740511e+01	-1.473948e+02
1.300000e-06	-2.402500e-06	-2.193274e-09	-1.711794e+01	-1.470561e+02
1.310000e-06	-2.362003e-06	-2.180431e-09	-1.682940e+01	-1.467107e+02
1.320000e-06	-2.321234e-06	-2.170662e-09	-1.653892e+01	-1.463579e+02
1.330000e-06	-2.280274e-06	-2.163594e-09	-1.624708e+01	-1.459972e+02
1.340000e-06	-2.239149e-06	-2.158169e-09	-1.595406e+01	-1.456278e+02
1.350000e-06	-2.197852e-06	-2.150128e-09	-1.565982e+01	-1.452493e+02
1.360000e-06	-2.156312e-06	-2.144212e-09	-1.536384e+01	-1.448609e+02
1.370000e-06	-2.114426e-06	-2.140357e-09	-1.506540e+01	-1.444620e+02
1.380000e-06	-2.072151e-06	-2.138742e-09	-1.476419e+01	-1.440520e+02
1.390000e-06	-2.029640e-06	-2.131717e-09	-1.446130e+01	-1.436305e+02
1.400000e-06	-1.987022e-06	-2.123121e-09	-1.415764e+01	-1.431967e+02
1.410000e-06	-1.944200e-06	-2.116070e-09	-1.385253e+01	-1.427502e+02
1.420000e-06	-1.901171e-06	-2.108963e-09	-1.354595e+01	-1.422907e+02
1.430000e-06	-1.857994e-06	-2.097827e-09	-1.323831e+01	-1.418175e+02
1.440000e-06	-1.814607e-06	-2.084313e-09	-1.292918e+01	-1.413305e+02
1.450000e-06	-1.770987e-06	-2.073332e-09	-1.261838e+01	-1.408291e+02
1.460000e-06	-1.727216e-06	-2.064534e-09	-1.230651e+01	-1.403133e+02
1.470000e-06	-1.683365e-06	-2.055388e-09	-1.199407e+01	-1.397826e+02
1.480000e-06	-1.639501e-06	-2.045984e-09	-1.168153e+01	-1.392369e+02
1.490000e-06	-1.595555e-06	-2.039688e-09	-1.136842e+01	-1.386759e+02
1.500000e-06	-1.551545e-06	-2.033989e-09	-1.105484e+01	-1.380996e+02
1.510000e-06	-1.507502e-06	-2.024774e-09	-1.074103e+01	-1.375076e+02
1.520000e-06	-1.463357e-06	-2.011312e-09	-1.042650e+01	-1.368999e+02
1.530000e-06	-1.419127e-06	-1.998093e-09	-1.011135e+01	-1.362762e+02
1.540000e-06	-1.374809e-06	-1.988021e-09	-9.795587e+00	-1.356363e+02
1.550000e-06	-1.330434e-06	-1.978924e-09	-9.479417e+00	-1.349801e+02
1.560000e-06	-1.286056e-06	-1.968256e-09	-9.163221e+00	-1.343071e+02
1.570000e-06	-1.241690e-06	-1.960665e-09	-8.847109e+00	-1.336171e+02
1.580000e-06	-1.197239e-06	-1.953252e-09	-8.530392e+00	-1.329097e+02
1.590000e-06	-1.152691e-06	-1.944130e-09	-8.212990e+00	-1.321845e+02
1.600000e-06	-1.108077e-06	-1.929893e-09	-7.895112e+00	-1.314408e+02
1.610000e-06	-1.063377e-06	-1.914632e-09	-7.576617e+00	-1.306781e+02
1.620000e-06	-1.018620e-06	-1.899701e-09	-7.257720e+00	-1.298958e+02
1.630000e-06	-9.737568e-07	-1.887269e-09	-6.938071e+00	-1.290929e+02
1.640000e-06	-9.287416e-07	-1.874519e-09	-6.617335e+00	-1.282687e+02
1.650000e-06	-8.836098e-07	-1.862242e-09	-6.295768e+00	-1.274222e+02
1.660000e-06	-8.384635e-07	-1.851714e-09	-5.974098e+00	-1.265523e+02
1.670000e-06	-7.932679e-07	-1.842051e-09	-5.652078e+00	-1.256579e+02
1.680000e-06	-7.479102e-07	-1.828163e-09	-5.328902e+00	-1.247378e+02
1.690000e-06	-7.025497e-07	-1.810033e-09	-5.005705e+00	-1.237907e+02
1.700000e-06	-6.572481e-07	-1.793042e-09	-4.682929e+00	-1.228152e+02
1.710000e-06	-6.118488e-07	-1.777123e-09	-4.359456e+00	-1.218099e+02
1.720000e-06	-5.663837e-07	-1.759878e-09	-4.035515e+00	-1.207734e+02
1.730000e-06	-5.207664e-07	-1.742119e-09	-3.710490e+00	-1.197039e+02
1.740000e-06	-4.750655e-07	-1.723840e-09	-3.384868e+00	-1.186001e+02
1.750000e-06	-4.294552e-07	-1.705923e-09	-3.059892e+00	-1.174602e+02
1.760000e-06	-3.838175e-07	-1.687159e-09	-2.734721e+00	-1.162827e+02
1.770000e-06	-3.381507e-07	-1.668983e-09	-2.409343e+00	-1.150657e+02
1.780000e-06	-2.923978e-07	-1.652445e-09	-2.083350e+00	-1.138077e+02
1.790000e-06	-2.466012e-07	-1.639409e-09	-1.757047e+00	-1.125069e+02
1.800000e-06	-2.009129e-07	-1.623718e-09	-1.431516e+00	-1.111616e+02
1.810000e-06	-1.552293e-07	-1.602795e-09	-1.106017e+00	-1.097701e+02
1.820000e-06	-1.094303e-07	-1.578254e-09	-7.796971e-01	-1.083306e+02
1.830000e-06	-6.362533e-08	-1.551056e-09	-4.533340e-01	-1.068415e+02
1.840000e-06	-1.794420e-08	-1.524544e-09	-1.278534e-01	-1.053010e+02
1.850000e-06	2.767700e-08	-1.498134e-09	1.972002e-01	-1.037074e+02
1.860000e-06	7.336924e-08	-1.475502e-09	5.227599e-01	-1.020590e+02
1.870000e-06	1.191402e-07	-1.455757e-09	8.488805e-01	-1.003540e+02
1.880000e-06	1.648722e-07	-1.435337e-09	1.174723e+00	-9.859082e+01
1.890000e-06	2.106105e-07	-1.411340e-09	1.500612e+00	-9.676769e+01
1.900000e-06	2.563350e-07	-1.383528e-09	1.826401e+00	-9.488294e+01
1.910000e-06	3.020384e-07	-1.350011e-09	2.152040e+00	-9.293487e+01
1.920000e-06	3.477313e-07	-1.312706e-09	2.477605e+00	-9.092183e+01
1.930000e-06	3.933955e-07	-1.276215e-09	2.802965e+00	-8.884216e+01
1.940000e-06	4.390310e-07	-1.245739e-09	3.128120e+00	-8.669423e+01
1.950000e-06	4.846031e-07	-1.217936e-09	3.452824e+00	-8.447647e+01
1.960000e-06	5.300831e-07	-1.189757e-09	3.776872e+00	-8.218733e+01
1.970000e-06	5.755006e-07	-1.155962e-09	4.100473e+00	-7.982534e+01
1.980000e-06	6.209128e-07	-1.116914e-09	4.424038e+00	-7.738908e+01
1.990000e-06	6.662058e-07	-1.075377e-09	4.746753e+00	-7.487725e+01
2.000000e-06	7.114301e-07	-1.034431e-09	5.068979e+00	-7.228867e+01
2.010000e-06	7.566551e-07	-9.939761e-10	5.391210e+00	-6.962226e+01
2.020000e-06	8.018692e-07	-9.538239e-10	5.713362e+00	-6.687714e+01
2.030000e-06	8.470009e-07	-9.149712e-10	6.034928e+00	-6.405261e+01
2.040000e-06	8.920437e-07	-8.756614e-10	6.355861e+00	-6.114818e+01
2.050000e-06	9.370806e-07	-8.329833e-10	6.676751e+00	-5.816359e+01
2.060000e-06	9.820687e-07	-7.859814e-10	6.997294e+00	-5.509889e+01
2.070000e-06	1.026852e-06	-7.361706e-10	7.316376e+00	-5.195441e+01
2.080000e-06	1.071487e-06	-6.891965e-10	7.634404e+00	-4.873080e+01
2.090000e-06	1.116115e-06	-6.460902e-10	7.952384e+00	-4.542909e+01
2.100000e-06	1.160688e-06	-6.014990e-10	8.269963e+00	-4.205068e+01
2.110000e-06	1.205174e-06	-5.508633e-10	8.586934e+00	-3.859738e+01
2.120000e-06	1.249593e-06	-4.952767e-10	8.903418e+00	-3.507142e+01
2.130000e-06	1.293924e-06	-4.382690e-10	9.219283e+00	-3.147547e+01
2.140000e-06	1.338176e-06	-3.780797e-10	9.534575e+00	-2.781266e+01
2.150000e-06	1.382445e-06	-3.177361e-10	9.849998e+00	-2.408658e+01
2.160000e-06	1.426657e-06	-2.624593e-10	1.016501e+01	-2.030126e+01
2.170000e-06	1.470778e-06	-2.132265e-10	1.047937e+01	-1.646121e+01
2.180000e-06	1.514889e-06	-1.606915e-10	1.079367e+01	-1.257137e+01
2.190000e-06	1.558936e-06	-1.008963e-10	1.110750e+01	-8.637115e+00
2.200000e-06	1.602909e-06	-3.657373e-11	1.142081e+01	-4.664223e+00
2.210000e-06	1.646857e-06	2.847887e-11	1.173395e+01	-6.588578e-01
2.220000e-06	1.690759e-06	9.439013e-11	1.204675e+01	3.372477e+00
2.230000e-06	1.734648e-06	1.601733e-10	1.235946e+01	7.422974e+00
2.240000e-06	1.778418e-06	2.227945e-10	1.267133e+01	1.148556e+01
2.250000e-06	1.821961e-06	2.785280e-10	1.298157e+01	1.555297e+01
2.260000e-06	1.865349e-06	3.308393e-10	1.329071e+01	1.961777e+01
2.270000e-06	1.908569e-06	3.882012e-10	1.359866e+01	2.367242e+01
2.280000e-06	1.951573e-06	4.491381e-10	1.390507e+01	2.770938e+01
2.290000e-06	1.994360e-06	5.105666e-10	1.420993e+01	3.172112e+01
2.300000e-06	2.036896e-06	5.730962e-10	1.451300e+01	3.570018e+01
2.310000e-06	2.079173e-06	6.356821e-10	1.481423e+01	3.963930e+01
2.320000e-06	2.121196e-06	6.954693e-10	1.511364e+01	4.353140e+01
2.330000e-06	2.162963e-06	7.498713e-10	1.541123e+01	4.736971e+01
2.340000e-06	2.204438e-06	7.991204e-10	1.570674e+01	5.114778e+01
2.350000e-06	2.245688e-06	8.494541e-10	1.600065e+01	5.485956e+01
2.360000e-06	2.286683e-06	9.046195e-10	1.629274e+01	5.849946e+01
2.370000e-06	2.327365e-06	9.597117e-10	1.658261e+01	6.206235e+01
2.380000e-06	2.367874e-06	1.009565e-09	1.687123e+01	6.554366e+01
2.390000e-06	2.408243e-06	1.056801e-09	1.715886e+01	6.893936e+01
2.400000e-06	2.448487e-06	1.102295e-09	1.744561e+01	7.224601e+01
2.410000e-06	2.488661e-06	1.143736e-09	1.773185e+01	7.546078e+01
2.420000e-06	2.528803e-06	1.182649e-09	1.801786e+01	7.858143e+01
2.430000e-06	2.568854e-06	1.223694e-09	1.830323e+01	8.160636e+01
2.440000e-06	2.608781e-06	1.269703e-09	1.858771e+01	8.453456e+01
2.450000e-06	2.648616e-06	1.315199e-09	1.887153e+01	8.736562e+01
2.460000e-06	2.688342e-06	1.355457e-09	1.915458e+01	9.009968e+01
2.470000e-06	2.727878e-06	1.391033e-09	1.943628e+01	9.273744e+01
2.480000e-06	2.767151e-06	1.422856e-09	1.971610e+01	9.528011e+01
2.490000e-06	2.806212e-06	1.454062e-09	1.999442e+01	9.772935e+01
2.500000e-06	2.845048e-06	1.486038e-09	2.027112e+01	1.000872e+02
2.510000e-06	2.883539e-06	1.521051e-09	2.054538e+01	1.023562e+02
2.520000e-06	2.921852e-06	1.560293e-09	2.081836e+01	1.045391e+02
2.530000e-06	2.960059e-06	1.595227e-09	2.109058e+01	1.066388e+02
2.540000e-06	2.998049e-06	1.621929e-09	2.136126e+01	1.086587e+02
2.550000e-06	3.035835e-06	1.646040e-09	2.163049e+01	1.106020e+02
2.560000e-06	3.073461e-06	1.672826e-09	2.189858e+01	1.124722e+02
2.570000e-06	3.110880e-06	1.697978e-09	2.216519e+01	1.142729e+02
2.580000e-06	3.148088e-06	1.719522e-09	2.243030e+01	1.160074e+02
2.590000e-06	3.185010e-06	1.743622e-09	2.269337e+01	1.176793e+02
2.600000e-06	3.221627e-06	1.772845e-09	2.295427e+01	1.192917e+02
2.610000e-06	3.258061e-06	1.802117e-09	2.321386e+01	1.208478e+02
2.620000e-06	3.294318e-06	1.824532e-09	2.347220e+01	1.223506e+02
2.630000e-06	3.330439e-06	1.844385e-09	2.372956e+01	1.238029e+02
2.640000e-06	3.366478e-06	1.864539e-09	2.398634e+01	1.252071e+02
2.650000e-06	3.402424e-06	1.881866e-09	2.424246e+01	1.265655e+02
2.660000e-06	3.438158e-06	1.895149e-09	2.449706e+01	1.278801e+02
2.670000e-06	3.473683e-06	1.910500e-09	2.475018e+01	1.291528e+02
2.680000e-06	3.508885e-06	1.931610e-09	2.500100e+01	1.303849e+02
2.690000e-06	3.543696e-06	1.955236e-09	2.524903e+01	1.315778e+02
2.700000e-06	3.578227e-06	1.973196e-09	2.549506e+01	1.327324e+02
2.710000e-06	3.612205e-06	1.985583e-09	2.573716e+01	1.338497e+02
2.720000e-06	3.645645e-06	2.000361e-09	2.597542e+01	1.349302e+02
2.730000e-06	3.678812e-06	2.016493e-09	2.621174e+01	1.359745e+02
2.740000e-06	3.711635e-06	2.026647e-09	2.644561e+01	1.369828e+02
2.750000e-06	3.744173e-06	2.036239e-09	2.667744e+01	1.379554e+02
2.760000e-06	3.776483e-06	2.053147e-09	2.690765e+01	1.388924e+02
2.770000e-06	3.808565e-06	2.074041e-09	2.713624e+01	1.397941e+02
2.780000e-06	3.840550e-06	2.090074e-09	2.736413e+01	1.406606e+02
2.790000e-06	3.872382e-06	2.099022e-09	2.759094e+01	1.414919e+02
2.800000e-06	3.903957e-06	2.107803e-09	2.781591e+01	1.422884e+02
2.810000e-06	3.935204e-06	2.118432e-09	2.803855e+01	1.430503e+02
2.820000e-06	3.966108e-06	2.125760e-09	2.825874e+01	1.437779e+02
2.830000e-06	3.996722e-06	2.131293e-09	2.847686e+01	1.444719e+02
2.840000e-06	4.027138e-06	2.141225e-09	2.869358e+01	1.451327e+02
2.850000e-06	4.057359e-06	2.154998e-09	2.890891e+01	1.457613e+02
2.860000e-06	4.087318e-06	2.166865e-09	2.912237e+01	1.463583e+02
2.870000e-06	4.117028e-06	2.173897e-09	2.933405e+01	1.469251e+02
2.880000e-06	4.146460e-06	2.181155e-09	2.954376e+01	1.474626e+02
2.890000e-06	4.175538e-06	2.188462e-09	2.975094e+01	1.479722e+02
2.900000e-06	4.204316e-06	2.193072e-09	2.995598e+01	1.484553e+02
