# Temperatura_=_3.35
# Concentracion g/m^3_=_4090.0
# C_Vs_to_Am_M_A/Vsm_=_65563218390.804596
# pendiente_HvsI_1/m_=_3716.3
# ordenada_HvsI_A/m_=_1297.0
# frecuencia_Hz_=_135083.3389308497

Tiempo_(s)	Campo_(V.s)	Magnetizacion_(V.s)	Campo_(kA/m)	Magnetizacion_(A/m)
0.000000e+00	-5.415472e-06	-2.632853e-09	-3.839022e+01	-1.712346e+02
1.000000e-08	-5.415619e-06	-2.634023e-09	-3.839126e+01	-1.711727e+02
2.000000e-08	-5.415592e-06	-2.638687e-09	-3.839108e+01	-1.711071e+02
3.000000e-08	-5.415307e-06	-2.646252e-09	-3.838905e+01	-1.710402e+02
4.000000e-08	-5.414708e-06	-2.647315e-09	-3.838480e+01	-1.709744e+02
5.000000e-08	-5.413640e-06	-2.637767e-09	-3.837724e+01	-1.709121e+02
6.000000e-08	-5.412019e-06	-2.631178e-09	-3.836574e+01	-1.708561e+02
7.000000e-08	-5.409849e-06	-2.641759e-09	-3.835036e+01	-1.708087e+02
8.000000e-08	-5.406980e-06	-2.628876e-09	-3.833002e+01	-1.707724e+02
9.000000e-08	-5.403471e-06	-2.609276e-09	-3.830515e+01	-1.707497e+02
1.000000e-07	-5.399570e-06	-2.623271e-09	-3.827750e+01	-1.707428e+02
1.100000e-07	-5.395284e-06	-2.652595e-09	-3.824711e+01	-1.707535e+02
1.200000e-07	-5.390813e-06	-2.628554e-09	-3.821542e+01	-1.707837e+02
1.300000e-07	-5.386244e-06	-2.622806e-09	-3.818302e+01	-1.708348e+02
1.400000e-07	-5.381264e-06	-2.600823e-09	-3.814772e+01	-1.709079e+02
1.500000e-07	-5.375830e-06	-2.650309e-09	-3.810920e+01	-1.710037e+02
1.600000e-07	-5.370026e-06	-2.589558e-09	-3.806806e+01	-1.711226e+02
1.700000e-07	-5.363894e-06	-2.613990e-09	-3.802459e+01	-1.712646e+02
1.800000e-07	-5.357323e-06	-2.597919e-09	-3.797800e+01	-1.714292e+02
1.900000e-07	-5.350363e-06	-2.630738e-09	-3.792866e+01	-1.716156e+02
2.000000e-07	-5.343142e-06	-2.615924e-09	-3.787747e+01	-1.718225e+02
2.100000e-07	-5.335693e-06	-2.635337e-09	-3.782467e+01	-1.720484e+02
2.200000e-07	-5.327930e-06	-2.646071e-09	-3.776964e+01	-1.722913e+02
2.300000e-07	-5.319913e-06	-2.637275e-09	-3.771281e+01	-1.725488e+02
2.400000e-07	-5.311722e-06	-2.657432e-09	-3.765474e+01	-1.728185e+02
2.500000e-07	-5.303034e-06	-2.661022e-09	-3.759315e+01	-1.730974e+02
2.600000e-07	-5.293411e-06	-2.692616e-09	-3.752493e+01	-1.733825e+02
2.700000e-07	-5.283141e-06	-2.679542e-09	-3.745213e+01	-1.736707e+02
2.800000e-07	-5.272480e-06	-2.707801e-09	-3.737655e+01	-1.739586e+02
2.900000e-07	-5.261244e-06	-2.697921e-09	-3.729690e+01	-1.742430e+02
3.000000e-07	-5.249596e-06	-2.706736e-09	-3.721433e+01	-1.745206e+02
3.100000e-07	-5.237617e-06	-2.683427e-09	-3.712941e+01	-1.747881e+02
3.200000e-07	-5.225285e-06	-2.735334e-09	-3.704199e+01	-1.750424e+02
3.300000e-07	-5.212461e-06	-2.707771e-09	-3.695108e+01	-1.752806e+02
3.400000e-07	-5.199288e-06	-2.705247e-09	-3.685770e+01	-1.755000e+02
3.500000e-07	-5.185748e-06	-2.691683e-09	-3.676171e+01	-1.756981e+02
3.600000e-07	-5.171819e-06	-2.736472e-09	-3.666297e+01	-1.758727e+02
3.700000e-07	-5.157576e-06	-2.695168e-09	-3.656200e+01	-1.760221e+02
3.800000e-07	-5.142907e-06	-2.704989e-09	-3.645801e+01	-1.761447e+02
3.900000e-07	-5.127607e-06	-2.702098e-09	-3.634955e+01	-1.762396e+02
4.000000e-07	-5.111648e-06	-2.707331e-09	-3.623642e+01	-1.763059e+02
4.100000e-07	-5.095153e-06	-2.681887e-09	-3.611948e+01	-1.763434e+02
4.200000e-07	-5.078314e-06	-2.701604e-09	-3.600011e+01	-1.763522e+02
4.300000e-07	-5.061250e-06	-2.685036e-09	-3.587914e+01	-1.763326e+02
4.400000e-07	-5.043921e-06	-2.674420e-09	-3.575630e+01	-1.762855e+02
4.500000e-07	-5.026326e-06	-2.684158e-09	-3.563157e+01	-1.762120e+02
4.600000e-07	-5.008351e-06	-2.693484e-09	-3.550415e+01	-1.761135e+02
4.700000e-07	-4.990034e-06	-2.678313e-09	-3.537429e+01	-1.759917e+02
4.800000e-07	-4.971312e-06	-2.679823e-09	-3.524158e+01	-1.758485e+02
4.900000e-07	-4.952117e-06	-2.696193e-09	-3.510550e+01	-1.756861e+02
5.000000e-07	-4.932572e-06	-2.676656e-09	-3.496695e+01	-1.755067e+02
5.100000e-07	-4.912809e-06	-2.666747e-09	-3.482685e+01	-1.753127e+02
5.200000e-07	-4.892926e-06	-2.661868e-09	-3.468590e+01	-1.751063e+02
5.300000e-07	-4.872801e-06	-2.671164e-09	-3.454323e+01	-1.748901e+02
5.400000e-07	-4.852354e-06	-2.663573e-09	-3.439828e+01	-1.746663e+02
5.500000e-07	-4.831586e-06	-2.672649e-09	-3.425106e+01	-1.744374e+02
5.600000e-07	-4.810416e-06	-2.656244e-09	-3.410099e+01	-1.742053e+02
5.700000e-07	-4.788884e-06	-2.662117e-09	-3.394834e+01	-1.739722e+02
5.800000e-07	-4.767033e-06	-2.652968e-09	-3.379345e+01	-1.737398e+02
5.900000e-07	-4.744916e-06	-2.647783e-09	-3.363666e+01	-1.735098e+02
6.000000e-07	-4.722496e-06	-2.625026e-09	-3.347773e+01	-1.732835e+02
6.100000e-07	-4.699620e-06	-2.635931e-09	-3.331555e+01	-1.730621e+02
6.200000e-07	-4.676401e-06	-2.629878e-09	-3.315096e+01	-1.728464e+02
6.300000e-07	-4.652938e-06	-2.631948e-09	-3.298463e+01	-1.726371e+02
6.400000e-07	-4.629157e-06	-2.619305e-09	-3.281604e+01	-1.724345e+02
6.500000e-07	-4.605178e-06	-2.624602e-09	-3.264606e+01	-1.722386e+02
6.600000e-07	-4.581014e-06	-2.617849e-09	-3.247476e+01	-1.720494e+02
6.700000e-07	-4.556592e-06	-2.623823e-09	-3.230163e+01	-1.718665e+02
6.800000e-07	-4.531771e-06	-2.608416e-09	-3.212568e+01	-1.716892e+02
6.900000e-07	-4.506529e-06	-2.603019e-09	-3.194674e+01	-1.715170e+02
7.000000e-07	-4.480873e-06	-2.599220e-09	-3.176486e+01	-1.713487e+02
7.100000e-07	-4.454635e-06	-2.604723e-09	-3.157886e+01	-1.711834e+02
7.200000e-07	-4.427843e-06	-2.597429e-09	-3.138893e+01	-1.710200e+02
7.300000e-07	-4.400597e-06	-2.595440e-09	-3.119579e+01	-1.708572e+02
7.400000e-07	-4.373062e-06	-2.592738e-09	-3.100059e+01	-1.706938e+02
7.500000e-07	-4.345322e-06	-2.591486e-09	-3.080394e+01	-1.705285e+02
7.600000e-07	-4.317369e-06	-2.586455e-09	-3.060578e+01	-1.703601e+02
7.700000e-07	-4.289295e-06	-2.577461e-09	-3.040677e+01	-1.701873e+02
7.800000e-07	-4.260955e-06	-2.571613e-09	-3.020586e+01	-1.700091e+02
7.900000e-07	-4.232289e-06	-2.570141e-09	-3.000265e+01	-1.698244e+02
8.000000e-07	-4.203409e-06	-2.568668e-09	-2.979792e+01	-1.696322e+02
8.100000e-07	-4.174156e-06	-2.558568e-09	-2.959055e+01	-1.694318e+02
8.200000e-07	-4.144521e-06	-2.557444e-09	-2.938046e+01	-1.692225e+02
8.300000e-07	-4.114622e-06	-2.556337e-09	-2.916851e+01	-1.690037e+02
8.400000e-07	-4.084406e-06	-2.560469e-09	-2.895431e+01	-1.687751e+02
8.500000e-07	-4.053895e-06	-2.549945e-09	-2.873802e+01	-1.685364e+02
8.600000e-07	-4.023159e-06	-2.541907e-09	-2.852013e+01	-1.682876e+02
8.700000e-07	-3.992169e-06	-2.530195e-09	-2.830045e+01	-1.680286e+02
8.800000e-07	-3.960964e-06	-2.528426e-09	-2.807923e+01	-1.677597e+02
8.900000e-07	-3.929579e-06	-2.517583e-09	-2.785674e+01	-1.674812e+02
9.000000e-07	-3.897928e-06	-2.513165e-09	-2.763237e+01	-1.671935e+02
9.100000e-07	-3.866077e-06	-2.507399e-09	-2.740658e+01	-1.668970e+02
9.200000e-07	-3.834088e-06	-2.512575e-09	-2.717981e+01	-1.665923e+02
9.300000e-07	-3.801899e-06	-2.509412e-09	-2.695162e+01	-1.662802e+02
9.400000e-07	-3.769497e-06	-2.507527e-09	-2.672192e+01	-1.659613e+02
9.500000e-07	-3.736874e-06	-2.498844e-09	-2.649066e+01	-1.656362e+02
9.600000e-07	-3.703919e-06	-2.497925e-09	-2.625704e+01	-1.653058e+02
9.700000e-07	-3.670453e-06	-2.487919e-09	-2.601980e+01	-1.649707e+02
9.800000e-07	-3.636487e-06	-2.480484e-09	-2.577902e+01	-1.646317e+02
9.900000e-07	-3.602049e-06	-2.469879e-09	-2.553489e+01	-1.642893e+02
1.000000e-06	-3.567154e-06	-2.467070e-09	-2.528752e+01	-1.639443e+02
1.010000e-06	-3.531962e-06	-2.468394e-09	-2.503804e+01	-1.635972e+02
1.020000e-06	-3.496513e-06	-2.472696e-09	-2.478674e+01	-1.632484e+02
1.030000e-06	-3.460811e-06	-2.470287e-09	-2.453365e+01	-1.628985e+02
1.040000e-06	-3.424894e-06	-2.463764e-09	-2.427903e+01	-1.625477e+02
1.050000e-06	-3.388872e-06	-2.453562e-09	-2.402367e+01	-1.621963e+02
1.060000e-06	-3.352784e-06	-2.440884e-09	-2.376785e+01	-1.618445e+02
1.070000e-06	-3.316515e-06	-2.426358e-09	-2.351074e+01	-1.614923e+02
1.080000e-06	-3.280088e-06	-2.411577e-09	-2.325251e+01	-1.611399e+02
1.090000e-06	-3.243434e-06	-2.403212e-09	-2.299267e+01	-1.607871e+02
1.100000e-06	-3.206506e-06	-2.404478e-09	-2.273089e+01	-1.604338e+02
1.110000e-06	-3.169285e-06	-2.409522e-09	-2.246702e+01	-1.600798e+02
1.120000e-06	-3.131743e-06	-2.406728e-09	-2.220089e+01	-1.597248e+02
1.130000e-06	-3.094012e-06	-2.405131e-09	-2.193342e+01	-1.593684e+02
1.140000e-06	-3.056108e-06	-2.398963e-09	-2.166472e+01	-1.590103e+02
1.150000e-06	-3.018055e-06	-2.391750e-09	-2.139496e+01	-1.586499e+02
1.160000e-06	-2.979865e-06	-2.376482e-09	-2.112423e+01	-1.582869e+02
1.170000e-06	-2.941442e-06	-2.363237e-09	-2.085185e+01	-1.579207e+02
1.180000e-06	-2.902782e-06	-2.352754e-09	-2.057779e+01	-1.575506e+02
1.190000e-06	-2.863860e-06	-2.352035e-09	-2.030187e+01	-1.571762e+02
1.200000e-06	-2.824744e-06	-2.351317e-09	-2.002458e+01	-1.567968e+02
1.210000e-06	-2.785491e-06	-2.350228e-09	-1.974632e+01	-1.564117e+02
1.220000e-06	-2.746044e-06	-2.340277e-09	-1.946667e+01	-1.560204e+02
1.230000e-06	-2.706324e-06	-2.332070e-09	-1.918510e+01	-1.556221e+02
1.240000e-06	-2.666448e-06	-2.317755e-09	-1.890242e+01	-1.552162e+02
1.250000e-06	-2.626560e-06	-2.304204e-09	-1.861965e+01	-1.548021e+02
1.260000e-06	-2.586590e-06	-2.292489e-09	-1.833631e+01	-1.543790e+02
1.270000e-06	-2.546501e-06	-2.287710e-09	-1.805212e+01	-1.539463e+02
1.280000e-06	-2.506276e-06	-2.283617e-09	-1.776696e+01	-1.535034e+02
1.290000e-06	-2.465961e-06	-2.278216e-09	-1.748117e+01	-1.530495e+02
1.300000e-06	-2.425601e-06	-2.269969e-09	-1.719506e+01	-1.525841e+02
1.310000e-06	-2.385038e-06	-2.262938e-09	-1.690751e+01	-1.521065e+02
1.320000e-06	-2.344119e-06	-2.254530e-09	-1.661744e+01	-1.516161e+02
1.330000e-06	-2.303022e-06	-2.242338e-09	-1.632610e+01	-1.511123e+02
1.340000e-06	-2.261818e-06	-2.228176e-09	-1.603401e+01	-1.505945e+02
1.350000e-06	-2.220361e-06	-2.216503e-09	-1.574012e+01	-1.500622e+02
1.360000e-06	-2.178452e-06	-2.208268e-09	-1.544302e+01	-1.495149e+02
1.370000e-06	-2.136207e-06	-2.201041e-09	-1.514355e+01	-1.489521e+02
1.380000e-06	-2.093751e-06	-2.193484e-09	-1.484258e+01	-1.483734e+02
1.390000e-06	-2.050925e-06	-2.184342e-09	-1.453899e+01	-1.477783e+02
1.400000e-06	-2.007846e-06	-2.176941e-09	-1.423360e+01	-1.471665e+02
1.410000e-06	-1.964602e-06	-2.167402e-09	-1.392704e+01	-1.465377e+02
1.420000e-06	-1.921177e-06	-2.153672e-09	-1.361920e+01	-1.458916e+02
1.430000e-06	-1.877662e-06	-2.134654e-09	-1.331072e+01	-1.452279e+02
1.440000e-06	-1.834004e-06	-2.119829e-09	-1.300124e+01	-1.445466e+02
1.450000e-06	-1.790218e-06	-2.110201e-09	-1.269083e+01	-1.438473e+02
1.460000e-06	-1.746373e-06	-2.102441e-09	-1.238002e+01	-1.431301e+02
1.470000e-06	-1.702458e-06	-2.089159e-09	-1.206870e+01	-1.423949e+02
1.480000e-06	-1.658491e-06	-2.074851e-09	-1.175703e+01	-1.416415e+02
1.490000e-06	-1.614457e-06	-2.062365e-09	-1.144487e+01	-1.408700e+02
1.500000e-06	-1.570367e-06	-2.050746e-09	-1.113231e+01	-1.400803e+02
1.510000e-06	-1.526248e-06	-2.034155e-09	-1.081956e+01	-1.392725e+02
1.520000e-06	-1.482050e-06	-2.019408e-09	-1.050623e+01	-1.384464e+02
1.530000e-06	-1.437726e-06	-2.009782e-09	-1.019202e+01	-1.376021e+02
1.540000e-06	-1.393297e-06	-2.002587e-09	-9.877068e+00	-1.367395e+02
1.550000e-06	-1.348808e-06	-1.987189e-09	-9.561686e+00	-1.358584e+02
1.560000e-06	-1.304210e-06	-1.968567e-09	-9.245532e+00	-1.349586e+02
1.570000e-06	-1.259492e-06	-1.953823e-09	-8.928522e+00	-1.340398e+02
1.580000e-06	-1.214711e-06	-1.942328e-09	-8.611070e+00	-1.331018e+02
1.590000e-06	-1.169827e-06	-1.928484e-09	-8.292892e+00	-1.321441e+02
1.600000e-06	-1.124832e-06	-1.914506e-09	-7.973924e+00	-1.311660e+02
1.610000e-06	-1.079849e-06	-1.901681e-09	-7.655036e+00	-1.301669e+02
1.620000e-06	-1.034856e-06	-1.888613e-09	-7.336086e+00	-1.291461e+02
1.630000e-06	-9.896848e-07	-1.871312e-09	-7.015865e+00	-1.281024e+02
1.640000e-06	-9.444717e-07	-1.850123e-09	-6.695350e+00	-1.270350e+02
1.650000e-06	-8.993172e-07	-1.831800e-09	-6.375250e+00	-1.259425e+02
1.660000e-06	-8.540420e-07	-1.817884e-09	-6.054294e+00	-1.248235e+02
1.670000e-06	-8.085964e-07	-1.802555e-09	-5.732131e+00	-1.236766e+02
1.680000e-06	-7.630483e-07	-1.782634e-09	-5.409241e+00	-1.225001e+02
1.690000e-06	-7.174665e-07	-1.761696e-09	-5.086112e+00	-1.212923e+02
1.700000e-06	-6.718365e-07	-1.742248e-09	-4.762641e+00	-1.200513e+02
1.710000e-06	-6.261715e-07	-1.722188e-09	-4.438923e+00	-1.187751e+02
1.720000e-06	-5.805019e-07	-1.697702e-09	-4.115172e+00	-1.174617e+02
1.730000e-06	-5.348274e-07	-1.674766e-09	-3.791386e+00	-1.161090e+02
1.740000e-06	-4.891206e-07	-1.656333e-09	-3.467370e+00	-1.147149e+02
1.750000e-06	-4.433499e-07	-1.637254e-09	-3.142903e+00	-1.132771e+02
1.760000e-06	-3.974807e-07	-1.612411e-09	-2.817736e+00	-1.117937e+02
1.770000e-06	-3.515076e-07	-1.586311e-09	-2.491834e+00	-1.102623e+02
1.780000e-06	-3.055101e-07	-1.564945e-09	-2.165758e+00	-1.086811e+02
1.790000e-06	-2.595216e-07	-1.546716e-09	-1.839746e+00	-1.070480e+02
1.800000e-06	-2.136003e-07	-1.520019e-09	-1.514210e+00	-1.053612e+02
1.810000e-06	-1.677024e-07	-1.489664e-09	-1.188841e+00	-1.036189e+02
1.820000e-06	-1.218096e-07	-1.464072e-09	-8.635071e-01	-1.018196e+02
1.830000e-06	-7.594328e-08	-1.439887e-09	-5.383611e-01	-9.996192e+01
1.840000e-06	-3.002521e-08	-1.410259e-09	-2.128484e-01	-9.804455e+01
1.850000e-06	1.590101e-08	-1.376720e-09	1.127221e-01	-9.606654e+01
1.860000e-06	6.176737e-08	-1.343870e-09	4.378682e-01	-9.402709e+01
1.870000e-06	1.076334e-07	-1.315898e-09	7.630123e-01	-9.192565e+01
1.880000e-06	1.535377e-07	-1.285114e-09	1.088427e+00	-8.976187e+01
1.890000e-06	1.994351e-07	-1.249501e-09	1.413793e+00	-8.753566e+01
1.900000e-06	2.453063e-07	-1.213797e-09	1.738974e+00	-8.524715e+01
1.910000e-06	2.911169e-07	-1.180261e-09	2.063725e+00	-8.289669e+01
1.920000e-06	3.368858e-07	-1.143520e-09	2.388180e+00	-8.048486e+01
1.930000e-06	3.827594e-07	-1.102284e-09	2.713377e+00	-7.801243e+01
1.940000e-06	4.286171e-07	-1.063810e-09	3.038462e+00	-7.548037e+01
1.950000e-06	4.743971e-07	-1.031747e-09	3.362996e+00	-7.288984e+01
1.960000e-06	5.202012e-07	-9.984780e-10	3.687701e+00	-7.024213e+01
1.970000e-06	5.659542e-07	-9.580832e-10	4.012043e+00	-6.753870e+01
1.980000e-06	6.117125e-07	-9.142029e-10	4.336423e+00	-6.478111e+01
1.990000e-06	6.574500e-07	-8.694340e-10	4.660656e+00	-6.197104e+01
2.000000e-06	7.030072e-07	-8.260575e-10	4.983610e+00	-5.911022e+01
2.010000e-06	7.484647e-07	-7.828266e-10	5.305858e+00	-5.620046e+01
2.020000e-06	7.938789e-07	-7.392639e-10	5.627799e+00	-5.324363e+01
2.030000e-06	8.392509e-07	-6.968569e-10	5.949441e+00	-5.024158e+01
2.040000e-06	8.845999e-07	-6.567113e-10	6.270919e+00	-4.719621e+01
2.050000e-06	9.298814e-07	-6.136377e-10	6.591919e+00	-4.410941e+01
2.060000e-06	9.751418e-07	-5.673278e-10	6.912770e+00	-4.098306e+01
2.070000e-06	1.020290e-06	-5.201915e-10	7.232824e+00	-3.781901e+01
2.080000e-06	1.065270e-06	-4.739311e-10	7.551688e+00	-3.461912e+01
2.090000e-06	1.110138e-06	-4.278375e-10	7.869758e+00	-3.138521e+01
2.100000e-06	1.154941e-06	-3.799228e-10	8.187367e+00	-2.811909e+01
2.110000e-06	1.199708e-06	-3.319970e-10	8.504719e+00	-2.482256e+01
2.120000e-06	1.244316e-06	-2.850646e-10	8.820946e+00	-2.149743e+01
2.130000e-06	1.288829e-06	-2.344137e-10	9.136496e+00	-1.814550e+01
2.140000e-06	1.333329e-06	-1.814050e-10	9.451956e+00	-1.476861e+01
2.150000e-06	1.377661e-06	-1.297892e-10	9.766224e+00	-1.136865e+01
2.160000e-06	1.421913e-06	-8.132102e-11	1.007993e+01	-7.947528e+00
2.170000e-06	1.466247e-06	-3.279462e-11	1.039421e+01	-4.507260e+00
2.180000e-06	1.510489e-06	1.855684e-11	1.070784e+01	-1.049932e+00
2.190000e-06	1.554617e-06	7.135242e-11	1.102067e+01	2.422262e+00
2.200000e-06	1.598698e-06	1.218932e-10	1.133315e+01	5.907007e+00
2.210000e-06	1.642732e-06	1.733029e-10	1.164531e+01	9.401858e+00
2.220000e-06	1.686764e-06	2.295918e-10	1.195745e+01	1.290423e+01
2.230000e-06	1.730746e-06	2.839735e-10	1.226924e+01	1.641138e+01
2.240000e-06	1.774591e-06	3.321933e-10	1.258006e+01	1.992041e+01
2.250000e-06	1.818272e-06	3.798875e-10	1.288971e+01	2.342828e+01
2.260000e-06	1.861871e-06	4.313501e-10	1.319878e+01	2.693178e+01
2.270000e-06	1.905430e-06	4.846852e-10	1.350757e+01	3.042755e+01
2.280000e-06	1.948845e-06	5.351769e-10	1.381534e+01	3.391212e+01
2.290000e-06	1.992056e-06	5.833762e-10	1.412167e+01	3.738186e+01
2.300000e-06	2.035097e-06	6.361937e-10	1.442678e+01	4.083307e+01
2.310000e-06	2.077959e-06	6.899181e-10	1.473063e+01	4.426196e+01
2.320000e-06	2.120466e-06	7.373593e-10	1.503196e+01	4.766468e+01
2.330000e-06	2.162630e-06	7.818238e-10	1.533086e+01	5.103736e+01
2.340000e-06	2.204572e-06	8.292850e-10	1.562819e+01	5.437616e+01
2.350000e-06	2.246136e-06	8.792798e-10	1.592283e+01	5.767724e+01
2.360000e-06	2.287384e-06	9.270434e-10	1.621524e+01	6.093688e+01
2.370000e-06	2.328471e-06	9.718877e-10	1.650651e+01	6.415144e+01
2.380000e-06	2.369389e-06	1.018952e-09	1.679657e+01	6.731744e+01
2.390000e-06	2.410141e-06	1.066763e-09	1.708546e+01	7.043160e+01
2.400000e-06	2.450706e-06	1.109909e-09	1.737303e+01	7.349084e+01
2.410000e-06	2.490999e-06	1.146151e-09	1.765867e+01	7.649233e+01
2.420000e-06	2.531125e-06	1.183950e-09	1.794312e+01	7.943352e+01
2.430000e-06	2.571218e-06	1.226188e-09	1.822733e+01	8.231215e+01
2.440000e-06	2.611227e-06	1.267651e-09	1.851096e+01	8.512630e+01
2.450000e-06	2.651153e-06	1.305073e-09	1.879399e+01	8.787437e+01
2.460000e-06	2.690942e-06	1.341609e-09	1.907606e+01	9.055511e+01
2.470000e-06	2.730653e-06	1.380593e-09	1.935757e+01	9.316764e+01
2.480000e-06	2.770220e-06	1.418010e-09	1.963806e+01	9.571141e+01
2.490000e-06	2.809544e-06	1.450479e-09	1.991683e+01	9.818623e+01
2.500000e-06	2.848571e-06	1.481971e-09	2.019349e+01	1.005922e+02
2.510000e-06	2.887374e-06	1.518803e-09	2.046856e+01	1.029299e+02
2.520000e-06	2.925998e-06	1.556701e-09	2.074237e+01	1.052000e+02
2.530000e-06	2.964406e-06	1.586835e-09	2.101464e+01	1.074035e+02
2.540000e-06	3.002678e-06	1.609555e-09	2.128595e+01	1.095417e+02
2.550000e-06	3.040735e-06	1.632612e-09	2.155574e+01	1.116162e+02
2.560000e-06	3.078586e-06	1.662021e-09	2.182406e+01	1.136286e+02
2.570000e-06	3.116206e-06	1.692418e-09	2.209075e+01	1.155807e+02
2.580000e-06	3.153608e-06	1.720584e-09	2.235589e+01	1.174744e+02
2.590000e-06	3.190835e-06	1.751935e-09	2.261979e+01	1.193116e+02
2.600000e-06	3.227799e-06	1.784676e-09	2.288183e+01	1.210945e+02
2.610000e-06	3.264506e-06	1.812664e-09	2.314205e+01	1.228250e+02
2.620000e-06	3.300991e-06	1.833024e-09	2.340069e+01	1.245050e+02
2.630000e-06	3.337232e-06	1.852100e-09	2.365760e+01	1.261364e+02
2.640000e-06	3.373359e-06	1.875063e-09	2.391371e+01	1.277209e+02
2.650000e-06	3.409460e-06	1.898868e-09	2.416963e+01	1.292603e+02
2.660000e-06	3.445425e-06	1.919304e-09	2.442458e+01	1.307559e+02
2.670000e-06	3.481183e-06	1.940370e-09	2.467807e+01	1.322092e+02
2.680000e-06	3.516703e-06	1.964503e-09	2.492987e+01	1.336213e+02
2.690000e-06	3.552007e-06	1.987201e-09	2.518014e+01	1.349931e+02
2.700000e-06	3.586976e-06	2.002704e-09	2.542803e+01	1.363256e+02
2.710000e-06	3.621496e-06	2.013287e-09	2.567275e+01	1.376192e+02
2.720000e-06	3.655648e-06	2.027584e-09	2.591485e+01	1.388746e+02
2.730000e-06	3.689292e-06	2.047203e-09	2.615335e+01	1.400921e+02
2.740000e-06	3.722384e-06	2.067057e-09	2.638794e+01	1.412718e+02
2.750000e-06	3.755088e-06	2.084926e-09	2.661978e+01	1.424140e+02
2.760000e-06	3.787527e-06	2.103160e-09	2.684973e+01	1.435187e+02
2.770000e-06	3.819804e-06	2.121837e-09	2.707855e+01	1.445858e+02
2.780000e-06	3.851920e-06	2.136715e-09	2.730622e+01	1.456155e+02
2.790000e-06	3.883918e-06	2.148186e-09	2.753305e+01	1.466076e+02
2.800000e-06	3.915699e-06	2.162830e-09	2.775835e+01	1.475623e+02
2.810000e-06	3.947217e-06	2.179584e-09	2.798178e+01	1.484796e+02
2.820000e-06	3.978536e-06	2.190934e-09	2.820380e+01	1.493598e+02
2.830000e-06	4.009598e-06	2.198865e-09	2.842400e+01	1.502031e+02
2.840000e-06	4.040351e-06	2.208875e-09	2.864201e+01	1.510101e+02
2.850000e-06	4.070725e-06	2.220829e-09	2.885733e+01	1.517813e+02
2.860000e-06	4.100872e-06	2.233141e-09	2.907104e+01	1.525174e+02
2.870000e-06	4.130835e-06	2.245073e-09	2.928344e+01	1.532195e+02
2.880000e-06	4.160447e-06	2.257717e-09	2.949336e+01	1.538887e+02
2.890000e-06	4.189813e-06	2.269672e-09	2.970154e+01	1.545261e+02
2.900000e-06	4.218930e-06	2.275569e-09	2.990795e+01	1.551333e+02
