# Temperatura_=_10.61
# Concentracion g/m^3_=_4090.0
# C_Vs_to_Am_M_A/Vsm_=_65563218390.804596
# pendiente_HvsI_1/m_=_3716.3
# ordenada_HvsI_A/m_=_1297.0
# frecuencia_Hz_=_135084.80224549415

Tiempo_(s)	Campo_(V.s)	Magnetizacion_(V.s)	Campo_(kA/m)	Magnetizacion_(A/m)
0.000000e+00	-5.393016e-06	-2.619965e-09	-3.839075e+01	-1.684104e+02
1.000000e-08	-5.393265e-06	-2.618625e-09	-3.839251e+01	-1.683772e+02
2.000000e-08	-5.393266e-06	-2.618811e-09	-3.839252e+01	-1.683457e+02
3.000000e-08	-5.392982e-06	-2.619998e-09	-3.839050e+01	-1.683171e+02
4.000000e-08	-5.392372e-06	-2.617015e-09	-3.838616e+01	-1.682931e+02
5.000000e-08	-5.391341e-06	-2.609599e-09	-3.837882e+01	-1.682751e+02
6.000000e-08	-5.389863e-06	-2.601965e-09	-3.836830e+01	-1.682644e+02
7.000000e-08	-5.387725e-06	-2.601141e-09	-3.835308e+01	-1.682626e+02
8.000000e-08	-5.384873e-06	-2.615574e-09	-3.833278e+01	-1.682708e+02
9.000000e-08	-5.381462e-06	-2.630293e-09	-3.830850e+01	-1.682902e+02
1.000000e-07	-5.377476e-06	-2.609401e-09	-3.828012e+01	-1.683219e+02
1.100000e-07	-5.373166e-06	-2.578495e-09	-3.824944e+01	-1.683667e+02
1.200000e-07	-5.368843e-06	-2.598265e-09	-3.821867e+01	-1.684253e+02
1.300000e-07	-5.364264e-06	-2.616340e-09	-3.818607e+01	-1.684981e+02
1.400000e-07	-5.359122e-06	-2.585803e-09	-3.814947e+01	-1.685853e+02
1.500000e-07	-5.353622e-06	-2.554179e-09	-3.811031e+01	-1.686869e+02
1.600000e-07	-5.347923e-06	-2.592670e-09	-3.806975e+01	-1.688026e+02
1.700000e-07	-5.341791e-06	-2.626908e-09	-3.802609e+01	-1.689320e+02
1.800000e-07	-5.335178e-06	-2.594306e-09	-3.797902e+01	-1.690742e+02
1.900000e-07	-5.328077e-06	-2.585918e-09	-3.792847e+01	-1.692282e+02
2.000000e-07	-5.320768e-06	-2.605224e-09	-3.787644e+01	-1.693928e+02
2.100000e-07	-5.313348e-06	-2.615493e-09	-3.782362e+01	-1.695665e+02
2.200000e-07	-5.305526e-06	-2.579721e-09	-3.776794e+01	-1.697478e+02
2.300000e-07	-5.297459e-06	-2.595872e-09	-3.771051e+01	-1.699348e+02
2.400000e-07	-5.289137e-06	-2.629048e-09	-3.765127e+01	-1.701255e+02
2.500000e-07	-5.280247e-06	-2.633435e-09	-3.758799e+01	-1.703180e+02
2.600000e-07	-5.270597e-06	-2.614427e-09	-3.751929e+01	-1.705101e+02
2.700000e-07	-5.260370e-06	-2.633814e-09	-3.744649e+01	-1.706996e+02
2.800000e-07	-5.249718e-06	-2.647900e-09	-3.737066e+01	-1.708844e+02
2.900000e-07	-5.238656e-06	-2.599714e-09	-3.729192e+01	-1.710622e+02
3.000000e-07	-5.227229e-06	-2.568242e-09	-3.721057e+01	-1.712312e+02
3.100000e-07	-5.215340e-06	-2.620209e-09	-3.712594e+01	-1.713891e+02
3.200000e-07	-5.202986e-06	-2.640266e-09	-3.703800e+01	-1.715342e+02
3.300000e-07	-5.190281e-06	-2.601726e-09	-3.694755e+01	-1.716648e+02
3.400000e-07	-5.177222e-06	-2.608853e-09	-3.685460e+01	-1.717792e+02
3.500000e-07	-5.163691e-06	-2.634407e-09	-3.675827e+01	-1.718762e+02
3.600000e-07	-5.149735e-06	-2.620615e-09	-3.665892e+01	-1.719545e+02
3.700000e-07	-5.135512e-06	-2.601438e-09	-3.655767e+01	-1.720134e+02
3.800000e-07	-5.120938e-06	-2.611968e-09	-3.645393e+01	-1.720520e+02
3.900000e-07	-5.105717e-06	-2.590275e-09	-3.634558e+01	-1.720701e+02
4.000000e-07	-5.089776e-06	-2.592218e-09	-3.623210e+01	-1.720673e+02
4.100000e-07	-5.073385e-06	-2.616294e-09	-3.611542e+01	-1.720438e+02
4.200000e-07	-5.056643e-06	-2.605069e-09	-3.599624e+01	-1.719997e+02
4.300000e-07	-5.039637e-06	-2.567114e-09	-3.587518e+01	-1.719357e+02
4.400000e-07	-5.022377e-06	-2.589883e-09	-3.575231e+01	-1.718523e+02
4.500000e-07	-5.004802e-06	-2.606071e-09	-3.562720e+01	-1.717504e+02
4.600000e-07	-4.986972e-06	-2.576123e-09	-3.550028e+01	-1.716312e+02
4.700000e-07	-4.968750e-06	-2.556543e-09	-3.537057e+01	-1.714957e+02
4.800000e-07	-4.950025e-06	-2.577960e-09	-3.523726e+01	-1.713453e+02
4.900000e-07	-4.930828e-06	-2.579040e-09	-3.510061e+01	-1.711812e+02
5.000000e-07	-4.911329e-06	-2.569460e-09	-3.496180e+01	-1.710050e+02
5.100000e-07	-4.891622e-06	-2.560542e-09	-3.482152e+01	-1.708181e+02
5.200000e-07	-4.871718e-06	-2.554822e-09	-3.467983e+01	-1.706219e+02
5.300000e-07	-4.851664e-06	-2.561854e-09	-3.453707e+01	-1.704178e+02
5.400000e-07	-4.831325e-06	-2.575982e-09	-3.439229e+01	-1.702074e+02
5.500000e-07	-4.810598e-06	-2.557150e-09	-3.424474e+01	-1.699919e+02
5.600000e-07	-4.789431e-06	-2.542880e-09	-3.409406e+01	-1.697726e+02
5.700000e-07	-4.767893e-06	-2.559534e-09	-3.394074e+01	-1.695507e+02
5.800000e-07	-4.746127e-06	-2.567269e-09	-3.378580e+01	-1.693271e+02
5.900000e-07	-4.724075e-06	-2.550248e-09	-3.362882e+01	-1.691028e+02
6.000000e-07	-4.701662e-06	-2.542965e-09	-3.346927e+01	-1.688786e+02
6.100000e-07	-4.678912e-06	-2.547638e-09	-3.330732e+01	-1.686552e+02
6.200000e-07	-4.655840e-06	-2.542564e-09	-3.314308e+01	-1.684330e+02
6.300000e-07	-4.632456e-06	-2.532044e-09	-3.297662e+01	-1.682125e+02
6.400000e-07	-4.608725e-06	-2.517223e-09	-3.280768e+01	-1.679938e+02
6.500000e-07	-4.584770e-06	-2.514088e-09	-3.263716e+01	-1.677772e+02
6.600000e-07	-4.560736e-06	-2.523798e-09	-3.246607e+01	-1.675626e+02
6.700000e-07	-4.536490e-06	-2.526339e-09	-3.229347e+01	-1.673500e+02
6.800000e-07	-4.511791e-06	-2.510774e-09	-3.211765e+01	-1.671391e+02
6.900000e-07	-4.486589e-06	-2.505602e-09	-3.193825e+01	-1.669296e+02
7.000000e-07	-4.460964e-06	-2.507063e-09	-3.175584e+01	-1.667213e+02
7.100000e-07	-4.434811e-06	-2.500943e-09	-3.156966e+01	-1.665137e+02
7.200000e-07	-4.408100e-06	-2.483484e-09	-3.137952e+01	-1.663064e+02
7.300000e-07	-4.380978e-06	-2.477897e-09	-3.118644e+01	-1.660989e+02
7.400000e-07	-4.353537e-06	-2.484143e-09	-3.099110e+01	-1.658908e+02
7.500000e-07	-4.325881e-06	-2.492561e-09	-3.079423e+01	-1.656814e+02
7.600000e-07	-4.298038e-06	-2.485064e-09	-3.059603e+01	-1.654705e+02
7.700000e-07	-4.269943e-06	-2.475477e-09	-3.039603e+01	-1.652574e+02
7.800000e-07	-4.241655e-06	-2.471742e-09	-3.019466e+01	-1.650417e+02
7.900000e-07	-4.213106e-06	-2.471685e-09	-2.999144e+01	-1.648231e+02
8.000000e-07	-4.184249e-06	-2.459297e-09	-2.978601e+01	-1.646010e+02
8.100000e-07	-4.155127e-06	-2.446346e-09	-2.957870e+01	-1.643752e+02
8.200000e-07	-4.125720e-06	-2.443976e-09	-2.936937e+01	-1.641454e+02
8.300000e-07	-4.095947e-06	-2.451544e-09	-2.915742e+01	-1.639112e+02
8.400000e-07	-4.065865e-06	-2.451288e-09	-2.894328e+01	-1.636725e+02
8.500000e-07	-4.035597e-06	-2.442344e-09	-2.872782e+01	-1.634290e+02
8.600000e-07	-4.005063e-06	-2.435625e-09	-2.851046e+01	-1.631805e+02
8.700000e-07	-3.974318e-06	-2.435346e-09	-2.829159e+01	-1.629269e+02
8.800000e-07	-3.943283e-06	-2.432153e-09	-2.807067e+01	-1.626680e+02
8.900000e-07	-3.911891e-06	-2.422152e-09	-2.784720e+01	-1.624038e+02
9.000000e-07	-3.880312e-06	-2.410596e-09	-2.762240e+01	-1.621342e+02
9.100000e-07	-3.848594e-06	-2.406902e-09	-2.739662e+01	-1.618591e+02
9.200000e-07	-3.816711e-06	-2.408945e-09	-2.716966e+01	-1.615784e+02
9.300000e-07	-3.784593e-06	-2.403497e-09	-2.694102e+01	-1.612921e+02
9.400000e-07	-3.752269e-06	-2.394892e-09	-2.671092e+01	-1.610001e+02
9.500000e-07	-3.719711e-06	-2.390643e-09	-2.647915e+01	-1.607024e+02
9.600000e-07	-3.686732e-06	-2.392551e-09	-2.624438e+01	-1.603989e+02
9.700000e-07	-3.653231e-06	-2.391207e-09	-2.600591e+01	-1.600897e+02
9.800000e-07	-3.619333e-06	-2.384338e-09	-2.576460e+01	-1.597745e+02
9.900000e-07	-3.585009e-06	-2.374719e-09	-2.552026e+01	-1.594536e+02
1.000000e-06	-3.550267e-06	-2.369894e-09	-2.527295e+01	-1.591267e+02
1.010000e-06	-3.515322e-06	-2.368259e-09	-2.502418e+01	-1.587939e+02
1.020000e-06	-3.480091e-06	-2.366779e-09	-2.477339e+01	-1.584551e+02
1.030000e-06	-3.444567e-06	-2.359806e-09	-2.452051e+01	-1.581104e+02
1.040000e-06	-3.408832e-06	-2.354696e-09	-2.426613e+01	-1.577599e+02
1.050000e-06	-3.372925e-06	-2.350714e-09	-2.401051e+01	-1.574034e+02
1.060000e-06	-3.336881e-06	-2.344568e-09	-2.375394e+01	-1.570412e+02
1.070000e-06	-3.300688e-06	-2.334287e-09	-2.349629e+01	-1.566731e+02
1.080000e-06	-3.264406e-06	-2.326142e-09	-2.323801e+01	-1.562995e+02
1.090000e-06	-3.227926e-06	-2.318339e-09	-2.297833e+01	-1.559203e+02
1.100000e-06	-3.191128e-06	-2.311491e-09	-2.271638e+01	-1.555356e+02
1.110000e-06	-3.154064e-06	-2.303778e-09	-2.245253e+01	-1.551457e+02
1.120000e-06	-3.116835e-06	-2.297992e-09	-2.218751e+01	-1.547507e+02
1.130000e-06	-3.079443e-06	-2.294461e-09	-2.192133e+01	-1.543507e+02
1.140000e-06	-3.041755e-06	-2.289769e-09	-2.165305e+01	-1.539458e+02
1.150000e-06	-3.003814e-06	-2.280046e-09	-2.138296e+01	-1.535363e+02
1.160000e-06	-2.965713e-06	-2.269854e-09	-2.111173e+01	-1.531223e+02
1.170000e-06	-2.927433e-06	-2.261420e-09	-2.083924e+01	-1.527038e+02
1.180000e-06	-2.888946e-06	-2.254792e-09	-2.056526e+01	-1.522810e+02
1.190000e-06	-2.850172e-06	-2.248335e-09	-2.028925e+01	-1.518539e+02
1.200000e-06	-2.811193e-06	-2.242084e-09	-2.001177e+01	-1.514225e+02
1.210000e-06	-2.772078e-06	-2.234872e-09	-1.973332e+01	-1.509867e+02
1.220000e-06	-2.732777e-06	-2.225539e-09	-1.945356e+01	-1.505463e+02
1.230000e-06	-2.693242e-06	-2.216204e-09	-1.917213e+01	-1.501013e+02
1.240000e-06	-2.653451e-06	-2.205946e-09	-1.888887e+01	-1.496513e+02
1.250000e-06	-2.613591e-06	-2.195097e-09	-1.860512e+01	-1.491960e+02
1.260000e-06	-2.573729e-06	-2.186743e-09	-1.832136e+01	-1.487350e+02
1.270000e-06	-2.533764e-06	-2.182919e-09	-1.803686e+01	-1.482677e+02
1.280000e-06	-2.493706e-06	-2.177895e-09	-1.775170e+01	-1.477935e+02
1.290000e-06	-2.453542e-06	-2.169525e-09	-1.746580e+01	-1.473119e+02
1.300000e-06	-2.413243e-06	-2.156340e-09	-1.717892e+01	-1.468220e+02
1.310000e-06	-2.372791e-06	-2.145348e-09	-1.689096e+01	-1.463231e+02
1.320000e-06	-2.332054e-06	-2.138668e-09	-1.660097e+01	-1.458142e+02
1.330000e-06	-2.291083e-06	-2.128831e-09	-1.630931e+01	-1.452946e+02
1.340000e-06	-2.249967e-06	-2.115331e-09	-1.601662e+01	-1.447631e+02
1.350000e-06	-2.208566e-06	-2.107468e-09	-1.572191e+01	-1.442190e+02
1.360000e-06	-2.166788e-06	-2.103353e-09	-1.542450e+01	-1.436611e+02
1.370000e-06	-2.124696e-06	-2.095853e-09	-1.512487e+01	-1.430886e+02
1.380000e-06	-2.082536e-06	-2.081951e-09	-1.482475e+01	-1.425004e+02
1.390000e-06	-2.040252e-06	-2.067380e-09	-1.452374e+01	-1.418957e+02
1.400000e-06	-1.997681e-06	-2.057399e-09	-1.422070e+01	-1.412736e+02
1.410000e-06	-1.954815e-06	-2.050451e-09	-1.391556e+01	-1.406332e+02
1.420000e-06	-1.911671e-06	-2.038129e-09	-1.360843e+01	-1.399739e+02
1.430000e-06	-1.868243e-06	-2.024292e-09	-1.329928e+01	-1.392949e+02
1.440000e-06	-1.824651e-06	-2.015169e-09	-1.298897e+01	-1.385958e+02
1.450000e-06	-1.781088e-06	-2.008631e-09	-1.267886e+01	-1.378760e+02
1.460000e-06	-1.737442e-06	-1.997574e-09	-1.236816e+01	-1.371351e+02
1.470000e-06	-1.693670e-06	-1.981715e-09	-1.205657e+01	-1.363730e+02
1.480000e-06	-1.649809e-06	-1.965552e-09	-1.174434e+01	-1.355894e+02
1.490000e-06	-1.605849e-06	-1.951239e-09	-1.143140e+01	-1.347842e+02
1.500000e-06	-1.561861e-06	-1.936083e-09	-1.111827e+01	-1.339575e+02
1.510000e-06	-1.517811e-06	-1.919124e-09	-1.080470e+01	-1.331093e+02
1.520000e-06	-1.473734e-06	-1.904847e-09	-1.049093e+01	-1.322397e+02
1.530000e-06	-1.429668e-06	-1.893472e-09	-1.017724e+01	-1.313491e+02
1.540000e-06	-1.385543e-06	-1.882817e-09	-9.863129e+00	-1.304374e+02
1.550000e-06	-1.341273e-06	-1.870140e-09	-9.547992e+00	-1.295051e+02
1.560000e-06	-1.296838e-06	-1.853828e-09	-9.231679e+00	-1.285522e+02
1.570000e-06	-1.252387e-06	-1.838121e-09	-8.915246e+00	-1.275789e+02
1.580000e-06	-1.207922e-06	-1.821586e-09	-8.598715e+00	-1.265853e+02
1.590000e-06	-1.163257e-06	-1.803404e-09	-8.280768e+00	-1.255716e+02
1.600000e-06	-1.118488e-06	-1.788434e-09	-7.962071e+00	-1.245374e+02
1.610000e-06	-1.073733e-06	-1.775847e-09	-7.643481e+00	-1.234828e+02
1.620000e-06	-1.028931e-06	-1.762255e-09	-7.324555e+00	-1.224072e+02
1.630000e-06	-9.840094e-07	-1.744762e-09	-7.004773e+00	-1.213102e+02
1.640000e-06	-9.388792e-07	-1.727197e-09	-6.683509e+00	-1.201912e+02
1.650000e-06	-8.936389e-07	-1.710292e-09	-6.361461e+00	-1.190491e+02
1.660000e-06	-8.484012e-07	-1.693220e-09	-6.039432e+00	-1.178831e+02
1.670000e-06	-8.031489e-07	-1.675816e-09	-5.717299e+00	-1.166917e+02
1.680000e-06	-7.578574e-07	-1.659229e-09	-5.394887e+00	-1.154736e+02
1.690000e-06	-7.125566e-07	-1.643822e-09	-5.072408e+00	-1.142271e+02
1.700000e-06	-6.671400e-07	-1.628103e-09	-4.749106e+00	-1.129504e+02
1.710000e-06	-6.216413e-07	-1.606999e-09	-4.425218e+00	-1.116415e+02
1.720000e-06	-5.761435e-07	-1.581057e-09	-4.101338e+00	-1.102983e+02
1.730000e-06	-5.305367e-07	-1.556891e-09	-3.776681e+00	-1.089184e+02
1.740000e-06	-4.848401e-07	-1.536777e-09	-3.451385e+00	-1.074994e+02
1.750000e-06	-4.390804e-07	-1.514586e-09	-3.125640e+00	-1.060390e+02
1.760000e-06	-3.933027e-07	-1.489954e-09	-2.799766e+00	-1.045346e+02
1.770000e-06	-3.475805e-07	-1.467302e-09	-2.474288e+00	-1.029836e+02
1.780000e-06	-3.018499e-07	-1.447548e-09	-2.148750e+00	-1.013835e+02
1.790000e-06	-2.561201e-07	-1.426293e-09	-1.823218e+00	-9.973195e+01
1.800000e-06	-2.103133e-07	-1.397578e-09	-1.497137e+00	-9.802641e+01
1.810000e-06	-1.644208e-07	-1.364998e-09	-1.170446e+00	-9.626466e+01
1.820000e-06	-1.185551e-07	-1.337647e-09	-8.439470e-01	-9.444457e+01
1.830000e-06	-7.273218e-08	-1.310643e-09	-5.177516e-01	-9.256419e+01
1.840000e-06	-2.696977e-08	-1.279775e-09	-1.919871e-01	-9.062179e+01
1.850000e-06	1.877852e-08	-1.249399e-09	1.336769e-01	-8.861586e+01
1.860000e-06	6.455791e-08	-1.220451e-09	4.595622e-01	-8.654516e+01
1.870000e-06	1.103961e-07	-1.191350e-09	7.858658e-01	-8.440873e+01
1.880000e-06	1.562248e-07	-1.158545e-09	1.112102e+00	-8.220589e+01
1.890000e-06	2.020325e-07	-1.123141e-09	1.438189e+00	-7.993626e+01
1.900000e-06	2.478013e-07	-1.087813e-09	1.763999e+00	-7.759980e+01
1.910000e-06	2.935638e-07	-1.051765e-09	2.089764e+00	-7.519674e+01
1.920000e-06	3.393331e-07	-1.010668e-09	2.415578e+00	-7.272764e+01
1.930000e-06	3.850424e-07	-9.692609e-10	2.740964e+00	-7.019336e+01
1.940000e-06	4.307058e-07	-9.326029e-10	3.066024e+00	-6.759505e+01
1.950000e-06	4.763293e-07	-8.982035e-10	3.390800e+00	-6.493414e+01
1.960000e-06	5.218911e-07	-8.611392e-10	3.715136e+00	-6.221230e+01
1.970000e-06	5.674108e-07	-8.214600e-10	4.039173e+00	-5.943144e+01
1.980000e-06	6.128974e-07	-7.796635e-10	4.362974e+00	-5.659370e+01
1.990000e-06	6.583325e-07	-7.353240e-10	4.686408e+00	-5.370139e+01
2.000000e-06	7.037465e-07	-6.879697e-10	5.009693e+00	-5.075697e+01
2.010000e-06	7.491723e-07	-6.402026e-10	5.333061e+00	-4.776305e+01
2.020000e-06	7.945480e-07	-5.960593e-10	5.656073e+00	-4.472234e+01
2.030000e-06	8.397604e-07	-5.538376e-10	5.977921e+00	-4.163762e+01
2.040000e-06	8.848622e-07	-5.081452e-10	6.298984e+00	-3.851173e+01
2.050000e-06	9.299517e-07	-4.590773e-10	6.619958e+00	-3.534753e+01
2.060000e-06	9.750023e-07	-4.104051e-10	6.940655e+00	-3.214789e+01
2.070000e-06	1.019906e-06	-3.644791e-10	7.260309e+00	-2.891566e+01
2.080000e-06	1.064685e-06	-3.188535e-10	7.579072e+00	-2.565367e+01
2.090000e-06	1.109362e-06	-2.723504e-10	7.897109e+00	-2.236468e+01
2.100000e-06	1.153956e-06	-2.280969e-10	8.214558e+00	-1.905144e+01
2.110000e-06	1.198476e-06	-1.834518e-10	8.531478e+00	-1.571659e+01
2.120000e-06	1.242838e-06	-1.325196e-10	8.847269e+00	-1.236273e+01
2.130000e-06	1.287075e-06	-7.650947e-11	9.162177e+00	-8.992409e+00
2.140000e-06	1.331300e-06	-1.915072e-11	9.476997e+00	-5.608087e+00
2.150000e-06	1.375490e-06	3.598739e-11	9.791569e+00	-2.212183e+00
2.160000e-06	1.419636e-06	8.640497e-11	1.010583e+01	1.192934e+00
2.170000e-06	1.463768e-06	1.321021e-10	1.041999e+01	4.604932e+00
2.180000e-06	1.507852e-06	1.768705e-10	1.073380e+01	8.021504e+00
2.190000e-06	1.551876e-06	2.256443e-10	1.104719e+01	1.144036e+01
2.200000e-06	1.595845e-06	2.766315e-10	1.136019e+01	1.485919e+01
2.210000e-06	1.639740e-06	3.300112e-10	1.167266e+01	1.827571e+01
2.220000e-06	1.683586e-06	3.863395e-10	1.198478e+01	2.168756e+01
2.230000e-06	1.727394e-06	4.420387e-10	1.229664e+01	2.509237e+01
2.240000e-06	1.771097e-06	4.934797e-10	1.260774e+01	2.848772e+01
2.250000e-06	1.814722e-06	5.404739e-10	1.291829e+01	3.187113e+01
2.260000e-06	1.858251e-06	5.838433e-10	1.322815e+01	3.524005e+01
2.270000e-06	1.901629e-06	6.279973e-10	1.353694e+01	3.859187e+01
2.280000e-06	1.944811e-06	6.733787e-10	1.384434e+01	4.192391e+01
2.290000e-06	1.987757e-06	7.201788e-10	1.415006e+01	4.523344e+01
2.300000e-06	2.030452e-06	7.715340e-10	1.445398e+01	4.851766e+01
2.310000e-06	2.072930e-06	8.246235e-10	1.475636e+01	5.177373e+01
2.320000e-06	2.115318e-06	8.735494e-10	1.505811e+01	5.499877e+01
2.330000e-06	2.157441e-06	9.160138e-10	1.535797e+01	5.818990e+01
2.340000e-06	2.199199e-06	9.554405e-10	1.565523e+01	6.134422e+01
2.350000e-06	2.240617e-06	9.959409e-10	1.595007e+01	6.445887e+01
2.360000e-06	2.281682e-06	1.039575e-09	1.624239e+01	6.753102e+01
2.370000e-06	2.322525e-06	1.084236e-09	1.653314e+01	7.055791e+01
2.380000e-06	2.363216e-06	1.127763e-09	1.682280e+01	7.353688e+01
2.390000e-06	2.403725e-06	1.171692e-09	1.711116e+01	7.646539e+01
2.400000e-06	2.444046e-06	1.212482e-09	1.739820e+01	7.934105e+01
2.410000e-06	2.484237e-06	1.248292e-09	1.768430e+01	8.216161e+01
2.420000e-06	2.524297e-06	1.282003e-09	1.796947e+01	8.492503e+01
2.430000e-06	2.564275e-06	1.317399e-09	1.825406e+01	8.762949e+01
2.440000e-06	2.604156e-06	1.357518e-09	1.853795e+01	9.027338e+01
2.450000e-06	2.643906e-06	1.396212e-09	1.882092e+01	9.285535e+01
2.460000e-06	2.683538e-06	1.433018e-09	1.910304e+01	9.537429e+01
2.470000e-06	2.723096e-06	1.470091e-09	1.938464e+01	9.782939e+01
2.480000e-06	2.762483e-06	1.505756e-09	1.966502e+01	1.002201e+02
2.490000e-06	2.801603e-06	1.536155e-09	1.994350e+01	1.025460e+02
2.500000e-06	2.840484e-06	1.563117e-09	2.022028e+01	1.048072e+02
2.510000e-06	2.879123e-06	1.591929e-09	2.049533e+01	1.070039e+02
2.520000e-06	2.917575e-06	1.621894e-09	2.076906e+01	1.091366e+02
2.530000e-06	2.955819e-06	1.651787e-09	2.104130e+01	1.112060e+02
2.540000e-06	2.993874e-06	1.679827e-09	2.131220e+01	1.132129e+02
2.550000e-06	3.031796e-06	1.709567e-09	2.158215e+01	1.151586e+02
2.560000e-06	3.069524e-06	1.741852e-09	2.185073e+01	1.170442e+02
2.570000e-06	3.106998e-06	1.770590e-09	2.211749e+01	1.188713e+02
2.580000e-06	3.144195e-06	1.792283e-09	2.238228e+01	1.206414e+02
2.590000e-06	3.181138e-06	1.810796e-09	2.264526e+01	1.223561e+02
2.600000e-06	3.217935e-06	1.831994e-09	2.290720e+01	1.240170e+02
2.610000e-06	3.254530e-06	1.856433e-09	2.316771e+01	1.256259e+02
2.620000e-06	3.290825e-06	1.879749e-09	2.342608e+01	1.271845e+02
2.630000e-06	3.326956e-06	1.903754e-09	2.368329e+01	1.286945e+02
2.640000e-06	3.362998e-06	1.930554e-09	2.393985e+01	1.301576e+02
2.650000e-06	3.398927e-06	1.954788e-09	2.419562e+01	1.315752e+02
2.660000e-06	3.434748e-06	1.971202e-09	2.445061e+01	1.329490e+02
2.670000e-06	3.470339e-06	1.985340e-09	2.470397e+01	1.342803e+02
2.680000e-06	3.505711e-06	2.000393e-09	2.495577e+01	1.355703e+02
2.690000e-06	3.540910e-06	2.016073e-09	2.520634e+01	1.368202e+02
2.700000e-06	3.575697e-06	2.030543e-09	2.545397e+01	1.380312e+02
2.710000e-06	3.609994e-06	2.044159e-09	2.569812e+01	1.392040e+02
2.720000e-06	3.643775e-06	2.061972e-09	2.593859e+01	1.403395e+02
2.730000e-06	3.676916e-06	2.084166e-09	2.617451e+01	1.414384e+02
2.740000e-06	3.709659e-06	2.103848e-09	2.640759e+01	1.425012e+02
2.750000e-06	3.742227e-06	2.119069e-09	2.663943e+01	1.435285e+02
2.760000e-06	3.774558e-06	2.133487e-09	2.686958e+01	1.445207e+02
2.770000e-06	3.806665e-06	2.148083e-09	2.709814e+01	1.454782e+02
2.780000e-06	3.838609e-06	2.161484e-09	2.732554e+01	1.464014e+02
2.790000e-06	3.870417e-06	2.172434e-09	2.755196e+01	1.472905e+02
2.800000e-06	3.902052e-06	2.183790e-09	2.777716e+01	1.481459e+02
2.810000e-06	3.933516e-06	2.196302e-09	2.800114e+01	1.489679e+02
2.820000e-06	3.964786e-06	2.209953e-09	2.822374e+01	1.497571e+02
2.830000e-06	3.995668e-06	2.222261e-09	2.844358e+01	1.505138e+02
2.840000e-06	4.026199e-06	2.231279e-09	2.866092e+01	1.512386e+02
2.850000e-06	4.056521e-06	2.239063e-09	2.887676e+01	1.519322e+02
2.860000e-06	4.086602e-06	2.250767e-09	2.909090e+01	1.525952e+02
2.870000e-06	4.116420e-06	2.264618e-09	2.930317e+01	1.532285e+02
2.880000e-06	4.145996e-06	2.273871e-09	2.951370e+01	1.538331e+02
2.890000e-06	4.175285e-06	2.278005e-09	2.972220e+01	1.544100e+02
2.900000e-06	4.204175e-06	2.280545e-09	2.992786e+01	1.549604e+02
