# Temperatura_=_-1.13
# Concentracion g/m^3_=_4090.0
# C_Vs_to_Am_M_A/Vsm_=_65563218390.804596
# pendiente_HvsI_1/m_=_3716.3
# ordenada_HvsI_A/m_=_1297.0
# frecuencia_Hz_=_135074.3150571219

Tiempo_(s)	Campo_(V.s)	Magnetizacion_(V.s)	Campo_(kA/m)	Magnetizacion_(A/m)
0.000000e+00	-5.387424e-06	-2.655253e-09	-3.838783e+01	-1.703514e+02
1.000000e-08	-5.387598e-06	-2.657356e-09	-3.838908e+01	-1.703704e+02
2.000000e-08	-5.387580e-06	-2.658270e-09	-3.838895e+01	-1.703955e+02
3.000000e-08	-5.387327e-06	-2.655708e-09	-3.838714e+01	-1.704282e+02
4.000000e-08	-5.386732e-06	-2.652353e-09	-3.838290e+01	-1.704698e+02
5.000000e-08	-5.385676e-06	-2.649507e-09	-3.837538e+01	-1.705214e+02
6.000000e-08	-5.384045e-06	-2.647314e-09	-3.836376e+01	-1.705843e+02
7.000000e-08	-5.381890e-06	-2.647455e-09	-3.834840e+01	-1.706593e+02
8.000000e-08	-5.379185e-06	-2.643401e-09	-3.832913e+01	-1.707474e+02
9.000000e-08	-5.375810e-06	-2.653559e-09	-3.830508e+01	-1.708492e+02
1.000000e-07	-5.371905e-06	-2.702800e-09	-3.827725e+01	-1.709652e+02
1.100000e-07	-5.367628e-06	-2.725325e-09	-3.824678e+01	-1.710958e+02
1.200000e-07	-5.363182e-06	-2.642980e-09	-3.821510e+01	-1.712408e+02
1.300000e-07	-5.358695e-06	-2.608213e-09	-3.818312e+01	-1.714003e+02
1.400000e-07	-5.353876e-06	-2.645904e-09	-3.814879e+01	-1.715737e+02
1.500000e-07	-5.348508e-06	-2.693705e-09	-3.811054e+01	-1.717605e+02
1.600000e-07	-5.342775e-06	-2.609408e-09	-3.806969e+01	-1.719597e+02
1.700000e-07	-5.336779e-06	-2.581156e-09	-3.802697e+01	-1.721702e+02
1.800000e-07	-5.330309e-06	-2.705755e-09	-3.798086e+01	-1.723908e+02
1.900000e-07	-5.323244e-06	-2.761182e-09	-3.793052e+01	-1.726200e+02
2.000000e-07	-5.315831e-06	-2.688684e-09	-3.787770e+01	-1.728560e+02
2.100000e-07	-5.308338e-06	-2.631217e-09	-3.782431e+01	-1.730970e+02
2.200000e-07	-5.300702e-06	-2.721053e-09	-3.776990e+01	-1.733412e+02
2.300000e-07	-5.292816e-06	-2.726244e-09	-3.771371e+01	-1.735865e+02
2.400000e-07	-5.284635e-06	-2.680617e-09	-3.765541e+01	-1.738308e+02
2.500000e-07	-5.276034e-06	-2.700106e-09	-3.759413e+01	-1.740720e+02
2.600000e-07	-5.266705e-06	-2.785387e-09	-3.752766e+01	-1.743080e+02
2.700000e-07	-5.256504e-06	-2.751019e-09	-3.745497e+01	-1.745366e+02
2.800000e-07	-5.245817e-06	-2.712220e-09	-3.737882e+01	-1.747560e+02
2.900000e-07	-5.234797e-06	-2.748644e-09	-3.730029e+01	-1.749641e+02
3.000000e-07	-5.223354e-06	-2.758176e-09	-3.721876e+01	-1.751592e+02
3.100000e-07	-5.211521e-06	-2.678776e-09	-3.713444e+01	-1.753397e+02
3.200000e-07	-5.199277e-06	-2.690277e-09	-3.704720e+01	-1.755042e+02
3.300000e-07	-5.186658e-06	-2.768819e-09	-3.695728e+01	-1.756512e+02
3.400000e-07	-5.173650e-06	-2.743057e-09	-3.686459e+01	-1.757798e+02
3.500000e-07	-5.160331e-06	-2.678628e-09	-3.676970e+01	-1.758892e+02
3.600000e-07	-5.146656e-06	-2.711209e-09	-3.667225e+01	-1.759788e+02
3.700000e-07	-5.132559e-06	-2.744881e-09	-3.657181e+01	-1.760481e+02
3.800000e-07	-5.118113e-06	-2.702721e-09	-3.646887e+01	-1.760970e+02
3.900000e-07	-5.103230e-06	-2.694796e-09	-3.636282e+01	-1.761256e+02
4.000000e-07	-5.087635e-06	-2.716843e-09	-3.625170e+01	-1.761342e+02
4.100000e-07	-5.071386e-06	-2.707931e-09	-3.613592e+01	-1.761233e+02
4.200000e-07	-5.054773e-06	-2.701696e-09	-3.601754e+01	-1.760936e+02
4.300000e-07	-5.037853e-06	-2.722107e-09	-3.589698e+01	-1.760458e+02
4.400000e-07	-5.020689e-06	-2.690397e-09	-3.577468e+01	-1.759810e+02
4.500000e-07	-5.003228e-06	-2.672877e-09	-3.565027e+01	-1.759004e+02
4.600000e-07	-4.985455e-06	-2.702720e-09	-3.552362e+01	-1.758052e+02
4.700000e-07	-4.967271e-06	-2.719816e-09	-3.539406e+01	-1.756965e+02
4.800000e-07	-4.948677e-06	-2.675754e-09	-3.526157e+01	-1.755759e+02
4.900000e-07	-4.929651e-06	-2.672905e-09	-3.512599e+01	-1.754447e+02
5.000000e-07	-4.910147e-06	-2.687466e-09	-3.498702e+01	-1.753042e+02
5.100000e-07	-4.890406e-06	-2.689117e-09	-3.484636e+01	-1.751559e+02
5.200000e-07	-4.870515e-06	-2.667361e-09	-3.470462e+01	-1.750011e+02
5.300000e-07	-4.850465e-06	-2.669799e-09	-3.456176e+01	-1.748409e+02
5.400000e-07	-4.830261e-06	-2.679532e-09	-3.441779e+01	-1.746766e+02
5.500000e-07	-4.809728e-06	-2.698567e-09	-3.427149e+01	-1.745093e+02
5.600000e-07	-4.788657e-06	-2.687242e-09	-3.412135e+01	-1.743400e+02
5.700000e-07	-4.767232e-06	-2.665222e-09	-3.396868e+01	-1.741696e+02
5.800000e-07	-4.745534e-06	-2.655348e-09	-3.381408e+01	-1.739987e+02
5.900000e-07	-4.723507e-06	-2.662081e-09	-3.365712e+01	-1.738281e+02
6.000000e-07	-4.701220e-06	-2.656467e-09	-3.349832e+01	-1.736583e+02
6.100000e-07	-4.678608e-06	-2.654114e-09	-3.333720e+01	-1.734895e+02
6.200000e-07	-4.655585e-06	-2.652532e-09	-3.317315e+01	-1.733222e+02
6.300000e-07	-4.632200e-06	-2.654677e-09	-3.300652e+01	-1.731565e+02
6.400000e-07	-4.608595e-06	-2.657727e-09	-3.283833e+01	-1.729924e+02
6.500000e-07	-4.584838e-06	-2.643406e-09	-3.266904e+01	-1.728299e+02
6.600000e-07	-4.560913e-06	-2.620290e-09	-3.249857e+01	-1.726689e+02
6.700000e-07	-4.536756e-06	-2.619320e-09	-3.232644e+01	-1.725091e+02
6.800000e-07	-4.512238e-06	-2.629544e-09	-3.215174e+01	-1.723505e+02
6.900000e-07	-4.487281e-06	-2.620796e-09	-3.197391e+01	-1.721926e+02
7.000000e-07	-4.461826e-06	-2.614179e-09	-3.179253e+01	-1.720351e+02
7.100000e-07	-4.435739e-06	-2.616417e-09	-3.160665e+01	-1.718776e+02
7.200000e-07	-4.409030e-06	-2.620040e-09	-3.141633e+01	-1.717198e+02
7.300000e-07	-4.381906e-06	-2.610578e-09	-3.122306e+01	-1.715613e+02
7.400000e-07	-4.354492e-06	-2.601109e-09	-3.102773e+01	-1.714017e+02
7.500000e-07	-4.326836e-06	-2.590573e-09	-3.083066e+01	-1.712406e+02
7.600000e-07	-4.298960e-06	-2.593703e-09	-3.063204e+01	-1.710776e+02
7.700000e-07	-4.270909e-06	-2.590699e-09	-3.043216e+01	-1.709125e+02
7.800000e-07	-4.242695e-06	-2.583088e-09	-3.023112e+01	-1.707448e+02
7.900000e-07	-4.214223e-06	-2.576064e-09	-3.002825e+01	-1.705742e+02
8.000000e-07	-4.185489e-06	-2.583611e-09	-2.982350e+01	-1.704005e+02
8.100000e-07	-4.156367e-06	-2.582731e-09	-2.961600e+01	-1.702234e+02
8.200000e-07	-4.126925e-06	-2.575486e-09	-2.940621e+01	-1.700426e+02
8.300000e-07	-4.097291e-06	-2.567737e-09	-2.919505e+01	-1.698578e+02
8.400000e-07	-4.067355e-06	-2.569181e-09	-2.898175e+01	-1.696690e+02
8.500000e-07	-4.037128e-06	-2.567218e-09	-2.876636e+01	-1.694758e+02
8.600000e-07	-4.006614e-06	-2.560247e-09	-2.854894e+01	-1.692780e+02
8.700000e-07	-3.975822e-06	-2.547042e-09	-2.832953e+01	-1.690755e+02
8.800000e-07	-3.944821e-06	-2.542233e-09	-2.810863e+01	-1.688681e+02
8.900000e-07	-3.913538e-06	-2.541667e-09	-2.788573e+01	-1.686556e+02
9.000000e-07	-3.881992e-06	-2.540629e-09	-2.766095e+01	-1.684377e+02
9.100000e-07	-3.850302e-06	-2.534686e-09	-2.743514e+01	-1.682144e+02
9.200000e-07	-3.818483e-06	-2.531677e-09	-2.720842e+01	-1.679855e+02
9.300000e-07	-3.786449e-06	-2.532617e-09	-2.698016e+01	-1.677507e+02
9.400000e-07	-3.754208e-06	-2.530416e-09	-2.675043e+01	-1.675100e+02
9.500000e-07	-3.721781e-06	-2.520512e-09	-2.651937e+01	-1.672631e+02
9.600000e-07	-3.688970e-06	-2.509760e-09	-2.628558e+01	-1.670100e+02
9.700000e-07	-3.655692e-06	-2.507064e-09	-2.604846e+01	-1.667505e+02
9.800000e-07	-3.621966e-06	-2.507437e-09	-2.580815e+01	-1.664846e+02
9.900000e-07	-3.587813e-06	-2.502698e-09	-2.556479e+01	-1.662122e+02
1.000000e-06	-3.553367e-06	-2.494811e-09	-2.531934e+01	-1.659332e+02
1.010000e-06	-3.518583e-06	-2.494648e-09	-2.507149e+01	-1.656476e+02
1.020000e-06	-3.483420e-06	-2.499106e-09	-2.482094e+01	-1.653556e+02
1.030000e-06	-3.447977e-06	-2.500275e-09	-2.456839e+01	-1.650572e+02
1.040000e-06	-3.412304e-06	-2.489878e-09	-2.431421e+01	-1.647525e+02
1.050000e-06	-3.376449e-06	-2.479877e-09	-2.405873e+01	-1.644417e+02
1.060000e-06	-3.340413e-06	-2.469189e-09	-2.380195e+01	-1.641250e+02
1.070000e-06	-3.304277e-06	-2.460170e-09	-2.354447e+01	-1.638027e+02
1.080000e-06	-3.268022e-06	-2.448002e-09	-2.328614e+01	-1.634752e+02
1.090000e-06	-3.231582e-06	-2.439810e-09	-2.302649e+01	-1.631427e+02
1.100000e-06	-3.194919e-06	-2.436287e-09	-2.276525e+01	-1.628056e+02
1.110000e-06	-3.157993e-06	-2.438930e-09	-2.250213e+01	-1.624644e+02
1.120000e-06	-3.120824e-06	-2.437610e-09	-2.223728e+01	-1.621193e+02
1.130000e-06	-3.083370e-06	-2.431313e-09	-2.197041e+01	-1.617709e+02
1.140000e-06	-3.045684e-06	-2.420374e-09	-2.170188e+01	-1.614195e+02
1.150000e-06	-3.007865e-06	-2.410322e-09	-2.143240e+01	-1.610655e+02
1.160000e-06	-2.969908e-06	-2.401122e-09	-2.116194e+01	-1.607092e+02
1.170000e-06	-2.931791e-06	-2.392266e-09	-2.089033e+01	-1.603509e+02
1.180000e-06	-2.893426e-06	-2.383021e-09	-2.061697e+01	-1.599908e+02
1.190000e-06	-2.854752e-06	-2.379988e-09	-2.034140e+01	-1.596292e+02
1.200000e-06	-2.815870e-06	-2.381320e-09	-2.006435e+01	-1.592660e+02
1.210000e-06	-2.776877e-06	-2.379298e-09	-1.978650e+01	-1.589013e+02
1.220000e-06	-2.737639e-06	-2.370597e-09	-1.950691e+01	-1.585350e+02
1.230000e-06	-2.698126e-06	-2.361084e-09	-1.922537e+01	-1.581668e+02
1.240000e-06	-2.658493e-06	-2.351447e-09	-1.894296e+01	-1.577964e+02
1.250000e-06	-2.618713e-06	-2.341443e-09	-1.865952e+01	-1.574234e+02
1.260000e-06	-2.578801e-06	-2.331204e-09	-1.837512e+01	-1.570473e+02
1.270000e-06	-2.538836e-06	-2.322392e-09	-1.809035e+01	-1.566673e+02
1.280000e-06	-2.498817e-06	-2.319570e-09	-1.780520e+01	-1.562827e+02
1.290000e-06	-2.458682e-06	-2.318433e-09	-1.751922e+01	-1.558927e+02
1.300000e-06	-2.418332e-06	-2.312884e-09	-1.723171e+01	-1.554963e+02
1.310000e-06	-2.377790e-06	-2.303344e-09	-1.694283e+01	-1.550924e+02
1.320000e-06	-2.337207e-06	-2.296313e-09	-1.665365e+01	-1.546801e+02
1.330000e-06	-2.296512e-06	-2.287859e-09	-1.636369e+01	-1.542581e+02
1.340000e-06	-2.255526e-06	-2.277114e-09	-1.607164e+01	-1.538253e+02
1.350000e-06	-2.214174e-06	-2.264176e-09	-1.577699e+01	-1.533806e+02
1.360000e-06	-2.172445e-06	-2.253835e-09	-1.547966e+01	-1.529228e+02
1.370000e-06	-2.130523e-06	-2.245602e-09	-1.518094e+01	-1.524508e+02
1.380000e-06	-2.088448e-06	-2.237377e-09	-1.488114e+01	-1.519634e+02
1.390000e-06	-2.046132e-06	-2.226317e-09	-1.457962e+01	-1.514597e+02
1.400000e-06	-2.003652e-06	-2.217063e-09	-1.427693e+01	-1.509388e+02
1.410000e-06	-1.960923e-06	-2.211876e-09	-1.397246e+01	-1.503997e+02
1.420000e-06	-1.917891e-06	-2.205753e-09	-1.366584e+01	-1.498417e+02
1.430000e-06	-1.874651e-06	-2.192410e-09	-1.335774e+01	-1.492643e+02
1.440000e-06	-1.831200e-06	-2.179346e-09	-1.304813e+01	-1.486669e+02
1.450000e-06	-1.787584e-06	-2.170128e-09	-1.273735e+01	-1.480491e+02
1.460000e-06	-1.743895e-06	-2.162103e-09	-1.242604e+01	-1.474108e+02
1.470000e-06	-1.700168e-06	-2.150022e-09	-1.211446e+01	-1.467517e+02
1.480000e-06	-1.656389e-06	-2.135653e-09	-1.180252e+01	-1.460718e+02
1.490000e-06	-1.612500e-06	-2.124304e-09	-1.148979e+01	-1.453713e+02
1.500000e-06	-1.568551e-06	-2.115741e-09	-1.117663e+01	-1.446505e+02
1.510000e-06	-1.524575e-06	-2.104714e-09	-1.086329e+01	-1.439094e+02
1.520000e-06	-1.480499e-06	-2.089688e-09	-1.054922e+01	-1.431486e+02
1.530000e-06	-1.436363e-06	-2.074361e-09	-1.023474e+01	-1.423683e+02
1.540000e-06	-1.392168e-06	-2.063249e-09	-9.919823e+00	-1.415691e+02
1.550000e-06	-1.347860e-06	-2.053308e-09	-9.604110e+00	-1.407512e+02
1.560000e-06	-1.303461e-06	-2.039820e-09	-9.287752e+00	-1.399151e+02
1.570000e-06	-1.259029e-06	-2.026354e-09	-8.971152e+00	-1.390610e+02
1.580000e-06	-1.214494e-06	-2.017438e-09	-8.653817e+00	-1.381893e+02
1.590000e-06	-1.169874e-06	-2.008669e-09	-8.335881e+00	-1.373000e+02
1.600000e-06	-1.125243e-06	-1.993932e-09	-8.017865e+00	-1.363932e+02
1.610000e-06	-1.080524e-06	-1.976824e-09	-7.699220e+00	-1.354687e+02
1.620000e-06	-1.035748e-06	-1.962807e-09	-7.380176e+00	-1.345262e+02
1.630000e-06	-9.909135e-07	-1.949797e-09	-7.060707e+00	-1.335651e+02
1.640000e-06	-9.459931e-07	-1.932567e-09	-6.740629e+00	-1.325849e+02
1.650000e-06	-9.010418e-07	-1.914113e-09	-6.420330e+00	-1.315847e+02
1.660000e-06	-8.559534e-07	-1.899280e-09	-6.099055e+00	-1.305633e+02
1.670000e-06	-8.107633e-07	-1.889545e-09	-5.777055e+00	-1.295195e+02
1.680000e-06	-7.655294e-07	-1.877074e-09	-5.454743e+00	-1.284517e+02
1.690000e-06	-7.202185e-07	-1.858133e-09	-5.131882e+00	-1.273584e+02
1.700000e-06	-6.748321e-07	-1.839175e-09	-4.808484e+00	-1.262375e+02
1.710000e-06	-6.294392e-07	-1.823366e-09	-4.485039e+00	-1.250872e+02
1.720000e-06	-5.840493e-07	-1.804311e-09	-4.161616e+00	-1.239052e+02
1.730000e-06	-5.385792e-07	-1.780052e-09	-3.837620e+00	-1.226893e+02
1.740000e-06	-4.929769e-07	-1.757607e-09	-3.512683e+00	-1.214370e+02
1.750000e-06	-4.473495e-07	-1.742225e-09	-3.187568e+00	-1.201459e+02
1.760000e-06	-4.017586e-07	-1.728849e-09	-2.862712e+00	-1.188135e+02
1.770000e-06	-3.561833e-07	-1.713042e-09	-2.537967e+00	-1.174374e+02
1.780000e-06	-3.106236e-07	-1.693162e-09	-2.213334e+00	-1.160150e+02
1.790000e-06	-2.649298e-07	-1.672540e-09	-1.887745e+00	-1.145440e+02
1.800000e-06	-2.191577e-07	-1.648953e-09	-1.561598e+00	-1.130220e+02
1.810000e-06	-1.734118e-07	-1.618959e-09	-1.235637e+00	-1.114468e+02
1.820000e-06	-1.276933e-07	-1.587134e-09	-9.098725e-01	-1.098165e+02
1.830000e-06	-8.197960e-08	-1.559611e-09	-5.841417e-01	-1.081290e+02
1.840000e-06	-3.621766e-08	-1.537415e-09	-2.580672e-01	-1.063826e+02
1.850000e-06	9.517440e-09	-1.516802e-09	6.781606e-02	-1.045759e+02
1.860000e-06	5.527237e-08	-1.494087e-09	3.938407e-01	-1.027076e+02
1.870000e-06	1.010564e-07	-1.466978e-09	7.200728e-01	-1.007766e+02
1.880000e-06	1.467194e-07	-1.435944e-09	1.045442e+00	-9.878215e+01
1.890000e-06	1.923095e-07	-1.400371e-09	1.370292e+00	-9.672357e+01
1.900000e-06	2.379497e-07	-1.361696e-09	1.695499e+00	-9.460055e+01
1.910000e-06	2.836370e-07	-1.324848e-09	2.021042e+00	-9.241297e+01
1.920000e-06	3.292685e-07	-1.290351e-09	2.346187e+00	-9.016091e+01
1.930000e-06	3.748554e-07	-1.257105e-09	2.671014e+00	-8.784469e+01
1.940000e-06	4.204916e-07	-1.226325e-09	2.996193e+00	-8.546480e+01
1.950000e-06	4.661187e-07	-1.196672e-09	3.321307e+00	-8.302189e+01
1.960000e-06	5.116101e-07	-1.164348e-09	3.645454e+00	-8.051679e+01
1.970000e-06	5.569597e-07	-1.126013e-09	3.968590e+00	-7.795046e+01
1.980000e-06	6.022957e-07	-1.083762e-09	4.291629e+00	-7.532394e+01
1.990000e-06	6.476532e-07	-1.040067e-09	4.614822e+00	-7.263841e+01
2.000000e-06	6.929909e-07	-9.967660e-10	4.937874e+00	-6.989509e+01
2.010000e-06	7.382493e-07	-9.534464e-10	5.260360e+00	-6.709526e+01
2.020000e-06	7.833842e-07	-9.108161e-10	5.581967e+00	-6.424024e+01
2.030000e-06	8.284186e-07	-8.691249e-10	5.902857e+00	-6.133138e+01
2.040000e-06	8.734601e-07	-8.279138e-10	6.223798e+00	-5.837003e+01
2.050000e-06	9.185342e-07	-7.833564e-10	6.544972e+00	-5.535754e+01
2.060000e-06	9.635216e-07	-7.357415e-10	6.865527e+00	-5.229528e+01
2.070000e-06	1.008458e-06	-6.858895e-10	7.185721e+00	-4.918459e+01
2.080000e-06	1.053291e-06	-6.365747e-10	7.505173e+00	-4.602684e+01
2.090000e-06	1.098001e-06	-5.903954e-10	7.823757e+00	-4.282338e+01
2.100000e-06	1.142613e-06	-5.450365e-10	8.141634e+00	-3.957560e+01
2.110000e-06	1.187081e-06	-5.016704e-10	8.458488e+00	-3.628488e+01
2.120000e-06	1.231516e-06	-4.558033e-10	8.775106e+00	-3.295268e+01
2.130000e-06	1.275892e-06	-4.044090e-10	9.091306e+00	-2.958051e+01
2.140000e-06	1.320133e-06	-3.483290e-10	9.406547e+00	-2.616995e+01
2.150000e-06	1.364370e-06	-2.909589e-10	9.721753e+00	-2.272269e+01
2.160000e-06	1.408562e-06	-2.356364e-10	1.003664e+01	-1.924054e+01
2.170000e-06	1.452642e-06	-1.830787e-10	1.035073e+01	-1.572545e+01
2.180000e-06	1.496662e-06	-1.321071e-10	1.066439e+01	-1.217953e+01
2.190000e-06	1.540638e-06	-8.308420e-11	1.097775e+01	-8.605078e+00
2.200000e-06	1.584617e-06	-3.664265e-11	1.129111e+01	-5.004588e+00
2.210000e-06	1.628566e-06	1.093310e-11	1.160427e+01	-1.380767e+00
2.220000e-06	1.672442e-06	6.641799e-11	1.191690e+01	2.263458e+00
2.230000e-06	1.716233e-06	1.278260e-10	1.222894e+01	5.924929e+00
2.240000e-06	1.759933e-06	1.887340e-10	1.254032e+01	9.600254e+00
2.250000e-06	1.803505e-06	2.448991e-10	1.285079e+01	1.328581e+01
2.260000e-06	1.846945e-06	2.983809e-10	1.316032e+01	1.697776e+01
2.270000e-06	1.890220e-06	3.499822e-10	1.346867e+01	2.067205e+01
2.280000e-06	1.933235e-06	3.985066e-10	1.377518e+01	2.436441e+01
2.290000e-06	1.976031e-06	4.450552e-10	1.408012e+01	2.805044e+01
2.300000e-06	2.018685e-06	4.966902e-10	1.438405e+01	3.172557e+01
2.310000e-06	2.061180e-06	5.545434e-10	1.468684e+01	3.538510e+01
2.320000e-06	2.103373e-06	6.121470e-10	1.498749e+01	3.902427e+01
2.330000e-06	2.145272e-06	6.665215e-10	1.528603e+01	4.263827e+01
2.340000e-06	2.187083e-06	7.185682e-10	1.558396e+01	4.622229e+01
2.350000e-06	2.228663e-06	7.703089e-10	1.588023e+01	4.977154e+01
2.360000e-06	2.269873e-06	8.216825e-10	1.617388e+01	5.328134e+01
2.370000e-06	2.310695e-06	8.716817e-10	1.646474e+01	5.674712e+01
2.380000e-06	2.351207e-06	9.194412e-10	1.675341e+01	6.016449e+01
2.390000e-06	2.391560e-06	9.669185e-10	1.704095e+01	6.352924e+01
2.400000e-06	2.431768e-06	1.013868e-09	1.732745e+01	6.683746e+01
2.410000e-06	2.471844e-06	1.059756e-09	1.761301e+01	7.008550e+01
2.420000e-06	2.511821e-06	1.102928e-09	1.789786e+01	7.327002e+01
2.430000e-06	2.551738e-06	1.149159e-09	1.818229e+01	7.638807e+01
2.440000e-06	2.591547e-06	1.200674e-09	1.846595e+01	7.943704e+01
2.450000e-06	2.631330e-06	1.250492e-09	1.874941e+01	8.241474e+01
2.460000e-06	2.671043e-06	1.291467e-09	1.903239e+01	8.531936e+01
2.470000e-06	2.710568e-06	1.327485e-09	1.931402e+01	8.814955e+01
2.480000e-06	2.749806e-06	1.362817e-09	1.959361e+01	9.090432e+01
2.490000e-06	2.788735e-06	1.397526e-09	1.987100e+01	9.358315e+01
2.500000e-06	2.827504e-06	1.432540e-09	2.014724e+01	9.618588e+01
2.510000e-06	2.866099e-06	1.469427e-09	2.042225e+01	9.871275e+01
2.520000e-06	2.904427e-06	1.510263e-09	2.069535e+01	1.011644e+02
2.530000e-06	2.942561e-06	1.550266e-09	2.096708e+01	1.035417e+02
2.540000e-06	2.980550e-06	1.582155e-09	2.123777e+01	1.058459e+02
2.550000e-06	3.018426e-06	1.609416e-09	2.150765e+01	1.080786e+02
2.560000e-06	3.056170e-06	1.640325e-09	2.177659e+01	1.102414e+02
2.570000e-06	3.093631e-06	1.672926e-09	2.204352e+01	1.123364e+02
2.580000e-06	3.130928e-06	1.699277e-09	2.230928e+01	1.143656e+02
2.590000e-06	3.168029e-06	1.722764e-09	2.257364e+01	1.163312e+02
2.600000e-06	3.204862e-06	1.751556e-09	2.283609e+01	1.182356e+02
2.610000e-06	3.241441e-06	1.782729e-09	2.309673e+01	1.200809e+02
2.620000e-06	3.277708e-06	1.809581e-09	2.335515e+01	1.218694e+02
2.630000e-06	3.313815e-06	1.834954e-09	2.361243e+01	1.236035e+02
2.640000e-06	3.349805e-06	1.864142e-09	2.386887e+01	1.252853e+02
2.650000e-06	3.385685e-06	1.892734e-09	2.412454e+01	1.269167e+02
2.660000e-06	3.421471e-06	1.913675e-09	2.437953e+01	1.284999e+02
2.670000e-06	3.457149e-06	1.929022e-09	2.463375e+01	1.300364e+02
2.680000e-06	3.492584e-06	1.947106e-09	2.488624e+01	1.315280e+02
2.690000e-06	3.527660e-06	1.968970e-09	2.513618e+01	1.329761e+02
2.700000e-06	3.562447e-06	1.988963e-09	2.538405e+01	1.343819e+02
2.710000e-06	3.596927e-06	2.005513e-09	2.562973e+01	1.357464e+02
2.720000e-06	3.630882e-06	2.024825e-09	2.587168e+01	1.370707e+02
2.730000e-06	3.664261e-06	2.048191e-09	2.610952e+01	1.383555e+02
2.740000e-06	3.697246e-06	2.069720e-09	2.634455e+01	1.396012e+02
2.750000e-06	3.729918e-06	2.085637e-09	2.657735e+01	1.408085e+02
2.760000e-06	3.762269e-06	2.102029e-09	2.680787e+01	1.419776e+02
2.770000e-06	3.794411e-06	2.121123e-09	2.703689e+01	1.431089e+02
2.780000e-06	3.826432e-06	2.137090e-09	2.726506e+01	1.442025e+02
2.790000e-06	3.858326e-06	2.149053e-09	2.749232e+01	1.452585e+02
2.800000e-06	3.890019e-06	2.162473e-09	2.771815e+01	1.462772e+02
2.810000e-06	3.921397e-06	2.179582e-09	2.794172e+01	1.472586e+02
2.820000e-06	3.952545e-06	2.195717e-09	2.816367e+01	1.482031e+02
2.830000e-06	3.983471e-06	2.205818e-09	2.838403e+01	1.491108e+02
2.840000e-06	4.014022e-06	2.213881e-09	2.860172e+01	1.499820e+02
2.850000e-06	4.044179e-06	2.225857e-09	2.881660e+01	1.508173e+02
2.860000e-06	4.074097e-06	2.240165e-09	2.902978e+01	1.516171e+02
2.870000e-06	4.103863e-06	2.253069e-09	2.924188e+01	1.523821e+02
2.880000e-06	4.133450e-06	2.263359e-09	2.945270e+01	1.531131e+02
2.890000e-06	4.162801e-06	2.273433e-09	2.966184e+01	1.538110e+02
2.900000e-06	4.191830e-06	2.283348e-09	2.986868e+01	1.544768e+02
