# Temperatura_=_17.91
# Concentracion g/m^3_=_4090.0
# C_Vs_to_Am_M_A/Vsm_=_65563218390.804596
# pendiente_HvsI_1/m_=_3716.3
# ordenada_HvsI_A/m_=_1297.0
# frecuencia_Hz_=_135078.08035864425

Tiempo_(s)	Campo_(V.s)	Magnetizacion_(V.s)	Campo_(kA/m)	Magnetizacion_(A/m)
0.000000e+00	-5.411577e-06	-2.660371e-09	-3.840108e+01	-1.717687e+02
1.000000e-08	-5.411687e-06	-2.659261e-09	-3.840186e+01	-1.717600e+02
2.000000e-08	-5.411608e-06	-2.659821e-09	-3.840131e+01	-1.717496e+02
3.000000e-08	-5.411320e-06	-2.662023e-09	-3.839926e+01	-1.717386e+02
4.000000e-08	-5.410712e-06	-2.664175e-09	-3.839495e+01	-1.717281e+02
5.000000e-08	-5.409670e-06	-2.663895e-09	-3.838755e+01	-1.717195e+02
6.000000e-08	-5.408122e-06	-2.660010e-09	-3.837657e+01	-1.717140e+02
7.000000e-08	-5.405926e-06	-2.659330e-09	-3.836098e+01	-1.717129e+02
8.000000e-08	-5.403055e-06	-2.665833e-09	-3.834061e+01	-1.717174e+02
9.000000e-08	-5.399563e-06	-2.676566e-09	-3.831583e+01	-1.717287e+02
1.000000e-07	-5.395482e-06	-2.672764e-09	-3.828687e+01	-1.717479e+02
1.100000e-07	-5.391098e-06	-2.671814e-09	-3.825576e+01	-1.717759e+02
1.200000e-07	-5.386701e-06	-2.654324e-09	-3.822456e+01	-1.718136e+02
1.300000e-07	-5.382186e-06	-2.645496e-09	-3.819252e+01	-1.718617e+02
1.400000e-07	-5.377234e-06	-2.633032e-09	-3.815738e+01	-1.719205e+02
1.500000e-07	-5.371786e-06	-2.638459e-09	-3.811872e+01	-1.719905e+02
1.600000e-07	-5.365983e-06	-2.635649e-09	-3.807755e+01	-1.720715e+02
1.700000e-07	-5.359767e-06	-2.635832e-09	-3.803344e+01	-1.721635e+02
1.800000e-07	-5.353094e-06	-2.628545e-09	-3.798608e+01	-1.722661e+02
1.900000e-07	-5.346125e-06	-2.661196e-09	-3.793663e+01	-1.723787e+02
2.000000e-07	-5.338859e-06	-2.656202e-09	-3.788507e+01	-1.725003e+02
2.100000e-07	-5.331357e-06	-2.625665e-09	-3.783183e+01	-1.726299e+02
2.200000e-07	-5.323609e-06	-2.599443e-09	-3.777685e+01	-1.727663e+02
2.300000e-07	-5.315530e-06	-2.627245e-09	-3.771953e+01	-1.729081e+02
2.400000e-07	-5.307156e-06	-2.641446e-09	-3.766010e+01	-1.730535e+02
2.500000e-07	-5.298340e-06	-2.633862e-09	-3.759754e+01	-1.732010e+02
2.600000e-07	-5.288814e-06	-2.652106e-09	-3.752995e+01	-1.733486e+02
2.700000e-07	-5.278599e-06	-2.674320e-09	-3.745746e+01	-1.734945e+02
2.800000e-07	-5.267816e-06	-2.672371e-09	-3.738094e+01	-1.736366e+02
2.900000e-07	-5.256523e-06	-2.645616e-09	-3.730080e+01	-1.737731e+02
3.000000e-07	-5.244803e-06	-2.646985e-09	-3.721764e+01	-1.739019e+02
3.100000e-07	-5.232729e-06	-2.649222e-09	-3.713196e+01	-1.740212e+02
3.200000e-07	-5.220357e-06	-2.655844e-09	-3.704417e+01	-1.741292e+02
3.300000e-07	-5.207586e-06	-2.651394e-09	-3.695354e+01	-1.742241e+02
3.400000e-07	-5.194416e-06	-2.670116e-09	-3.686008e+01	-1.743044e+02
3.500000e-07	-5.180881e-06	-2.655902e-09	-3.676404e+01	-1.743686e+02
3.600000e-07	-5.166944e-06	-2.658619e-09	-3.666515e+01	-1.744157e+02
3.700000e-07	-5.152637e-06	-2.653940e-09	-3.656362e+01	-1.744445e+02
3.800000e-07	-5.137948e-06	-2.652509e-09	-3.645938e+01	-1.744543e+02
3.900000e-07	-5.122689e-06	-2.622113e-09	-3.635111e+01	-1.744445e+02
4.000000e-07	-5.106848e-06	-2.635818e-09	-3.623870e+01	-1.744147e+02
4.100000e-07	-5.090476e-06	-2.649789e-09	-3.612252e+01	-1.743649e+02
4.200000e-07	-5.073665e-06	-2.645516e-09	-3.600323e+01	-1.742950e+02
4.300000e-07	-5.056593e-06	-2.631448e-09	-3.588208e+01	-1.742054e+02
4.400000e-07	-5.039252e-06	-2.643015e-09	-3.575903e+01	-1.740967e+02
4.500000e-07	-5.021604e-06	-2.639085e-09	-3.563379e+01	-1.739696e+02
4.600000e-07	-5.003631e-06	-2.624864e-09	-3.550626e+01	-1.738248e+02
4.700000e-07	-4.985230e-06	-2.616748e-09	-3.537568e+01	-1.736635e+02
4.800000e-07	-4.966414e-06	-2.618255e-09	-3.524217e+01	-1.734867e+02
4.900000e-07	-4.947241e-06	-2.617580e-09	-3.510611e+01	-1.732958e+02
5.000000e-07	-4.927763e-06	-2.621384e-09	-3.496789e+01	-1.730920e+02
5.100000e-07	-4.908043e-06	-2.621349e-09	-3.482796e+01	-1.728767e+02
5.200000e-07	-4.888095e-06	-2.610173e-09	-3.468640e+01	-1.726513e+02
5.300000e-07	-4.867938e-06	-2.608277e-09	-3.454337e+01	-1.724172e+02
5.400000e-07	-4.847537e-06	-2.607561e-09	-3.439860e+01	-1.721757e+02
5.500000e-07	-4.826766e-06	-2.599978e-09	-3.425121e+01	-1.719282e+02
5.600000e-07	-4.805564e-06	-2.586686e-09	-3.410075e+01	-1.716758e+02
5.700000e-07	-4.783980e-06	-2.590202e-09	-3.394759e+01	-1.714197e+02
5.800000e-07	-4.762092e-06	-2.590661e-09	-3.379227e+01	-1.711611e+02
5.900000e-07	-4.740029e-06	-2.584853e-09	-3.363571e+01	-1.709007e+02
6.000000e-07	-4.717661e-06	-2.573506e-09	-3.347699e+01	-1.706394e+02
6.100000e-07	-4.694889e-06	-2.573634e-09	-3.331539e+01	-1.703779e+02
6.200000e-07	-4.671855e-06	-2.568919e-09	-3.315194e+01	-1.701167e+02
6.300000e-07	-4.648445e-06	-2.562981e-09	-3.298582e+01	-1.698562e+02
6.400000e-07	-4.624695e-06	-2.551006e-09	-3.281729e+01	-1.695966e+02
6.500000e-07	-4.600807e-06	-2.549818e-09	-3.264778e+01	-1.693382e+02
6.600000e-07	-4.576727e-06	-2.546835e-09	-3.247690e+01	-1.690810e+02
6.700000e-07	-4.552329e-06	-2.546742e-09	-3.230377e+01	-1.688247e+02
6.800000e-07	-4.527549e-06	-2.536879e-09	-3.212793e+01	-1.685694e+02
6.900000e-07	-4.502257e-06	-2.530197e-09	-3.194846e+01	-1.683147e+02
7.000000e-07	-4.476338e-06	-2.525079e-09	-3.176454e+01	-1.680602e+02
7.100000e-07	-4.449895e-06	-2.524608e-09	-3.157689e+01	-1.678057e+02
7.200000e-07	-4.423024e-06	-2.515595e-09	-3.138621e+01	-1.675505e+02
7.300000e-07	-4.395732e-06	-2.510806e-09	-3.119255e+01	-1.672944e+02
7.400000e-07	-4.368173e-06	-2.510171e-09	-3.099698e+01	-1.670368e+02
7.500000e-07	-4.340448e-06	-2.510099e-09	-3.080025e+01	-1.667773e+02
7.600000e-07	-4.312555e-06	-2.499335e-09	-3.060231e+01	-1.665153e+02
7.700000e-07	-4.284470e-06	-2.489190e-09	-3.040302e+01	-1.662505e+02
7.800000e-07	-4.256146e-06	-2.484096e-09	-3.020203e+01	-1.659825e+02
7.900000e-07	-4.227516e-06	-2.482401e-09	-2.999887e+01	-1.657109e+02
8.000000e-07	-4.198583e-06	-2.478464e-09	-2.979356e+01	-1.654353e+02
8.100000e-07	-4.169415e-06	-2.472411e-09	-2.958658e+01	-1.651556e+02
8.200000e-07	-4.139878e-06	-2.470524e-09	-2.937698e+01	-1.648715e+02
8.300000e-07	-4.110013e-06	-2.469559e-09	-2.916506e+01	-1.645828e+02
8.400000e-07	-4.079882e-06	-2.464540e-09	-2.895124e+01	-1.642895e+02
8.500000e-07	-4.049496e-06	-2.453689e-09	-2.873562e+01	-1.639914e+02
8.600000e-07	-4.018925e-06	-2.444090e-09	-2.851869e+01	-1.636885e+02
8.700000e-07	-3.988045e-06	-2.436131e-09	-2.829956e+01	-1.633808e+02
8.800000e-07	-3.956863e-06	-2.431257e-09	-2.807829e+01	-1.630685e+02
8.900000e-07	-3.925381e-06	-2.422149e-09	-2.785489e+01	-1.627514e+02
9.000000e-07	-3.893683e-06	-2.417347e-09	-2.762996e+01	-1.624298e+02
9.100000e-07	-3.861865e-06	-2.415020e-09	-2.740418e+01	-1.621037e+02
9.200000e-07	-3.829847e-06	-2.416345e-09	-2.717697e+01	-1.617732e+02
9.300000e-07	-3.797610e-06	-2.413454e-09	-2.694821e+01	-1.614385e+02
9.400000e-07	-3.765167e-06	-2.409280e-09	-2.671800e+01	-1.610995e+02
9.500000e-07	-3.732464e-06	-2.401902e-09	-2.648593e+01	-1.607565e+02
9.600000e-07	-3.699404e-06	-2.395750e-09	-2.625133e+01	-1.604095e+02
9.700000e-07	-3.665926e-06	-2.385923e-09	-2.601377e+01	-1.600584e+02
9.800000e-07	-3.632008e-06	-2.378029e-09	-2.577309e+01	-1.597035e+02
9.900000e-07	-3.597604e-06	-2.370666e-09	-2.552895e+01	-1.593446e+02
1.000000e-06	-3.562745e-06	-2.370235e-09	-2.528159e+01	-1.589818e+02
1.010000e-06	-3.527553e-06	-2.372258e-09	-2.503187e+01	-1.586150e+02
1.020000e-06	-3.492073e-06	-2.372127e-09	-2.478009e+01	-1.582442e+02
1.030000e-06	-3.456420e-06	-2.363775e-09	-2.452710e+01	-1.578694e+02
1.040000e-06	-3.420665e-06	-2.354717e-09	-2.427338e+01	-1.574905e+02
1.050000e-06	-3.384784e-06	-2.346457e-09	-2.401876e+01	-1.571073e+02
1.060000e-06	-3.348720e-06	-2.336677e-09	-2.376285e+01	-1.567199e+02
1.070000e-06	-3.312511e-06	-2.324988e-09	-2.350590e+01	-1.563280e+02
1.080000e-06	-3.276176e-06	-2.318019e-09	-2.324807e+01	-1.559317e+02
1.090000e-06	-3.239577e-06	-2.316143e-09	-2.298835e+01	-1.555308e+02
1.100000e-06	-3.202645e-06	-2.313432e-09	-2.272629e+01	-1.551252e+02
1.110000e-06	-3.165425e-06	-2.306765e-09	-2.246217e+01	-1.547149e+02
1.120000e-06	-3.127951e-06	-2.298909e-09	-2.219625e+01	-1.542998e+02
1.130000e-06	-3.090250e-06	-2.295500e-09	-2.192872e+01	-1.538798e+02
1.140000e-06	-3.052375e-06	-2.290780e-09	-2.165995e+01	-1.534548e+02
1.150000e-06	-3.014366e-06	-2.281848e-09	-2.139024e+01	-1.530247e+02
1.160000e-06	-2.976211e-06	-2.271543e-09	-2.111948e+01	-1.525896e+02
1.170000e-06	-2.937902e-06	-2.263357e-09	-2.084764e+01	-1.521492e+02
1.180000e-06	-2.899242e-06	-2.252812e-09	-2.057331e+01	-1.517036e+02
1.190000e-06	-2.860266e-06	-2.239508e-09	-2.029673e+01	-1.512525e+02
1.200000e-06	-2.821098e-06	-2.228294e-09	-2.001879e+01	-1.507959e+02
1.210000e-06	-2.781681e-06	-2.222841e-09	-1.973908e+01	-1.503336e+02
1.220000e-06	-2.742190e-06	-2.219368e-09	-1.945885e+01	-1.498653e+02
1.230000e-06	-2.702612e-06	-2.216269e-09	-1.917800e+01	-1.493909e+02
1.240000e-06	-2.662871e-06	-2.207556e-09	-1.889599e+01	-1.489101e+02
1.250000e-06	-2.623056e-06	-2.197666e-09	-1.861347e+01	-1.484225e+02
1.260000e-06	-2.583118e-06	-2.185710e-09	-1.833006e+01	-1.479278e+02
1.270000e-06	-2.543060e-06	-2.173304e-09	-1.804580e+01	-1.474255e+02
1.280000e-06	-2.502984e-06	-2.159546e-09	-1.776142e+01	-1.469150e+02
1.290000e-06	-2.462793e-06	-2.148329e-09	-1.747622e+01	-1.463959e+02
1.300000e-06	-2.422324e-06	-2.139755e-09	-1.718905e+01	-1.458675e+02
1.310000e-06	-2.381651e-06	-2.135141e-09	-1.690043e+01	-1.453292e+02
1.320000e-06	-2.340896e-06	-2.132618e-09	-1.661123e+01	-1.447802e+02
1.330000e-06	-2.299890e-06	-2.126993e-09	-1.632025e+01	-1.442198e+02
1.340000e-06	-2.258570e-06	-2.116299e-09	-1.602704e+01	-1.436472e+02
1.350000e-06	-2.216847e-06	-2.103592e-09	-1.573096e+01	-1.430616e+02
1.360000e-06	-2.174671e-06	-2.088315e-09	-1.543168e+01	-1.424620e+02
1.370000e-06	-2.132312e-06	-2.072736e-09	-1.513110e+01	-1.418477e+02
1.380000e-06	-2.089953e-06	-2.059465e-09	-1.483052e+01	-1.412179e+02
1.390000e-06	-2.047331e-06	-2.048352e-09	-1.452806e+01	-1.405716e+02
1.400000e-06	-2.004352e-06	-2.040266e-09	-1.422308e+01	-1.399080e+02
1.410000e-06	-1.961220e-06	-2.033931e-09	-1.391701e+01	-1.392265e+02
1.420000e-06	-1.917918e-06	-2.025223e-09	-1.360973e+01	-1.385261e+02
1.430000e-06	-1.874460e-06	-2.012013e-09	-1.330135e+01	-1.378063e+02
1.440000e-06	-1.830831e-06	-1.997731e-09	-1.299175e+01	-1.370664e+02
1.450000e-06	-1.787052e-06	-1.983557e-09	-1.268110e+01	-1.363058e+02
1.460000e-06	-1.743229e-06	-1.969398e-09	-1.237012e+01	-1.355241e+02
1.470000e-06	-1.699387e-06	-1.952782e-09	-1.205902e+01	-1.347207e+02
1.480000e-06	-1.655449e-06	-1.936508e-09	-1.174723e+01	-1.338954e+02
1.490000e-06	-1.611379e-06	-1.924344e-09	-1.143451e+01	-1.330478e+02
1.500000e-06	-1.567285e-06	-1.916046e-09	-1.112161e+01	-1.321777e+02
1.510000e-06	-1.523161e-06	-1.904780e-09	-1.080850e+01	-1.312849e+02
1.520000e-06	-1.478925e-06	-1.888920e-09	-1.049460e+01	-1.303692e+02
1.530000e-06	-1.434612e-06	-1.874133e-09	-1.018015e+01	-1.294305e+02
1.540000e-06	-1.390295e-06	-1.862940e-09	-9.865669e+00	-1.284687e+02
1.550000e-06	-1.345943e-06	-1.850357e-09	-9.550941e+00	-1.274837e+02
1.560000e-06	-1.301487e-06	-1.834289e-09	-9.235478e+00	-1.264754e+02
1.570000e-06	-1.256874e-06	-1.819002e-09	-8.918899e+00	-1.254437e+02
1.580000e-06	-1.212177e-06	-1.805835e-09	-8.601726e+00	-1.243882e+02
1.590000e-06	-1.167412e-06	-1.791224e-09	-8.284073e+00	-1.233088e+02
1.600000e-06	-1.122543e-06	-1.775384e-09	-7.965673e+00	-1.222050e+02
1.610000e-06	-1.077597e-06	-1.759223e-09	-7.646732e+00	-1.210764e+02
1.620000e-06	-1.032481e-06	-1.745211e-09	-7.326590e+00	-1.199224e+02
1.630000e-06	-9.872585e-07	-1.728768e-09	-7.005684e+00	-1.187422e+02
1.640000e-06	-9.420203e-07	-1.709425e-09	-6.684669e+00	-1.175350e+02
1.650000e-06	-8.967626e-07	-1.689127e-09	-6.363516e+00	-1.162997e+02
1.660000e-06	-8.515629e-07	-1.671261e-09	-6.042774e+00	-1.150351e+02
1.670000e-06	-8.062736e-07	-1.655841e-09	-5.721397e+00	-1.137399e+02
1.680000e-06	-7.608562e-07	-1.636691e-09	-5.399111e+00	-1.124125e+02
1.690000e-06	-7.153725e-07	-1.611657e-09	-5.076354e+00	-1.110512e+02
1.700000e-06	-6.697897e-07	-1.586984e-09	-4.752894e+00	-1.096543e+02
1.710000e-06	-6.241766e-07	-1.567802e-09	-4.429218e+00	-1.082196e+02
1.720000e-06	-5.785260e-07	-1.550366e-09	-4.105278e+00	-1.067452e+02
1.730000e-06	-5.327928e-07	-1.529882e-09	-3.780750e+00	-1.052288e+02
1.740000e-06	-4.869875e-07	-1.507659e-09	-3.455711e+00	-1.036681e+02
1.750000e-06	-4.412001e-07	-1.485611e-09	-3.130799e+00	-1.020609e+02
1.760000e-06	-3.954147e-07	-1.459983e-09	-2.805901e+00	-1.004046e+02
1.770000e-06	-3.495606e-07	-1.428359e-09	-2.480517e+00	-9.869711e+01
1.780000e-06	-3.036940e-07	-1.395783e-09	-2.155042e+00	-9.693594e+01
1.790000e-06	-2.578510e-07	-1.370448e-09	-1.829736e+00	-9.511889e+01
1.800000e-06	-2.119399e-07	-1.349331e-09	-1.503946e+00	-9.324382e+01
1.810000e-06	-1.659679e-07	-1.324242e-09	-1.177725e+00	-9.130870e+01
1.820000e-06	-1.200804e-07	-1.294907e-09	-8.521020e-01	-8.931171e+01
1.830000e-06	-7.422467e-08	-1.266484e-09	-5.267056e-01	-8.725119e+01
1.840000e-06	-2.832443e-08	-1.237673e-09	-2.009930e-01	-8.512572e+01
1.850000e-06	1.759162e-08	-1.203490e-09	1.248319e-01	-8.293414e+01
1.860000e-06	6.353153e-08	-1.163075e-09	4.508260e-01	-8.067556e+01
1.870000e-06	1.094459e-07	-1.123906e-09	7.766392e-01	-7.834939e+01
1.880000e-06	1.553937e-07	-1.089571e-09	1.102689e+00	-7.595532e+01
1.890000e-06	2.013553e-07	-1.053696e-09	1.428837e+00	-7.349340e+01
1.900000e-06	2.472816e-07	-1.013791e-09	1.754735e+00	-7.096398e+01
1.910000e-06	2.931883e-07	-9.728045e-10	2.080493e+00	-6.836776e+01
1.920000e-06	3.390780e-07	-9.333832e-10	2.406131e+00	-6.570574e+01
1.930000e-06	3.849799e-07	-8.983485e-10	2.731855e+00	-6.297925e+01
1.940000e-06	4.308600e-07	-8.602663e-10	3.057425e+00	-6.018993e+01
1.950000e-06	4.766883e-07	-8.192121e-10	3.382627e+00	-5.733972e+01
1.960000e-06	5.223823e-07	-7.781415e-10	3.706876e+00	-5.443082e+01
1.970000e-06	5.680246e-07	-7.357202e-10	4.030759e+00	-5.146567e+01
1.980000e-06	6.137136e-07	-6.856384e-10	4.354972e+00	-4.844696e+01
1.990000e-06	6.593460e-07	-6.303433e-10	4.678784e+00	-4.537755e+01
2.000000e-06	7.048589e-07	-5.791177e-10	5.001748e+00	-4.226050e+01
2.010000e-06	7.503353e-07	-5.347697e-10	5.324453e+00	-3.909899e+01
2.020000e-06	7.958337e-07	-4.938042e-10	5.647315e+00	-3.589629e+01
2.030000e-06	8.412502e-07	-4.508506e-10	5.969594e+00	-3.265578e+01
2.040000e-06	8.865335e-07	-4.068566e-10	6.290929e+00	-2.938087e+01
2.050000e-06	9.318261e-07	-3.617726e-10	6.612330e+00	-2.607499e+01
2.060000e-06	9.770862e-07	-3.098341e-10	6.933500e+00	-2.274157e+01
2.070000e-06	1.022177e-06	-2.522394e-10	7.253470e+00	-1.938400e+01
2.080000e-06	1.067112e-06	-1.960228e-10	7.572330e+00	-1.600563e+01
2.090000e-06	1.111921e-06	-1.467937e-10	7.890300e+00	-1.260972e+01
2.100000e-06	1.156647e-06	-1.018085e-10	8.207683e+00	-9.199471e+00
2.110000e-06	1.201265e-06	-5.551783e-11	8.524293e+00	-5.777969e+00
2.120000e-06	1.245795e-06	-7.882424e-12	8.840282e+00	-2.348202e+00
2.130000e-06	1.290279e-06	4.189201e-11	9.155950e+00	1.086950e+00
2.140000e-06	1.334719e-06	9.481555e-11	9.471297e+00	4.524715e+00
2.150000e-06	1.379059e-06	1.519574e-10	9.785938e+00	7.962429e+00
2.160000e-06	1.423275e-06	2.096890e-10	1.009970e+01	1.139753e+01
2.170000e-06	1.467436e-06	2.627206e-10	1.041307e+01	1.482754e+01
2.180000e-06	1.511554e-06	3.104734e-10	1.072613e+01	1.825008e+01
2.190000e-06	1.555670e-06	3.600203e-10	1.103919e+01	2.166284e+01
2.200000e-06	1.599791e-06	4.114632e-10	1.135228e+01	2.506356e+01
2.210000e-06	1.643809e-06	4.601617e-10	1.166463e+01	2.845002e+01
2.220000e-06	1.687743e-06	5.072384e-10	1.197639e+01	3.182007e+01
2.230000e-06	1.731655e-06	5.567195e-10	1.228799e+01	3.517152e+01
2.240000e-06	1.775511e-06	6.063913e-10	1.259920e+01	3.850225e+01
2.250000e-06	1.819259e-06	6.527288e-10	1.290964e+01	4.181010e+01
2.260000e-06	1.862871e-06	6.959894e-10	1.321912e+01	4.509291e+01
2.270000e-06	1.906398e-06	7.426771e-10	1.352799e+01	4.834850e+01
2.280000e-06	1.949830e-06	7.921840e-10	1.383618e+01	5.157467e+01
2.290000e-06	1.993095e-06	8.401206e-10	1.414320e+01	5.476920e+01
2.300000e-06	2.036079e-06	8.849320e-10	1.444822e+01	5.792985e+01
2.310000e-06	2.078772e-06	9.281484e-10	1.475117e+01	6.105437e+01
2.320000e-06	2.121152e-06	9.717144e-10	1.505190e+01	6.414051e+01
2.330000e-06	2.163268e-06	1.015242e-09	1.535076e+01	6.718600e+01
2.340000e-06	2.205190e-06	1.055635e-09	1.564824e+01	7.018860e+01
2.350000e-06	2.246875e-06	1.095150e-09	1.594404e+01	7.314613e+01
2.360000e-06	2.288250e-06	1.139595e-09	1.623765e+01	7.605643e+01
2.370000e-06	2.329232e-06	1.186385e-09	1.652846e+01	7.891743e+01
2.380000e-06	2.369927e-06	1.229678e-09	1.681723e+01	8.172714e+01
2.390000e-06	2.410442e-06	1.268738e-09	1.710474e+01	8.448370e+01
2.400000e-06	2.450831e-06	1.305933e-09	1.739134e+01	8.718537e+01
2.410000e-06	2.491070e-06	1.340844e-09	1.767688e+01	8.983058e+01
2.420000e-06	2.531189e-06	1.374503e-09	1.796157e+01	9.241793e+01
2.430000e-06	2.571224e-06	1.409327e-09	1.824566e+01	9.494621e+01
2.440000e-06	2.611180e-06	1.448583e-09	1.852919e+01	9.741442e+01
2.450000e-06	2.651082e-06	1.490069e-09	1.881234e+01	9.982180e+01
2.460000e-06	2.690899e-06	1.527529e-09	1.909488e+01	1.021678e+02
2.470000e-06	2.730503e-06	1.559547e-09	1.937592e+01	1.044521e+02
2.480000e-06	2.769849e-06	1.588884e-09	1.965512e+01	1.066747e+02
2.490000e-06	2.809040e-06	1.616407e-09	1.993323e+01	1.088358e+02
2.500000e-06	2.847988e-06	1.643482e-09	2.020961e+01	1.109357e+02
2.510000e-06	2.886616e-06	1.671287e-09	2.048371e+01	1.129751e+02
2.520000e-06	2.925039e-06	1.702504e-09	2.075637e+01	1.149550e+02
2.530000e-06	2.963345e-06	1.734977e-09	2.102819e+01	1.168763e+02
2.540000e-06	3.001496e-06	1.762298e-09	2.129891e+01	1.187403e+02
2.550000e-06	3.039461e-06	1.786009e-09	2.156832e+01	1.205484e+02
2.560000e-06	3.077221e-06	1.812456e-09	2.183627e+01	1.223022e+02
2.570000e-06	3.114787e-06	1.839407e-09	2.210283e+01	1.240033e+02
2.580000e-06	3.152154e-06	1.862362e-09	2.236800e+01	1.256535e+02
2.590000e-06	3.189298e-06	1.883565e-09	2.263158e+01	1.272545e+02
2.600000e-06	3.226310e-06	1.908392e-09	2.289421e+01	1.288081e+02
2.610000e-06	3.263064e-06	1.935621e-09	2.315503e+01	1.303161e+02
2.620000e-06	3.299486e-06	1.958756e-09	2.341348e+01	1.317802e+02
2.630000e-06	3.335667e-06	1.977354e-09	2.367022e+01	1.332023e+02
2.640000e-06	3.371697e-06	1.997161e-09	2.392589e+01	1.345838e+02
2.650000e-06	3.407665e-06	2.019800e-09	2.418112e+01	1.359262e+02
2.660000e-06	3.443582e-06	2.037971e-09	2.443600e+01	1.372310e+02
2.670000e-06	3.479345e-06	2.052597e-09	2.468977e+01	1.384993e+02
2.680000e-06	3.514948e-06	2.070679e-09	2.494242e+01	1.397323e+02
2.690000e-06	3.550383e-06	2.091953e-09	2.519387e+01	1.409309e+02
2.700000e-06	3.585425e-06	2.110304e-09	2.544253e+01	1.420957e+02
2.710000e-06	3.619987e-06	2.123909e-09	2.568779e+01	1.432276e+02
2.720000e-06	3.654038e-06	2.138125e-09	2.592941e+01	1.443268e+02
2.730000e-06	3.687598e-06	2.155143e-09	2.616756e+01	1.453938e+02
2.740000e-06	3.720694e-06	2.170246e-09	2.640241e+01	1.464287e+02
2.750000e-06	3.753381e-06	2.183119e-09	2.663436e+01	1.474316e+02
2.760000e-06	3.785763e-06	2.198049e-09	2.686415e+01	1.484025e+02
2.770000e-06	3.817960e-06	2.217887e-09	2.709262e+01	1.493413e+02
2.780000e-06	3.850069e-06	2.237396e-09	2.732047e+01	1.502480e+02
2.790000e-06	3.882029e-06	2.250083e-09	2.754726e+01	1.511223e+02
2.800000e-06	3.913812e-06	2.259739e-09	2.777280e+01	1.519642e+02
2.810000e-06	3.945380e-06	2.271688e-09	2.799680e+01	1.527736e+02
2.820000e-06	3.976619e-06	2.281149e-09	2.821848e+01	1.535504e+02
2.830000e-06	4.007536e-06	2.286926e-09	2.843787e+01	1.542947e+02
2.840000e-06	4.038081e-06	2.293257e-09	2.865462e+01	1.550066e+02
2.850000e-06	4.068326e-06	2.303503e-09	2.886924e+01	1.556864e+02
2.860000e-06	4.098415e-06	2.317350e-09	2.908276e+01	1.563345e+02
2.870000e-06	4.128284e-06	2.329369e-09	2.929471e+01	1.569514e+02
2.880000e-06	4.157866e-06	2.337496e-09	2.950463e+01	1.575379e+02
2.890000e-06	4.187136e-06	2.343462e-09	2.971233e+01	1.580946e+02
2.900000e-06	4.216097e-06	2.348964e-09	2.991784e+01	1.586228e+02
