# Temperatura_=_-2.4
# Concentracion g/m^3_=_4090.0
# C_Vs_to_Am_M_A/Vsm_=_65563218390.804596
# pendiente_HvsI_1/m_=_3716.3
# ordenada_HvsI_A/m_=_1297.0
# frecuencia_Hz_=_135073.91230875324

Tiempo_(s)	Campo_(V.s)	Magnetizacion_(V.s)	Campo_(kA/m)	Magnetizacion_(A/m)
0.000000e+00	-5.400914e-06	-2.450267e-09	-3.839285e+01	-1.565887e+02
1.000000e-08	-5.401013e-06	-2.448392e-09	-3.839356e+01	-1.565927e+02
2.000000e-08	-5.400887e-06	-2.446220e-09	-3.839267e+01	-1.566017e+02
3.000000e-08	-5.400369e-06	-2.446391e-09	-3.838898e+01	-1.566163e+02
4.000000e-08	-5.399376e-06	-2.444653e-09	-3.838192e+01	-1.566373e+02
5.000000e-08	-5.397847e-06	-2.438969e-09	-3.837105e+01	-1.566654e+02
6.000000e-08	-5.395782e-06	-2.429098e-09	-3.835637e+01	-1.567013e+02
7.000000e-08	-5.393130e-06	-2.427458e-09	-3.833753e+01	-1.567452e+02
8.000000e-08	-5.389811e-06	-2.444082e-09	-3.831393e+01	-1.567977e+02
9.000000e-08	-5.385940e-06	-2.471129e-09	-3.828641e+01	-1.568590e+02
1.000000e-07	-5.381727e-06	-2.460851e-09	-3.825646e+01	-1.569291e+02
1.100000e-07	-5.377333e-06	-2.435340e-09	-3.822523e+01	-1.570080e+02
1.200000e-07	-5.372851e-06	-2.425335e-09	-3.819337e+01	-1.570956e+02
1.300000e-07	-5.368135e-06	-2.437162e-09	-3.815984e+01	-1.571916e+02
1.400000e-07	-5.362904e-06	-2.430986e-09	-3.812266e+01	-1.572955e+02
1.500000e-07	-5.357234e-06	-2.394561e-09	-3.808235e+01	-1.574067e+02
1.600000e-07	-5.351243e-06	-2.394378e-09	-3.803977e+01	-1.575247e+02
1.700000e-07	-5.344813e-06	-2.452419e-09	-3.799406e+01	-1.576486e+02
1.800000e-07	-5.337923e-06	-2.464157e-09	-3.794508e+01	-1.577775e+02
1.900000e-07	-5.330693e-06	-2.454868e-09	-3.789369e+01	-1.579106e+02
2.000000e-07	-5.323276e-06	-2.431444e-09	-3.784096e+01	-1.580467e+02
2.100000e-07	-5.315671e-06	-2.447642e-09	-3.778690e+01	-1.581850e+02
2.200000e-07	-5.307784e-06	-2.441971e-09	-3.773083e+01	-1.583242e+02
2.300000e-07	-5.299587e-06	-2.450023e-09	-3.767256e+01	-1.584632e+02
2.400000e-07	-5.291011e-06	-2.459105e-09	-3.761160e+01	-1.586011e+02
2.500000e-07	-5.281821e-06	-2.456678e-09	-3.754627e+01	-1.587366e+02
2.600000e-07	-5.271859e-06	-2.455831e-09	-3.747546e+01	-1.588687e+02
2.700000e-07	-5.261288e-06	-2.472400e-09	-3.740031e+01	-1.589964e+02
2.800000e-07	-5.250234e-06	-2.469060e-09	-3.732174e+01	-1.591188e+02
2.900000e-07	-5.238726e-06	-2.435588e-09	-3.723993e+01	-1.592349e+02
3.000000e-07	-5.226891e-06	-2.426705e-09	-3.715580e+01	-1.593439e+02
3.100000e-07	-5.214622e-06	-2.445732e-09	-3.706859e+01	-1.594451e+02
3.200000e-07	-5.201923e-06	-2.468128e-09	-3.697831e+01	-1.595379e+02
3.300000e-07	-5.188877e-06	-2.444250e-09	-3.688557e+01	-1.596215e+02
3.400000e-07	-5.175442e-06	-2.442767e-09	-3.679007e+01	-1.596956e+02
3.500000e-07	-5.161623e-06	-2.444737e-09	-3.669184e+01	-1.597598e+02
3.600000e-07	-5.147423e-06	-2.456620e-09	-3.659089e+01	-1.598137e+02
3.700000e-07	-5.132863e-06	-2.443214e-09	-3.648739e+01	-1.598572e+02
3.800000e-07	-5.117723e-06	-2.445275e-09	-3.637977e+01	-1.598901e+02
3.900000e-07	-5.101837e-06	-2.440124e-09	-3.626684e+01	-1.599123e+02
4.000000e-07	-5.085459e-06	-2.449480e-09	-3.615042e+01	-1.599238e+02
4.100000e-07	-5.068825e-06	-2.452568e-09	-3.603217e+01	-1.599248e+02
4.200000e-07	-5.051870e-06	-2.443669e-09	-3.591165e+01	-1.599153e+02
4.300000e-07	-5.034543e-06	-2.421879e-09	-3.578848e+01	-1.598955e+02
4.400000e-07	-5.016991e-06	-2.428826e-09	-3.566371e+01	-1.598657e+02
4.500000e-07	-4.999200e-06	-2.434696e-09	-3.553724e+01	-1.598260e+02
4.600000e-07	-4.981033e-06	-2.430478e-09	-3.540810e+01	-1.597769e+02
4.700000e-07	-4.962523e-06	-2.422964e-09	-3.527652e+01	-1.597185e+02
4.800000e-07	-4.943539e-06	-2.433996e-09	-3.514157e+01	-1.596513e+02
4.900000e-07	-4.924100e-06	-2.436843e-09	-3.500338e+01	-1.595757e+02
5.000000e-07	-4.904385e-06	-2.433156e-09	-3.486324e+01	-1.594919e+02
5.100000e-07	-4.884454e-06	-2.425578e-09	-3.472155e+01	-1.594003e+02
5.200000e-07	-4.864450e-06	-2.420782e-09	-3.457935e+01	-1.593015e+02
5.300000e-07	-4.844272e-06	-2.423687e-09	-3.443592e+01	-1.591957e+02
5.400000e-07	-4.823703e-06	-2.429554e-09	-3.428970e+01	-1.590833e+02
5.500000e-07	-4.802641e-06	-2.419957e-09	-3.413998e+01	-1.589649e+02
5.600000e-07	-4.781209e-06	-2.407694e-09	-3.398763e+01	-1.588408e+02
5.700000e-07	-4.759590e-06	-2.413766e-09	-3.383395e+01	-1.587114e+02
5.800000e-07	-4.737708e-06	-2.417536e-09	-3.367840e+01	-1.585772e+02
5.900000e-07	-4.715470e-06	-2.406198e-09	-3.352032e+01	-1.584386e+02
6.000000e-07	-4.692854e-06	-2.394719e-09	-3.335955e+01	-1.582960e+02
6.100000e-07	-4.669892e-06	-2.395669e-09	-3.319633e+01	-1.581500e+02
6.200000e-07	-4.646535e-06	-2.394142e-09	-3.303029e+01	-1.580009e+02
6.300000e-07	-4.622857e-06	-2.391461e-09	-3.286197e+01	-1.578493e+02
6.400000e-07	-4.599003e-06	-2.383583e-09	-3.269241e+01	-1.576955e+02
6.500000e-07	-4.574944e-06	-2.381450e-09	-3.252138e+01	-1.575400e+02
6.600000e-07	-4.550680e-06	-2.380679e-09	-3.234890e+01	-1.573832e+02
6.700000e-07	-4.526088e-06	-2.381806e-09	-3.217408e+01	-1.572256e+02
6.800000e-07	-4.501021e-06	-2.372472e-09	-3.199589e+01	-1.570675e+02
6.900000e-07	-4.475407e-06	-2.367289e-09	-3.181381e+01	-1.569093e+02
7.000000e-07	-4.449296e-06	-2.363469e-09	-3.162820e+01	-1.567513e+02
7.100000e-07	-4.422643e-06	-2.363387e-09	-3.143874e+01	-1.565939e+02
7.200000e-07	-4.395488e-06	-2.356723e-09	-3.124570e+01	-1.564373e+02
7.300000e-07	-4.368008e-06	-2.352919e-09	-3.105035e+01	-1.562817e+02
7.400000e-07	-4.340296e-06	-2.349232e-09	-3.085337e+01	-1.561272e+02
7.500000e-07	-4.312432e-06	-2.350013e-09	-3.065529e+01	-1.559740e+02
7.600000e-07	-4.284408e-06	-2.345351e-09	-3.045608e+01	-1.558221e+02
7.700000e-07	-4.256248e-06	-2.339530e-09	-3.025590e+01	-1.556714e+02
7.800000e-07	-4.227894e-06	-2.333277e-09	-3.005435e+01	-1.555219e+02
7.900000e-07	-4.199211e-06	-2.331312e-09	-2.985045e+01	-1.553733e+02
8.000000e-07	-4.170113e-06	-2.326381e-09	-2.964360e+01	-1.552254e+02
8.100000e-07	-4.140663e-06	-2.320088e-09	-2.943426e+01	-1.550780e+02
8.200000e-07	-4.110963e-06	-2.318946e-09	-2.922313e+01	-1.549306e+02
8.300000e-07	-4.081015e-06	-2.321175e-09	-2.901024e+01	-1.547828e+02
8.400000e-07	-4.050807e-06	-2.320034e-09	-2.879551e+01	-1.546342e+02
8.500000e-07	-4.020388e-06	-2.314206e-09	-2.857927e+01	-1.544842e+02
8.600000e-07	-3.989724e-06	-2.305868e-09	-2.836129e+01	-1.543324e+02
8.700000e-07	-3.958727e-06	-2.301077e-09	-2.814095e+01	-1.541781e+02
8.800000e-07	-3.927433e-06	-2.299517e-09	-2.791849e+01	-1.540209e+02
8.900000e-07	-3.895901e-06	-2.295564e-09	-2.769435e+01	-1.538600e+02
9.000000e-07	-3.864147e-06	-2.293777e-09	-2.746862e+01	-1.536951e+02
9.100000e-07	-3.832236e-06	-2.294477e-09	-2.724178e+01	-1.535255e+02
9.200000e-07	-3.800202e-06	-2.297162e-09	-2.701406e+01	-1.533509e+02
9.300000e-07	-3.767965e-06	-2.295634e-09	-2.678490e+01	-1.531707e+02
9.400000e-07	-3.735432e-06	-2.291587e-09	-2.655364e+01	-1.529846e+02
9.500000e-07	-3.702602e-06	-2.286285e-09	-2.632026e+01	-1.527924e+02
9.600000e-07	-3.669357e-06	-2.284241e-09	-2.608394e+01	-1.525938e+02
9.700000e-07	-3.635615e-06	-2.280776e-09	-2.584408e+01	-1.523888e+02
9.800000e-07	-3.601395e-06	-2.277021e-09	-2.560082e+01	-1.521772e+02
9.900000e-07	-3.566675e-06	-2.273078e-09	-2.535401e+01	-1.519593e+02
1.000000e-06	-3.531609e-06	-2.274337e-09	-2.510474e+01	-1.517351e+02
1.010000e-06	-3.496282e-06	-2.274317e-09	-2.485362e+01	-1.515049e+02
1.020000e-06	-3.460723e-06	-2.271194e-09	-2.460085e+01	-1.512690e+02
1.030000e-06	-3.424995e-06	-2.264788e-09	-2.434687e+01	-1.510281e+02
1.040000e-06	-3.389126e-06	-2.261776e-09	-2.409189e+01	-1.507824e+02
1.050000e-06	-3.353167e-06	-2.256488e-09	-2.383628e+01	-1.505326e+02
1.060000e-06	-3.317143e-06	-2.248452e-09	-2.358019e+01	-1.502794e+02
1.070000e-06	-3.280950e-06	-2.240377e-09	-2.332291e+01	-1.500233e+02
1.080000e-06	-3.244496e-06	-2.238678e-09	-2.306378e+01	-1.497652e+02
1.090000e-06	-3.207796e-06	-2.239046e-09	-2.280289e+01	-1.495056e+02
1.100000e-06	-3.170812e-06	-2.237269e-09	-2.253998e+01	-1.492452e+02
1.110000e-06	-3.133624e-06	-2.233760e-09	-2.227563e+01	-1.489848e+02
1.120000e-06	-3.096229e-06	-2.231695e-09	-2.200980e+01	-1.487248e+02
1.130000e-06	-3.058509e-06	-2.228398e-09	-2.174167e+01	-1.484658e+02
1.140000e-06	-3.020546e-06	-2.219930e-09	-2.147181e+01	-1.482083e+02
1.150000e-06	-2.982445e-06	-2.211090e-09	-2.120096e+01	-1.479527e+02
1.160000e-06	-2.944204e-06	-2.206233e-09	-2.092912e+01	-1.476991e+02
1.170000e-06	-2.905709e-06	-2.203407e-09	-2.065548e+01	-1.474477e+02
1.180000e-06	-2.866980e-06	-2.198182e-09	-2.038017e+01	-1.471985e+02
1.190000e-06	-2.827969e-06	-2.192726e-09	-2.010286e+01	-1.469514e+02
1.200000e-06	-2.788688e-06	-2.189982e-09	-1.982363e+01	-1.467061e+02
1.210000e-06	-2.749368e-06	-2.189690e-09	-1.954412e+01	-1.464623e+02
1.220000e-06	-2.709925e-06	-2.185090e-09	-1.926373e+01	-1.462193e+02
1.230000e-06	-2.670265e-06	-2.176824e-09	-1.898180e+01	-1.459765e+02
1.240000e-06	-2.630488e-06	-2.169452e-09	-1.869905e+01	-1.457332e+02
1.250000e-06	-2.590642e-06	-2.163961e-09	-1.841580e+01	-1.454885e+02
1.260000e-06	-2.550673e-06	-2.156269e-09	-1.813168e+01	-1.452413e+02
1.270000e-06	-2.510571e-06	-2.149193e-09	-1.784661e+01	-1.449907e+02
1.280000e-06	-2.470369e-06	-2.144263e-09	-1.756083e+01	-1.447354e+02
1.290000e-06	-2.430103e-06	-2.142170e-09	-1.727460e+01	-1.444743e+02
1.300000e-06	-2.389715e-06	-2.138327e-09	-1.698749e+01	-1.442063e+02
1.310000e-06	-2.349091e-06	-2.131437e-09	-1.669871e+01	-1.439300e+02
1.320000e-06	-2.308210e-06	-2.122573e-09	-1.640811e+01	-1.436444e+02
1.330000e-06	-2.267091e-06	-2.113769e-09	-1.611581e+01	-1.433482e+02
1.340000e-06	-2.225674e-06	-2.105308e-09	-1.582140e+01	-1.430403e+02
1.350000e-06	-2.183806e-06	-2.097665e-09	-1.552377e+01	-1.427197e+02
1.360000e-06	-2.141549e-06	-2.090475e-09	-1.522338e+01	-1.423855e+02
1.370000e-06	-2.099073e-06	-2.086905e-09	-1.492144e+01	-1.420368e+02
1.380000e-06	-2.056447e-06	-2.083149e-09	-1.461843e+01	-1.416727e+02
1.390000e-06	-2.013659e-06	-2.076749e-09	-1.431426e+01	-1.412928e+02
1.400000e-06	-1.970661e-06	-2.071974e-09	-1.400861e+01	-1.408964e+02
1.410000e-06	-1.927423e-06	-2.067483e-09	-1.370125e+01	-1.404832e+02
1.420000e-06	-1.884005e-06	-2.059673e-09	-1.339261e+01	-1.400528e+02
1.430000e-06	-1.840482e-06	-2.048365e-09	-1.308323e+01	-1.396052e+02
1.440000e-06	-1.796825e-06	-2.038452e-09	-1.277288e+01	-1.391403e+02
1.450000e-06	-1.753082e-06	-2.032408e-09	-1.246194e+01	-1.386582e+02
1.460000e-06	-1.709265e-06	-2.026056e-09	-1.215046e+01	-1.381589e+02
1.470000e-06	-1.665397e-06	-2.015695e-09	-1.183861e+01	-1.376428e+02
1.480000e-06	-1.621493e-06	-2.004632e-09	-1.152652e+01	-1.371101e+02
1.490000e-06	-1.577503e-06	-1.996745e-09	-1.121382e+01	-1.365612e+02
1.500000e-06	-1.533489e-06	-1.990054e-09	-1.090093e+01	-1.359963e+02
1.510000e-06	-1.489449e-06	-1.980365e-09	-1.058787e+01	-1.354160e+02
1.520000e-06	-1.445350e-06	-1.967614e-09	-1.027440e+01	-1.348204e+02
1.530000e-06	-1.401192e-06	-1.955293e-09	-9.960495e+00	-1.342101e+02
1.540000e-06	-1.356856e-06	-1.946901e-09	-9.645325e+00	-1.335850e+02
1.550000e-06	-1.312316e-06	-1.937384e-09	-9.328708e+00	-1.329456e+02
1.560000e-06	-1.267752e-06	-1.924058e-09	-9.011926e+00	-1.322919e+02
1.570000e-06	-1.223175e-06	-1.914183e-09	-8.695047e+00	-1.316238e+02
1.580000e-06	-1.178474e-06	-1.908419e-09	-8.377284e+00	-1.309412e+02
1.590000e-06	-1.133708e-06	-1.899543e-09	-8.059057e+00	-1.302440e+02
1.600000e-06	-1.088854e-06	-1.887202e-09	-7.740212e+00	-1.295317e+02
1.610000e-06	-1.043873e-06	-1.877045e-09	-7.420456e+00	-1.288038e+02
1.620000e-06	-9.988440e-07	-1.870134e-09	-7.100368e+00	-1.280596e+02
1.630000e-06	-9.538141e-07	-1.859712e-09	-6.780269e+00	-1.272984e+02
1.640000e-06	-9.086525e-07	-1.843994e-09	-6.459233e+00	-1.265191e+02
1.650000e-06	-8.634083e-07	-1.829644e-09	-6.137612e+00	-1.257208e+02
1.660000e-06	-8.181571e-07	-1.820447e-09	-5.815939e+00	-1.249021e+02
1.670000e-06	-7.727713e-07	-1.811549e-09	-5.493311e+00	-1.240618e+02
1.680000e-06	-7.273230e-07	-1.797448e-09	-5.170238e+00	-1.231984e+02
1.690000e-06	-6.818899e-07	-1.781125e-09	-4.847272e+00	-1.223104e+02
1.700000e-06	-6.364208e-07	-1.769179e-09	-4.524051e+00	-1.213962e+02
1.710000e-06	-5.908432e-07	-1.757616e-09	-4.200059e+00	-1.204539e+02
1.720000e-06	-5.451511e-07	-1.742126e-09	-3.875253e+00	-1.194819e+02
1.730000e-06	-4.993844e-07	-1.725201e-09	-3.549917e+00	-1.184782e+02
1.740000e-06	-4.536079e-07	-1.710272e-09	-3.224510e+00	-1.174411e+02
1.750000e-06	-4.078426e-07	-1.697535e-09	-2.899184e+00	-1.163686e+02
1.760000e-06	-3.621177e-07	-1.683191e-09	-2.574144e+00	-1.152588e+02
1.770000e-06	-3.163875e-07	-1.663771e-09	-2.249068e+00	-1.141097e+02
1.780000e-06	-2.706234e-07	-1.646607e-09	-1.923749e+00	-1.129193e+02
1.790000e-06	-2.248785e-07	-1.633487e-09	-1.598568e+00	-1.116856e+02
1.800000e-06	-1.791039e-07	-1.615628e-09	-1.273175e+00	-1.104067e+02
1.810000e-06	-1.332820e-07	-1.593282e-09	-9.474463e-01	-1.090805e+02
1.820000e-06	-8.740298e-08	-1.569736e-09	-6.213115e-01	-1.077050e+02
1.830000e-06	-4.153143e-08	-1.547001e-09	-2.952297e-01	-1.062783e+02
1.840000e-06	4.296041e-09	-1.524612e-09	3.053877e-02	-1.047983e+02
1.850000e-06	5.013434e-08	-1.498050e-09	3.563842e-01	-1.032628e+02
1.860000e-06	9.601562e-08	-1.471042e-09	6.825352e-01	-1.016699e+02
1.870000e-06	1.418848e-07	-1.446240e-09	1.008600e+00	-1.000175e+02
1.880000e-06	1.876375e-07	-1.423181e-09	1.333837e+00	-9.830331e+01
1.890000e-06	2.333362e-07	-1.396661e-09	1.658690e+00	-9.652533e+01
1.900000e-06	2.790748e-07	-1.364811e-09	1.983827e+00	-9.468131e+01
1.910000e-06	3.248250e-07	-1.330756e-09	2.309046e+00	-9.276907e+01
1.920000e-06	3.705870e-07	-1.297099e-09	2.634349e+00	-9.078635e+01
1.930000e-06	4.163790e-07	-1.265084e-09	2.959866e+00	-8.873093e+01
1.940000e-06	4.621760e-07	-1.233646e-09	3.285417e+00	-8.660057e+01
1.950000e-06	5.079214e-07	-1.205136e-09	3.610602e+00	-8.439303e+01
1.960000e-06	5.535332e-07	-1.177199e-09	3.934838e+00	-8.210613e+01
1.970000e-06	5.990394e-07	-1.145547e-09	4.258322e+00	-7.973773e+01
1.980000e-06	6.445369e-07	-1.107238e-09	4.581745e+00	-7.728578e+01
1.990000e-06	6.899595e-07	-1.065206e-09	4.904636e+00	-7.474833e+01
2.000000e-06	7.352858e-07	-1.022966e-09	5.226842e+00	-7.212359e+01
2.010000e-06	7.806180e-07	-9.804618e-10	5.549090e+00	-6.940994e+01
2.020000e-06	8.259239e-07	-9.366373e-10	5.871150e+00	-6.660598e+01
2.030000e-06	8.710915e-07	-8.960304e-10	6.192228e+00	-6.371058e+01
2.040000e-06	9.161644e-07	-8.571048e-10	6.512633e+00	-6.072291e+01
2.050000e-06	9.612428e-07	-8.134085e-10	6.833076e+00	-5.764246e+01
2.060000e-06	1.006261e-06	-7.644136e-10	7.153089e+00	-5.446913e+01
2.070000e-06	1.051171e-06	-7.152561e-10	7.472342e+00	-5.120323e+01
2.080000e-06	1.096024e-06	-6.665912e-10	7.791177e+00	-4.784555e+01
2.090000e-06	1.140822e-06	-6.163490e-10	8.109633e+00	-4.439735e+01
2.100000e-06	1.185455e-06	-5.638500e-10	8.426906e+00	-4.086046e+01
2.110000e-06	1.229883e-06	-5.106578e-10	8.742728e+00	-3.723722e+01
2.120000e-06	1.274185e-06	-4.572605e-10	9.057655e+00	-3.353060e+01
2.130000e-06	1.318491e-06	-4.000025e-10	9.372604e+00	-2.974412e+01
2.140000e-06	1.362812e-06	-3.370175e-10	9.687667e+00	-2.588192e+01
2.150000e-06	1.407055e-06	-2.747276e-10	1.000217e+01	-2.194876e+01
2.160000e-06	1.451267e-06	-2.171482e-10	1.031645e+01	-1.794995e+01
2.170000e-06	1.495422e-06	-1.605799e-10	1.063034e+01	-1.389144e+01
2.180000e-06	1.539464e-06	-9.952959e-11	1.094341e+01	-9.779681e+00
2.190000e-06	1.583438e-06	-3.331375e-11	1.125600e+01	-5.621683e+00
2.200000e-06	1.627348e-06	3.305766e-11	1.156814e+01	-1.424928e+00
2.210000e-06	1.671250e-06	9.880909e-11	1.188022e+01	2.802666e+00
2.220000e-06	1.715119e-06	1.669271e-10	1.219207e+01	7.052800e+00
2.230000e-06	1.758819e-06	2.351977e-10	1.250272e+01	1.131686e+01
2.240000e-06	1.802431e-06	2.988114e-10	1.281273e+01	1.558598e+01
2.250000e-06	1.846037e-06	3.607954e-10	1.312271e+01	1.985112e+01
2.260000e-06	1.889463e-06	4.246893e-10	1.343141e+01	2.410315e+01
2.270000e-06	1.932702e-06	4.901701e-10	1.373878e+01	2.833291e+01
2.280000e-06	1.975904e-06	5.540685e-10	1.404588e+01	3.253133e+01
2.290000e-06	2.019027e-06	6.137088e-10	1.435242e+01	3.668947e+01
2.300000e-06	2.061782e-06	6.754351e-10	1.465635e+01	4.079863e+01
2.310000e-06	2.104204e-06	7.379365e-10	1.495792e+01	4.485044e+01
2.320000e-06	2.146464e-06	7.960426e-10	1.525833e+01	4.883690e+01
2.330000e-06	2.188454e-06	8.497644e-10	1.555681e+01	5.275049e+01
2.340000e-06	2.230092e-06	9.040844e-10	1.585280e+01	5.658422e+01
2.350000e-06	2.271333e-06	9.634343e-10	1.614596e+01	6.033170e+01
2.360000e-06	2.312261e-06	1.021238e-09	1.643690e+01	6.398717e+01
2.370000e-06	2.352892e-06	1.069687e-09	1.672573e+01	6.754557e+01
2.380000e-06	2.393363e-06	1.111901e-09	1.701342e+01	7.100258e+01
2.390000e-06	2.433726e-06	1.154791e-09	1.730035e+01	7.435463e+01
2.400000e-06	2.473888e-06	1.196286e-09	1.758584e+01	7.759889e+01
2.410000e-06	2.513953e-06	1.234767e-09	1.787065e+01	8.073333e+01
2.420000e-06	2.553931e-06	1.275222e-09	1.815484e+01	8.375668e+01
2.430000e-06	2.593799e-06	1.321690e-09	1.843824e+01	8.666842e+01
2.440000e-06	2.633618e-06	1.369718e-09	1.872130e+01	8.946876e+01
2.450000e-06	2.673313e-06	1.409984e-09	1.900347e+01	9.215860e+01
2.460000e-06	2.712872e-06	1.444054e-09	1.928468e+01	9.473948e+01
2.470000e-06	2.752308e-06	1.476667e-09	1.956501e+01	9.721355e+01
2.480000e-06	2.791565e-06	1.506286e-09	1.984407e+01	9.958350e+01
2.490000e-06	2.830593e-06	1.532538e-09	2.012151e+01	1.018525e+02
2.500000e-06	2.869450e-06	1.559882e-09	2.039773e+01	1.040241e+02
2.510000e-06	2.908053e-06	1.595008e-09	2.067214e+01	1.061022e+02
2.520000e-06	2.946326e-06	1.632191e-09	2.094421e+01	1.080910e+02
2.530000e-06	2.984418e-06	1.662791e-09	2.121499e+01	1.099949e+02
2.540000e-06	3.022342e-06	1.687518e-09	2.148458e+01	1.118184e+02
2.550000e-06	3.060105e-06	1.714301e-09	2.175302e+01	1.135660e+02
2.560000e-06	3.097662e-06	1.741026e-09	2.201999e+01	1.152423e+02
2.570000e-06	3.135031e-06	1.760652e-09	2.228563e+01	1.168516e+02
2.580000e-06	3.172257e-06	1.775446e-09	2.255026e+01	1.183984e+02
2.590000e-06	3.209224e-06	1.796303e-09	2.281304e+01	1.198867e+02
2.600000e-06	3.245898e-06	1.824455e-09	2.307374e+01	1.213205e+02
2.610000e-06	3.282338e-06	1.849905e-09	2.333278e+01	1.227034e+02
2.620000e-06	3.318568e-06	1.867921e-09	2.359032e+01	1.240386e+02
2.630000e-06	3.354644e-06	1.886365e-09	2.384678e+01	1.253292e+02
2.640000e-06	3.390619e-06	1.908975e-09	2.410251e+01	1.265778e+02
2.650000e-06	3.426482e-06	1.926909e-09	2.435744e+01	1.277867e+02
2.660000e-06	3.462196e-06	1.938232e-09	2.461132e+01	1.289580e+02
2.670000e-06	3.497678e-06	1.949961e-09	2.486354e+01	1.300932e+02
2.680000e-06	3.532871e-06	1.967859e-09	2.511372e+01	1.311937e+02
2.690000e-06	3.567712e-06	1.986975e-09	2.536138e+01	1.322605e+02
2.700000e-06	3.602113e-06	1.999796e-09	2.560592e+01	1.332943e+02
2.710000e-06	3.636198e-06	2.009841e-09	2.584822e+01	1.342957e+02
2.720000e-06	3.669927e-06	2.025083e-09	2.608799e+01	1.352649e+02
2.730000e-06	3.703134e-06	2.043749e-09	2.632405e+01	1.362022e+02
2.740000e-06	3.735886e-06	2.058489e-09	2.655686e+01	1.371075e+02
2.750000e-06	3.768355e-06	2.068720e-09	2.678767e+01	1.379807e+02
2.760000e-06	3.800586e-06	2.080745e-09	2.701679e+01	1.388219e+02
2.770000e-06	3.832596e-06	2.096593e-09	2.724434e+01	1.396307e+02
2.780000e-06	3.864509e-06	2.107316e-09	2.747119e+01	1.404073e+02
2.790000e-06	3.896302e-06	2.111212e-09	2.769719e+01	1.411514e+02
2.800000e-06	3.927935e-06	2.118556e-09	2.792206e+01	1.418632e+02
2.810000e-06	3.959323e-06	2.132302e-09	2.814519e+01	1.425428e+02
2.820000e-06	3.990322e-06	2.143791e-09	2.836554e+01	1.431905e+02
2.830000e-06	4.020981e-06	2.148164e-09	2.858349e+01	1.438068e+02
2.840000e-06	4.051349e-06	2.153568e-09	2.879936e+01	1.443923e+02
2.850000e-06	4.081464e-06	2.164888e-09	2.901344e+01	1.449477e+02
2.860000e-06	4.111368e-06	2.177332e-09	2.922601e+01	1.454739e+02
2.870000e-06	4.141042e-06	2.184329e-09	2.943695e+01	1.459721e+02
2.880000e-06	4.170465e-06	2.186660e-09	2.964610e+01	1.464434e+02
2.890000e-06	4.199559e-06	2.189835e-09	2.985292e+01	1.468892e+02
2.900000e-06	4.228273e-06	2.194590e-09	3.005704e+01	1.473110e+02
