# Temperatura_=_-3.88
# Concentracion g/m^3_=_4090.0
# C_Vs_to_Am_M_A/Vsm_=_65563218390.804596
# pendiente_HvsI_1/m_=_3716.3
# ordenada_HvsI_A/m_=_1297.0
# frecuencia_Hz_=_135073.5589771424

Tiempo_(s)	Campo_(V.s)	Magnetizacion_(V.s)	Campo_(kA/m)	Magnetizacion_(A/m)
0.000000e+00	-5.423179e-06	-2.398522e-09	-3.839749e+01	-1.531156e+02
1.000000e-08	-5.423299e-06	-2.394811e-09	-3.839834e+01	-1.530938e+02
2.000000e-08	-5.423168e-06	-2.392613e-09	-3.839741e+01	-1.530711e+02
3.000000e-08	-5.422669e-06	-2.391816e-09	-3.839388e+01	-1.530490e+02
4.000000e-08	-5.421683e-06	-2.390364e-09	-3.838690e+01	-1.530290e+02
5.000000e-08	-5.420166e-06	-2.389944e-09	-3.837616e+01	-1.530127e+02
6.000000e-08	-5.418091e-06	-2.399815e-09	-3.836146e+01	-1.530014e+02
7.000000e-08	-5.415421e-06	-2.430841e-09	-3.834256e+01	-1.529968e+02
8.000000e-08	-5.412124e-06	-2.416529e-09	-3.831922e+01	-1.530003e+02
9.000000e-08	-5.408298e-06	-2.327032e-09	-3.829213e+01	-1.530132e+02
1.000000e-07	-5.404222e-06	-2.306616e-09	-3.826327e+01	-1.530368e+02
1.100000e-07	-5.399994e-06	-2.422649e-09	-3.823333e+01	-1.530720e+02
1.200000e-07	-5.395508e-06	-2.443127e-09	-3.820157e+01	-1.531199e+02
1.300000e-07	-5.390593e-06	-2.321122e-09	-3.816677e+01	-1.531812e+02
1.400000e-07	-5.385213e-06	-2.262284e-09	-3.812868e+01	-1.532563e+02
1.500000e-07	-5.379501e-06	-2.429873e-09	-3.808824e+01	-1.533455e+02
1.600000e-07	-5.373440e-06	-2.462236e-09	-3.804532e+01	-1.534488e+02
1.700000e-07	-5.366917e-06	-2.301924e-09	-3.799914e+01	-1.535659e+02
1.800000e-07	-5.360046e-06	-2.230032e-09	-3.795049e+01	-1.536965e+02
1.900000e-07	-5.352959e-06	-2.380619e-09	-3.790031e+01	-1.538397e+02
2.000000e-07	-5.345527e-06	-2.409815e-09	-3.784769e+01	-1.539946e+02
2.100000e-07	-5.337768e-06	-2.304705e-09	-3.779276e+01	-1.541599e+02
2.200000e-07	-5.329740e-06	-2.324523e-09	-3.773591e+01	-1.543342e+02
2.300000e-07	-5.321490e-06	-2.429387e-09	-3.767751e+01	-1.545159e+02
2.400000e-07	-5.312724e-06	-2.386610e-09	-3.761544e+01	-1.547032e+02
2.500000e-07	-5.303185e-06	-2.303060e-09	-3.754790e+01	-1.548941e+02
2.600000e-07	-5.293115e-06	-2.390861e-09	-3.747660e+01	-1.550866e+02
2.700000e-07	-5.282560e-06	-2.433206e-09	-3.740187e+01	-1.552785e+02
2.800000e-07	-5.271431e-06	-2.329221e-09	-3.732307e+01	-1.554675e+02
2.900000e-07	-5.259846e-06	-2.307051e-09	-3.724105e+01	-1.556516e+02
3.000000e-07	-5.247925e-06	-2.436151e-09	-3.715665e+01	-1.558284e+02
3.100000e-07	-5.235594e-06	-2.393762e-09	-3.706934e+01	-1.559958e+02
3.200000e-07	-5.222874e-06	-2.285314e-09	-3.697928e+01	-1.561518e+02
3.300000e-07	-5.209789e-06	-2.318562e-09	-3.688663e+01	-1.562944e+02
3.400000e-07	-5.196350e-06	-2.405993e-09	-3.679148e+01	-1.564218e+02
3.500000e-07	-5.182585e-06	-2.346760e-09	-3.669402e+01	-1.565324e+02
3.600000e-07	-5.168534e-06	-2.338365e-09	-3.659454e+01	-1.566247e+02
3.700000e-07	-5.153935e-06	-2.368511e-09	-3.649117e+01	-1.566975e+02
3.800000e-07	-5.138525e-06	-2.352231e-09	-3.638206e+01	-1.567498e+02
3.900000e-07	-5.122473e-06	-2.328968e-09	-3.626842e+01	-1.567809e+02
4.000000e-07	-5.106028e-06	-2.372266e-09	-3.615198e+01	-1.567903e+02
4.100000e-07	-5.089290e-06	-2.331844e-09	-3.603347e+01	-1.567777e+02
4.200000e-07	-5.072250e-06	-2.290604e-09	-3.591282e+01	-1.567431e+02
4.300000e-07	-5.054992e-06	-2.349460e-09	-3.579063e+01	-1.566868e+02
4.400000e-07	-5.037504e-06	-2.384507e-09	-3.566681e+01	-1.566093e+02
4.500000e-07	-5.019632e-06	-2.312973e-09	-3.554027e+01	-1.565112e+02
4.600000e-07	-5.001351e-06	-2.297816e-09	-3.541084e+01	-1.563936e+02
4.700000e-07	-4.982623e-06	-2.345659e-09	-3.527824e+01	-1.562573e+02
4.800000e-07	-4.963435e-06	-2.341961e-09	-3.514238e+01	-1.561039e+02
4.900000e-07	-4.943892e-06	-2.315010e-09	-3.500402e+01	-1.559345e+02
5.000000e-07	-4.924139e-06	-2.311672e-09	-3.486416e+01	-1.557508e+02
5.100000e-07	-4.904204e-06	-2.316863e-09	-3.472301e+01	-1.555543e+02
5.200000e-07	-4.884059e-06	-2.331343e-09	-3.458038e+01	-1.553466e+02
5.300000e-07	-4.863624e-06	-2.342367e-09	-3.443570e+01	-1.551294e+02
5.400000e-07	-4.842780e-06	-2.299055e-09	-3.428812e+01	-1.549043e+02
5.500000e-07	-4.821624e-06	-2.280012e-09	-3.413833e+01	-1.546731e+02
5.600000e-07	-4.800257e-06	-2.311223e-09	-3.398704e+01	-1.544371e+02
5.700000e-07	-4.778609e-06	-2.321859e-09	-3.383377e+01	-1.541980e+02
5.800000e-07	-4.756623e-06	-2.281902e-09	-3.367810e+01	-1.539572e+02
5.900000e-07	-4.734259e-06	-2.276828e-09	-3.351976e+01	-1.537158e+02
6.000000e-07	-4.711487e-06	-2.295757e-09	-3.335853e+01	-1.534751e+02
6.100000e-07	-4.688356e-06	-2.306104e-09	-3.319475e+01	-1.532359e+02
6.200000e-07	-4.664899e-06	-2.284239e-09	-3.302867e+01	-1.529992e+02
6.300000e-07	-4.641185e-06	-2.262009e-09	-3.286078e+01	-1.527656e+02
6.400000e-07	-4.617263e-06	-2.256884e-09	-3.269140e+01	-1.525356e+02
6.500000e-07	-4.593122e-06	-2.280071e-09	-3.252047e+01	-1.523095e+02
6.600000e-07	-4.568749e-06	-2.274680e-09	-3.234790e+01	-1.520876e+02
6.700000e-07	-4.544023e-06	-2.250362e-09	-3.217284e+01	-1.518697e+02
6.800000e-07	-4.518815e-06	-2.242038e-09	-3.199436e+01	-1.516557e+02
6.900000e-07	-4.493121e-06	-2.261272e-09	-3.181244e+01	-1.514454e+02
7.000000e-07	-4.466901e-06	-2.258167e-09	-3.162680e+01	-1.512384e+02
7.100000e-07	-4.440015e-06	-2.236374e-09	-3.143644e+01	-1.510341e+02
7.200000e-07	-4.412657e-06	-2.221842e-09	-3.124273e+01	-1.508318e+02
7.300000e-07	-4.385136e-06	-2.234774e-09	-3.104788e+01	-1.506310e+02
7.400000e-07	-4.357448e-06	-2.242752e-09	-3.085184e+01	-1.504308e+02
7.500000e-07	-4.329541e-06	-2.225999e-09	-3.065425e+01	-1.502304e+02
7.600000e-07	-4.301432e-06	-2.204060e-09	-3.045524e+01	-1.500289e+02
7.700000e-07	-4.273054e-06	-2.206592e-09	-3.025431e+01	-1.498256e+02
7.800000e-07	-4.244344e-06	-2.215862e-09	-3.005104e+01	-1.496196e+02
7.900000e-07	-4.215350e-06	-2.205370e-09	-2.984575e+01	-1.494100e+02
8.000000e-07	-4.186112e-06	-2.187993e-09	-2.963874e+01	-1.491960e+02
8.100000e-07	-4.156593e-06	-2.186505e-09	-2.942974e+01	-1.489770e+02
8.200000e-07	-4.126797e-06	-2.200907e-09	-2.921877e+01	-1.487522e+02
8.300000e-07	-4.096749e-06	-2.200182e-09	-2.900603e+01	-1.485210e+02
8.400000e-07	-4.066405e-06	-2.182920e-09	-2.879118e+01	-1.482829e+02
8.500000e-07	-4.035806e-06	-2.169439e-09	-2.857454e+01	-1.480375e+02
8.600000e-07	-4.005001e-06	-2.175391e-09	-2.835643e+01	-1.477843e+02
8.700000e-07	-3.973941e-06	-2.177011e-09	-2.813652e+01	-1.475231e+02
8.800000e-07	-3.942588e-06	-2.164482e-09	-2.791453e+01	-1.472537e+02
8.900000e-07	-3.911016e-06	-2.149949e-09	-2.769099e+01	-1.469760e+02
9.000000e-07	-3.879324e-06	-2.156713e-09	-2.746660e+01	-1.466899e+02
9.100000e-07	-3.847388e-06	-2.164834e-09	-2.724049e+01	-1.463956e+02
9.200000e-07	-3.815170e-06	-2.159722e-09	-2.701237e+01	-1.460932e+02
9.300000e-07	-3.782677e-06	-2.143615e-09	-2.678232e+01	-1.457828e+02
9.400000e-07	-3.749900e-06	-2.141911e-09	-2.655025e+01	-1.454649e+02
9.500000e-07	-3.716816e-06	-2.143714e-09	-2.631600e+01	-1.451396e+02
9.600000e-07	-3.683323e-06	-2.136810e-09	-2.607886e+01	-1.448074e+02
9.700000e-07	-3.649340e-06	-2.118971e-09	-2.583825e+01	-1.444686e+02
9.800000e-07	-3.614986e-06	-2.111452e-09	-2.559502e+01	-1.441238e+02
9.900000e-07	-3.580261e-06	-2.115161e-09	-2.534916e+01	-1.437734e+02
1.000000e-06	-3.545167e-06	-2.117700e-09	-2.510069e+01	-1.434179e+02
1.010000e-06	-3.509828e-06	-2.108997e-09	-2.485048e+01	-1.430577e+02
1.020000e-06	-3.474252e-06	-2.104298e-09	-2.459859e+01	-1.426933e+02
1.030000e-06	-3.438497e-06	-2.108033e-09	-2.434544e+01	-1.423252e+02
1.040000e-06	-3.402566e-06	-2.109317e-09	-2.409103e+01	-1.419538e+02
1.050000e-06	-3.366455e-06	-2.095066e-09	-2.383536e+01	-1.415795e+02
1.060000e-06	-3.330165e-06	-2.078180e-09	-2.357842e+01	-1.412027e+02
1.070000e-06	-3.293681e-06	-2.070873e-09	-2.332010e+01	-1.408238e+02
1.080000e-06	-3.256937e-06	-2.066701e-09	-2.305994e+01	-1.404431e+02
1.090000e-06	-3.219920e-06	-2.059154e-09	-2.279785e+01	-1.400608e+02
1.100000e-06	-3.182676e-06	-2.051492e-09	-2.253415e+01	-1.396771e+02
1.110000e-06	-3.145325e-06	-2.051719e-09	-2.226970e+01	-1.392923e+02
1.120000e-06	-3.107776e-06	-2.055391e-09	-2.200384e+01	-1.389063e+02
1.130000e-06	-3.069944e-06	-2.050990e-09	-2.173599e+01	-1.385193e+02
1.140000e-06	-3.031938e-06	-2.035097e-09	-2.146689e+01	-1.381313e+02
1.150000e-06	-2.993735e-06	-2.022683e-09	-2.119641e+01	-1.377421e+02
1.160000e-06	-2.955245e-06	-2.016312e-09	-2.092388e+01	-1.373518e+02
1.170000e-06	-2.916544e-06	-2.010308e-09	-2.064987e+01	-1.369601e+02
1.180000e-06	-2.877727e-06	-2.000895e-09	-2.037504e+01	-1.365668e+02
1.190000e-06	-2.838701e-06	-1.998414e-09	-2.009872e+01	-1.361717e+02
1.200000e-06	-2.799387e-06	-2.000902e-09	-1.982037e+01	-1.357744e+02
1.210000e-06	-2.759845e-06	-2.000144e-09	-1.954041e+01	-1.353746e+02
1.220000e-06	-2.720218e-06	-1.987732e-09	-1.925984e+01	-1.349719e+02
1.230000e-06	-2.680524e-06	-1.974072e-09	-1.897879e+01	-1.345659e+02
1.240000e-06	-2.640758e-06	-1.963486e-09	-1.869724e+01	-1.341560e+02
1.250000e-06	-2.600889e-06	-1.956319e-09	-1.841496e+01	-1.337418e+02
1.260000e-06	-2.560863e-06	-1.945233e-09	-1.813156e+01	-1.333227e+02
1.270000e-06	-2.520707e-06	-1.936421e-09	-1.784725e+01	-1.328982e+02
1.280000e-06	-2.480447e-06	-1.931208e-09	-1.756219e+01	-1.324678e+02
1.290000e-06	-2.440023e-06	-1.928152e-09	-1.727599e+01	-1.320307e+02
1.300000e-06	-2.399379e-06	-1.922702e-09	-1.698822e+01	-1.315864e+02
1.310000e-06	-2.358432e-06	-1.916295e-09	-1.669830e+01	-1.311344e+02
1.320000e-06	-2.317162e-06	-1.908006e-09	-1.640610e+01	-1.306740e+02
1.330000e-06	-2.275570e-06	-1.897343e-09	-1.611162e+01	-1.302045e+02
1.340000e-06	-2.233657e-06	-1.884406e-09	-1.581486e+01	-1.297255e+02
1.350000e-06	-2.191515e-06	-1.869126e-09	-1.551649e+01	-1.292364e+02
1.360000e-06	-2.149170e-06	-1.855947e-09	-1.521667e+01	-1.287365e+02
1.370000e-06	-2.106533e-06	-1.846847e-09	-1.491479e+01	-1.282253e+02
1.380000e-06	-2.063682e-06	-1.837854e-09	-1.461139e+01	-1.277025e+02
1.390000e-06	-2.020696e-06	-1.828504e-09	-1.430704e+01	-1.271673e+02
1.400000e-06	-1.977506e-06	-1.823547e-09	-1.400125e+01	-1.266195e+02
1.410000e-06	-1.934177e-06	-1.817525e-09	-1.369446e+01	-1.260586e+02
1.420000e-06	-1.890790e-06	-1.806463e-09	-1.338728e+01	-1.254842e+02
1.430000e-06	-1.847263e-06	-1.790893e-09	-1.307909e+01	-1.248961e+02
1.440000e-06	-1.803591e-06	-1.775888e-09	-1.276989e+01	-1.242938e+02
1.450000e-06	-1.759827e-06	-1.761948e-09	-1.246002e+01	-1.236771e+02
1.460000e-06	-1.715941e-06	-1.749141e-09	-1.214930e+01	-1.230458e+02
1.470000e-06	-1.671948e-06	-1.734748e-09	-1.183782e+01	-1.223997e+02
1.480000e-06	-1.627881e-06	-1.721870e-09	-1.152581e+01	-1.217387e+02
1.490000e-06	-1.583754e-06	-1.714007e-09	-1.121338e+01	-1.210625e+02
1.500000e-06	-1.539535e-06	-1.710979e-09	-1.090030e+01	-1.203711e+02
1.510000e-06	-1.495271e-06	-1.703263e-09	-1.058690e+01	-1.196643e+02
1.520000e-06	-1.450953e-06	-1.689149e-09	-1.027311e+01	-1.189420e+02
1.530000e-06	-1.406551e-06	-1.672852e-09	-9.958742e+00	-1.182042e+02
1.540000e-06	-1.362092e-06	-1.659372e-09	-9.643958e+00	-1.174508e+02
1.550000e-06	-1.317548e-06	-1.645992e-09	-9.328573e+00	-1.166816e+02
1.560000e-06	-1.272949e-06	-1.632324e-09	-9.012802e+00	-1.158964e+02
1.570000e-06	-1.228255e-06	-1.622735e-09	-8.696359e+00	-1.150952e+02
1.580000e-06	-1.183362e-06	-1.617357e-09	-8.378502e+00	-1.142778e+02
1.590000e-06	-1.138352e-06	-1.612054e-09	-8.059821e+00	-1.134439e+02
1.600000e-06	-1.093281e-06	-1.603385e-09	-7.740706e+00	-1.125932e+02
1.610000e-06	-1.048133e-06	-1.590369e-09	-7.421045e+00	-1.117254e+02
1.620000e-06	-1.002933e-06	-1.576986e-09	-7.101019e+00	-1.108400e+02
1.630000e-06	-9.576523e-07	-1.563146e-09	-6.780422e+00	-1.099367e+02
1.640000e-06	-9.123200e-07	-1.548597e-09	-6.459458e+00	-1.090147e+02
1.650000e-06	-8.668984e-07	-1.534818e-09	-6.137862e+00	-1.080736e+02
1.660000e-06	-8.213989e-07	-1.520106e-09	-5.815714e+00	-1.071126e+02
1.670000e-06	-7.758677e-07	-1.504839e-09	-5.493341e+00	-1.061309e+02
1.680000e-06	-7.302200e-07	-1.489675e-09	-5.170143e+00	-1.051275e+02
1.690000e-06	-6.845225e-07	-1.475177e-09	-4.846593e+00	-1.041016e+02
1.700000e-06	-6.388721e-07	-1.462283e-09	-4.523377e+00	-1.030519e+02
1.710000e-06	-5.931083e-07	-1.447824e-09	-4.199358e+00	-1.019774e+02
1.720000e-06	-5.472217e-07	-1.430193e-09	-3.874469e+00	-1.008768e+02
1.730000e-06	-5.013337e-07	-1.413052e-09	-3.549570e+00	-9.974872e+01
1.740000e-06	-4.553919e-07	-1.396395e-09	-3.224291e+00	-9.859171e+01
1.750000e-06	-4.094313e-07	-1.377496e-09	-2.898878e+00	-9.740428e+01
1.760000e-06	-3.634968e-07	-1.357762e-09	-2.573650e+00	-9.618481e+01
1.770000e-06	-3.176148e-07	-1.339694e-09	-2.248793e+00	-9.493164e+01
1.780000e-06	-2.717480e-07	-1.322291e-09	-1.924045e+00	-9.364304e+01
1.790000e-06	-2.257976e-07	-1.304262e-09	-1.598704e+00	-9.231721e+01
1.800000e-06	-1.798166e-07	-1.282142e-09	-1.273147e+00	-9.095230e+01
1.810000e-06	-1.339059e-07	-1.260844e-09	-9.480877e-01	-8.954641e+01
1.820000e-06	-8.797972e-08	-1.241526e-09	-6.229188e-01	-8.809761e+01
1.830000e-06	-4.201362e-08	-1.222706e-09	-2.974671e-01	-8.660395e+01
1.840000e-06	3.952251e-09	-1.202623e-09	2.798294e-02	-8.506345e+01
1.850000e-06	4.997741e-08	-1.179710e-09	3.538528e-01	-8.347411e+01
1.860000e-06	9.595093e-08	-1.154193e-09	6.793570e-01	-8.183394e+01
1.870000e-06	1.419133e-07	-1.125101e-09	1.004782e+00	-8.014098e+01
1.880000e-06	1.879934e-07	-1.091957e-09	1.331041e+00	-7.839326e+01
1.890000e-06	2.340644e-07	-1.060341e-09	1.657235e+00	-7.658885e+01
1.900000e-06	2.800639e-07	-1.033096e-09	1.982924e+00	-7.472589e+01
1.910000e-06	3.259898e-07	-1.006977e-09	2.308090e+00	-7.280255e+01
1.920000e-06	3.718533e-07	-9.796877e-10	2.632816e+00	-7.081709e+01
1.930000e-06	4.176947e-07	-9.525934e-10	2.957385e+00	-6.876783e+01
1.940000e-06	4.635688e-07	-9.239183e-10	3.282185e+00	-6.665324e+01
1.950000e-06	5.094347e-07	-8.905051e-10	3.606928e+00	-6.447185e+01
1.960000e-06	5.552155e-07	-8.526796e-10	3.931067e+00	-6.222237e+01
1.970000e-06	6.009102e-07	-8.117462e-10	4.254597e+00	-5.990362e+01
1.980000e-06	6.465165e-07	-7.705373e-10	4.577502e+00	-5.751463e+01
1.990000e-06	6.920867e-07	-7.331735e-10	4.900150e+00	-5.505457e+01
2.000000e-06	7.377329e-07	-7.013853e-10	5.223337e+00	-5.252285e+01
2.010000e-06	7.833959e-07	-6.714398e-10	5.546642e+00	-4.991909e+01
2.020000e-06	8.289693e-07	-6.380718e-10	5.869314e+00	-4.724313e+01
2.030000e-06	8.744280e-07	-5.989434e-10	6.191173e+00	-4.449511e+01
2.040000e-06	9.197508e-07	-5.540973e-10	6.512070e+00	-4.167540e+01
2.050000e-06	9.650189e-07	-5.065404e-10	6.832580e+00	-3.878472e+01
2.060000e-06	1.010257e-06	-4.588365e-10	7.152879e+00	-3.582404e+01
2.070000e-06	1.055439e-06	-4.127694e-10	7.472775e+00	-3.279471e+01
2.080000e-06	1.100528e-06	-3.699205e-10	7.792016e+00	-2.969838e+01
2.090000e-06	1.145457e-06	-3.289201e-10	8.110128e+00	-2.653707e+01
2.100000e-06	1.190263e-06	-2.876201e-10	8.427366e+00	-2.331315e+01
2.110000e-06	1.234943e-06	-2.411332e-10	8.743712e+00	-2.002938e+01
2.120000e-06	1.279549e-06	-1.882088e-10	9.059533e+00	-1.668886e+01
2.130000e-06	1.324137e-06	-1.298991e-10	9.375230e+00	-1.329508e+01
2.140000e-06	1.368617e-06	-7.237376e-11	9.690155e+00	-9.851902e+00
2.150000e-06	1.413001e-06	-2.197167e-11	1.000441e+01	-6.363530e+00
2.160000e-06	1.457313e-06	2.506552e-11	1.031815e+01	-2.834539e+00
2.170000e-06	1.501531e-06	7.584064e-11	1.063122e+01	7.301687e-01
2.180000e-06	1.545659e-06	1.321008e-10	1.094366e+01	4.325369e+00
2.190000e-06	1.589703e-06	1.888333e-10	1.125550e+01	7.945545e+00
2.200000e-06	1.633655e-06	2.442683e-10	1.156669e+01	1.158491e+01
2.210000e-06	1.677597e-06	3.018109e-10	1.187781e+01	1.523745e+01
2.220000e-06	1.721533e-06	3.608704e-10	1.218889e+01	1.889693e+01
2.230000e-06	1.765416e-06	4.153499e-10	1.249959e+01	2.255697e+01
2.240000e-06	1.809239e-06	4.637182e-10	1.280987e+01	2.621106e+01
2.250000e-06	1.852980e-06	5.146111e-10	1.311957e+01	2.985263e+01
2.260000e-06	1.896629e-06	5.688143e-10	1.342862e+01	3.347506e+01
2.270000e-06	1.940143e-06	6.230014e-10	1.373671e+01	3.707177e+01
2.280000e-06	1.983494e-06	6.731293e-10	1.404364e+01	4.063624e+01
2.290000e-06	2.026650e-06	7.221708e-10	1.434920e+01	4.416208e+01
2.300000e-06	2.069531e-06	7.739765e-10	1.465281e+01	4.764307e+01
2.310000e-06	2.112135e-06	8.226083e-10	1.495445e+01	5.107322e+01
2.320000e-06	2.154625e-06	8.654632e-10	1.525529e+01	5.444681e+01
2.330000e-06	2.196888e-06	9.070859e-10	1.555453e+01	5.775846e+01
2.340000e-06	2.238727e-06	9.523059e-10	1.585076e+01	6.100312e+01
2.350000e-06	2.280283e-06	1.001173e-09	1.614499e+01	6.417620e+01
2.360000e-06	2.321605e-06	1.048973e-09	1.643756e+01	6.727350e+01
2.370000e-06	2.362664e-06	1.092124e-09	1.672826e+01	7.029134e+01
2.380000e-06	2.403529e-06	1.133962e-09	1.701760e+01	7.322652e+01
2.390000e-06	2.444126e-06	1.174063e-09	1.730503e+01	7.607638e+01
2.400000e-06	2.484471e-06	1.207207e-09	1.759069e+01	7.883879e+01
2.410000e-06	2.524633e-06	1.234910e-09	1.787504e+01	8.151218e+01
2.420000e-06	2.564663e-06	1.267779e-09	1.815847e+01	8.409552e+01
2.430000e-06	2.604634e-06	1.306565e-09	1.844148e+01	8.658835e+01
2.440000e-06	2.644546e-06	1.344988e-09	1.872406e+01	8.899071e+01
2.450000e-06	2.684411e-06	1.378596e-09	1.900632e+01	9.130319e+01
2.460000e-06	2.724102e-06	1.411638e-09	1.928734e+01	9.352688e+01
2.470000e-06	2.763632e-06	1.446384e-09	1.956722e+01	9.566332e+01
2.480000e-06	2.803021e-06	1.477968e-09	1.984610e+01	9.771449e+01
2.490000e-06	2.842108e-06	1.503480e-09	2.012285e+01	9.968276e+01
2.500000e-06	2.880942e-06	1.526178e-09	2.039780e+01	1.015709e+02
2.510000e-06	2.919628e-06	1.552834e-09	2.067171e+01	1.033818e+02
2.520000e-06	2.958125e-06	1.579764e-09	2.094428e+01	1.051188e+02
2.530000e-06	2.996386e-06	1.599547e-09	2.121517e+01	1.067855e+02
2.540000e-06	3.034393e-06	1.617173e-09	2.148427e+01	1.083854e+02
2.550000e-06	3.072262e-06	1.642206e-09	2.175240e+01	1.099222e+02
2.560000e-06	3.109989e-06	1.672007e-09	2.201952e+01	1.113997e+02
2.570000e-06	3.147491e-06	1.698749e-09	2.228504e+01	1.128216e+02
2.580000e-06	3.184779e-06	1.719928e-09	2.254905e+01	1.141917e+02
2.590000e-06	3.221838e-06	1.739676e-09	2.281143e+01	1.155134e+02
2.600000e-06	3.258669e-06	1.758197e-09	2.307221e+01	1.167903e+02
2.610000e-06	3.295220e-06	1.771467e-09	2.333100e+01	1.180256e+02
2.620000e-06	3.331535e-06	1.781226e-09	2.358811e+01	1.192223e+02
2.630000e-06	3.367678e-06	1.795364e-09	2.384402e+01	1.203832e+02
2.640000e-06	3.403679e-06	1.815436e-09	2.409891e+01	1.215108e+02
2.650000e-06	3.439553e-06	1.836132e-09	2.435291e+01	1.226074e+02
2.660000e-06	3.475324e-06	1.855048e-09	2.460618e+01	1.236749e+02
2.670000e-06	3.511001e-06	1.875288e-09	2.485878e+01	1.247150e+02
2.680000e-06	3.546483e-06	1.895574e-09	2.511000e+01	1.257290e+02
2.690000e-06	3.581638e-06	1.909881e-09	2.535891e+01	1.267179e+02
2.700000e-06	3.616343e-06	1.917590e-09	2.560463e+01	1.276827e+02
2.710000e-06	3.650597e-06	1.925392e-09	2.584716e+01	1.286237e+02
2.720000e-06	3.684454e-06	1.938651e-09	2.608687e+01	1.295415e+02
2.730000e-06	3.717813e-06	1.954511e-09	2.632307e+01	1.304359e+02
2.740000e-06	3.750715e-06	1.968637e-09	2.655602e+01	1.313071e+02
2.750000e-06	3.783306e-06	1.982762e-09	2.678677e+01	1.321547e+02
2.760000e-06	3.815614e-06	2.000856e-09	2.701552e+01	1.329784e+02
2.770000e-06	3.847710e-06	2.018782e-09	2.724276e+01	1.337779e+02
2.780000e-06	3.879649e-06	2.031119e-09	2.746890e+01	1.345527e+02
2.790000e-06	3.911454e-06	2.037845e-09	2.769409e+01	1.353024e+02
2.800000e-06	3.943132e-06	2.046297e-09	2.791838e+01	1.360265e+02
2.810000e-06	3.974552e-06	2.056903e-09	2.814084e+01	1.367246e+02
2.820000e-06	4.005685e-06	2.062184e-09	2.836127e+01	1.373964e+02
2.830000e-06	4.036545e-06	2.064999e-09	2.857977e+01	1.380419e+02
2.840000e-06	4.067054e-06	2.074781e-09	2.879578e+01	1.386608e+02
2.850000e-06	4.097219e-06	2.092849e-09	2.900935e+01	1.392532e+02
2.860000e-06	4.127087e-06	2.112141e-09	2.922083e+01	1.398194e+02
2.870000e-06	4.156786e-06	2.124901e-09	2.943110e+01	1.403598e+02
2.880000e-06	4.186308e-06	2.130723e-09	2.964013e+01	1.408748e+02
2.890000e-06	4.215556e-06	2.132424e-09	2.984721e+01	1.413652e+02
2.900000e-06	4.244460e-06	2.132041e-09	3.005186e+01	1.418319e+02
