# Temperatura_=_-1.13
# Concentracion g/m^3_=_4090.0
# C_Vs_to_Am_M_A/Vsm_=_65563218390.804596
# pendiente_HvsI_1/m_=_3716.3
# ordenada_HvsI_A/m_=_1297.0
# frecuencia_Hz_=_135080.17338425855

Tiempo_(s)	Campo_(V.s)	Magnetizacion_(V.s)	Campo_(kA/m)	Magnetizacion_(A/m)
0.000000e+00	-5.418850e-06	-2.657110e-09	-3.838773e+01	-1.711935e+02
1.000000e-08	-5.418855e-06	-2.661444e-09	-3.838776e+01	-1.711906e+02
2.000000e-08	-5.418625e-06	-2.663859e-09	-3.838613e+01	-1.711907e+02
3.000000e-08	-5.418069e-06	-2.660007e-09	-3.838219e+01	-1.711948e+02
4.000000e-08	-5.417031e-06	-2.656404e-09	-3.837484e+01	-1.712042e+02
5.000000e-08	-5.415469e-06	-2.663080e-09	-3.836377e+01	-1.712200e+02
6.000000e-08	-5.413381e-06	-2.689336e-09	-3.834898e+01	-1.712433e+02
7.000000e-08	-5.410691e-06	-2.701666e-09	-3.832993e+01	-1.712753e+02
8.000000e-08	-5.407420e-06	-2.631700e-09	-3.830675e+01	-1.713168e+02
9.000000e-08	-5.403647e-06	-2.557192e-09	-3.828003e+01	-1.713688e+02
1.000000e-07	-5.399533e-06	-2.646229e-09	-3.825089e+01	-1.714319e+02
1.100000e-07	-5.395222e-06	-2.724356e-09	-3.822034e+01	-1.715067e+02
1.200000e-07	-5.390669e-06	-2.694811e-09	-3.818809e+01	-1.715936e+02
1.300000e-07	-5.385768e-06	-2.538722e-09	-3.815337e+01	-1.716928e+02
1.400000e-07	-5.380418e-06	-2.624341e-09	-3.811547e+01	-1.718044e+02
1.500000e-07	-5.374660e-06	-2.748061e-09	-3.807468e+01	-1.719282e+02
1.600000e-07	-5.368632e-06	-2.664717e-09	-3.803197e+01	-1.720638e+02
1.700000e-07	-5.362279e-06	-2.532825e-09	-3.798697e+01	-1.722106e+02
1.800000e-07	-5.355504e-06	-2.571666e-09	-3.793897e+01	-1.723679e+02
1.900000e-07	-5.348265e-06	-2.712406e-09	-3.788769e+01	-1.725347e+02
2.000000e-07	-5.340705e-06	-2.647207e-09	-3.783414e+01	-1.727098e+02
2.100000e-07	-5.332943e-06	-2.619241e-09	-3.777915e+01	-1.728919e+02
2.200000e-07	-5.325001e-06	-2.678239e-09	-3.772289e+01	-1.730797e+02
2.300000e-07	-5.316789e-06	-2.741272e-09	-3.766471e+01	-1.732715e+02
2.400000e-07	-5.308026e-06	-2.655155e-09	-3.760264e+01	-1.734656e+02
2.500000e-07	-5.298678e-06	-2.674148e-09	-3.753642e+01	-1.736603e+02
2.600000e-07	-5.288711e-06	-2.741992e-09	-3.746581e+01	-1.738538e+02
2.700000e-07	-5.278175e-06	-2.742675e-09	-3.739117e+01	-1.740443e+02
2.800000e-07	-5.267176e-06	-2.662377e-09	-3.731325e+01	-1.742300e+02
2.900000e-07	-5.255689e-06	-2.720974e-09	-3.723188e+01	-1.744090e+02
3.000000e-07	-5.243785e-06	-2.777075e-09	-3.714755e+01	-1.745797e+02
3.100000e-07	-5.231538e-06	-2.706987e-09	-3.706079e+01	-1.747403e+02
3.200000e-07	-5.218890e-06	-2.655110e-09	-3.697119e+01	-1.748894e+02
3.300000e-07	-5.205891e-06	-2.724486e-09	-3.687910e+01	-1.750255e+02
3.400000e-07	-5.192554e-06	-2.741681e-09	-3.678462e+01	-1.751475e+02
3.500000e-07	-5.178851e-06	-2.698276e-09	-3.668754e+01	-1.752541e+02
3.600000e-07	-5.164781e-06	-2.698526e-09	-3.658788e+01	-1.753444e+02
3.700000e-07	-5.150172e-06	-2.715158e-09	-3.648438e+01	-1.754178e+02
3.800000e-07	-5.134908e-06	-2.690372e-09	-3.637625e+01	-1.754736e+02
3.900000e-07	-5.119083e-06	-2.696914e-09	-3.626414e+01	-1.755115e+02
4.000000e-07	-5.102866e-06	-2.705904e-09	-3.614926e+01	-1.755314e+02
4.100000e-07	-5.086337e-06	-2.663361e-09	-3.603217e+01	-1.755332e+02
4.200000e-07	-5.069329e-06	-2.670715e-09	-3.591168e+01	-1.755172e+02
4.300000e-07	-5.051944e-06	-2.710921e-09	-3.578852e+01	-1.754838e+02
4.400000e-07	-5.034331e-06	-2.708051e-09	-3.566375e+01	-1.754334e+02
4.500000e-07	-5.016433e-06	-2.646424e-09	-3.553696e+01	-1.753668e+02
4.600000e-07	-4.998202e-06	-2.665609e-09	-3.540781e+01	-1.752848e+02
4.700000e-07	-4.979580e-06	-2.688845e-09	-3.527589e+01	-1.751883e+02
4.800000e-07	-4.960638e-06	-2.687634e-09	-3.514170e+01	-1.750784e+02
4.900000e-07	-4.941335e-06	-2.651761e-09	-3.500496e+01	-1.749561e+02
5.000000e-07	-4.921722e-06	-2.665141e-09	-3.486601e+01	-1.748225e+02
5.100000e-07	-4.901882e-06	-2.676109e-09	-3.472547e+01	-1.746789e+02
5.200000e-07	-4.881774e-06	-2.698187e-09	-3.458302e+01	-1.745264e+02
5.300000e-07	-4.861409e-06	-2.672303e-09	-3.443875e+01	-1.743662e+02
5.400000e-07	-4.840732e-06	-2.657575e-09	-3.429228e+01	-1.741994e+02
5.500000e-07	-4.819671e-06	-2.654302e-09	-3.414308e+01	-1.740272e+02
5.600000e-07	-4.798299e-06	-2.678876e-09	-3.399167e+01	-1.738507e+02
5.700000e-07	-4.776557e-06	-2.662373e-09	-3.383765e+01	-1.736708e+02
5.800000e-07	-4.754523e-06	-2.644817e-09	-3.368156e+01	-1.734884e+02
5.900000e-07	-4.732201e-06	-2.640284e-09	-3.352343e+01	-1.733044e+02
6.000000e-07	-4.709512e-06	-2.661801e-09	-3.336269e+01	-1.731196e+02
6.100000e-07	-4.686370e-06	-2.657189e-09	-3.319876e+01	-1.729345e+02
6.200000e-07	-4.662860e-06	-2.633553e-09	-3.303221e+01	-1.727498e+02
6.300000e-07	-4.639145e-06	-2.617846e-09	-3.286421e+01	-1.725659e+02
6.400000e-07	-4.615251e-06	-2.634930e-09	-3.269495e+01	-1.723831e+02
6.500000e-07	-4.591198e-06	-2.644892e-09	-3.252455e+01	-1.722018e+02
6.600000e-07	-4.566878e-06	-2.626237e-09	-3.235226e+01	-1.720220e+02
6.700000e-07	-4.542228e-06	-2.611294e-09	-3.217764e+01	-1.718440e+02
6.800000e-07	-4.517154e-06	-2.616098e-09	-3.200001e+01	-1.716676e+02
6.900000e-07	-4.491612e-06	-2.625797e-09	-3.181907e+01	-1.714929e+02
7.000000e-07	-4.465599e-06	-2.612652e-09	-3.163479e+01	-1.713198e+02
7.100000e-07	-4.439059e-06	-2.599155e-09	-3.144678e+01	-1.711479e+02
7.200000e-07	-4.412085e-06	-2.596065e-09	-3.125569e+01	-1.709772e+02
7.300000e-07	-4.384783e-06	-2.614990e-09	-3.106228e+01	-1.708074e+02
7.400000e-07	-4.357135e-06	-2.610670e-09	-3.086642e+01	-1.706381e+02
7.500000e-07	-4.329203e-06	-2.593919e-09	-3.066854e+01	-1.704689e+02
7.600000e-07	-4.301054e-06	-2.577699e-09	-3.046913e+01	-1.702996e+02
7.700000e-07	-4.272689e-06	-2.587343e-09	-3.026819e+01	-1.701297e+02
7.800000e-07	-4.244122e-06	-2.583288e-09	-3.006582e+01	-1.699589e+02
7.900000e-07	-4.215356e-06	-2.574310e-09	-2.986204e+01	-1.697867e+02
8.000000e-07	-4.186207e-06	-2.561881e-09	-2.965555e+01	-1.696127e+02
8.100000e-07	-4.156677e-06	-2.571682e-09	-2.944636e+01	-1.694365e+02
8.200000e-07	-4.126936e-06	-2.575116e-09	-2.923567e+01	-1.692576e+02
8.300000e-07	-4.096966e-06	-2.571560e-09	-2.902336e+01	-1.690757e+02
8.400000e-07	-4.066691e-06	-2.554724e-09	-2.880888e+01	-1.688902e+02
8.500000e-07	-4.036044e-06	-2.554200e-09	-2.859178e+01	-1.687008e+02
8.600000e-07	-4.005102e-06	-2.554227e-09	-2.837258e+01	-1.685070e+02
8.700000e-07	-3.974000e-06	-2.551900e-09	-2.815225e+01	-1.683084e+02
8.800000e-07	-3.942654e-06	-2.540109e-09	-2.793019e+01	-1.681046e+02
8.900000e-07	-3.911036e-06	-2.539935e-09	-2.770620e+01	-1.678952e+02
9.000000e-07	-3.879318e-06	-2.544295e-09	-2.748151e+01	-1.676797e+02
9.100000e-07	-3.847455e-06	-2.544064e-09	-2.725579e+01	-1.674579e+02
9.200000e-07	-3.815326e-06	-2.532145e-09	-2.702818e+01	-1.672293e+02
9.300000e-07	-3.782964e-06	-2.524972e-09	-2.679893e+01	-1.669935e+02
9.400000e-07	-3.750310e-06	-2.526757e-09	-2.656761e+01	-1.667503e+02
9.500000e-07	-3.717314e-06	-2.527524e-09	-2.633386e+01	-1.664993e+02
9.600000e-07	-3.683891e-06	-2.522044e-09	-2.609709e+01	-1.662404e+02
9.700000e-07	-3.649984e-06	-2.516762e-09	-2.585689e+01	-1.659732e+02
9.800000e-07	-3.615664e-06	-2.515853e-09	-2.561376e+01	-1.656975e+02
9.900000e-07	-3.580955e-06	-2.509531e-09	-2.536788e+01	-1.654134e+02
1.000000e-06	-3.545848e-06	-2.502404e-09	-2.511917e+01	-1.651205e+02
1.010000e-06	-3.510437e-06	-2.496200e-09	-2.486832e+01	-1.648190e+02
1.020000e-06	-3.474906e-06	-2.497103e-09	-2.461662e+01	-1.645089e+02
1.030000e-06	-3.439168e-06	-2.495708e-09	-2.436344e+01	-1.641902e+02
1.040000e-06	-3.403199e-06	-2.494742e-09	-2.410863e+01	-1.638631e+02
1.050000e-06	-3.367133e-06	-2.485325e-09	-2.385314e+01	-1.635277e+02
1.060000e-06	-3.330937e-06	-2.476169e-09	-2.359672e+01	-1.631844e+02
1.070000e-06	-3.294593e-06	-2.462575e-09	-2.333926e+01	-1.628335e+02
1.080000e-06	-3.257970e-06	-2.454563e-09	-2.307982e+01	-1.624754e+02
1.090000e-06	-3.221054e-06	-2.447292e-09	-2.281830e+01	-1.621104e+02
1.100000e-06	-3.183865e-06	-2.447864e-09	-2.255485e+01	-1.617391e+02
1.110000e-06	-3.146403e-06	-2.446187e-09	-2.228946e+01	-1.613619e+02
1.120000e-06	-3.108827e-06	-2.444553e-09	-2.202327e+01	-1.609794e+02
1.130000e-06	-3.071046e-06	-2.438902e-09	-2.175563e+01	-1.605921e+02
1.140000e-06	-3.033017e-06	-2.434808e-09	-2.148622e+01	-1.602005e+02
1.150000e-06	-2.994832e-06	-2.426370e-09	-2.121572e+01	-1.598053e+02
1.160000e-06	-2.956463e-06	-2.417488e-09	-2.094390e+01	-1.594068e+02
1.170000e-06	-2.917821e-06	-2.405299e-09	-2.067016e+01	-1.590057e+02
1.180000e-06	-2.878877e-06	-2.398992e-09	-2.039428e+01	-1.586022e+02
1.190000e-06	-2.839807e-06	-2.396265e-09	-2.011751e+01	-1.581969e+02
1.200000e-06	-2.800616e-06	-2.392644e-09	-1.983987e+01	-1.577900e+02
1.210000e-06	-2.761248e-06	-2.384515e-09	-1.956098e+01	-1.573818e+02
1.220000e-06	-2.721788e-06	-2.377619e-09	-1.928144e+01	-1.569724e+02
1.230000e-06	-2.682122e-06	-2.372085e-09	-1.900044e+01	-1.565618e+02
1.240000e-06	-2.642303e-06	-2.365253e-09	-1.871836e+01	-1.561500e+02
1.250000e-06	-2.602399e-06	-2.356116e-09	-1.843568e+01	-1.557368e+02
1.260000e-06	-2.562372e-06	-2.345825e-09	-1.815212e+01	-1.553220e+02
1.270000e-06	-2.522244e-06	-2.337894e-09	-1.786785e+01	-1.549052e+02
1.280000e-06	-2.481970e-06	-2.328580e-09	-1.758255e+01	-1.544858e+02
1.290000e-06	-2.441578e-06	-2.317131e-09	-1.729641e+01	-1.540633e+02
1.300000e-06	-2.401038e-06	-2.305482e-09	-1.700921e+01	-1.536370e+02
1.310000e-06	-2.360202e-06	-2.300927e-09	-1.671993e+01	-1.532061e+02
1.320000e-06	-2.319066e-06	-2.298448e-09	-1.642851e+01	-1.527697e+02
1.330000e-06	-2.277753e-06	-2.293517e-09	-1.613585e+01	-1.523270e+02
1.340000e-06	-2.236196e-06	-2.285391e-09	-1.584145e+01	-1.518767e+02
1.350000e-06	-2.194300e-06	-2.280624e-09	-1.554466e+01	-1.514181e+02
1.360000e-06	-2.152147e-06	-2.274992e-09	-1.524604e+01	-1.509499e+02
1.370000e-06	-2.109688e-06	-2.264419e-09	-1.494526e+01	-1.504711e+02
1.380000e-06	-2.066882e-06	-2.245108e-09	-1.464202e+01	-1.499807e+02
1.390000e-06	-2.023966e-06	-2.228143e-09	-1.433800e+01	-1.494775e+02
1.400000e-06	-1.980912e-06	-2.217202e-09	-1.403299e+01	-1.489605e+02
1.410000e-06	-1.937635e-06	-2.213159e-09	-1.372642e+01	-1.484288e+02
1.420000e-06	-1.894162e-06	-2.207920e-09	-1.341845e+01	-1.478814e+02
1.430000e-06	-1.850491e-06	-2.203411e-09	-1.310908e+01	-1.473175e+02
1.440000e-06	-1.806737e-06	-2.197218e-09	-1.279913e+01	-1.467364e+02
1.450000e-06	-1.762872e-06	-2.187810e-09	-1.248837e+01	-1.461372e+02
1.460000e-06	-1.718916e-06	-2.169712e-09	-1.217699e+01	-1.455194e+02
1.470000e-06	-1.674911e-06	-2.147811e-09	-1.186525e+01	-1.448825e+02
1.480000e-06	-1.630832e-06	-2.130012e-09	-1.155299e+01	-1.442261e+02
1.490000e-06	-1.586757e-06	-2.117603e-09	-1.124076e+01	-1.435498e+02
1.500000e-06	-1.542654e-06	-2.107717e-09	-1.092833e+01	-1.428533e+02
1.510000e-06	-1.498429e-06	-2.101021e-09	-1.061503e+01	-1.421365e+02
1.520000e-06	-1.454082e-06	-2.094328e-09	-1.030088e+01	-1.413991e+02
1.530000e-06	-1.409611e-06	-2.086748e-09	-9.985841e+00	-1.406412e+02
1.540000e-06	-1.365035e-06	-2.074427e-09	-9.670057e+00	-1.398625e+02
1.550000e-06	-1.320420e-06	-2.056929e-09	-9.354000e+00	-1.390631e+02
1.560000e-06	-1.275758e-06	-2.040477e-09	-9.037612e+00	-1.382429e+02
1.570000e-06	-1.231041e-06	-2.027832e-09	-8.720830e+00	-1.374017e+02
1.580000e-06	-1.186229e-06	-2.017143e-09	-8.403378e+00	-1.365395e+02
1.590000e-06	-1.141305e-06	-2.005205e-09	-8.085126e+00	-1.356559e+02
1.600000e-06	-1.096337e-06	-1.991977e-09	-7.766570e+00	-1.347508e+02
1.610000e-06	-1.051254e-06	-1.977940e-09	-7.447199e+00	-1.338238e+02
1.620000e-06	-1.006013e-06	-1.964526e-09	-7.126704e+00	-1.328743e+02
1.630000e-06	-9.606524e-07	-1.949623e-09	-6.805367e+00	-1.319017e+02
1.640000e-06	-9.151861e-07	-1.930861e-09	-6.483279e+00	-1.309054e+02
1.650000e-06	-8.696962e-07	-1.911399e-09	-6.161023e+00	-1.298843e+02
1.660000e-06	-8.241697e-07	-1.897244e-09	-5.838508e+00	-1.288375e+02
1.670000e-06	-7.785726e-07	-1.881723e-09	-5.515493e+00	-1.277638e+02
1.680000e-06	-7.329669e-07	-1.861802e-09	-5.192418e+00	-1.266619e+02
1.690000e-06	-6.873445e-07	-1.838903e-09	-4.869224e+00	-1.255303e+02
1.700000e-06	-6.416093e-07	-1.819289e-09	-4.545230e+00	-1.243674e+02
1.710000e-06	-5.958326e-07	-1.801608e-09	-4.220943e+00	-1.231714e+02
1.720000e-06	-5.500779e-07	-1.783356e-09	-3.896812e+00	-1.219406e+02
1.730000e-06	-5.042661e-07	-1.763746e-09	-3.572276e+00	-1.206730e+02
1.740000e-06	-4.583658e-07	-1.745287e-09	-3.247113e+00	-1.193665e+02
1.750000e-06	-4.124043e-07	-1.726920e-09	-2.921517e+00	-1.180192e+02
1.760000e-06	-3.664475e-07	-1.707317e-09	-2.595955e+00	-1.166289e+02
1.770000e-06	-3.205038e-07	-1.681197e-09	-2.270484e+00	-1.151936e+02
1.780000e-06	-2.745801e-07	-1.654606e-09	-1.945155e+00	-1.137111e+02
1.790000e-06	-2.286127e-07	-1.630603e-09	-1.619517e+00	-1.121794e+02
1.800000e-06	-1.825736e-07	-1.606804e-09	-1.293371e+00	-1.105965e+02
1.810000e-06	-1.365744e-07	-1.582057e-09	-9.675083e-01	-1.089605e+02
1.820000e-06	-9.065404e-08	-1.559505e-09	-6.422031e-01	-1.072695e+02
1.830000e-06	-4.473870e-08	-1.537400e-09	-3.169338e-01	-1.055218e+02
1.840000e-06	1.239425e-09	-1.512704e-09	8.780223e-03	-1.037160e+02
1.850000e-06	4.722016e-08	-1.484760e-09	3.345128e-01	-1.018506e+02
1.860000e-06	9.317475e-08	-1.452159e-09	6.600601e-01	-9.992432e+01
1.870000e-06	1.391627e-07	-1.418416e-09	9.858437e-01	-9.793618e+01
1.880000e-06	1.850375e-07	-1.383982e-09	1.310826e+00	-9.588527e+01
1.890000e-06	2.308385e-07	-1.348207e-09	1.635285e+00	-9.377090e+01
1.900000e-06	2.767254e-07	-1.313131e-09	1.960353e+00	-9.159255e+01
1.910000e-06	3.226388e-07	-1.280147e-09	2.285609e+00	-8.934992e+01
1.920000e-06	3.685322e-07	-1.247731e-09	2.610722e+00	-8.704285e+01
1.930000e-06	4.143869e-07	-1.214923e-09	2.935562e+00	-8.467139e+01
1.940000e-06	4.601514e-07	-1.180755e-09	3.259762e+00	-8.223572e+01
1.950000e-06	5.058779e-07	-1.147176e-09	3.583694e+00	-7.973621e+01
1.960000e-06	5.515987e-07	-1.109879e-09	3.907585e+00	-7.717333e+01
1.970000e-06	5.973075e-07	-1.067463e-09	4.231391e+00	-7.454773e+01
1.980000e-06	6.429727e-07	-1.020685e-09	4.554889e+00	-7.186014e+01
1.990000e-06	6.885641e-07	-9.752313e-10	4.877863e+00	-6.911142e+01
2.000000e-06	7.341480e-07	-9.347616e-10	5.200785e+00	-6.630250e+01
2.010000e-06	7.796646e-07	-8.981682e-10	5.523229e+00	-6.343442e+01
2.020000e-06	8.250780e-07	-8.603326e-10	5.844943e+00	-6.050828e+01
2.030000e-06	8.704261e-07	-8.196614e-10	6.166194e+00	-5.752524e+01
2.040000e-06	9.157125e-07	-7.757092e-10	6.487007e+00	-5.448652e+01
2.050000e-06	9.609868e-07	-7.285960e-10	6.807736e+00	-5.139342e+01
2.060000e-06	1.006249e-06	-6.780909e-10	7.128381e+00	-4.824727e+01
2.070000e-06	1.051375e-06	-6.261796e-10	7.448055e+00	-4.504947e+01
2.080000e-06	1.096307e-06	-5.762438e-10	7.766362e+00	-4.180146e+01
2.090000e-06	1.141203e-06	-5.294362e-10	8.084407e+00	-3.850478e+01
2.100000e-06	1.186087e-06	-4.840667e-10	8.402368e+00	-3.516103e+01
2.110000e-06	1.230747e-06	-4.364392e-10	8.718750e+00	-3.177189e+01
2.120000e-06	1.275364e-06	-3.859937e-10	9.034816e+00	-2.833915e+01
2.130000e-06	1.319986e-06	-3.329665e-10	9.350922e+00	-2.486471e+01
2.140000e-06	1.364463e-06	-2.770433e-10	9.666002e+00	-2.135059e+01
2.150000e-06	1.408876e-06	-2.212794e-10	9.980633e+00	-1.779896e+01
2.160000e-06	1.453201e-06	-1.691221e-10	1.029464e+01	-1.421215e+01
2.170000e-06	1.497428e-06	-1.176234e-10	1.060794e+01	-1.059266e+01
2.180000e-06	1.541590e-06	-6.275136e-11	1.092079e+01	-6.943162e+00
2.190000e-06	1.585697e-06	-4.100035e-12	1.123325e+01	-3.266547e+00
2.200000e-06	1.629751e-06	5.524518e-11	1.154534e+01	4.341029e-01
2.210000e-06	1.673735e-06	1.139014e-10	1.185692e+01	4.155491e+00
2.220000e-06	1.717593e-06	1.717983e-10	1.216761e+01	7.894103e+00
2.230000e-06	1.761378e-06	2.278277e-10	1.247779e+01	1.164621e+01
2.240000e-06	1.805167e-06	2.805062e-10	1.278800e+01	1.540788e+01
2.250000e-06	1.848891e-06	3.318038e-10	1.309774e+01	1.917497e+01
2.260000e-06	1.892500e-06	3.848821e-10	1.340668e+01	2.294315e+01
2.270000e-06	1.936018e-06	4.428615e-10	1.371496e+01	2.670791e+01
2.280000e-06	1.979361e-06	5.023435e-10	1.402201e+01	3.046461e+01
2.290000e-06	2.022481e-06	5.617175e-10	1.432748e+01	3.420845e+01
2.300000e-06	2.065427e-06	6.212523e-10	1.463171e+01	3.793457e+01
2.310000e-06	2.108208e-06	6.776068e-10	1.493477e+01	4.163802e+01
2.320000e-06	2.150694e-06	7.284716e-10	1.523575e+01	4.531383e+01
2.330000e-06	2.192878e-06	7.770231e-10	1.553459e+01	4.895703e+01
2.340000e-06	2.234792e-06	8.280352e-10	1.583151e+01	5.256271e+01
2.350000e-06	2.276315e-06	8.827363e-10	1.612566e+01	5.612605e+01
2.360000e-06	2.317532e-06	9.378870e-10	1.641765e+01	5.964236e+01
2.370000e-06	2.358506e-06	9.899634e-10	1.670791e+01	6.310710e+01
2.380000e-06	2.399225e-06	1.040576e-09	1.699637e+01	6.651599e+01
2.390000e-06	2.439754e-06	1.090473e-09	1.728348e+01	6.986497e+01
2.400000e-06	2.480096e-06	1.133913e-09	1.756927e+01	7.315027e+01
2.410000e-06	2.520279e-06	1.171183e-09	1.785393e+01	7.636846e+01
2.420000e-06	2.560392e-06	1.211606e-09	1.813810e+01	7.951646e+01
2.430000e-06	2.600470e-06	1.258956e-09	1.842201e+01	8.259155e+01
2.440000e-06	2.640439e-06	1.309707e-09	1.870516e+01	8.559143e+01
2.450000e-06	2.680250e-06	1.354206e-09	1.898718e+01	8.851420e+01
2.460000e-06	2.719945e-06	1.393439e-09	1.926839e+01	9.135839e+01
2.470000e-06	2.759524e-06	1.432020e-09	1.954877e+01	9.412297e+01
2.480000e-06	2.798940e-06	1.468282e-09	1.982800e+01	9.680731e+01
2.490000e-06	2.838209e-06	1.501128e-09	2.010619e+01	9.941123e+01
2.500000e-06	2.877199e-06	1.533762e-09	2.038239e+01	1.019349e+02
2.510000e-06	2.915926e-06	1.572539e-09	2.065674e+01	1.043790e+02
2.520000e-06	2.954442e-06	1.613899e-09	2.092959e+01	1.067444e+02
2.530000e-06	2.992705e-06	1.648825e-09	2.120065e+01	1.090324e+02
2.540000e-06	3.030861e-06	1.677306e-09	2.147095e+01	1.112447e+02
2.550000e-06	3.068847e-06	1.705103e-09	2.174005e+01	1.133830e+02
2.560000e-06	3.106553e-06	1.733943e-09	2.200716e+01	1.154495e+02
2.570000e-06	3.144032e-06	1.759766e-09	2.227267e+01	1.174465e+02
2.580000e-06	3.181257e-06	1.781677e-09	2.253637e+01	1.193763e+02
2.590000e-06	3.218280e-06	1.808178e-09	2.279865e+01	1.212415e+02
2.600000e-06	3.255126e-06	1.838882e-09	2.305967e+01	1.230447e+02
2.610000e-06	3.291728e-06	1.866841e-09	2.331896e+01	1.247884e+02
2.620000e-06	3.328091e-06	1.890975e-09	2.357656e+01	1.264752e+02
2.630000e-06	3.364303e-06	1.913937e-09	2.383309e+01	1.281078e+02
2.640000e-06	3.400403e-06	1.937311e-09	2.408882e+01	1.296884e+02
2.650000e-06	3.436252e-06	1.958660e-09	2.434278e+01	1.312195e+02
2.660000e-06	3.471967e-06	1.976913e-09	2.459580e+01	1.327032e+02
2.670000e-06	3.507631e-06	1.997048e-09	2.484844e+01	1.341415e+02
2.680000e-06	3.543069e-06	2.019848e-09	2.509949e+01	1.355362e+02
2.690000e-06	3.578170e-06	2.039768e-09	2.534814e+01	1.368891e+02
2.700000e-06	3.612887e-06	2.054705e-09	2.559408e+01	1.382015e+02
2.710000e-06	3.647232e-06	2.070452e-09	2.583739e+01	1.394748e+02
2.720000e-06	3.681091e-06	2.088493e-09	2.607725e+01	1.407099e+02
2.730000e-06	3.714408e-06	2.108409e-09	2.631327e+01	1.419079e+02
2.740000e-06	3.747277e-06	2.128125e-09	2.654612e+01	1.430693e+02
2.750000e-06	3.779911e-06	2.146755e-09	2.677730e+01	1.441948e+02
2.760000e-06	3.812363e-06	2.165770e-09	2.700719e+01	1.452849e+02
2.770000e-06	3.844552e-06	2.180910e-09	2.723522e+01	1.463398e+02
2.780000e-06	3.876569e-06	2.190994e-09	2.746204e+01	1.473598e+02
2.790000e-06	3.908408e-06	2.197599e-09	2.768759e+01	1.483451e+02
2.800000e-06	3.940055e-06	2.208661e-09	2.791178e+01	1.492958e+02
2.810000e-06	3.971412e-06	2.224623e-09	2.813392e+01	1.502121e+02
2.820000e-06	4.002465e-06	2.243250e-09	2.835390e+01	1.510941e+02
2.830000e-06	4.033279e-06	2.261104e-09	2.857219e+01	1.519421e+02
2.840000e-06	4.063821e-06	2.275439e-09	2.878855e+01	1.527563e+02
2.850000e-06	4.094085e-06	2.286385e-09	2.900295e+01	1.535370e+02
2.860000e-06	4.124054e-06	2.293041e-09	2.921525e+01	1.542847e+02
2.870000e-06	4.153782e-06	2.296653e-09	2.942585e+01	1.550000e+02
2.880000e-06	4.183320e-06	2.300860e-09	2.963510e+01	1.556834e+02
2.890000e-06	4.212560e-06	2.306208e-09	2.984223e+01	1.563358e+02
2.900000e-06	4.241431e-06	2.315800e-09	3.004676e+01	1.569581e+02
