# Temperatura_=_18.8
# Concentracion g/m^3_=_4090.0
# C_Vs_to_Am_M_A/Vsm_=_65563218390.804596
# pendiente_HvsI_1/m_=_3716.3
# ordenada_HvsI_A/m_=_1297.0
# frecuencia_Hz_=_135079.32796205886

Tiempo_(s)	Campo_(V.s)	Magnetizacion_(V.s)	Campo_(kA/m)	Magnetizacion_(A/m)
0.000000e+00	-5.447884e-06	-2.642468e-09	-3.838718e+01	-1.712183e+02
1.000000e-08	-5.448165e-06	-2.638995e-09	-3.838915e+01	-1.711606e+02
2.000000e-08	-5.448114e-06	-2.639132e-09	-3.838880e+01	-1.710990e+02
3.000000e-08	-5.447786e-06	-2.641153e-09	-3.838649e+01	-1.710347e+02
4.000000e-08	-5.447194e-06	-2.639603e-09	-3.838232e+01	-1.709691e+02
5.000000e-08	-5.446162e-06	-2.636476e-09	-3.837505e+01	-1.709038e+02
6.000000e-08	-5.444551e-06	-2.642890e-09	-3.836369e+01	-1.708402e+02
7.000000e-08	-5.442356e-06	-2.662205e-09	-3.834823e+01	-1.707801e+02
8.000000e-08	-5.439550e-06	-2.654999e-09	-3.832846e+01	-1.707249e+02
9.000000e-08	-5.436117e-06	-2.614055e-09	-3.830426e+01	-1.706763e+02
1.000000e-07	-5.432138e-06	-2.604226e-09	-3.827623e+01	-1.706358e+02
1.100000e-07	-5.427793e-06	-2.634912e-09	-3.824561e+01	-1.706046e+02
1.200000e-07	-5.423291e-06	-2.688618e-09	-3.821389e+01	-1.705842e+02
1.300000e-07	-5.418670e-06	-2.636728e-09	-3.818133e+01	-1.705755e+02
1.400000e-07	-5.413695e-06	-2.561213e-09	-3.814627e+01	-1.705794e+02
1.500000e-07	-5.408273e-06	-2.625992e-09	-3.810807e+01	-1.705968e+02
1.600000e-07	-5.402534e-06	-2.667499e-09	-3.806763e+01	-1.706281e+02
1.700000e-07	-5.396393e-06	-2.647743e-09	-3.802436e+01	-1.706734e+02
1.800000e-07	-5.389744e-06	-2.530387e-09	-3.797751e+01	-1.707329e+02
1.900000e-07	-5.382644e-06	-2.583828e-09	-3.792748e+01	-1.708063e+02
2.000000e-07	-5.375211e-06	-2.634790e-09	-3.787510e+01	-1.708930e+02
2.100000e-07	-5.367572e-06	-2.624730e-09	-3.782128e+01	-1.709923e+02
2.200000e-07	-5.359730e-06	-2.558011e-09	-3.776602e+01	-1.711032e+02
2.300000e-07	-5.351800e-06	-2.599987e-09	-3.771015e+01	-1.712245e+02
2.400000e-07	-5.343614e-06	-2.635527e-09	-3.765246e+01	-1.713547e+02
2.500000e-07	-5.334803e-06	-2.599265e-09	-3.759038e+01	-1.714922e+02
2.600000e-07	-5.325211e-06	-2.590521e-09	-3.752279e+01	-1.716354e+02
2.700000e-07	-5.314990e-06	-2.657392e-09	-3.745077e+01	-1.717821e+02
2.800000e-07	-5.304242e-06	-2.691319e-09	-3.737504e+01	-1.719306e+02
2.900000e-07	-5.292975e-06	-2.635019e-09	-3.729565e+01	-1.720787e+02
3.000000e-07	-5.281288e-06	-2.662528e-09	-3.721330e+01	-1.722242e+02
3.100000e-07	-5.269223e-06	-2.706829e-09	-3.712829e+01	-1.723652e+02
3.200000e-07	-5.256827e-06	-2.679216e-09	-3.704094e+01	-1.724996e+02
3.300000e-07	-5.244044e-06	-2.608762e-09	-3.695087e+01	-1.726253e+02
3.400000e-07	-5.230831e-06	-2.663022e-09	-3.685776e+01	-1.727405e+02
3.500000e-07	-5.217211e-06	-2.691103e-09	-3.676180e+01	-1.728435e+02
3.600000e-07	-5.203259e-06	-2.669628e-09	-3.666349e+01	-1.729325e+02
3.700000e-07	-5.188966e-06	-2.642699e-09	-3.656278e+01	-1.730063e+02
3.800000e-07	-5.174187e-06	-2.682749e-09	-3.645864e+01	-1.730635e+02
3.900000e-07	-5.158804e-06	-2.657247e-09	-3.635025e+01	-1.731031e+02
4.000000e-07	-5.142863e-06	-2.648599e-09	-3.623792e+01	-1.731244e+02
4.100000e-07	-5.126391e-06	-2.646358e-09	-3.612185e+01	-1.731267e+02
4.200000e-07	-5.109570e-06	-2.648122e-09	-3.600333e+01	-1.731098e+02
4.300000e-07	-5.092361e-06	-2.623101e-09	-3.588207e+01	-1.730734e+02
4.400000e-07	-5.074908e-06	-2.667684e-09	-3.575909e+01	-1.730178e+02
4.500000e-07	-5.057258e-06	-2.673196e-09	-3.563472e+01	-1.729432e+02
4.600000e-07	-5.039174e-06	-2.630653e-09	-3.550730e+01	-1.728502e+02
4.700000e-07	-5.020735e-06	-2.610154e-09	-3.537738e+01	-1.727393e+02
4.800000e-07	-5.001949e-06	-2.648954e-09	-3.524501e+01	-1.726116e+02
4.900000e-07	-4.982759e-06	-2.634100e-09	-3.510979e+01	-1.724678e+02
5.000000e-07	-4.963242e-06	-2.599406e-09	-3.497227e+01	-1.723093e+02
5.100000e-07	-4.943455e-06	-2.609648e-09	-3.483284e+01	-1.721370e+02
5.200000e-07	-4.923461e-06	-2.635236e-09	-3.469196e+01	-1.719524e+02
5.300000e-07	-4.903292e-06	-2.631777e-09	-3.454985e+01	-1.717566e+02
5.400000e-07	-4.882778e-06	-2.622404e-09	-3.440530e+01	-1.715509e+02
5.500000e-07	-4.861795e-06	-2.613519e-09	-3.425744e+01	-1.713367e+02
5.600000e-07	-4.840457e-06	-2.599663e-09	-3.410709e+01	-1.711151e+02
5.700000e-07	-4.818819e-06	-2.608412e-09	-3.395463e+01	-1.708874e+02
5.800000e-07	-4.796840e-06	-2.603807e-09	-3.379976e+01	-1.706547e+02
5.900000e-07	-4.774587e-06	-2.584007e-09	-3.364296e+01	-1.704179e+02
6.000000e-07	-4.751996e-06	-2.576579e-09	-3.348377e+01	-1.701781e+02
6.100000e-07	-4.728995e-06	-2.603478e-09	-3.332171e+01	-1.699360e+02
6.200000e-07	-4.705728e-06	-2.598585e-09	-3.315776e+01	-1.696923e+02
6.300000e-07	-4.682261e-06	-2.579305e-09	-3.299240e+01	-1.694475e+02
6.400000e-07	-4.658524e-06	-2.566255e-09	-3.282515e+01	-1.692022e+02
6.500000e-07	-4.634566e-06	-2.578373e-09	-3.265633e+01	-1.689566e+02
6.600000e-07	-4.610394e-06	-2.569984e-09	-3.248601e+01	-1.687109e+02
6.700000e-07	-4.585846e-06	-2.558181e-09	-3.231304e+01	-1.684652e+02
6.800000e-07	-4.560829e-06	-2.542659e-09	-3.213676e+01	-1.682196e+02
6.900000e-07	-4.535243e-06	-2.553473e-09	-3.195648e+01	-1.679738e+02
7.000000e-07	-4.509056e-06	-2.554589e-09	-3.177196e+01	-1.677277e+02
7.100000e-07	-4.482392e-06	-2.548524e-09	-3.158408e+01	-1.674811e+02
7.200000e-07	-4.455326e-06	-2.530080e-09	-3.139336e+01	-1.672337e+02
7.300000e-07	-4.427906e-06	-2.533574e-09	-3.120015e+01	-1.669851e+02
7.400000e-07	-4.400268e-06	-2.536670e-09	-3.100541e+01	-1.667349e+02
7.500000e-07	-4.372476e-06	-2.531642e-09	-3.080958e+01	-1.664828e+02
7.600000e-07	-4.344499e-06	-2.512826e-09	-3.061245e+01	-1.662283e+02
7.700000e-07	-4.316263e-06	-2.511216e-09	-3.041349e+01	-1.659711e+02
7.800000e-07	-4.287764e-06	-2.516378e-09	-3.021268e+01	-1.657109e+02
7.900000e-07	-4.259021e-06	-2.517564e-09	-3.001014e+01	-1.654472e+02
8.000000e-07	-4.229921e-06	-2.505267e-09	-2.980510e+01	-1.651798e+02
8.100000e-07	-4.200489e-06	-2.498503e-09	-2.959772e+01	-1.649085e+02
8.200000e-07	-4.170761e-06	-2.502514e-09	-2.938824e+01	-1.646329e+02
8.300000e-07	-4.140756e-06	-2.504109e-09	-2.917682e+01	-1.643529e+02
8.400000e-07	-4.110432e-06	-2.494488e-09	-2.896315e+01	-1.640684e+02
8.500000e-07	-4.079843e-06	-2.483153e-09	-2.874761e+01	-1.637792e+02
8.600000e-07	-4.048949e-06	-2.481884e-09	-2.852993e+01	-1.634853e+02
8.700000e-07	-4.017782e-06	-2.479550e-09	-2.831031e+01	-1.631866e+02
8.800000e-07	-3.986429e-06	-2.473109e-09	-2.808940e+01	-1.628831e+02
8.900000e-07	-3.954847e-06	-2.461000e-09	-2.786686e+01	-1.625748e+02
9.000000e-07	-3.923104e-06	-2.459157e-09	-2.764319e+01	-1.622618e+02
9.100000e-07	-3.891175e-06	-2.457239e-09	-2.741821e+01	-1.619439e+02
9.200000e-07	-3.859018e-06	-2.452078e-09	-2.719163e+01	-1.616214e+02
9.300000e-07	-3.826643e-06	-2.439027e-09	-2.696350e+01	-1.612941e+02
9.400000e-07	-3.794024e-06	-2.436609e-09	-2.673366e+01	-1.609621e+02
9.500000e-07	-3.761049e-06	-2.434002e-09	-2.650131e+01	-1.606255e+02
9.600000e-07	-3.727609e-06	-2.430230e-09	-2.626568e+01	-1.602841e+02
9.700000e-07	-3.693581e-06	-2.417237e-09	-2.602591e+01	-1.599380e+02
9.800000e-07	-3.659086e-06	-2.413407e-09	-2.578285e+01	-1.595870e+02
9.900000e-07	-3.624279e-06	-2.410668e-09	-2.553759e+01	-1.592313e+02
1.000000e-06	-3.589142e-06	-2.408606e-09	-2.529001e+01	-1.588705e+02
1.010000e-06	-3.553716e-06	-2.401040e-09	-2.504039e+01	-1.585047e+02
1.020000e-06	-3.518041e-06	-2.397241e-09	-2.478901e+01	-1.581336e+02
1.030000e-06	-3.482224e-06	-2.389443e-09	-2.453664e+01	-1.577573e+02
1.040000e-06	-3.446284e-06	-2.383795e-09	-2.428340e+01	-1.573754e+02
1.050000e-06	-3.410186e-06	-2.373979e-09	-2.402904e+01	-1.569880e+02
1.060000e-06	-3.373954e-06	-2.364509e-09	-2.377374e+01	-1.565948e+02
1.070000e-06	-3.337582e-06	-2.356421e-09	-2.351745e+01	-1.561956e+02
1.080000e-06	-3.300949e-06	-2.350533e-09	-2.325933e+01	-1.557905e+02
1.090000e-06	-3.264028e-06	-2.341662e-09	-2.299917e+01	-1.553791e+02
1.100000e-06	-3.226895e-06	-2.333468e-09	-2.273752e+01	-1.549616e+02
1.110000e-06	-3.189493e-06	-2.325995e-09	-2.247398e+01	-1.545377e+02
1.120000e-06	-3.151857e-06	-2.317740e-09	-2.220879e+01	-1.541074e+02
1.130000e-06	-3.114012e-06	-2.308821e-09	-2.194212e+01	-1.536707e+02
1.140000e-06	-3.075878e-06	-2.300027e-09	-2.167342e+01	-1.532276e+02
1.150000e-06	-3.037572e-06	-2.293970e-09	-2.140350e+01	-1.527781e+02
1.160000e-06	-2.999128e-06	-2.286796e-09	-2.113262e+01	-1.523221e+02
1.170000e-06	-2.960478e-06	-2.277527e-09	-2.086028e+01	-1.518598e+02
1.180000e-06	-2.921596e-06	-2.267439e-09	-2.058631e+01	-1.513911e+02
1.190000e-06	-2.882530e-06	-2.261977e-09	-2.031104e+01	-1.509161e+02
1.200000e-06	-2.843371e-06	-2.255241e-09	-2.003512e+01	-1.504348e+02
1.210000e-06	-2.804017e-06	-2.246513e-09	-1.975782e+01	-1.499472e+02
1.220000e-06	-2.764384e-06	-2.234310e-09	-1.947856e+01	-1.494534e+02
1.230000e-06	-2.724575e-06	-2.225164e-09	-1.919805e+01	-1.489532e+02
1.240000e-06	-2.684689e-06	-2.215257e-09	-1.891700e+01	-1.484466e+02
1.250000e-06	-2.644667e-06	-2.205539e-09	-1.863500e+01	-1.479335e+02
1.260000e-06	-2.604571e-06	-2.191693e-09	-1.835247e+01	-1.474136e+02
1.270000e-06	-2.564406e-06	-2.182218e-09	-1.806946e+01	-1.468868e+02
1.280000e-06	-2.523981e-06	-2.173264e-09	-1.778461e+01	-1.463527e+02
1.290000e-06	-2.483379e-06	-2.164368e-09	-1.749852e+01	-1.458109e+02
1.300000e-06	-2.442637e-06	-2.152223e-09	-1.721144e+01	-1.452611e+02
1.310000e-06	-2.401574e-06	-2.142965e-09	-1.692210e+01	-1.447026e+02
1.320000e-06	-2.360235e-06	-2.133805e-09	-1.663081e+01	-1.441350e+02
1.330000e-06	-2.318714e-06	-2.121571e-09	-1.633825e+01	-1.435576e+02
1.340000e-06	-2.276933e-06	-2.107887e-09	-1.604385e+01	-1.429695e+02
1.350000e-06	-2.234844e-06	-2.098180e-09	-1.574728e+01	-1.423702e+02
1.360000e-06	-2.192430e-06	-2.087553e-09	-1.544842e+01	-1.417588e+02
1.370000e-06	-2.149691e-06	-2.076835e-09	-1.514727e+01	-1.411343e+02
1.380000e-06	-2.106698e-06	-2.067717e-09	-1.484433e+01	-1.404960e+02
1.390000e-06	-2.063483e-06	-2.059686e-09	-1.453983e+01	-1.398429e+02
1.400000e-06	-2.020099e-06	-2.053115e-09	-1.423413e+01	-1.391741e+02
1.410000e-06	-1.976651e-06	-2.046015e-09	-1.392799e+01	-1.384888e+02
1.420000e-06	-1.933107e-06	-2.034452e-09	-1.362116e+01	-1.377860e+02
1.430000e-06	-1.889392e-06	-2.018298e-09	-1.331314e+01	-1.370648e+02
1.440000e-06	-1.845536e-06	-2.003472e-09	-1.300412e+01	-1.363245e+02
1.450000e-06	-1.801658e-06	-1.990571e-09	-1.269494e+01	-1.355643e+02
1.460000e-06	-1.757796e-06	-1.977327e-09	-1.238588e+01	-1.347833e+02
1.470000e-06	-1.713853e-06	-1.963191e-09	-1.207624e+01	-1.339811e+02
1.480000e-06	-1.669801e-06	-1.951882e-09	-1.176584e+01	-1.331569e+02
1.490000e-06	-1.625660e-06	-1.940603e-09	-1.145481e+01	-1.323103e+02
1.500000e-06	-1.581448e-06	-1.926932e-09	-1.114329e+01	-1.314406e+02
1.510000e-06	-1.537093e-06	-1.910049e-09	-1.083075e+01	-1.305477e+02
1.520000e-06	-1.492688e-06	-1.894203e-09	-1.051786e+01	-1.296310e+02
1.530000e-06	-1.448240e-06	-1.879842e-09	-1.020467e+01	-1.286902e+02
1.540000e-06	-1.403621e-06	-1.866846e-09	-9.890273e+00	-1.277251e+02
1.550000e-06	-1.358977e-06	-1.854674e-09	-9.575699e+00	-1.267354e+02
1.560000e-06	-1.314230e-06	-1.844293e-09	-9.260398e+00	-1.257209e+02
1.570000e-06	-1.269321e-06	-1.832627e-09	-8.943957e+00	-1.246813e+02
1.580000e-06	-1.224401e-06	-1.816669e-09	-8.627441e+00	-1.236163e+02
1.590000e-06	-1.179310e-06	-1.800011e-09	-8.309716e+00	-1.225256e+02
1.600000e-06	-1.134091e-06	-1.783344e-09	-7.991095e+00	-1.214088e+02
1.610000e-06	-1.088873e-06	-1.763435e-09	-7.672475e+00	-1.202655e+02
1.620000e-06	-1.043550e-06	-1.742558e-09	-7.353118e+00	-1.190950e+02
1.630000e-06	-9.980878e-07	-1.724032e-09	-7.032781e+00	-1.178968e+02
1.640000e-06	-9.524832e-07	-1.710595e-09	-6.711439e+00	-1.166699e+02
1.650000e-06	-9.068095e-07	-1.695800e-09	-6.389611e+00	-1.154136e+02
1.660000e-06	-8.611406e-07	-1.677712e-09	-6.067816e+00	-1.141267e+02
1.670000e-06	-8.155030e-07	-1.654643e-09	-5.746242e+00	-1.128079e+02
1.680000e-06	-7.697953e-07	-1.629799e-09	-5.424173e+00	-1.114559e+02
1.690000e-06	-7.239747e-07	-1.604621e-09	-5.101310e+00	-1.100691e+02
1.700000e-06	-6.781179e-07	-1.579810e-09	-4.778192e+00	-1.086458e+02
1.710000e-06	-6.321883e-07	-1.558096e-09	-4.454560e+00	-1.071841e+02
1.720000e-06	-5.862542e-07	-1.541949e-09	-4.130896e+00	-1.056822e+02
1.730000e-06	-5.403669e-07	-1.525692e-09	-3.807563e+00	-1.041378e+02
1.740000e-06	-4.944260e-07	-1.502719e-09	-3.483851e+00	-1.025487e+02
1.750000e-06	-4.484236e-07	-1.471300e-09	-3.159707e+00	-1.009128e+02
1.760000e-06	-4.023517e-07	-1.437961e-09	-2.835073e+00	-9.922757e+01
1.770000e-06	-3.562368e-07	-1.406976e-09	-2.510135e+00	-9.749077e+01
1.780000e-06	-3.101150e-07	-1.378617e-09	-2.185149e+00	-9.570002e+01
1.790000e-06	-2.640390e-07	-1.355454e-09	-1.860486e+00	-9.385304e+01
1.800000e-06	-2.179009e-07	-1.335995e-09	-1.535385e+00	-9.194760e+01
1.810000e-06	-1.715393e-07	-1.313852e-09	-1.208710e+00	-8.998159e+01
1.820000e-06	-1.252121e-07	-1.284568e-09	-8.822765e-01	-8.795305e+01
1.830000e-06	-7.900419e-08	-1.248324e-09	-5.566836e-01	-8.586020e+01
1.840000e-06	-3.279837e-08	-1.209222e-09	-2.311057e-01	-8.370146e+01
1.850000e-06	1.333575e-08	-1.171340e-09	9.396708e-02	-8.147550e+01
1.860000e-06	5.946042e-08	-1.132622e-09	4.189732e-01	-7.918126e+01
1.870000e-06	1.055659e-07	-1.098539e-09	7.438441e-01	-7.681798e+01
1.880000e-06	1.517123e-07	-1.069240e-09	1.069004e+00	-7.438519e+01
1.890000e-06	1.979755e-07	-1.039208e-09	1.394986e+00	-7.188279e+01
1.900000e-06	2.442002e-07	-1.003536e-09	1.720697e+00	-6.931099e+01
1.910000e-06	2.903663e-07	-9.612228e-10	2.045995e+00	-6.667037e+01
1.920000e-06	3.365023e-07	-9.140413e-10	2.371081e+00	-6.396184e+01
1.930000e-06	3.825596e-07	-8.687767e-10	2.695613e+00	-6.118670e+01
1.940000e-06	4.285869e-07	-8.253197e-10	3.019932e+00	-5.834655e+01
1.950000e-06	4.745563e-07	-7.828127e-10	3.343844e+00	-5.544336e+01
1.960000e-06	5.204531e-07	-7.413768e-10	3.667245e+00	-5.247938e+01
1.970000e-06	5.663452e-07	-7.012744e-10	3.990612e+00	-4.945717e+01
1.980000e-06	6.122212e-07	-6.587913e-10	4.313867e+00	-4.637958e+01
1.990000e-06	6.580077e-07	-6.096969e-10	4.636490e+00	-4.324966e+01
2.000000e-06	7.037727e-07	-5.567123e-10	4.958961e+00	-4.007071e+01
2.010000e-06	7.495673e-07	-5.065203e-10	5.281642e+00	-3.684619e+01
2.020000e-06	7.953141e-07	-4.575645e-10	5.603986e+00	-3.357970e+01
2.030000e-06	8.410828e-07	-4.068804e-10	5.926484e+00	-3.027497e+01
2.040000e-06	8.868052e-07	-3.563786e-10	6.248655e+00	-2.693580e+01
2.050000e-06	9.323862e-07	-3.078686e-10	6.569830e+00	-2.356602e+01
2.060000e-06	9.778569e-07	-2.611437e-10	6.890228e+00	-2.016948e+01
2.070000e-06	1.023272e-06	-2.130540e-10	7.210234e+00	-1.675002e+01
2.080000e-06	1.068594e-06	-1.617642e-10	7.529586e+00	-1.331141e+01
2.090000e-06	1.113703e-06	-1.107993e-10	7.847436e+00	-9.857357e+00
2.100000e-06	1.158736e-06	-6.285745e-11	8.164750e+00	-6.391460e+00
2.110000e-06	1.203740e-06	-1.337790e-11	8.481858e+00	-2.917209e+00
2.120000e-06	1.248673e-06	4.058725e-11	8.798471e+00	5.620378e-01
2.130000e-06	1.293557e-06	9.428716e-11	9.114729e+00	4.043068e+00
2.140000e-06	1.338343e-06	1.455513e-10	9.430305e+00	7.522818e+00
2.150000e-06	1.383022e-06	1.970129e-10	9.745128e+00	1.099838e+01
2.160000e-06	1.427550e-06	2.495130e-10	1.005888e+01	1.446698e+01
2.170000e-06	1.471909e-06	2.995363e-10	1.037145e+01	1.792603e+01
2.180000e-06	1.516229e-06	3.448970e-10	1.068373e+01	2.137305e+01
2.190000e-06	1.560506e-06	3.923645e-10	1.099572e+01	2.480570e+01
2.200000e-06	1.604655e-06	4.446608e-10	1.130681e+01	2.822176e+01
2.210000e-06	1.648717e-06	4.991433e-10	1.161728e+01	3.161911e+01
2.220000e-06	1.692679e-06	5.515327e-10	1.192705e+01	3.499572e+01
2.230000e-06	1.736594e-06	6.023655e-10	1.223649e+01	3.834964e+01
2.240000e-06	1.780495e-06	6.547360e-10	1.254582e+01	4.167895e+01
2.250000e-06	1.824368e-06	7.056710e-10	1.285496e+01	4.498180e+01
2.260000e-06	1.868189e-06	7.508422e-10	1.316374e+01	4.825634e+01
2.270000e-06	1.911924e-06	7.937643e-10	1.347191e+01	5.150074e+01
2.280000e-06	1.955544e-06	8.380760e-10	1.377926e+01	5.471317e+01
2.290000e-06	1.999024e-06	8.844413e-10	1.408563e+01	5.789179e+01
2.300000e-06	2.042396e-06	9.317836e-10	1.439124e+01	6.103475e+01
2.310000e-06	2.085687e-06	9.769335e-10	1.469628e+01	6.414016e+01
2.320000e-06	2.128774e-06	1.020558e-09	1.499989e+01	6.720612e+01
2.330000e-06	2.171596e-06	1.066962e-09	1.530162e+01	7.023073e+01
2.340000e-06	2.214272e-06	1.112293e-09	1.560232e+01	7.321206e+01
2.350000e-06	2.256652e-06	1.152709e-09	1.590095e+01	7.614818e+01
2.360000e-06	2.298663e-06	1.191565e-09	1.619696e+01	7.903717e+01
2.370000e-06	2.340332e-06	1.231334e-09	1.649058e+01	8.187713e+01
2.380000e-06	2.381637e-06	1.270562e-09	1.678162e+01	8.466623e+01
2.390000e-06	2.422601e-06	1.306954e-09	1.707026e+01	8.740266e+01
2.400000e-06	2.463346e-06	1.341786e-09	1.735736e+01	9.008471e+01
2.410000e-06	2.503931e-06	1.379087e-09	1.764333e+01	9.271078e+01
2.420000e-06	2.544281e-06	1.417847e-09	1.792765e+01	9.527937e+01
2.430000e-06	2.584455e-06	1.455117e-09	1.821073e+01	9.778914e+01
2.440000e-06	2.624547e-06	1.493370e-09	1.849323e+01	1.002389e+02
2.450000e-06	2.664596e-06	1.531824e-09	1.877542e+01	1.026276e+02
2.460000e-06	2.704560e-06	1.566603e-09	1.905702e+01	1.049545e+02
2.470000e-06	2.744374e-06	1.596092e-09	1.933756e+01	1.072190e+02
2.480000e-06	2.784027e-06	1.623128e-09	1.961696e+01	1.094206e+02
2.490000e-06	2.823571e-06	1.652490e-09	1.989560e+01	1.115593e+02
2.500000e-06	2.862936e-06	1.684050e-09	2.017298e+01	1.136351e+02
2.510000e-06	2.902056e-06	1.715228e-09	2.044863e+01	1.156483e+02
2.520000e-06	2.941008e-06	1.746627e-09	2.072309e+01	1.175995e+02
2.530000e-06	2.979711e-06	1.778290e-09	2.099580e+01	1.194893e+02
2.540000e-06	3.018080e-06	1.805743e-09	2.126616e+01	1.213189e+02
2.550000e-06	3.056231e-06	1.828064e-09	2.153498e+01	1.230893e+02
2.560000e-06	3.094246e-06	1.849811e-09	2.180285e+01	1.248020e+02
2.570000e-06	3.132175e-06	1.873483e-09	2.207010e+01	1.264583e+02
2.580000e-06	3.169920e-06	1.897278e-09	2.233606e+01	1.280600e+02
2.590000e-06	3.207426e-06	1.918261e-09	2.260034e+01	1.296088e+02
2.600000e-06	3.244663e-06	1.939750e-09	2.286273e+01	1.311066e+02
2.610000e-06	3.281662e-06	1.964354e-09	2.312342e+01	1.325552e+02
2.620000e-06	3.318513e-06	1.988208e-09	2.338308e+01	1.339566e+02
2.630000e-06	3.355027e-06	2.009928e-09	2.364038e+01	1.353127e+02
2.640000e-06	3.391240e-06	2.030787e-09	2.389554e+01	1.366254e+02
2.650000e-06	3.427344e-06	2.049105e-09	2.414994e+01	1.378966e+02
2.660000e-06	3.463310e-06	2.064896e-09	2.440336e+01	1.391280e+02
2.670000e-06	3.499141e-06	2.079527e-09	2.465584e+01	1.403213e+02
2.680000e-06	3.534833e-06	2.092751e-09	2.490733e+01	1.414782e+02
2.690000e-06	3.570324e-06	2.107197e-09	2.515741e+01	1.425999e+02
2.700000e-06	3.605509e-06	2.124200e-09	2.540533e+01	1.436880e+02
2.710000e-06	3.640305e-06	2.140966e-09	2.565051e+01	1.447434e+02
2.720000e-06	3.674664e-06	2.157049e-09	2.589262e+01	1.457674e+02
2.730000e-06	3.708672e-06	2.172211e-09	2.613224e+01	1.467606e+02
2.740000e-06	3.742332e-06	2.186281e-09	2.636942e+01	1.477239e+02
2.750000e-06	3.775503e-06	2.199208e-09	2.660315e+01	1.486579e+02
2.760000e-06	3.808256e-06	2.211178e-09	2.683394e+01	1.495630e+02
2.770000e-06	3.840706e-06	2.222577e-09	2.706259e+01	1.504395e+02
2.780000e-06	3.872932e-06	2.234254e-09	2.728966e+01	1.512878e+02
2.790000e-06	3.904978e-06	2.246279e-09	2.751547e+01	1.521081e+02
2.800000e-06	3.936853e-06	2.257284e-09	2.774007e+01	1.529004e+02
2.810000e-06	3.968544e-06	2.269007e-09	2.796337e+01	1.536649e+02
2.820000e-06	4.000049e-06	2.282565e-09	2.818536e+01	1.544016e+02
2.830000e-06	4.031360e-06	2.294450e-09	2.840599e+01	1.551107e+02
2.840000e-06	4.062328e-06	2.300104e-09	2.862419e+01	1.557922e+02
2.850000e-06	4.093028e-06	2.303912e-09	2.884052e+01	1.564464e+02
2.860000e-06	4.123460e-06	2.312523e-09	2.905495e+01	1.570734e+02
2.870000e-06	4.153523e-06	2.326062e-09	2.926678e+01	1.576737e+02
2.880000e-06	4.183338e-06	2.337834e-09	2.947687e+01	1.582474e+02
2.890000e-06	4.212933e-06	2.342945e-09	2.968540e+01	1.587953e+02
2.900000e-06	4.242171e-06	2.347104e-09	2.989142e+01	1.593179e+02
