# Temperatura_=_-1.0
# Concentracion g/m^3_=_4090.0
# C_Vs_to_Am_M_A/Vsm_=_65563218390.804596
# pendiente_HvsI_1/m_=_3716.3
# ordenada_HvsI_A/m_=_1297.0
# frecuencia_Hz_=_135075.51169619252

Tiempo_(s)	Campo_(V.s)	Magnetizacion_(V.s)	Campo_(kA/m)	Magnetizacion_(A/m)
0.000000e+00	-5.393864e-06	-2.611756e-09	-3.839466e+01	-1.667997e+02
1.000000e-08	-5.393933e-06	-2.610821e-09	-3.839515e+01	-1.668050e+02
2.000000e-08	-5.393786e-06	-2.611772e-09	-3.839411e+01	-1.668137e+02
3.000000e-08	-5.393402e-06	-2.613671e-09	-3.839137e+01	-1.668274e+02
4.000000e-08	-5.392673e-06	-2.615380e-09	-3.838618e+01	-1.668476e+02
5.000000e-08	-5.391405e-06	-2.616341e-09	-3.837716e+01	-1.668757e+02
6.000000e-08	-5.389608e-06	-2.627180e-09	-3.836436e+01	-1.669133e+02
7.000000e-08	-5.387259e-06	-2.655952e-09	-3.834764e+01	-1.669617e+02
8.000000e-08	-5.384202e-06	-2.619595e-09	-3.832589e+01	-1.670221e+02
9.000000e-08	-5.380532e-06	-2.514338e-09	-3.829976e+01	-1.670956e+02
1.000000e-07	-5.376512e-06	-2.550253e-09	-3.827115e+01	-1.671832e+02
1.100000e-07	-5.372299e-06	-2.715498e-09	-3.824116e+01	-1.672854e+02
1.200000e-07	-5.367806e-06	-2.663826e-09	-3.820918e+01	-1.674028e+02
1.300000e-07	-5.363007e-06	-2.488965e-09	-3.817501e+01	-1.675356e+02
1.400000e-07	-5.357938e-06	-2.509362e-09	-3.813894e+01	-1.676837e+02
1.500000e-07	-5.352475e-06	-2.749775e-09	-3.810004e+01	-1.678468e+02
1.600000e-07	-5.346530e-06	-2.686343e-09	-3.805773e+01	-1.680242e+02
1.700000e-07	-5.340208e-06	-2.436013e-09	-3.801273e+01	-1.682153e+02
1.800000e-07	-5.333526e-06	-2.488296e-09	-3.796517e+01	-1.684188e+02
1.900000e-07	-5.326527e-06	-2.715632e-09	-3.791534e+01	-1.686333e+02
2.000000e-07	-5.319149e-06	-2.657433e-09	-3.786283e+01	-1.688574e+02
2.100000e-07	-5.311482e-06	-2.487637e-09	-3.780825e+01	-1.690893e+02
2.200000e-07	-5.303719e-06	-2.610833e-09	-3.775299e+01	-1.693270e+02
2.300000e-07	-5.295608e-06	-2.731734e-09	-3.769526e+01	-1.695684e+02
2.400000e-07	-5.286915e-06	-2.604705e-09	-3.763337e+01	-1.698114e+02
2.500000e-07	-5.277774e-06	-2.539325e-09	-3.756831e+01	-1.700536e+02
2.600000e-07	-5.268179e-06	-2.719605e-09	-3.750001e+01	-1.702929e+02
2.700000e-07	-5.257882e-06	-2.728735e-09	-3.742671e+01	-1.705269e+02
2.800000e-07	-5.247013e-06	-2.564801e-09	-3.734935e+01	-1.707534e+02
2.900000e-07	-5.235678e-06	-2.610784e-09	-3.726866e+01	-1.709702e+02
3.000000e-07	-5.223912e-06	-2.765846e-09	-3.718491e+01	-1.711753e+02
3.100000e-07	-5.211749e-06	-2.637776e-09	-3.709833e+01	-1.713667e+02
3.200000e-07	-5.199262e-06	-2.527427e-09	-3.700944e+01	-1.715428e+02
3.300000e-07	-5.186435e-06	-2.667600e-09	-3.691814e+01	-1.717019e+02
3.400000e-07	-5.173215e-06	-2.741856e-09	-3.682403e+01	-1.718427e+02
3.500000e-07	-5.159567e-06	-2.615594e-09	-3.672689e+01	-1.719643e+02
3.600000e-07	-5.145553e-06	-2.631325e-09	-3.662713e+01	-1.720657e+02
3.700000e-07	-5.131204e-06	-2.701788e-09	-3.652499e+01	-1.721463e+02
3.800000e-07	-5.116407e-06	-2.641608e-09	-3.641966e+01	-1.722059e+02
3.900000e-07	-5.101083e-06	-2.608718e-09	-3.631059e+01	-1.722443e+02
4.000000e-07	-5.085221e-06	-2.666371e-09	-3.619767e+01	-1.722618e+02
4.100000e-07	-5.068804e-06	-2.613793e-09	-3.608082e+01	-1.722587e+02
4.200000e-07	-5.051967e-06	-2.574933e-09	-3.596096e+01	-1.722357e+02
4.300000e-07	-5.034793e-06	-2.671948e-09	-3.583872e+01	-1.721937e+02
4.400000e-07	-5.017291e-06	-2.680703e-09	-3.571414e+01	-1.721335e+02
4.500000e-07	-4.999567e-06	-2.582020e-09	-3.558797e+01	-1.720564e+02
4.600000e-07	-4.981560e-06	-2.602218e-09	-3.545980e+01	-1.719637e+02
4.700000e-07	-4.963233e-06	-2.677159e-09	-3.532934e+01	-1.718568e+02
4.800000e-07	-4.944467e-06	-2.634019e-09	-3.519576e+01	-1.717370e+02
4.900000e-07	-4.925262e-06	-2.590913e-09	-3.505906e+01	-1.716059e+02
5.000000e-07	-4.905672e-06	-2.607046e-09	-3.491961e+01	-1.714649e+02
5.100000e-07	-4.885761e-06	-2.620785e-09	-3.477788e+01	-1.713155e+02
5.200000e-07	-4.865720e-06	-2.619272e-09	-3.463522e+01	-1.711592e+02
5.300000e-07	-4.845538e-06	-2.618231e-09	-3.449156e+01	-1.709973e+02
5.400000e-07	-4.825040e-06	-2.586309e-09	-3.434565e+01	-1.708311e+02
5.500000e-07	-4.804157e-06	-2.597954e-09	-3.419700e+01	-1.706617e+02
5.600000e-07	-4.782911e-06	-2.636172e-09	-3.404577e+01	-1.704902e+02
5.700000e-07	-4.761358e-06	-2.622012e-09	-3.389235e+01	-1.703175e+02
5.800000e-07	-4.739507e-06	-2.573883e-09	-3.373681e+01	-1.701444e+02
5.900000e-07	-4.717345e-06	-2.578764e-09	-3.357905e+01	-1.699715e+02
6.000000e-07	-4.694864e-06	-2.595122e-09	-3.341903e+01	-1.697993e+02
6.100000e-07	-4.672087e-06	-2.589142e-09	-3.325690e+01	-1.696282e+02
6.200000e-07	-4.648915e-06	-2.563729e-09	-3.309196e+01	-1.694583e+02
6.300000e-07	-4.625375e-06	-2.554974e-09	-3.292440e+01	-1.692898e+02
6.400000e-07	-4.601575e-06	-2.574186e-09	-3.275498e+01	-1.691226e+02
6.500000e-07	-4.577541e-06	-2.595361e-09	-3.258390e+01	-1.689567e+02
6.600000e-07	-4.553334e-06	-2.570863e-09	-3.241159e+01	-1.687917e+02
6.700000e-07	-4.528950e-06	-2.543956e-09	-3.223802e+01	-1.686274e+02
6.800000e-07	-4.504246e-06	-2.552163e-09	-3.206217e+01	-1.684634e+02
6.900000e-07	-4.479098e-06	-2.565364e-09	-3.188317e+01	-1.682994e+02
7.000000e-07	-4.453524e-06	-2.548670e-09	-3.170112e+01	-1.681348e+02
7.100000e-07	-4.427403e-06	-2.527395e-09	-3.151519e+01	-1.679693e+02
7.200000e-07	-4.400633e-06	-2.527442e-09	-3.132463e+01	-1.678025e+02
7.300000e-07	-4.373329e-06	-2.545037e-09	-3.113028e+01	-1.676337e+02
7.400000e-07	-4.345715e-06	-2.548528e-09	-3.093372e+01	-1.674628e+02
7.500000e-07	-4.317921e-06	-2.525566e-09	-3.073587e+01	-1.672892e+02
7.600000e-07	-4.289953e-06	-2.514055e-09	-3.053679e+01	-1.671127e+02
7.700000e-07	-4.261851e-06	-2.525296e-09	-3.033675e+01	-1.669329e+02
7.800000e-07	-4.233565e-06	-2.527220e-09	-3.013541e+01	-1.667495e+02
7.900000e-07	-4.204959e-06	-2.507049e-09	-2.993179e+01	-1.665624e+02
8.000000e-07	-4.175998e-06	-2.495758e-09	-2.972564e+01	-1.663715e+02
8.100000e-07	-4.146672e-06	-2.500337e-09	-2.951689e+01	-1.661764e+02
8.200000e-07	-4.117060e-06	-2.511027e-09	-2.930610e+01	-1.659773e+02
8.300000e-07	-4.087242e-06	-2.505308e-09	-2.909385e+01	-1.657740e+02
8.400000e-07	-4.057175e-06	-2.493318e-09	-2.887982e+01	-1.655665e+02
8.500000e-07	-4.026845e-06	-2.490025e-09	-2.866393e+01	-1.653547e+02
8.600000e-07	-3.996174e-06	-2.496481e-09	-2.844561e+01	-1.651389e+02
8.700000e-07	-3.965135e-06	-2.487359e-09	-2.822467e+01	-1.649188e+02
8.800000e-07	-3.933862e-06	-2.468917e-09	-2.800206e+01	-1.646946e+02
8.900000e-07	-3.902401e-06	-2.458550e-09	-2.777811e+01	-1.644663e+02
9.000000e-07	-3.870680e-06	-2.467127e-09	-2.755231e+01	-1.642339e+02
9.100000e-07	-3.838800e-06	-2.469838e-09	-2.732538e+01	-1.639973e+02
9.200000e-07	-3.806780e-06	-2.461128e-09	-2.709746e+01	-1.637566e+02
9.300000e-07	-3.774578e-06	-2.455336e-09	-2.686824e+01	-1.635117e+02
9.400000e-07	-3.742218e-06	-2.461716e-09	-2.663790e+01	-1.632625e+02
9.500000e-07	-3.709567e-06	-2.462857e-09	-2.640548e+01	-1.630090e+02
9.600000e-07	-3.676563e-06	-2.451684e-09	-2.617055e+01	-1.627510e+02
9.700000e-07	-3.643239e-06	-2.438883e-09	-2.593334e+01	-1.624884e+02
9.800000e-07	-3.609508e-06	-2.438690e-09	-2.569324e+01	-1.622212e+02
9.900000e-07	-3.575210e-06	-2.442385e-09	-2.544910e+01	-1.619492e+02
1.000000e-06	-3.540473e-06	-2.439712e-09	-2.520183e+01	-1.616721e+02
1.010000e-06	-3.505423e-06	-2.433419e-09	-2.495234e+01	-1.613900e+02
1.020000e-06	-3.470087e-06	-2.431506e-09	-2.470081e+01	-1.611027e+02
1.030000e-06	-3.434459e-06	-2.430655e-09	-2.444720e+01	-1.608101e+02
1.040000e-06	-3.398593e-06	-2.424954e-09	-2.419190e+01	-1.605121e+02
1.050000e-06	-3.362609e-06	-2.414223e-09	-2.393576e+01	-1.602087e+02
1.060000e-06	-3.326501e-06	-2.403649e-09	-2.367874e+01	-1.598999e+02
1.070000e-06	-3.290258e-06	-2.398395e-09	-2.342075e+01	-1.595856e+02
1.080000e-06	-3.253859e-06	-2.392734e-09	-2.316166e+01	-1.592660e+02
1.090000e-06	-3.217278e-06	-2.383965e-09	-2.290126e+01	-1.589411e+02
1.100000e-06	-3.180482e-06	-2.376784e-09	-2.263934e+01	-1.586110e+02
1.110000e-06	-3.143405e-06	-2.374988e-09	-2.237542e+01	-1.582759e+02
1.120000e-06	-3.105975e-06	-2.371815e-09	-2.210899e+01	-1.579360e+02
1.130000e-06	-3.068318e-06	-2.369437e-09	-2.184094e+01	-1.575915e+02
1.140000e-06	-3.030520e-06	-2.364779e-09	-2.157188e+01	-1.572426e+02
1.150000e-06	-2.992549e-06	-2.360267e-09	-2.130160e+01	-1.568894e+02
1.160000e-06	-2.954374e-06	-2.352455e-09	-2.102986e+01	-1.565323e+02
1.170000e-06	-2.916055e-06	-2.341668e-09	-2.075709e+01	-1.561715e+02
1.180000e-06	-2.877576e-06	-2.328795e-09	-2.048320e+01	-1.558070e+02
1.190000e-06	-2.838886e-06	-2.321625e-09	-2.020779e+01	-1.554390e+02
1.200000e-06	-2.799897e-06	-2.317435e-09	-1.993026e+01	-1.550676e+02
1.210000e-06	-2.760664e-06	-2.311531e-09	-1.965099e+01	-1.546928e+02
1.220000e-06	-2.721252e-06	-2.303200e-09	-1.937045e+01	-1.543146e+02
1.230000e-06	-2.681602e-06	-2.296906e-09	-1.908821e+01	-1.539328e+02
1.240000e-06	-2.641901e-06	-2.291025e-09	-1.880561e+01	-1.535473e+02
1.250000e-06	-2.602118e-06	-2.284292e-09	-1.852243e+01	-1.531577e+02
1.260000e-06	-2.562186e-06	-2.274891e-09	-1.823818e+01	-1.527636e+02
1.270000e-06	-2.522140e-06	-2.265495e-09	-1.795313e+01	-1.523646e+02
1.280000e-06	-2.481995e-06	-2.256813e-09	-1.766737e+01	-1.519601e+02
1.290000e-06	-2.441780e-06	-2.248989e-09	-1.738110e+01	-1.515493e+02
1.300000e-06	-2.401409e-06	-2.240569e-09	-1.709374e+01	-1.511316e+02
1.310000e-06	-2.360898e-06	-2.233460e-09	-1.680537e+01	-1.507062e+02
1.320000e-06	-2.320292e-06	-2.227486e-09	-1.651633e+01	-1.502721e+02
1.330000e-06	-2.279460e-06	-2.218719e-09	-1.622568e+01	-1.498284e+02
1.340000e-06	-2.238250e-06	-2.208014e-09	-1.593233e+01	-1.493741e+02
1.350000e-06	-2.196686e-06	-2.197192e-09	-1.563647e+01	-1.489082e+02
1.360000e-06	-2.154866e-06	-2.185780e-09	-1.533879e+01	-1.484297e+02
1.370000e-06	-2.112832e-06	-2.173799e-09	-1.503958e+01	-1.479376e+02
1.380000e-06	-2.070615e-06	-2.163540e-09	-1.473908e+01	-1.474309e+02
1.390000e-06	-2.028102e-06	-2.153761e-09	-1.443646e+01	-1.469086e+02
1.400000e-06	-1.985287e-06	-2.147689e-09	-1.413169e+01	-1.463699e+02
1.410000e-06	-1.942168e-06	-2.140817e-09	-1.382476e+01	-1.458140e+02
1.420000e-06	-1.898882e-06	-2.130315e-09	-1.351664e+01	-1.452400e+02
1.430000e-06	-1.855522e-06	-2.116404e-09	-1.320800e+01	-1.446475e+02
1.440000e-06	-1.812006e-06	-2.101775e-09	-1.289824e+01	-1.440357e+02
1.450000e-06	-1.768360e-06	-2.088701e-09	-1.258756e+01	-1.434044e+02
1.460000e-06	-1.724602e-06	-2.078136e-09	-1.227608e+01	-1.427531e+02
1.470000e-06	-1.680790e-06	-2.067319e-09	-1.196421e+01	-1.420817e+02
1.480000e-06	-1.636934e-06	-2.056019e-09	-1.165204e+01	-1.413900e+02
1.490000e-06	-1.592958e-06	-2.044306e-09	-1.133901e+01	-1.406780e+02
1.500000e-06	-1.548828e-06	-2.033800e-09	-1.102488e+01	-1.399458e+02
1.510000e-06	-1.504644e-06	-2.021768e-09	-1.071037e+01	-1.391936e+02
1.520000e-06	-1.460459e-06	-2.006309e-09	-1.039585e+01	-1.384214e+02
1.530000e-06	-1.416155e-06	-1.991697e-09	-1.008049e+01	-1.376297e+02
1.540000e-06	-1.371719e-06	-1.981706e-09	-9.764185e+00	-1.368186e+02
1.550000e-06	-1.327290e-06	-1.972796e-09	-9.447927e+00	-1.359883e+02
1.560000e-06	-1.282853e-06	-1.961621e-09	-9.131616e+00	-1.351393e+02
1.570000e-06	-1.238361e-06	-1.949506e-09	-8.814914e+00	-1.342715e+02
1.580000e-06	-1.193763e-06	-1.938578e-09	-8.497454e+00	-1.333852e+02
1.590000e-06	-1.149040e-06	-1.928135e-09	-8.179110e+00	-1.324803e+02
1.600000e-06	-1.104261e-06	-1.915711e-09	-7.860366e+00	-1.315569e+02
1.610000e-06	-1.059381e-06	-1.899882e-09	-7.540894e+00	-1.306146e+02
1.620000e-06	-1.014374e-06	-1.883387e-09	-7.220528e+00	-1.296531e+02
1.630000e-06	-9.693899e-07	-1.869372e-09	-6.900322e+00	-1.286718e+02
1.640000e-06	-9.243712e-07	-1.856947e-09	-6.579869e+00	-1.276701e+02
1.650000e-06	-8.792613e-07	-1.844503e-09	-6.258768e+00	-1.266469e+02
1.660000e-06	-8.340813e-07	-1.831691e-09	-5.937167e+00	-1.256013e+02
1.670000e-06	-7.888542e-07	-1.820193e-09	-5.615231e+00	-1.245318e+02
1.680000e-06	-7.435764e-07	-1.805566e-09	-5.292934e+00	-1.234371e+02
1.690000e-06	-6.982696e-07	-1.783900e-09	-4.970430e+00	-1.223155e+02
1.700000e-06	-6.528933e-07	-1.761444e-09	-4.647432e+00	-1.211651e+02
1.710000e-06	-6.073522e-07	-1.742842e-09	-4.323261e+00	-1.199840e+02
1.720000e-06	-5.617364e-07	-1.724451e-09	-3.998559e+00	-1.187700e+02
1.730000e-06	-5.161170e-07	-1.705630e-09	-3.673830e+00	-1.175210e+02
1.740000e-06	-4.705205e-07	-1.689574e-09	-3.349264e+00	-1.162346e+02
1.750000e-06	-4.249060e-07	-1.675191e-09	-3.024571e+00	-1.149084e+02
1.760000e-06	-3.792202e-07	-1.658967e-09	-2.699370e+00	-1.135401e+02
1.770000e-06	-3.334596e-07	-1.638543e-09	-2.373636e+00	-1.121273e+02
1.780000e-06	-2.876620e-07	-1.616284e-09	-2.047639e+00	-1.106677e+02
1.790000e-06	-2.418584e-07	-1.593829e-09	-1.721599e+00	-1.091588e+02
1.800000e-06	-1.961321e-07	-1.568115e-09	-1.396109e+00	-1.075986e+02
1.810000e-06	-1.504944e-07	-1.541744e-09	-1.071251e+00	-1.059850e+02
1.820000e-06	-1.048064e-07	-1.516969e-09	-7.460338e-01	-1.043161e+02
1.830000e-06	-5.904604e-08	-1.493410e-09	-4.203022e-01	-1.025901e+02
1.840000e-06	-1.326127e-08	-1.468291e-09	-9.439651e-02	-1.008055e+02
1.850000e-06	3.254883e-08	-1.441066e-09	2.316894e-01	-9.896093e+01
1.860000e-06	7.838025e-08	-1.412133e-09	5.579272e-01	-9.705532e+01
1.870000e-06	1.241782e-07	-1.382557e-09	8.839266e-01	-9.508780e+01
1.880000e-06	1.699459e-07	-1.351236e-09	1.209711e+00	-9.305775e+01
1.890000e-06	2.156801e-07	-1.317070e-09	1.535256e+00	-9.096478e+01
1.900000e-06	2.614102e-07	-1.283187e-09	1.860773e+00	-8.880877e+01
1.910000e-06	3.071912e-07	-1.250089e-09	2.186652e+00	-8.658982e+01
1.920000e-06	3.529373e-07	-1.213885e-09	2.512282e+00	-8.430824e+01
1.930000e-06	3.986263e-07	-1.176435e-09	2.837506e+00	-8.196457e+01
1.940000e-06	4.442062e-07	-1.139434e-09	3.161954e+00	-7.955956e+01
1.950000e-06	4.897501e-07	-1.101123e-09	3.486144e+00	-7.709409e+01
1.960000e-06	5.353191e-07	-1.065131e-09	3.810514e+00	-7.456924e+01
1.970000e-06	5.807805e-07	-1.030267e-09	4.134118e+00	-7.198620e+01
1.980000e-06	6.262111e-07	-9.909424e-10	4.457502e+00	-6.934628e+01
1.990000e-06	6.715674e-07	-9.476564e-10	4.780359e+00	-6.665088e+01
2.000000e-06	7.168333e-07	-9.044437e-10	5.102570e+00	-6.390146e+01
2.010000e-06	7.621332e-07	-8.610969e-10	5.425025e+00	-6.109954e+01
2.020000e-06	8.073988e-07	-8.154928e-10	5.747235e+00	-5.824666e+01
2.030000e-06	8.526215e-07	-7.691337e-10	6.069140e+00	-5.534438e+01
2.040000e-06	8.977936e-07	-7.231548e-10	6.390685e+00	-5.239427e+01
2.050000e-06	9.429166e-07	-6.788617e-10	6.711880e+00	-4.939786e+01
2.060000e-06	9.879294e-07	-6.375435e-10	7.032290e+00	-4.635671e+01
2.070000e-06	1.032822e-06	-5.962920e-10	7.351846e+00	-4.327233e+01
2.080000e-06	1.077679e-06	-5.551646e-10	7.671149e+00	-4.014623e+01
2.090000e-06	1.122479e-06	-5.133628e-10	7.990041e+00	-3.697991e+01
2.100000e-06	1.167231e-06	-4.675505e-10	8.308593e+00	-3.377487e+01
2.110000e-06	1.211822e-06	-4.154823e-10	8.626008e+00	-3.053261e+01
2.120000e-06	1.256279e-06	-3.604156e-10	8.942457e+00	-2.725466e+01
2.130000e-06	1.300718e-06	-3.074000e-10	9.258784e+00	-2.394261e+01
2.140000e-06	1.345111e-06	-2.561182e-10	9.574785e+00	-2.059808e+01
2.150000e-06	1.389425e-06	-2.066579e-10	9.890223e+00	-1.722280e+01
2.160000e-06	1.433633e-06	-1.600817e-10	1.020490e+01	-1.381859e+01
2.170000e-06	1.477793e-06	-1.135236e-10	1.051924e+01	-1.038741e+01
2.180000e-06	1.521898e-06	-6.137936e-11	1.083319e+01	-6.931326e+00
2.190000e-06	1.565945e-06	-5.565549e-12	1.114672e+01	-3.452610e+00
2.200000e-06	1.609981e-06	4.793726e-11	1.146019e+01	4.630652e-02
2.210000e-06	1.653966e-06	9.893978e-11	1.177328e+01	3.562795e+00
2.220000e-06	1.697799e-06	1.522750e-10	1.208529e+01	7.094020e+00
2.230000e-06	1.741506e-06	2.085857e-10	1.239641e+01	1.063694e+01
2.240000e-06	1.785178e-06	2.630665e-10	1.270727e+01	1.418829e+01
2.250000e-06	1.828767e-06	3.127778e-10	1.301755e+01	1.774461e+01
2.260000e-06	1.872192e-06	3.604881e-10	1.332666e+01	2.130222e+01
2.270000e-06	1.915441e-06	4.104721e-10	1.363451e+01	2.485725e+01
2.280000e-06	1.958466e-06	4.607505e-10	1.394077e+01	2.840567e+01
2.290000e-06	2.001260e-06	5.088256e-10	1.424539e+01	3.194327e+01
2.300000e-06	2.043921e-06	5.566234e-10	1.454906e+01	3.546574e+01
2.310000e-06	2.086419e-06	6.086170e-10	1.485157e+01	3.896867e+01
2.320000e-06	2.128577e-06	6.638888e-10	1.515166e+01	4.244758e+01
2.330000e-06	2.170380e-06	7.160405e-10	1.544922e+01	4.589796e+01
2.340000e-06	2.211943e-06	7.637358e-10	1.574507e+01	4.931534e+01
2.350000e-06	2.253159e-06	8.125937e-10	1.603846e+01	5.269528e+01
2.360000e-06	2.294071e-06	8.642650e-10	1.632968e+01	5.603348e+01
2.370000e-06	2.334771e-06	9.112533e-10	1.661940e+01	5.932575e+01
2.380000e-06	2.375278e-06	9.511167e-10	1.690773e+01	6.256810e+01
2.390000e-06	2.415658e-06	9.920671e-10	1.719517e+01	6.575676e+01
2.400000e-06	2.455879e-06	1.037976e-09	1.748146e+01	6.888824e+01
2.410000e-06	2.495982e-06	1.083352e-09	1.776693e+01	7.195934e+01
2.420000e-06	2.536007e-06	1.125407e-09	1.805184e+01	7.496719e+01
2.430000e-06	2.575984e-06	1.167390e-09	1.833640e+01	7.790928e+01
2.440000e-06	2.615896e-06	1.213937e-09	1.862050e+01	8.078347e+01
2.450000e-06	2.655647e-06	1.258784e-09	1.890345e+01	8.358803e+01
2.460000e-06	2.695204e-06	1.295502e-09	1.918503e+01	8.632161e+01
2.470000e-06	2.734603e-06	1.328654e-09	1.946548e+01	8.898327e+01
2.480000e-06	2.773918e-06	1.363833e-09	1.974534e+01	9.157250e+01
2.490000e-06	2.813118e-06	1.401136e-09	2.002437e+01	9.408914e+01
2.500000e-06	2.852038e-06	1.436611e-09	2.030141e+01	9.653343e+01
2.510000e-06	2.890566e-06	1.470779e-09	2.057566e+01	9.890596e+01
2.520000e-06	2.928856e-06	1.508500e-09	2.084822e+01	1.012077e+02
2.530000e-06	2.967067e-06	1.547252e-09	2.112021e+01	1.034398e+02
2.540000e-06	3.005142e-06	1.577610e-09	2.139124e+01	1.056037e+02
2.550000e-06	3.043016e-06	1.601589e-09	2.166083e+01	1.077013e+02
2.560000e-06	3.080644e-06	1.627193e-09	2.192868e+01	1.097343e+02
2.570000e-06	3.118020e-06	1.656779e-09	2.219473e+01	1.117048e+02
2.580000e-06	3.155135e-06	1.686231e-09	2.245892e+01	1.136150e+02
2.590000e-06	3.192006e-06	1.712626e-09	2.272138e+01	1.154670e+02
2.600000e-06	3.228689e-06	1.740140e-09	2.298249e+01	1.172630e+02
2.610000e-06	3.265209e-06	1.770172e-09	2.324244e+01	1.190053e+02
2.620000e-06	3.301540e-06	1.798586e-09	2.350106e+01	1.206959e+02
2.630000e-06	3.337709e-06	1.822365e-09	2.375852e+01	1.223370e+02
2.640000e-06	3.373737e-06	1.844011e-09	2.401497e+01	1.239303e+02
2.650000e-06	3.409595e-06	1.868090e-09	2.427022e+01	1.254777e+02
2.660000e-06	3.445281e-06	1.890951e-09	2.452424e+01	1.269808e+02
2.670000e-06	3.480770e-06	1.909249e-09	2.477686e+01	1.284409e+02
2.680000e-06	3.515993e-06	1.926187e-09	2.502758e+01	1.298595e+02
2.690000e-06	3.550875e-06	1.946496e-09	2.527587e+01	1.312373e+02
2.700000e-06	3.585420e-06	1.968917e-09	2.552177e+01	1.325755e+02
2.710000e-06	3.619502e-06	1.989074e-09	2.576438e+01	1.338745e+02
2.720000e-06	3.653067e-06	2.006923e-09	2.600330e+01	1.351350e+02
2.730000e-06	3.686268e-06	2.025367e-09	2.623963e+01	1.363574e+02
2.740000e-06	3.719096e-06	2.045708e-09	2.647331e+01	1.375418e+02
2.750000e-06	3.751536e-06	2.065031e-09	2.670423e+01	1.386884e+02
2.760000e-06	3.783787e-06	2.081278e-09	2.693379e+01	1.397973e+02
2.770000e-06	3.815971e-06	2.097553e-09	2.716288e+01	1.408686e+02
2.780000e-06	3.847990e-06	2.113749e-09	2.739080e+01	1.419023e+02
2.790000e-06	3.879814e-06	2.128259e-09	2.761733e+01	1.428983e+02
2.800000e-06	3.911477e-06	2.142001e-09	2.784272e+01	1.438568e+02
2.810000e-06	3.942954e-06	2.155933e-09	2.806678e+01	1.447778e+02
2.820000e-06	3.974153e-06	2.171104e-09	2.828886e+01	1.456618e+02
2.830000e-06	4.004981e-06	2.185725e-09	2.850830e+01	1.465089e+02
2.840000e-06	4.035427e-06	2.197428e-09	2.872502e+01	1.473198e+02
2.850000e-06	4.065568e-06	2.207960e-09	2.893957e+01	1.480950e+02
2.860000e-06	4.095424e-06	2.219911e-09	2.915210e+01	1.488353e+02
2.870000e-06	4.125023e-06	2.231577e-09	2.936278e+01	1.495418e+02
2.880000e-06	4.154437e-06	2.239313e-09	2.957216e+01	1.502154e+02
2.890000e-06	4.183581e-06	2.242308e-09	2.977961e+01	1.508577e+02
2.900000e-06	4.212410e-06	2.244986e-09	2.998482e+01	1.514699e+02
