# Temperatura_=_-1.6
# Concentracion g/m^3_=_4090.0
# C_Vs_to_Am_M_A/Vsm_=_65563218390.804596
# pendiente_HvsI_1/m_=_3716.3
# ordenada_HvsI_A/m_=_1297.0
# frecuencia_Hz_=_135084.10400751454

Tiempo_(s)	Campo_(V.s)	Magnetizacion_(V.s)	Campo_(kA/m)	Magnetizacion_(A/m)
0.000000e+00	-5.406883e-06	-2.523314e-09	-3.838848e+01	-1.615922e+02
1.000000e-08	-5.406916e-06	-2.525081e-09	-3.838871e+01	-1.615403e+02
2.000000e-08	-5.406833e-06	-2.524577e-09	-3.838812e+01	-1.614908e+02
3.000000e-08	-5.406464e-06	-2.521398e-09	-3.838550e+01	-1.614457e+02
4.000000e-08	-5.405639e-06	-2.516731e-09	-3.837964e+01	-1.614064e+02
5.000000e-08	-5.404240e-06	-2.515661e-09	-3.836971e+01	-1.613748e+02
6.000000e-08	-5.402258e-06	-2.528999e-09	-3.835564e+01	-1.613525e+02
7.000000e-08	-5.399719e-06	-2.526002e-09	-3.833762e+01	-1.613410e+02
8.000000e-08	-5.396543e-06	-2.472636e-09	-3.831507e+01	-1.613415e+02
9.000000e-08	-5.392751e-06	-2.470944e-09	-3.828814e+01	-1.613554e+02
1.000000e-07	-5.388609e-06	-2.580148e-09	-3.825873e+01	-1.613835e+02
1.100000e-07	-5.384161e-06	-2.581433e-09	-3.822715e+01	-1.614266e+02
1.200000e-07	-5.379543e-06	-2.434575e-09	-3.819436e+01	-1.614853e+02
1.300000e-07	-5.374804e-06	-2.415913e-09	-3.816072e+01	-1.615597e+02
1.400000e-07	-5.369595e-06	-2.574776e-09	-3.812374e+01	-1.616498e+02
1.500000e-07	-5.363870e-06	-2.612700e-09	-3.808309e+01	-1.617554e+02
1.600000e-07	-5.357874e-06	-2.403520e-09	-3.804052e+01	-1.618759e+02
1.700000e-07	-5.351641e-06	-2.387196e-09	-3.799627e+01	-1.620104e+02
1.800000e-07	-5.344968e-06	-2.572027e-09	-3.794889e+01	-1.621579e+02
1.900000e-07	-5.337844e-06	-2.613163e-09	-3.789830e+01	-1.623170e+02
2.000000e-07	-5.330468e-06	-2.442762e-09	-3.784593e+01	-1.624862e+02
2.100000e-07	-5.322996e-06	-2.459231e-09	-3.779288e+01	-1.626638e+02
2.200000e-07	-5.315275e-06	-2.588480e-09	-3.773807e+01	-1.628479e+02
2.300000e-07	-5.307187e-06	-2.534350e-09	-3.768065e+01	-1.630365e+02
2.400000e-07	-5.298683e-06	-2.432271e-09	-3.762027e+01	-1.632276e+02
2.500000e-07	-5.289685e-06	-2.529574e-09	-3.755638e+01	-1.634189e+02
2.600000e-07	-5.279957e-06	-2.615760e-09	-3.748731e+01	-1.636083e+02
2.700000e-07	-5.269453e-06	-2.496135e-09	-3.741274e+01	-1.637937e+02
2.800000e-07	-5.258485e-06	-2.480877e-09	-3.733486e+01	-1.639730e+02
2.900000e-07	-5.247162e-06	-2.611560e-09	-3.725447e+01	-1.641442e+02
3.000000e-07	-5.235415e-06	-2.582124e-09	-3.717107e+01	-1.643054e+02
3.100000e-07	-5.223205e-06	-2.444724e-09	-3.708437e+01	-1.644549e+02
3.200000e-07	-5.210666e-06	-2.527106e-09	-3.699535e+01	-1.645913e+02
3.300000e-07	-5.197726e-06	-2.622115e-09	-3.690348e+01	-1.647130e+02
3.400000e-07	-5.184378e-06	-2.535506e-09	-3.680871e+01	-1.648191e+02
3.500000e-07	-5.170709e-06	-2.474980e-09	-3.671166e+01	-1.649086e+02
3.600000e-07	-5.156692e-06	-2.565174e-09	-3.661214e+01	-1.649810e+02
3.700000e-07	-5.142224e-06	-2.552192e-09	-3.650942e+01	-1.650357e+02
3.800000e-07	-5.127254e-06	-2.501113e-09	-3.640313e+01	-1.650726e+02
3.900000e-07	-5.111758e-06	-2.525193e-09	-3.629311e+01	-1.650919e+02
4.000000e-07	-5.095667e-06	-2.537071e-09	-3.617887e+01	-1.650938e+02
4.100000e-07	-5.079105e-06	-2.489451e-09	-3.606127e+01	-1.650787e+02
4.200000e-07	-5.062276e-06	-2.532027e-09	-3.594179e+01	-1.650475e+02
4.300000e-07	-5.045121e-06	-2.556049e-09	-3.582000e+01	-1.650009e+02
4.400000e-07	-5.027632e-06	-2.485284e-09	-3.569582e+01	-1.649400e+02
4.500000e-07	-5.009915e-06	-2.464885e-09	-3.557003e+01	-1.648658e+02
4.600000e-07	-4.991866e-06	-2.526574e-09	-3.544188e+01	-1.647797e+02
4.700000e-07	-4.973325e-06	-2.515465e-09	-3.531025e+01	-1.646828e+02
4.800000e-07	-4.954375e-06	-2.469414e-09	-3.517570e+01	-1.645765e+02
4.900000e-07	-4.935030e-06	-2.483278e-09	-3.503836e+01	-1.644621e+02
5.000000e-07	-4.915353e-06	-2.510723e-09	-3.489865e+01	-1.643409e+02
5.100000e-07	-4.895519e-06	-2.511559e-09	-3.475783e+01	-1.642141e+02
5.200000e-07	-4.875490e-06	-2.497093e-09	-3.461563e+01	-1.640830e+02
5.300000e-07	-4.855286e-06	-2.477027e-09	-3.447218e+01	-1.639485e+02
5.400000e-07	-4.834767e-06	-2.475475e-09	-3.432650e+01	-1.638117e+02
5.500000e-07	-4.813824e-06	-2.498542e-09	-3.417780e+01	-1.636735e+02
5.600000e-07	-4.792477e-06	-2.484317e-09	-3.402624e+01	-1.635346e+02
5.700000e-07	-4.770785e-06	-2.460205e-09	-3.387223e+01	-1.633956e+02
5.800000e-07	-4.748772e-06	-2.470035e-09	-3.371594e+01	-1.632570e+02
5.900000e-07	-4.726338e-06	-2.492831e-09	-3.355666e+01	-1.631192e+02
6.000000e-07	-4.703589e-06	-2.489586e-09	-3.339514e+01	-1.629823e+02
6.100000e-07	-4.680530e-06	-2.478017e-09	-3.323142e+01	-1.628465e+02
6.200000e-07	-4.657225e-06	-2.459211e-09	-3.306596e+01	-1.627117e+02
6.300000e-07	-4.633669e-06	-2.462124e-09	-3.289872e+01	-1.625778e+02
6.400000e-07	-4.609771e-06	-2.472664e-09	-3.272904e+01	-1.624447e+02
6.500000e-07	-4.585724e-06	-2.462440e-09	-3.255831e+01	-1.623119e+02
6.600000e-07	-4.561536e-06	-2.439804e-09	-3.238657e+01	-1.621792e+02
6.700000e-07	-4.537084e-06	-2.455113e-09	-3.221296e+01	-1.620462e+02
6.800000e-07	-4.512212e-06	-2.470627e-09	-3.203638e+01	-1.619125e+02
6.900000e-07	-4.486788e-06	-2.459571e-09	-3.185587e+01	-1.617776e+02
7.000000e-07	-4.460704e-06	-2.438309e-09	-3.167068e+01	-1.616412e+02
7.100000e-07	-4.434141e-06	-2.435945e-09	-3.148208e+01	-1.615029e+02
7.200000e-07	-4.407283e-06	-2.440176e-09	-3.129139e+01	-1.613623e+02
7.300000e-07	-4.379988e-06	-2.442529e-09	-3.109760e+01	-1.612191e+02
7.400000e-07	-4.352333e-06	-2.428601e-09	-3.090125e+01	-1.610731e+02
7.500000e-07	-4.324504e-06	-2.418585e-09	-3.070367e+01	-1.609240e+02
7.600000e-07	-4.296528e-06	-2.428275e-09	-3.050504e+01	-1.607718e+02
7.700000e-07	-4.268385e-06	-2.434965e-09	-3.030522e+01	-1.606162e+02
7.800000e-07	-4.239975e-06	-2.419492e-09	-3.010351e+01	-1.604573e+02
7.900000e-07	-4.211165e-06	-2.407650e-09	-2.989897e+01	-1.602951e+02
8.000000e-07	-4.181964e-06	-2.410272e-09	-2.969164e+01	-1.601296e+02
8.100000e-07	-4.152504e-06	-2.411739e-09	-2.948248e+01	-1.599611e+02
8.200000e-07	-4.122821e-06	-2.405988e-09	-2.927173e+01	-1.597895e+02
8.300000e-07	-4.092887e-06	-2.397285e-09	-2.905920e+01	-1.596152e+02
8.400000e-07	-4.062697e-06	-2.397349e-09	-2.884485e+01	-1.594382e+02
8.500000e-07	-4.032270e-06	-2.402180e-09	-2.862882e+01	-1.592587e+02
8.600000e-07	-4.001602e-06	-2.396787e-09	-2.841108e+01	-1.590771e+02
8.700000e-07	-3.970628e-06	-2.379390e-09	-2.819117e+01	-1.588933e+02
8.800000e-07	-3.939382e-06	-2.370897e-09	-2.796933e+01	-1.587075e+02
8.900000e-07	-3.907800e-06	-2.373932e-09	-2.774510e+01	-1.585198e+02
9.000000e-07	-3.875976e-06	-2.378442e-09	-2.751915e+01	-1.583303e+02
9.100000e-07	-3.844068e-06	-2.372719e-09	-2.729260e+01	-1.581390e+02
9.200000e-07	-3.812001e-06	-2.370721e-09	-2.706493e+01	-1.579459e+02
9.300000e-07	-3.779736e-06	-2.376006e-09	-2.683585e+01	-1.577508e+02
9.400000e-07	-3.747199e-06	-2.380932e-09	-2.660484e+01	-1.575536e+02
9.500000e-07	-3.714336e-06	-2.370089e-09	-2.637152e+01	-1.573541e+02
9.600000e-07	-3.681138e-06	-2.357751e-09	-2.613582e+01	-1.571521e+02
9.700000e-07	-3.647591e-06	-2.353689e-09	-2.589763e+01	-1.569473e+02
9.800000e-07	-3.613637e-06	-2.355808e-09	-2.565656e+01	-1.567393e+02
9.900000e-07	-3.579166e-06	-2.350798e-09	-2.541182e+01	-1.565280e+02
1.000000e-06	-3.544221e-06	-2.346380e-09	-2.516371e+01	-1.563128e+02
1.010000e-06	-3.508978e-06	-2.350389e-09	-2.491349e+01	-1.560935e+02
1.020000e-06	-3.473484e-06	-2.357614e-09	-2.466148e+01	-1.558697e+02
1.030000e-06	-3.437761e-06	-2.353821e-09	-2.440785e+01	-1.556411e+02
1.040000e-06	-3.401910e-06	-2.342114e-09	-2.415332e+01	-1.554074e+02
1.050000e-06	-3.365936e-06	-2.329336e-09	-2.389790e+01	-1.551682e+02
1.060000e-06	-3.329784e-06	-2.322108e-09	-2.364122e+01	-1.549234e+02
1.070000e-06	-3.293397e-06	-2.314173e-09	-2.338288e+01	-1.546728e+02
1.080000e-06	-3.256867e-06	-2.302017e-09	-2.312352e+01	-1.544162e+02
1.090000e-06	-3.220136e-06	-2.294691e-09	-2.286273e+01	-1.541536e+02
1.100000e-06	-3.183122e-06	-2.296949e-09	-2.259994e+01	-1.538849e+02
1.110000e-06	-3.145884e-06	-2.300188e-09	-2.233555e+01	-1.536103e+02
1.120000e-06	-3.108394e-06	-2.295862e-09	-2.206937e+01	-1.533298e+02
1.130000e-06	-3.070707e-06	-2.288692e-09	-2.180179e+01	-1.530435e+02
1.140000e-06	-3.032790e-06	-2.282986e-09	-2.153259e+01	-1.527518e+02
1.150000e-06	-2.994608e-06	-2.278905e-09	-2.126150e+01	-1.524547e+02
1.160000e-06	-2.956299e-06	-2.268611e-09	-2.098951e+01	-1.521525e+02
1.170000e-06	-2.917855e-06	-2.255289e-09	-2.071656e+01	-1.518456e+02
1.180000e-06	-2.879253e-06	-2.247810e-09	-2.044249e+01	-1.515342e+02
1.190000e-06	-2.840406e-06	-2.248183e-09	-2.016668e+01	-1.512186e+02
1.200000e-06	-2.801189e-06	-2.246645e-09	-1.988824e+01	-1.508991e+02
1.210000e-06	-2.761688e-06	-2.239767e-09	-1.960778e+01	-1.505757e+02
1.220000e-06	-2.722100e-06	-2.230726e-09	-1.932671e+01	-1.502488e+02
1.230000e-06	-2.682424e-06	-2.223344e-09	-1.904502e+01	-1.499184e+02
1.240000e-06	-2.642576e-06	-2.212588e-09	-1.876209e+01	-1.495845e+02
1.250000e-06	-2.602660e-06	-2.198474e-09	-1.847870e+01	-1.492472e+02
1.260000e-06	-2.562627e-06	-2.186778e-09	-1.819447e+01	-1.489062e+02
1.270000e-06	-2.522466e-06	-2.183949e-09	-1.790932e+01	-1.485613e+02
1.280000e-06	-2.482270e-06	-2.184059e-09	-1.762394e+01	-1.482123e+02
1.290000e-06	-2.441962e-06	-2.180967e-09	-1.733775e+01	-1.478586e+02
1.300000e-06	-2.401480e-06	-2.173839e-09	-1.705033e+01	-1.474999e+02
1.310000e-06	-2.360877e-06	-2.168492e-09	-1.676205e+01	-1.471353e+02
1.320000e-06	-2.320036e-06	-2.163386e-09	-1.647209e+01	-1.467644e+02
1.330000e-06	-2.278971e-06	-2.152513e-09	-1.618053e+01	-1.463863e+02
1.340000e-06	-2.237570e-06	-2.140127e-09	-1.588659e+01	-1.460001e+02
1.350000e-06	-2.195748e-06	-2.132046e-09	-1.558965e+01	-1.456050e+02
1.360000e-06	-2.153645e-06	-2.127266e-09	-1.529073e+01	-1.452001e+02
1.370000e-06	-2.111276e-06	-2.123123e-09	-1.498991e+01	-1.447844e+02
1.380000e-06	-2.068701e-06	-2.114167e-09	-1.468763e+01	-1.443569e+02
1.390000e-06	-2.025857e-06	-2.103897e-09	-1.438344e+01	-1.439167e+02
1.400000e-06	-1.982788e-06	-2.096222e-09	-1.407765e+01	-1.434628e+02
1.410000e-06	-1.939654e-06	-2.087100e-09	-1.377140e+01	-1.429944e+02
1.420000e-06	-1.896379e-06	-2.076210e-09	-1.346415e+01	-1.425105e+02
1.430000e-06	-1.852897e-06	-2.066005e-09	-1.315544e+01	-1.420105e+02
1.440000e-06	-1.809257e-06	-2.060855e-09	-1.284560e+01	-1.414936e+02
1.450000e-06	-1.765540e-06	-2.056549e-09	-1.253521e+01	-1.409593e+02
1.460000e-06	-1.721741e-06	-2.046306e-09	-1.222423e+01	-1.404069e+02
1.470000e-06	-1.677797e-06	-2.035264e-09	-1.191224e+01	-1.398360e+02
1.480000e-06	-1.633774e-06	-2.026650e-09	-1.159967e+01	-1.392463e+02
1.490000e-06	-1.589751e-06	-2.018727e-09	-1.128712e+01	-1.386376e+02
1.500000e-06	-1.545690e-06	-2.005821e-09	-1.097429e+01	-1.380098e+02
1.510000e-06	-1.501566e-06	-1.988125e-09	-1.066101e+01	-1.373626e+02
1.520000e-06	-1.457316e-06	-1.976064e-09	-1.034684e+01	-1.366963e+02
1.530000e-06	-1.413017e-06	-1.970336e-09	-1.003232e+01	-1.360107e+02
1.540000e-06	-1.368708e-06	-1.966641e-09	-9.717731e+00	-1.353061e+02
1.550000e-06	-1.324286e-06	-1.956886e-09	-9.402335e+00	-1.345825e+02
1.560000e-06	-1.279792e-06	-1.943930e-09	-9.086433e+00	-1.338401e+02
1.570000e-06	-1.235170e-06	-1.933046e-09	-8.769615e+00	-1.330791e+02
1.580000e-06	-1.190485e-06	-1.921312e-09	-8.452357e+00	-1.322996e+02
1.590000e-06	-1.145766e-06	-1.905643e-09	-8.134859e+00	-1.315016e+02
1.600000e-06	-1.100887e-06	-1.891121e-09	-7.816215e+00	-1.306851e+02
1.610000e-06	-1.055877e-06	-1.880917e-09	-7.496654e+00	-1.298500e+02
1.620000e-06	-1.010774e-06	-1.877292e-09	-7.176421e+00	-1.289961e+02
1.630000e-06	-9.655387e-07	-1.871663e-09	-6.855255e+00	-1.281231e+02
1.640000e-06	-9.203172e-07	-1.858182e-09	-6.534186e+00	-1.272305e+02
1.650000e-06	-8.751250e-07	-1.840789e-09	-6.213324e+00	-1.263177e+02
1.660000e-06	-8.298986e-07	-1.823258e-09	-5.892220e+00	-1.253839e+02
1.670000e-06	-7.846093e-07	-1.805547e-09	-5.570669e+00	-1.244283e+02
1.680000e-06	-7.391889e-07	-1.786558e-09	-5.248188e+00	-1.234496e+02
1.690000e-06	-6.937295e-07	-1.769530e-09	-4.925429e+00	-1.224467e+02
1.700000e-06	-6.481759e-07	-1.759622e-09	-4.602002e+00	-1.214181e+02
1.710000e-06	-6.025701e-07	-1.751176e-09	-4.278204e+00	-1.203622e+02
1.720000e-06	-5.569084e-07	-1.738059e-09	-3.954009e+00	-1.192774e+02
1.730000e-06	-5.112616e-07	-1.719829e-09	-3.629920e+00	-1.181617e+02
1.740000e-06	-4.656554e-07	-1.700136e-09	-3.306119e+00	-1.170132e+02
1.750000e-06	-4.199926e-07	-1.679029e-09	-2.981917e+00	-1.158299e+02
1.760000e-06	-3.742659e-07	-1.655743e-09	-2.657261e+00	-1.146095e+02
1.770000e-06	-3.284246e-07	-1.633215e-09	-2.331791e+00	-1.133499e+02
1.780000e-06	-2.826353e-07	-1.612881e-09	-2.006690e+00	-1.120488e+02
1.790000e-06	-2.367867e-07	-1.600291e-09	-1.681168e+00	-1.107040e+02
1.800000e-06	-1.908630e-07	-1.585053e-09	-1.355113e+00	-1.093132e+02
1.810000e-06	-1.450176e-07	-1.568718e-09	-1.029614e+00	-1.078742e+02
1.820000e-06	-9.914704e-08	-1.549429e-09	-7.039368e-01	-1.063847e+02
1.830000e-06	-5.323751e-08	-1.525015e-09	-3.779825e-01	-1.048427e+02
1.840000e-06	-7.344109e-09	-1.495281e-09	-5.214264e-02	-1.032461e+02
1.850000e-06	3.851018e-08	-1.462387e-09	2.734195e-01	-1.015930e+02
1.860000e-06	8.437582e-08	-1.431008e-09	5.990622e-01	-9.988159e+01
1.870000e-06	1.303071e-07	-1.404701e-09	9.251712e-01	-9.811012e+01
1.880000e-06	1.762579e-07	-1.381386e-09	1.251418e+00	-9.627705e+01
1.890000e-06	2.221482e-07	-1.358016e-09	1.577236e+00	-9.438094e+01
1.900000e-06	2.679154e-07	-1.335410e-09	1.902180e+00	-9.242051e+01
1.910000e-06	3.136198e-07	-1.308728e-09	2.226678e+00	-9.039462e+01
1.920000e-06	3.594469e-07	-1.273770e-09	2.552047e+00	-8.830228e+01
1.930000e-06	4.052933e-07	-1.235234e-09	2.877553e+00	-8.614264e+01
1.940000e-06	4.510066e-07	-1.198379e-09	3.202114e+00	-8.391499e+01
1.950000e-06	4.966230e-07	-1.164311e-09	3.525988e+00	-8.161879e+01
1.960000e-06	5.421531e-07	-1.130415e-09	3.849247e+00	-7.925358e+01
1.970000e-06	5.876405e-07	-1.097410e-09	4.172205e+00	-7.681909e+01
1.980000e-06	6.331675e-07	-1.065388e-09	4.495443e+00	-7.431513e+01
1.990000e-06	6.786984e-07	-1.031991e-09	4.818710e+00	-7.174165e+01
2.000000e-06	7.241339e-07	-9.950984e-10	5.141298e+00	-6.909874e+01
2.010000e-06	7.695365e-07	-9.537313e-10	5.463653e+00	-6.638658e+01
2.020000e-06	8.148523e-07	-9.096555e-10	5.785392e+00	-6.360549e+01
2.030000e-06	8.600279e-07	-8.644789e-10	6.106136e+00	-6.075590e+01
2.040000e-06	9.051954e-07	-8.199763e-10	6.426822e+00	-5.783838e+01
2.050000e-06	9.503763e-07	-7.733101e-10	6.747603e+00	-5.485361e+01
2.060000e-06	9.955514e-07	-7.284830e-10	7.068343e+00	-5.180244e+01
2.070000e-06	1.040649e-06	-6.876813e-10	7.388532e+00	-4.868585e+01
2.080000e-06	1.085575e-06	-6.498202e-10	7.707505e+00	-4.550499e+01
2.090000e-06	1.130338e-06	-6.086768e-10	8.025319e+00	-4.226120e+01
2.100000e-06	1.175045e-06	-5.607813e-10	8.342734e+00	-3.895599e+01
2.110000e-06	1.219716e-06	-5.072329e-10	8.659897e+00	-3.559110e+01
2.120000e-06	1.264256e-06	-4.499619e-10	8.976123e+00	-3.216849e+01
2.130000e-06	1.308729e-06	-3.913623e-10	9.291878e+00	-2.869036e+01
2.140000e-06	1.353171e-06	-3.334173e-10	9.607414e+00	-2.515915e+01
2.150000e-06	1.397470e-06	-2.791845e-10	9.921935e+00	-2.157761e+01
2.160000e-06	1.441676e-06	-2.316825e-10	1.023579e+01	-1.794875e+01
2.170000e-06	1.485855e-06	-1.852667e-10	1.054946e+01	-1.427588e+01
2.180000e-06	1.529995e-06	-1.325775e-10	1.086286e+01	-1.056261e+01
2.190000e-06	1.574094e-06	-7.280128e-11	1.117596e+01	-6.812857e+00
2.200000e-06	1.618127e-06	-1.148594e-11	1.148859e+01	-3.030853e+00
2.210000e-06	1.662090e-06	5.087977e-11	1.180072e+01	7.788781e-01
2.220000e-06	1.705936e-06	1.130851e-10	1.211202e+01	4.611515e+00
2.230000e-06	1.749717e-06	1.729600e-10	1.242287e+01	8.461959e+00
2.240000e-06	1.793458e-06	2.291885e-10	1.273342e+01	1.232485e+01
2.250000e-06	1.837073e-06	2.831579e-10	1.304308e+01	1.619461e+01
2.260000e-06	1.880615e-06	3.386758e-10	1.335223e+01	2.006543e+01
2.270000e-06	1.924056e-06	3.968366e-10	1.366066e+01	2.393135e+01
2.280000e-06	1.967303e-06	4.545607e-10	1.396771e+01	2.778627e+01
2.290000e-06	2.010252e-06	5.110177e-10	1.427264e+01	3.162401e+01
2.300000e-06	2.052930e-06	5.690793e-10	1.457565e+01	3.543834e+01
2.310000e-06	2.095514e-06	6.269135e-10	1.487800e+01	3.922304e+01
2.320000e-06	2.137920e-06	6.805095e-10	1.517908e+01	4.297196e+01
2.330000e-06	2.180085e-06	7.331949e-10	1.547845e+01	4.667905e+01
2.340000e-06	2.222052e-06	7.895127e-10	1.577641e+01	5.033844e+01
2.350000e-06	2.263648e-06	8.478873e-10	1.607174e+01	5.394446e+01
2.360000e-06	2.304862e-06	9.027910e-10	1.636435e+01	5.749173e+01
2.370000e-06	2.345816e-06	9.487459e-10	1.665512e+01	6.097518e+01
2.380000e-06	2.386489e-06	9.932581e-10	1.694390e+01	6.439012e+01
2.390000e-06	2.427016e-06	1.040086e-09	1.723164e+01	6.773226e+01
2.400000e-06	2.467399e-06	1.085736e-09	1.751836e+01	7.099776e+01
2.410000e-06	2.507555e-06	1.127432e-09	1.780346e+01	7.418325e+01
2.420000e-06	2.547611e-06	1.171063e-09	1.808786e+01	7.728589e+01
2.430000e-06	2.587601e-06	1.219365e-09	1.837178e+01	8.030335e+01
2.440000e-06	2.627463e-06	1.267619e-09	1.865480e+01	8.323382e+01
2.450000e-06	2.667233e-06	1.307497e-09	1.893716e+01	8.607606e+01
2.460000e-06	2.706811e-06	1.339259e-09	1.921816e+01	8.882936e+01
2.470000e-06	2.746294e-06	1.373582e-09	1.949849e+01	9.149352e+01
2.480000e-06	2.785707e-06	1.409129e-09	1.977832e+01	9.406887e+01
2.490000e-06	2.824832e-06	1.442104e-09	2.005611e+01	9.655622e+01
2.500000e-06	2.863689e-06	1.474222e-09	2.033199e+01	9.895684e+01
2.510000e-06	2.902324e-06	1.511646e-09	2.060629e+01	1.012724e+02
2.520000e-06	2.940778e-06	1.552432e-09	2.087931e+01	1.035050e+02
2.530000e-06	2.979023e-06	1.585777e-09	2.115084e+01	1.056569e+02
2.540000e-06	3.017050e-06	1.610425e-09	2.142084e+01	1.077309e+02
2.550000e-06	3.054947e-06	1.635486e-09	2.168990e+01	1.097299e+02
2.560000e-06	3.092655e-06	1.663919e-09	2.195763e+01	1.116568e+02
2.570000e-06	3.130125e-06	1.688837e-09	2.222366e+01	1.135149e+02
2.580000e-06	3.167349e-06	1.707932e-09	2.248795e+01	1.153074e+02
2.590000e-06	3.204285e-06	1.730705e-09	2.275019e+01	1.170376e+02
2.600000e-06	3.240953e-06	1.760475e-09	2.301053e+01	1.187086e+02
2.610000e-06	3.277419e-06	1.790915e-09	2.326944e+01	1.203235e+02
2.620000e-06	3.313722e-06	1.816009e-09	2.352718e+01	1.218855e+02
2.630000e-06	3.349854e-06	1.839383e-09	2.378372e+01	1.233971e+02
2.640000e-06	3.385874e-06	1.862711e-09	2.403946e+01	1.248611e+02
2.650000e-06	3.421809e-06	1.879348e-09	2.429460e+01	1.262799e+02
2.660000e-06	3.457563e-06	1.889735e-09	2.454845e+01	1.276555e+02
2.670000e-06	3.493047e-06	1.902501e-09	2.480038e+01	1.289899e+02
2.680000e-06	3.528348e-06	1.922630e-09	2.505101e+01	1.302846e+02
2.690000e-06	3.563353e-06	1.946318e-09	2.529955e+01	1.315410e+02
2.700000e-06	3.597964e-06	1.966248e-09	2.554528e+01	1.327602e+02
2.710000e-06	3.632161e-06	1.983510e-09	2.578808e+01	1.339430e+02
2.720000e-06	3.665867e-06	2.002234e-09	2.602739e+01	1.350900e+02
2.730000e-06	3.699172e-06	2.018436e-09	2.626386e+01	1.362016e+02
2.740000e-06	3.732085e-06	2.030137e-09	2.649754e+01	1.372781e+02
2.750000e-06	3.764633e-06	2.042019e-09	2.672862e+01	1.383194e+02
2.760000e-06	3.796930e-06	2.059454e-09	2.695793e+01	1.393257e+02
2.770000e-06	3.828995e-06	2.079232e-09	2.718558e+01	1.402967e+02
2.780000e-06	3.860911e-06	2.096135e-09	2.741219e+01	1.412323e+02
2.790000e-06	3.892721e-06	2.109038e-09	2.763804e+01	1.421324e+02
2.800000e-06	3.924348e-06	2.121384e-09	2.786259e+01	1.429968e+02
2.810000e-06	3.955837e-06	2.131469e-09	2.808616e+01	1.438255e+02
2.820000e-06	3.987005e-06	2.139162e-09	2.830745e+01	1.446184e+02
2.830000e-06	4.017764e-06	2.148110e-09	2.852583e+01	1.453757e+02
2.840000e-06	4.048173e-06	2.159607e-09	2.874174e+01	1.460977e+02
2.850000e-06	4.078286e-06	2.172507e-09	2.895553e+01	1.467847e+02
2.860000e-06	4.108175e-06	2.184664e-09	2.916775e+01	1.474375e+02
2.870000e-06	4.137930e-06	2.196321e-09	2.937900e+01	1.480567e+02
2.880000e-06	4.167501e-06	2.206581e-09	2.958895e+01	1.486434e+02
2.890000e-06	4.196691e-06	2.212774e-09	2.979620e+01	1.491986e+02
2.900000e-06	4.225577e-06	2.215369e-09	3.000129e+01	1.497237e+02
