# Temperatura_=_-1.19
# Concentracion g/m^3_=_4090.0
# C_Vs_to_Am_M_A/Vsm_=_65563218390.804596
# pendiente_HvsI_1/m_=_3716.3
# ordenada_HvsI_A/m_=_1297.0
# frecuencia_Hz_=_135076.28107087177

Tiempo_(s)	Campo_(V.s)	Magnetizacion_(V.s)	Campo_(kA/m)	Magnetizacion_(A/m)
0.000000e+00	-5.389896e-06	-2.666412e-09	-3.840030e+01	-1.689919e+02
1.000000e-08	-5.389975e-06	-2.668698e-09	-3.840087e+01	-1.689879e+02
2.000000e-08	-5.389815e-06	-2.667439e-09	-3.839973e+01	-1.689895e+02
3.000000e-08	-5.389440e-06	-2.664056e-09	-3.839706e+01	-1.689979e+02
4.000000e-08	-5.388783e-06	-2.659721e-09	-3.839237e+01	-1.690142e+02
5.000000e-08	-5.387629e-06	-2.654568e-09	-3.838416e+01	-1.690398e+02
6.000000e-08	-5.385778e-06	-2.653838e-09	-3.837097e+01	-1.690756e+02
7.000000e-08	-5.383271e-06	-2.666251e-09	-3.835311e+01	-1.691228e+02
8.000000e-08	-5.380145e-06	-2.659564e-09	-3.833084e+01	-1.691821e+02
9.000000e-08	-5.376427e-06	-2.630822e-09	-3.830435e+01	-1.692543e+02
1.000000e-07	-5.372310e-06	-2.659352e-09	-3.827501e+01	-1.693398e+02
1.100000e-07	-5.367921e-06	-2.719346e-09	-3.824375e+01	-1.694392e+02
1.200000e-07	-5.363413e-06	-2.666139e-09	-3.821162e+01	-1.695524e+02
1.300000e-07	-5.358700e-06	-2.588255e-09	-3.817805e+01	-1.696794e+02
1.400000e-07	-5.353473e-06	-2.614390e-09	-3.814081e+01	-1.698199e+02
1.500000e-07	-5.347776e-06	-2.701300e-09	-3.810022e+01	-1.699735e+02
1.600000e-07	-5.341847e-06	-2.647009e-09	-3.805798e+01	-1.701392e+02
1.700000e-07	-5.335527e-06	-2.558254e-09	-3.801295e+01	-1.703162e+02
1.800000e-07	-5.328719e-06	-2.643501e-09	-3.796445e+01	-1.705032e+02
1.900000e-07	-5.321604e-06	-2.732743e-09	-3.791376e+01	-1.706988e+02
2.000000e-07	-5.314292e-06	-2.670058e-09	-3.786166e+01	-1.709016e+02
2.100000e-07	-5.306772e-06	-2.586116e-09	-3.780808e+01	-1.711098e+02
2.200000e-07	-5.298947e-06	-2.671655e-09	-3.775234e+01	-1.713214e+02
2.300000e-07	-5.290834e-06	-2.712936e-09	-3.769454e+01	-1.715346e+02
2.400000e-07	-5.282314e-06	-2.644822e-09	-3.763384e+01	-1.717473e+02
2.500000e-07	-5.273189e-06	-2.625571e-09	-3.756882e+01	-1.719575e+02
2.600000e-07	-5.263401e-06	-2.717928e-09	-3.749909e+01	-1.721630e+02
2.700000e-07	-5.253032e-06	-2.703831e-09	-3.742522e+01	-1.723618e+02
2.800000e-07	-5.242224e-06	-2.617149e-09	-3.734821e+01	-1.725519e+02
2.900000e-07	-5.230861e-06	-2.646844e-09	-3.726726e+01	-1.727312e+02
3.000000e-07	-5.219033e-06	-2.710515e-09	-3.718299e+01	-1.728982e+02
3.100000e-07	-5.206862e-06	-2.642238e-09	-3.709628e+01	-1.730509e+02
3.200000e-07	-5.194316e-06	-2.605104e-09	-3.700690e+01	-1.731880e+02
3.300000e-07	-5.181427e-06	-2.685281e-09	-3.691507e+01	-1.733081e+02
3.400000e-07	-5.168188e-06	-2.684696e-09	-3.682075e+01	-1.734102e+02
3.500000e-07	-5.154624e-06	-2.613236e-09	-3.672411e+01	-1.734932e+02
3.600000e-07	-5.140696e-06	-2.632020e-09	-3.662488e+01	-1.735566e+02
3.700000e-07	-5.126275e-06	-2.672155e-09	-3.652214e+01	-1.736000e+02
3.800000e-07	-5.111240e-06	-2.622181e-09	-3.641502e+01	-1.736231e+02
3.900000e-07	-5.095575e-06	-2.620355e-09	-3.630341e+01	-1.736260e+02
4.000000e-07	-5.079369e-06	-2.657975e-09	-3.618796e+01	-1.736090e+02
4.100000e-07	-5.062888e-06	-2.629866e-09	-3.607054e+01	-1.735725e+02
4.200000e-07	-5.046164e-06	-2.601886e-09	-3.595139e+01	-1.735174e+02
4.300000e-07	-5.029091e-06	-2.649874e-09	-3.582975e+01	-1.734444e+02
4.400000e-07	-5.011681e-06	-2.634737e-09	-3.570571e+01	-1.733546e+02
4.500000e-07	-4.993948e-06	-2.581040e-09	-3.557937e+01	-1.732492e+02
4.600000e-07	-4.975948e-06	-2.598949e-09	-3.545113e+01	-1.731295e+02
4.700000e-07	-4.957620e-06	-2.635236e-09	-3.532055e+01	-1.729969e+02
4.800000e-07	-4.938857e-06	-2.602689e-09	-3.518688e+01	-1.728529e+02
4.900000e-07	-4.919655e-06	-2.595675e-09	-3.505007e+01	-1.726989e+02
5.000000e-07	-4.900040e-06	-2.615007e-09	-3.491032e+01	-1.725364e+02
5.100000e-07	-4.880206e-06	-2.611231e-09	-3.476902e+01	-1.723669e+02
5.200000e-07	-4.860225e-06	-2.601395e-09	-3.462666e+01	-1.721919e+02
5.300000e-07	-4.840031e-06	-2.606107e-09	-3.448279e+01	-1.720127e+02
5.400000e-07	-4.819565e-06	-2.587333e-09	-3.433699e+01	-1.718306e+02
5.500000e-07	-4.798699e-06	-2.582694e-09	-3.418832e+01	-1.716468e+02
5.600000e-07	-4.777442e-06	-2.599563e-09	-3.403688e+01	-1.714624e+02
5.700000e-07	-4.755867e-06	-2.591432e-09	-3.388317e+01	-1.712782e+02
5.800000e-07	-4.733952e-06	-2.570164e-09	-3.372703e+01	-1.710952e+02
5.900000e-07	-4.711756e-06	-2.577095e-09	-3.356890e+01	-1.709140e+02
6.000000e-07	-4.689252e-06	-2.586705e-09	-3.340857e+01	-1.707350e+02
6.100000e-07	-4.666368e-06	-2.578634e-09	-3.324553e+01	-1.705587e+02
6.200000e-07	-4.643114e-06	-2.567686e-09	-3.307986e+01	-1.703853e+02
6.300000e-07	-4.619582e-06	-2.562115e-09	-3.291220e+01	-1.702148e+02
6.400000e-07	-4.595850e-06	-2.565457e-09	-3.274313e+01	-1.700473e+02
6.500000e-07	-4.571901e-06	-2.566735e-09	-3.257250e+01	-1.698827e+02
6.600000e-07	-4.547717e-06	-2.555038e-09	-3.240020e+01	-1.697206e+02
6.700000e-07	-4.523264e-06	-2.542201e-09	-3.222598e+01	-1.695607e+02
6.800000e-07	-4.498476e-06	-2.549336e-09	-3.204939e+01	-1.694028e+02
6.900000e-07	-4.473300e-06	-2.553836e-09	-3.187002e+01	-1.692462e+02
7.000000e-07	-4.447626e-06	-2.547957e-09	-3.168711e+01	-1.690906e+02
7.100000e-07	-4.421371e-06	-2.538803e-09	-3.150005e+01	-1.689353e+02
7.200000e-07	-4.394595e-06	-2.541053e-09	-3.130929e+01	-1.687799e+02
7.300000e-07	-4.367391e-06	-2.543824e-09	-3.111547e+01	-1.686238e+02
7.400000e-07	-4.339894e-06	-2.537513e-09	-3.091957e+01	-1.684665e+02
7.500000e-07	-4.312144e-06	-2.517151e-09	-3.072186e+01	-1.683075e+02
7.600000e-07	-4.284169e-06	-2.508902e-09	-3.052256e+01	-1.681463e+02
7.700000e-07	-4.256018e-06	-2.515271e-09	-3.032199e+01	-1.679825e+02
7.800000e-07	-4.227657e-06	-2.522337e-09	-3.011993e+01	-1.678158e+02
7.900000e-07	-4.198968e-06	-2.516871e-09	-2.991554e+01	-1.676457e+02
8.000000e-07	-4.169907e-06	-2.513690e-09	-2.970850e+01	-1.674720e+02
8.100000e-07	-4.140481e-06	-2.513061e-09	-2.949885e+01	-1.672944e+02
8.200000e-07	-4.110806e-06	-2.510213e-09	-2.928743e+01	-1.671128e+02
8.300000e-07	-4.080942e-06	-2.497196e-09	-2.907466e+01	-1.669271e+02
8.400000e-07	-4.050781e-06	-2.484528e-09	-2.885978e+01	-1.667370e+02
8.500000e-07	-4.020371e-06	-2.482895e-09	-2.864312e+01	-1.665425e+02
8.600000e-07	-3.989737e-06	-2.489808e-09	-2.842487e+01	-1.663436e+02
8.700000e-07	-3.958804e-06	-2.488628e-09	-2.820449e+01	-1.661402e+02
8.800000e-07	-3.927680e-06	-2.479243e-09	-2.798275e+01	-1.659324e+02
8.900000e-07	-3.896360e-06	-2.474848e-09	-2.775961e+01	-1.657200e+02
9.000000e-07	-3.864786e-06	-2.477063e-09	-2.753466e+01	-1.655033e+02
9.100000e-07	-3.832983e-06	-2.474527e-09	-2.730808e+01	-1.652820e+02
9.200000e-07	-3.800923e-06	-2.465468e-09	-2.707967e+01	-1.650562e+02
9.300000e-07	-3.768721e-06	-2.461317e-09	-2.685024e+01	-1.648260e+02
9.400000e-07	-3.736330e-06	-2.462949e-09	-2.661948e+01	-1.645911e+02
9.500000e-07	-3.703661e-06	-2.463208e-09	-2.638673e+01	-1.643518e+02
9.600000e-07	-3.670644e-06	-2.455434e-09	-2.615150e+01	-1.641077e+02
9.700000e-07	-3.637197e-06	-2.448072e-09	-2.591320e+01	-1.638590e+02
9.800000e-07	-3.603303e-06	-2.446937e-09	-2.567173e+01	-1.636054e+02
9.900000e-07	-3.569006e-06	-2.447121e-09	-2.542738e+01	-1.633470e+02
1.000000e-06	-3.534393e-06	-2.441977e-09	-2.518078e+01	-1.630835e+02
1.010000e-06	-3.499409e-06	-2.438435e-09	-2.493154e+01	-1.628150e+02
1.020000e-06	-3.464124e-06	-2.436258e-09	-2.468014e+01	-1.625412e+02
1.030000e-06	-3.428545e-06	-2.434230e-09	-2.442666e+01	-1.622622e+02
1.040000e-06	-3.392767e-06	-2.427180e-09	-2.417176e+01	-1.619778e+02
1.050000e-06	-3.356890e-06	-2.416927e-09	-2.391616e+01	-1.616881e+02
1.060000e-06	-3.320816e-06	-2.408857e-09	-2.365915e+01	-1.613928e+02
1.070000e-06	-3.284538e-06	-2.405474e-09	-2.340069e+01	-1.610921e+02
1.080000e-06	-3.248101e-06	-2.399966e-09	-2.314109e+01	-1.607859e+02
1.090000e-06	-3.211508e-06	-2.393724e-09	-2.288038e+01	-1.604744e+02
1.100000e-06	-3.174731e-06	-2.388727e-09	-2.261836e+01	-1.601575e+02
1.110000e-06	-3.137627e-06	-2.387095e-09	-2.235402e+01	-1.598354e+02
1.120000e-06	-3.100210e-06	-2.382676e-09	-2.208744e+01	-1.595082e+02
1.130000e-06	-3.062652e-06	-2.377222e-09	-2.181986e+01	-1.591761e+02
1.140000e-06	-3.024883e-06	-2.371964e-09	-2.155077e+01	-1.588392e+02
1.150000e-06	-2.986843e-06	-2.369935e-09	-2.127976e+01	-1.584977e+02
1.160000e-06	-2.948644e-06	-2.367841e-09	-2.100761e+01	-1.581519e+02
1.170000e-06	-2.910240e-06	-2.358787e-09	-2.073400e+01	-1.578018e+02
1.180000e-06	-2.871492e-06	-2.346006e-09	-2.045794e+01	-1.574478e+02
1.190000e-06	-2.832545e-06	-2.336984e-09	-2.018046e+01	-1.570898e+02
1.200000e-06	-2.793547e-06	-2.333555e-09	-1.990262e+01	-1.567282e+02
1.210000e-06	-2.754443e-06	-2.329856e-09	-1.962402e+01	-1.563628e+02
1.220000e-06	-2.715092e-06	-2.326135e-09	-1.934367e+01	-1.559938e+02
1.230000e-06	-2.675522e-06	-2.324561e-09	-1.906175e+01	-1.556212e+02
1.240000e-06	-2.635861e-06	-2.323441e-09	-1.877919e+01	-1.552448e+02
1.250000e-06	-2.596066e-06	-2.318016e-09	-1.849567e+01	-1.548645e+02
1.260000e-06	-2.556101e-06	-2.305281e-09	-1.821094e+01	-1.544800e+02
1.270000e-06	-2.516077e-06	-2.288816e-09	-1.792578e+01	-1.540911e+02
1.280000e-06	-2.475991e-06	-2.279905e-09	-1.764019e+01	-1.536972e+02
1.290000e-06	-2.435778e-06	-2.275771e-09	-1.735369e+01	-1.532979e+02
1.300000e-06	-2.395378e-06	-2.271894e-09	-1.706586e+01	-1.528927e+02
1.310000e-06	-2.354821e-06	-2.269718e-09	-1.677692e+01	-1.524808e+02
1.320000e-06	-2.314138e-06	-2.269571e-09	-1.648707e+01	-1.520615e+02
1.330000e-06	-2.273176e-06	-2.262848e-09	-1.619524e+01	-1.516340e+02
1.340000e-06	-2.231932e-06	-2.249917e-09	-1.590140e+01	-1.511975e+02
1.350000e-06	-2.190433e-06	-2.232865e-09	-1.560573e+01	-1.507510e+02
1.360000e-06	-2.148703e-06	-2.215980e-09	-1.530843e+01	-1.502936e+02
1.370000e-06	-2.106648e-06	-2.206034e-09	-1.500881e+01	-1.498243e+02
1.380000e-06	-2.064341e-06	-2.199679e-09	-1.470740e+01	-1.493421e+02
1.390000e-06	-2.021903e-06	-2.192185e-09	-1.440504e+01	-1.488461e+02
1.400000e-06	-1.979238e-06	-2.187804e-09	-1.410108e+01	-1.483353e+02
1.410000e-06	-1.936314e-06	-2.186365e-09	-1.379527e+01	-1.478088e+02
1.420000e-06	-1.893172e-06	-2.178252e-09	-1.348790e+01	-1.472657e+02
1.430000e-06	-1.849843e-06	-2.159446e-09	-1.317920e+01	-1.467051e+02
1.440000e-06	-1.806286e-06	-2.139224e-09	-1.286888e+01	-1.461264e+02
1.450000e-06	-1.762661e-06	-2.125197e-09	-1.255807e+01	-1.455288e+02
1.460000e-06	-1.718954e-06	-2.114790e-09	-1.224668e+01	-1.449117e+02
1.470000e-06	-1.675089e-06	-2.104056e-09	-1.193417e+01	-1.442746e+02
1.480000e-06	-1.631144e-06	-2.092617e-09	-1.162108e+01	-1.436171e+02
1.490000e-06	-1.587152e-06	-2.085638e-09	-1.130766e+01	-1.429389e+02
1.500000e-06	-1.543071e-06	-2.079267e-09	-1.099361e+01	-1.422396e+02
1.510000e-06	-1.498901e-06	-2.065728e-09	-1.067892e+01	-1.415192e+02
1.520000e-06	-1.454717e-06	-2.045777e-09	-1.036413e+01	-1.407775e+02
1.530000e-06	-1.410460e-06	-2.029791e-09	-1.004882e+01	-1.400145e+02
1.540000e-06	-1.366104e-06	-2.019714e-09	-9.732804e+00	-1.392302e+02
1.550000e-06	-1.321726e-06	-2.009021e-09	-9.416636e+00	-1.384246e+02
1.560000e-06	-1.277262e-06	-1.994710e-09	-9.099852e+00	-1.375978e+02
1.570000e-06	-1.232725e-06	-1.980474e-09	-8.782549e+00	-1.367497e+02
1.580000e-06	-1.188182e-06	-1.970160e-09	-8.465201e+00	-1.358806e+02
1.590000e-06	-1.143503e-06	-1.960111e-09	-8.146888e+00	-1.349903e+02
1.600000e-06	-1.098710e-06	-1.945877e-09	-7.827759e+00	-1.340787e+02
1.610000e-06	-1.053925e-06	-1.928950e-09	-7.508689e+00	-1.331459e+02
1.620000e-06	-1.009133e-06	-1.915367e-09	-7.189563e+00	-1.321914e+02
1.630000e-06	-9.642042e-07	-1.902958e-09	-6.869471e+00	-1.312149e+02
1.640000e-06	-9.191177e-07	-1.886834e-09	-6.548253e+00	-1.302161e+02
1.650000e-06	-8.740170e-07	-1.867976e-09	-6.226932e+00	-1.291943e+02
1.660000e-06	-8.289004e-07	-1.850520e-09	-5.905499e+00	-1.281486e+02
1.670000e-06	-7.836884e-07	-1.836056e-09	-5.583387e+00	-1.270784e+02
1.680000e-06	-7.384307e-07	-1.819439e-09	-5.260948e+00	-1.259824e+02
1.690000e-06	-6.931366e-07	-1.799516e-09	-4.938250e+00	-1.248594e+02
1.700000e-06	-6.477689e-07	-1.781873e-09	-4.615029e+00	-1.237082e+02
1.710000e-06	-6.023853e-07	-1.767383e-09	-4.291693e+00	-1.225271e+02
1.720000e-06	-5.569532e-07	-1.749678e-09	-3.968012e+00	-1.213145e+02
1.730000e-06	-5.114672e-07	-1.727419e-09	-3.643947e+00	-1.200687e+02
1.740000e-06	-4.659973e-07	-1.705338e-09	-3.319997e+00	-1.187877e+02
1.750000e-06	-4.204742e-07	-1.685105e-09	-2.995668e+00	-1.174695e+02
1.760000e-06	-3.748475e-07	-1.666402e-09	-2.670600e+00	-1.161121e+02
1.770000e-06	-3.293066e-07	-1.646471e-09	-2.346144e+00	-1.147133e+02
1.780000e-06	-2.838042e-07	-1.628488e-09	-2.021963e+00	-1.132710e+02
1.790000e-06	-2.381738e-07	-1.611271e-09	-1.696869e+00	-1.117830e+02
1.800000e-06	-1.924219e-07	-1.587904e-09	-1.370910e+00	-1.102472e+02
1.810000e-06	-1.465805e-07	-1.560891e-09	-1.044313e+00	-1.086614e+02
1.820000e-06	-1.007842e-07	-1.534763e-09	-7.180367e-01	-1.070237e+02
1.830000e-06	-5.503080e-08	-1.511687e-09	-3.920668e-01	-1.053320e+02
1.840000e-06	-9.256155e-09	-1.488591e-09	-6.594546e-02	-1.035845e+02
1.850000e-06	3.648330e-08	-1.462287e-09	2.599252e-01	-1.017796e+02
1.860000e-06	8.211928e-08	-1.433476e-09	5.850586e-01	-9.991557e+01
1.870000e-06	1.277816e-07	-1.405190e-09	9.103796e-01	-9.799111e+01
1.880000e-06	1.735166e-07	-1.374374e-09	1.236219e+00	-9.600498e+01
1.890000e-06	2.192388e-07	-1.340398e-09	1.561966e+00	-9.395613e+01
1.900000e-06	2.649141e-07	-1.307828e-09	1.887380e+00	-9.184372e+01
1.910000e-06	3.105828e-07	-1.277758e-09	2.212747e+00	-8.966712e+01
1.920000e-06	3.562438e-07	-1.247708e-09	2.538058e+00	-8.742587e+01
1.930000e-06	4.017972e-07	-1.215232e-09	2.862603e+00	-8.511973e+01
1.940000e-06	4.472770e-07	-1.180490e-09	3.186625e+00	-8.274865e+01
1.950000e-06	4.927378e-07	-1.145492e-09	3.510510e+00	-8.031278e+01
1.960000e-06	5.382096e-07	-1.110033e-09	3.834473e+00	-7.781244e+01
1.970000e-06	5.836711e-07	-1.069222e-09	4.158364e+00	-7.524813e+01
1.980000e-06	6.290838e-07	-1.024862e-09	4.481907e+00	-7.262050e+01
1.990000e-06	6.744307e-07	-9.839658e-10	4.804980e+00	-6.993037e+01
2.000000e-06	7.197104e-07	-9.468644e-10	5.127575e+00	-6.717869e+01
2.010000e-06	7.649575e-07	-9.084759e-10	5.449939e+00	-6.436652e+01
2.020000e-06	8.101748e-07	-8.649383e-10	5.772089e+00	-6.149506e+01
2.030000e-06	8.552725e-07	-8.196215e-10	6.093387e+00	-5.856561e+01
2.040000e-06	9.002885e-07	-7.739161e-10	6.414104e+00	-5.557956e+01
2.050000e-06	9.452898e-07	-7.251160e-10	6.734715e+00	-5.253837e+01
2.060000e-06	9.902228e-07	-6.740902e-10	7.054841e+00	-4.944362e+01
2.070000e-06	1.035079e-06	-6.256345e-10	7.374419e+00	-4.629694e+01
2.080000e-06	1.079911e-06	-5.821062e-10	7.693826e+00	-4.310003e+01
2.090000e-06	1.124693e-06	-5.400782e-10	8.012872e+00	-3.985468e+01
2.100000e-06	1.169373e-06	-4.939183e-10	8.331200e+00	-3.656275e+01
2.110000e-06	1.213907e-06	-4.426840e-10	8.648480e+00	-3.322617e+01
2.120000e-06	1.258275e-06	-3.905129e-10	8.964581e+00	-2.984697e+01
2.130000e-06	1.302630e-06	-3.357484e-10	9.280588e+00	-2.642726e+01
2.140000e-06	1.347013e-06	-2.776621e-10	9.596795e+00	-2.296926e+01
2.150000e-06	1.391302e-06	-2.219301e-10	9.912329e+00	-1.947529e+01
2.160000e-06	1.435469e-06	-1.730607e-10	1.022700e+01	-1.594779e+01
2.170000e-06	1.479575e-06	-1.246152e-10	1.054123e+01	-1.238934e+01
2.180000e-06	1.523628e-06	-6.958353e-11	1.085509e+01	-8.802654e+00
2.190000e-06	1.567593e-06	-1.150897e-11	1.116831e+01	-5.190588e+00
2.200000e-06	1.611482e-06	4.415774e-11	1.148100e+01	-1.556159e+00
2.210000e-06	1.655348e-06	9.765812e-11	1.179353e+01	2.097457e+00
2.220000e-06	1.699187e-06	1.523004e-10	1.210586e+01	5.766921e+00
2.230000e-06	1.742940e-06	2.079059e-10	1.241757e+01	9.448728e+00
2.240000e-06	1.786547e-06	2.611828e-10	1.272825e+01	1.313921e+01
2.250000e-06	1.830019e-06	3.140687e-10	1.303797e+01	1.683454e+01
2.260000e-06	1.873355e-06	3.702751e-10	1.334672e+01	2.053074e+01
2.270000e-06	1.916606e-06	4.297576e-10	1.365486e+01	2.422371e+01
2.280000e-06	1.959715e-06	4.864459e-10	1.396199e+01	2.790920e+01
2.290000e-06	2.002539e-06	5.383003e-10	1.426709e+01	3.158289e+01
2.300000e-06	2.045142e-06	5.895074e-10	1.457061e+01	3.524035e+01
2.310000e-06	2.087494e-06	6.399312e-10	1.487235e+01	3.887712e+01
2.320000e-06	2.129536e-06	6.882977e-10	1.517187e+01	4.248870e+01
2.330000e-06	2.171329e-06	7.365792e-10	1.546963e+01	4.607059e+01
2.340000e-06	2.212891e-06	7.883458e-10	1.576574e+01	4.961835e+01
2.350000e-06	2.254137e-06	8.452356e-10	1.605960e+01	5.312759e+01
2.360000e-06	2.295058e-06	9.027690e-10	1.635113e+01	5.659403e+01
2.370000e-06	2.335831e-06	9.540744e-10	1.664163e+01	6.001355e+01
2.380000e-06	2.376429e-06	9.988020e-10	1.693087e+01	6.338217e+01
2.390000e-06	2.416783e-06	1.041798e-09	1.721837e+01	6.669616e+01
2.400000e-06	2.457010e-06	1.084277e-09	1.750496e+01	6.995200e+01
2.410000e-06	2.497190e-06	1.124451e-09	1.779122e+01	7.314647e+01
2.420000e-06	2.537287e-06	1.165871e-09	1.807690e+01	7.627662e+01
2.430000e-06	2.577296e-06	1.212935e-09	1.836194e+01	7.933986e+01
2.440000e-06	2.617200e-06	1.263682e-09	1.864624e+01	8.233390e+01
2.450000e-06	2.656903e-06	1.309097e-09	1.892910e+01	8.525682e+01
2.460000e-06	2.696489e-06	1.348558e-09	1.921113e+01	8.810709e+01
2.470000e-06	2.735990e-06	1.386144e-09	1.949255e+01	9.088353e+01
2.480000e-06	2.775290e-06	1.420701e-09	1.977255e+01	9.358533e+01
2.490000e-06	2.814284e-06	1.452493e-09	2.005036e+01	9.621206e+01
2.500000e-06	2.852968e-06	1.484035e-09	2.032597e+01	9.876364e+01
2.510000e-06	2.891457e-06	1.522372e-09	2.060018e+01	1.012403e+02
2.520000e-06	2.929798e-06	1.564363e-09	2.087334e+01	1.036427e+02
2.530000e-06	2.967897e-06	1.600424e-09	2.114478e+01	1.059717e+02
2.540000e-06	3.005795e-06	1.630972e-09	2.141478e+01	1.082285e+02
2.550000e-06	3.043593e-06	1.660238e-09	2.168407e+01	1.104145e+02
2.560000e-06	3.081240e-06	1.690766e-09	2.195229e+01	1.125312e+02
2.570000e-06	3.118675e-06	1.714880e-09	2.221900e+01	1.145805e+02
2.580000e-06	3.155837e-06	1.733168e-09	2.248376e+01	1.165644e+02
2.590000e-06	3.192791e-06	1.757196e-09	2.274704e+01	1.184848e+02
2.600000e-06	3.229538e-06	1.792237e-09	2.300884e+01	1.203439e+02
2.610000e-06	3.266022e-06	1.828170e-09	2.326876e+01	1.221438e+02
2.620000e-06	3.302282e-06	1.857452e-09	2.352711e+01	1.238866e+02
2.630000e-06	3.338365e-06	1.883419e-09	2.378417e+01	1.255745e+02
2.640000e-06	3.374341e-06	1.907042e-09	2.404049e+01	1.272095e+02
2.650000e-06	3.410245e-06	1.924232e-09	2.429628e+01	1.287935e+02
2.660000e-06	3.446014e-06	1.933879e-09	2.455112e+01	1.303283e+02
2.670000e-06	3.481585e-06	1.948288e-09	2.480454e+01	1.318157e+02
2.680000e-06	3.516944e-06	1.973275e-09	2.505646e+01	1.332573e+02
2.690000e-06	3.551911e-06	2.002014e-09	2.530559e+01	1.346543e+02
2.700000e-06	3.586409e-06	2.027270e-09	2.555137e+01	1.360082e+02
2.710000e-06	3.620437e-06	2.047475e-09	2.579380e+01	1.373199e+02
2.720000e-06	3.653943e-06	2.065988e-09	2.603251e+01	1.385905e+02
2.730000e-06	3.687032e-06	2.079971e-09	2.626826e+01	1.398206e+02
2.740000e-06	3.719780e-06	2.087908e-09	2.650157e+01	1.410111e+02
2.750000e-06	3.752244e-06	2.099139e-09	2.673286e+01	1.421624e+02
2.760000e-06	3.784516e-06	2.119630e-09	2.696278e+01	1.432749e+02
2.770000e-06	3.816657e-06	2.145615e-09	2.719176e+01	1.443491e+02
2.780000e-06	3.848662e-06	2.167933e-09	2.741979e+01	1.453853e+02
2.790000e-06	3.880447e-06	2.185063e-09	2.764624e+01	1.463837e+02
2.800000e-06	3.911940e-06	2.200033e-09	2.787061e+01	1.473445e+02
2.810000e-06	3.943208e-06	2.212617e-09	2.809338e+01	1.482681e+02
2.820000e-06	3.974231e-06	2.217591e-09	2.831440e+01	1.491548e+02
2.830000e-06	4.004866e-06	2.219997e-09	2.853266e+01	1.500050e+02
2.840000e-06	4.035203e-06	2.228215e-09	2.874880e+01	1.508190e+02
2.850000e-06	4.065256e-06	2.243033e-09	2.896291e+01	1.515974e+02
2.860000e-06	4.095025e-06	2.261182e-09	2.917500e+01	1.523408e+02
2.870000e-06	4.124646e-06	2.278511e-09	2.938604e+01	1.530500e+02
2.880000e-06	4.154008e-06	2.291177e-09	2.959522e+01	1.537259e+02
2.890000e-06	4.183038e-06	2.297490e-09	2.980205e+01	1.543694e+02
2.900000e-06	4.211733e-06	2.299919e-09	3.000648e+01	1.549816e+02
