# Temperatura_=_-8.08
# Concentracion g/m^3_=_4090.0
# C_Vs_to_Am_M_A/Vsm_=_65563218390.804596
# pendiente_HvsI_1/m_=_3716.3
# ordenada_HvsI_A/m_=_1297.0
# frecuencia_Hz_=_135061.28187642407

Tiempo_(s)	Campo_(V.s)	Magnetizacion_(V.s)	Campo_(kA/m)	Magnetizacion_(A/m)
0.000000e+00	-5.365029e-06	-2.097122e-09	-3.839512e+01	-1.354273e+02
1.000000e-08	-5.365280e-06	-2.096263e-09	-3.839692e+01	-1.354905e+02
2.000000e-08	-5.365327e-06	-2.096309e-09	-3.839725e+01	-1.355548e+02
3.000000e-08	-5.365211e-06	-2.098865e-09	-3.839643e+01	-1.356201e+02
4.000000e-08	-5.364694e-06	-2.099545e-09	-3.839273e+01	-1.356864e+02
5.000000e-08	-5.363611e-06	-2.096188e-09	-3.838497e+01	-1.357533e+02
6.000000e-08	-5.361954e-06	-2.092926e-09	-3.837312e+01	-1.358207e+02
7.000000e-08	-5.359633e-06	-2.096236e-09	-3.835651e+01	-1.358881e+02
8.000000e-08	-5.356651e-06	-2.106981e-09	-3.833516e+01	-1.359553e+02
9.000000e-08	-5.353079e-06	-2.097119e-09	-3.830960e+01	-1.360217e+02
1.000000e-07	-5.349047e-06	-2.082437e-09	-3.828075e+01	-1.360869e+02
1.100000e-07	-5.344775e-06	-2.115807e-09	-3.825018e+01	-1.361504e+02
1.200000e-07	-5.340421e-06	-2.138084e-09	-3.821901e+01	-1.362116e+02
1.300000e-07	-5.335856e-06	-2.078602e-09	-3.818634e+01	-1.362699e+02
1.400000e-07	-5.330901e-06	-2.057365e-09	-3.815088e+01	-1.363246e+02
1.500000e-07	-5.325493e-06	-2.089372e-09	-3.811218e+01	-1.363752e+02
1.600000e-07	-5.319707e-06	-2.137575e-09	-3.807077e+01	-1.364211e+02
1.700000e-07	-5.313570e-06	-2.064455e-09	-3.802686e+01	-1.364616e+02
1.800000e-07	-5.307014e-06	-2.063758e-09	-3.797993e+01	-1.364961e+02
1.900000e-07	-5.300035e-06	-2.137843e-09	-3.792999e+01	-1.365241e+02
2.000000e-07	-5.292756e-06	-2.173904e-09	-3.787790e+01	-1.365450e+02
2.100000e-07	-5.285285e-06	-2.098758e-09	-3.782443e+01	-1.365583e+02
2.200000e-07	-5.277636e-06	-2.088050e-09	-3.776969e+01	-1.365635e+02
2.300000e-07	-5.269738e-06	-2.153236e-09	-3.771317e+01	-1.365602e+02
2.400000e-07	-5.261547e-06	-2.141899e-09	-3.765455e+01	-1.365481e+02
2.500000e-07	-5.252854e-06	-2.098900e-09	-3.759234e+01	-1.365269e+02
2.600000e-07	-5.243378e-06	-2.127033e-09	-3.752452e+01	-1.364963e+02
2.700000e-07	-5.233234e-06	-2.185404e-09	-3.745193e+01	-1.364560e+02
2.800000e-07	-5.222543e-06	-2.124260e-09	-3.737542e+01	-1.364061e+02
2.900000e-07	-5.211391e-06	-2.086429e-09	-3.729560e+01	-1.363464e+02
3.000000e-07	-5.199877e-06	-2.121076e-09	-3.721320e+01	-1.362769e+02
3.100000e-07	-5.188010e-06	-2.128510e-09	-3.712828e+01	-1.361976e+02
3.200000e-07	-5.175784e-06	-2.050040e-09	-3.704078e+01	-1.361086e+02
3.300000e-07	-5.163159e-06	-2.074335e-09	-3.695043e+01	-1.360101e+02
3.400000e-07	-5.150160e-06	-2.120552e-09	-3.685740e+01	-1.359021e+02
3.500000e-07	-5.136776e-06	-2.098111e-09	-3.676162e+01	-1.357850e+02
3.600000e-07	-5.123007e-06	-2.056196e-09	-3.666308e+01	-1.356588e+02
3.700000e-07	-5.108930e-06	-2.102290e-09	-3.656234e+01	-1.355238e+02
3.800000e-07	-5.094430e-06	-2.095092e-09	-3.645857e+01	-1.353803e+02
3.900000e-07	-5.079236e-06	-2.062351e-09	-3.634983e+01	-1.352286e+02
4.000000e-07	-5.063291e-06	-2.065264e-09	-3.623572e+01	-1.350688e+02
4.100000e-07	-5.046844e-06	-2.080791e-09	-3.611801e+01	-1.349011e+02
4.200000e-07	-5.030005e-06	-2.047555e-09	-3.599751e+01	-1.347260e+02
4.300000e-07	-5.012903e-06	-2.058088e-09	-3.587511e+01	-1.345434e+02
4.400000e-07	-4.995599e-06	-2.078421e-09	-3.575128e+01	-1.343538e+02
4.500000e-07	-4.978053e-06	-2.048446e-09	-3.562571e+01	-1.341571e+02
4.600000e-07	-4.960247e-06	-2.028868e-09	-3.549828e+01	-1.339537e+02
4.700000e-07	-4.942071e-06	-2.055547e-09	-3.536820e+01	-1.337436e+02
4.800000e-07	-4.923487e-06	-2.053549e-09	-3.523521e+01	-1.335270e+02
4.900000e-07	-4.904499e-06	-2.026859e-09	-3.509932e+01	-1.333040e+02
5.000000e-07	-4.885128e-06	-2.033624e-09	-3.496069e+01	-1.330746e+02
5.100000e-07	-4.865474e-06	-2.036181e-09	-3.482003e+01	-1.328391e+02
5.200000e-07	-4.845646e-06	-2.026958e-09	-3.467813e+01	-1.325973e+02
5.300000e-07	-4.825656e-06	-2.019831e-09	-3.453507e+01	-1.323495e+02
5.400000e-07	-4.805453e-06	-2.015025e-09	-3.439049e+01	-1.320956e+02
5.500000e-07	-4.784907e-06	-2.003057e-09	-3.424345e+01	-1.318357e+02
5.600000e-07	-4.763928e-06	-2.015356e-09	-3.409331e+01	-1.315699e+02
5.700000e-07	-4.742549e-06	-2.010304e-09	-3.394031e+01	-1.312983e+02
5.800000e-07	-4.720886e-06	-1.994537e-09	-3.378528e+01	-1.310210e+02
5.900000e-07	-4.699014e-06	-1.988062e-09	-3.362875e+01	-1.307380e+02
6.000000e-07	-4.676855e-06	-1.995219e-09	-3.347017e+01	-1.304495e+02
6.100000e-07	-4.654305e-06	-1.980015e-09	-3.330879e+01	-1.301556e+02
6.200000e-07	-4.631359e-06	-1.970592e-09	-3.314458e+01	-1.298564e+02
6.300000e-07	-4.608038e-06	-1.960182e-09	-3.297768e+01	-1.295522e+02
6.400000e-07	-4.584475e-06	-1.957935e-09	-3.280905e+01	-1.292430e+02
6.500000e-07	-4.560747e-06	-1.956808e-09	-3.263923e+01	-1.289292e+02
6.600000e-07	-4.536802e-06	-1.954628e-09	-3.246787e+01	-1.286108e+02
6.700000e-07	-4.512625e-06	-1.937036e-09	-3.229485e+01	-1.282881e+02
6.800000e-07	-4.488172e-06	-1.934765e-09	-3.211985e+01	-1.279614e+02
6.900000e-07	-4.463342e-06	-1.935942e-09	-3.194215e+01	-1.276307e+02
7.000000e-07	-4.438027e-06	-1.929242e-09	-3.176098e+01	-1.272964e+02
7.100000e-07	-4.412082e-06	-1.913845e-09	-3.157531e+01	-1.269585e+02
7.200000e-07	-4.385518e-06	-1.907842e-09	-3.138520e+01	-1.266172e+02
7.300000e-07	-4.358537e-06	-1.905274e-09	-3.119211e+01	-1.262728e+02
7.400000e-07	-4.331185e-06	-1.905512e-09	-3.099636e+01	-1.259251e+02
7.500000e-07	-4.303532e-06	-1.900427e-09	-3.079846e+01	-1.255744e+02
7.600000e-07	-4.275723e-06	-1.891535e-09	-3.059944e+01	-1.252205e+02
7.700000e-07	-4.247787e-06	-1.887096e-09	-3.039952e+01	-1.248636e+02
7.800000e-07	-4.219652e-06	-1.884531e-09	-3.019817e+01	-1.245035e+02
7.900000e-07	-4.191300e-06	-1.876017e-09	-2.999527e+01	-1.241400e+02
8.000000e-07	-4.162661e-06	-1.863301e-09	-2.979031e+01	-1.237730e+02
8.100000e-07	-4.133698e-06	-1.856755e-09	-2.958304e+01	-1.234023e+02
8.200000e-07	-4.104364e-06	-1.851953e-09	-2.937311e+01	-1.230275e+02
8.300000e-07	-4.074714e-06	-1.850480e-09	-2.916091e+01	-1.226484e+02
8.400000e-07	-4.044878e-06	-1.843589e-09	-2.894739e+01	-1.222645e+02
8.500000e-07	-4.014828e-06	-1.834740e-09	-2.873234e+01	-1.218756e+02
8.600000e-07	-3.984522e-06	-1.825316e-09	-2.851545e+01	-1.214811e+02
8.700000e-07	-3.953908e-06	-1.819903e-09	-2.829636e+01	-1.210806e+02
8.800000e-07	-3.922942e-06	-1.808583e-09	-2.807475e+01	-1.206737e+02
8.900000e-07	-3.891750e-06	-1.798293e-09	-2.785152e+01	-1.202600e+02
9.000000e-07	-3.860364e-06	-1.790617e-09	-2.762691e+01	-1.198389e+02
9.100000e-07	-3.828746e-06	-1.791060e-09	-2.740063e+01	-1.194101e+02
9.200000e-07	-3.797002e-06	-1.786309e-09	-2.717345e+01	-1.189733e+02
9.300000e-07	-3.765091e-06	-1.778981e-09	-2.694508e+01	-1.185279e+02
9.400000e-07	-3.732981e-06	-1.770617e-09	-2.671528e+01	-1.180739e+02
9.500000e-07	-3.700633e-06	-1.768249e-09	-2.648378e+01	-1.176109e+02
9.600000e-07	-3.667991e-06	-1.761840e-09	-2.625018e+01	-1.171388e+02
9.700000e-07	-3.634975e-06	-1.751577e-09	-2.601390e+01	-1.166575e+02
9.800000e-07	-3.601507e-06	-1.739580e-09	-2.577438e+01	-1.161669e+02
9.900000e-07	-3.567563e-06	-1.734821e-09	-2.553146e+01	-1.156672e+02
1.000000e-06	-3.533151e-06	-1.731458e-09	-2.528519e+01	-1.151585e+02
1.010000e-06	-3.498327e-06	-1.728220e-09	-2.503597e+01	-1.146411e+02
1.020000e-06	-3.463236e-06	-1.721172e-09	-2.478484e+01	-1.141152e+02
1.030000e-06	-3.427986e-06	-1.713159e-09	-2.453257e+01	-1.135813e+02
1.040000e-06	-3.392542e-06	-1.703359e-09	-2.427891e+01	-1.130397e+02
1.050000e-06	-3.356897e-06	-1.690035e-09	-2.402382e+01	-1.124911e+02
1.060000e-06	-3.321067e-06	-1.671919e-09	-2.376740e+01	-1.119359e+02
1.070000e-06	-3.285107e-06	-1.657958e-09	-2.351005e+01	-1.113749e+02
1.080000e-06	-3.249033e-06	-1.652131e-09	-2.325188e+01	-1.108085e+02
1.090000e-06	-3.212750e-06	-1.647460e-09	-2.299222e+01	-1.102376e+02
1.100000e-06	-3.176159e-06	-1.640055e-09	-2.273035e+01	-1.096626e+02
1.110000e-06	-3.139350e-06	-1.631030e-09	-2.246693e+01	-1.090843e+02
1.120000e-06	-3.102312e-06	-1.624907e-09	-2.220187e+01	-1.085032e+02
1.130000e-06	-3.064950e-06	-1.617117e-09	-2.193448e+01	-1.079198e+02
1.140000e-06	-3.027343e-06	-1.606726e-09	-2.166534e+01	-1.073348e+02
1.150000e-06	-2.989609e-06	-1.594318e-09	-2.139530e+01	-1.067484e+02
1.160000e-06	-2.951795e-06	-1.587897e-09	-2.112468e+01	-1.061610e+02
1.170000e-06	-2.913837e-06	-1.582324e-09	-2.085303e+01	-1.055729e+02
1.180000e-06	-2.875622e-06	-1.572319e-09	-2.057955e+01	-1.049842e+02
1.190000e-06	-2.837140e-06	-1.559307e-09	-2.030415e+01	-1.043948e+02
1.200000e-06	-2.798446e-06	-1.553110e-09	-2.002723e+01	-1.038048e+02
1.210000e-06	-2.759539e-06	-1.548521e-09	-1.974879e+01	-1.032138e+02
1.220000e-06	-2.720367e-06	-1.539422e-09	-1.946846e+01	-1.026215e+02
1.230000e-06	-2.680924e-06	-1.523681e-09	-1.918618e+01	-1.020275e+02
1.240000e-06	-2.641335e-06	-1.510684e-09	-1.890286e+01	-1.014312e+02
1.250000e-06	-2.601686e-06	-1.499659e-09	-1.861911e+01	-1.008319e+02
1.260000e-06	-2.561972e-06	-1.490433e-09	-1.833489e+01	-1.002289e+02
1.270000e-06	-2.522160e-06	-1.479623e-09	-1.804997e+01	-9.962132e+01
1.280000e-06	-2.482259e-06	-1.471748e-09	-1.776442e+01	-9.900819e+01
1.290000e-06	-2.442287e-06	-1.465259e-09	-1.747836e+01	-9.838856e+01
1.300000e-06	-2.402212e-06	-1.455752e-09	-1.719156e+01	-9.776142e+01
1.310000e-06	-2.362010e-06	-1.442288e-09	-1.690386e+01	-9.712571e+01
1.320000e-06	-2.321637e-06	-1.430342e-09	-1.661492e+01	-9.648041e+01
1.330000e-06	-2.281091e-06	-1.420138e-09	-1.632475e+01	-9.582448e+01
1.340000e-06	-2.240292e-06	-1.407002e-09	-1.603277e+01	-9.515692e+01
1.350000e-06	-2.199130e-06	-1.391229e-09	-1.573819e+01	-9.447679e+01
1.360000e-06	-2.157653e-06	-1.379179e-09	-1.544136e+01	-9.378321e+01
1.370000e-06	-2.115886e-06	-1.372287e-09	-1.514246e+01	-9.307536e+01
1.380000e-06	-2.073880e-06	-1.363113e-09	-1.484184e+01	-9.235255e+01
1.390000e-06	-2.031652e-06	-1.348721e-09	-1.453963e+01	-9.161417e+01
1.400000e-06	-1.989309e-06	-1.334502e-09	-1.423660e+01	-9.085973e+01
1.410000e-06	-1.946806e-06	-1.327183e-09	-1.393242e+01	-9.008886e+01
1.420000e-06	-1.903933e-06	-1.320042e-09	-1.362560e+01	-8.930132e+01
1.430000e-06	-1.860773e-06	-1.304381e-09	-1.331672e+01	-8.849700e+01
1.440000e-06	-1.817414e-06	-1.284048e-09	-1.300642e+01	-8.767591e+01
1.450000e-06	-1.773965e-06	-1.269529e-09	-1.269547e+01	-8.683817e+01
1.460000e-06	-1.730460e-06	-1.260502e-09	-1.238413e+01	-8.598405e+01
1.470000e-06	-1.686873e-06	-1.250081e-09	-1.207220e+01	-8.511388e+01
1.480000e-06	-1.643171e-06	-1.232812e-09	-1.175945e+01	-8.422813e+01
1.490000e-06	-1.599357e-06	-1.218093e-09	-1.144588e+01	-8.332733e+01
1.500000e-06	-1.555521e-06	-1.208890e-09	-1.113217e+01	-8.241207e+01
1.510000e-06	-1.511614e-06	-1.196574e-09	-1.081795e+01	-8.148302e+01
1.520000e-06	-1.467645e-06	-1.174910e-09	-1.050328e+01	-8.054085e+01
1.530000e-06	-1.423653e-06	-1.153998e-09	-1.018845e+01	-7.958627e+01
1.540000e-06	-1.379626e-06	-1.143007e-09	-9.873372e+00	-7.861999e+01
1.550000e-06	-1.335524e-06	-1.135331e-09	-9.557752e+00	-7.764268e+01
1.560000e-06	-1.291370e-06	-1.120841e-09	-9.241761e+00	-7.665498e+01
1.570000e-06	-1.247207e-06	-1.102879e-09	-8.925708e+00	-7.565750e+01
1.580000e-06	-1.202995e-06	-1.090847e-09	-8.609299e+00	-7.465075e+01
1.590000e-06	-1.158687e-06	-1.083186e-09	-8.292207e+00	-7.363517e+01
1.600000e-06	-1.114235e-06	-1.069651e-09	-7.974085e+00	-7.261111e+01
1.610000e-06	-1.069709e-06	-1.051686e-09	-7.655432e+00	-7.157881e+01
1.620000e-06	-1.025199e-06	-1.035582e-09	-7.336891e+00	-7.053841e+01
1.630000e-06	-9.806451e-07	-1.021888e-09	-7.018040e+00	-6.948993e+01
1.640000e-06	-9.359483e-07	-1.003731e-09	-6.698165e+00	-6.843327e+01
1.650000e-06	-8.911460e-07	-9.812098e-10	-6.377535e+00	-6.736822e+01
1.660000e-06	-8.463192e-07	-9.622657e-10	-6.056730e+00	-6.629446e+01
1.670000e-06	-8.013767e-07	-9.493884e-10	-5.735096e+00	-6.521155e+01
1.680000e-06	-7.563270e-07	-9.369611e-10	-5.412695e+00	-6.411899e+01
1.690000e-06	-7.112049e-07	-9.207563e-10	-5.089777e+00	-6.301614e+01
1.700000e-06	-6.660324e-07	-9.052259e-10	-4.766497e+00	-6.190233e+01
1.710000e-06	-6.208138e-07	-8.922628e-10	-4.442888e+00	-6.077681e+01
1.720000e-06	-5.755096e-07	-8.737555e-10	-4.118666e+00	-5.963878e+01
1.730000e-06	-5.302285e-07	-8.483831e-10	-3.794609e+00	-5.848744e+01
1.740000e-06	-4.849143e-07	-8.254437e-10	-3.470315e+00	-5.732194e+01
1.750000e-06	-4.395874e-07	-8.081187e-10	-3.145931e+00	-5.614145e+01
1.760000e-06	-3.942374e-07	-7.926285e-10	-2.821381e+00	-5.494518e+01
1.770000e-06	-3.488207e-07	-7.763581e-10	-2.496354e+00	-5.373234e+01
1.780000e-06	-3.033865e-07	-7.605197e-10	-2.171202e+00	-5.250222e+01
1.790000e-06	-2.578830e-07	-7.477554e-10	-1.845554e+00	-5.125418e+01
1.800000e-06	-2.123409e-07	-7.327291e-10	-1.519629e+00	-4.998762e+01
1.810000e-06	-1.668034e-07	-7.085153e-10	-1.193738e+00	-4.870207e+01
1.820000e-06	-1.213606e-07	-6.830546e-10	-8.685234e-01	-4.739713e+01
1.830000e-06	-7.593693e-08	-6.608322e-10	-5.434468e-01	-4.607251e+01
1.840000e-06	-3.045953e-08	-6.420208e-10	-2.179853e-01	-4.472802e+01
1.850000e-06	1.502464e-08	-6.237118e-10	1.075247e-01	-4.336357e+01
1.860000e-06	6.057655e-08	-6.066139e-10	4.335194e-01	-4.197919e+01
1.870000e-06	1.061935e-07	-5.903074e-10	7.599796e-01	-4.057500e+01
1.880000e-06	1.517683e-07	-5.723482e-10	1.086138e+00	-3.915121e+01
1.890000e-06	1.972991e-07	-5.488293e-10	1.411982e+00	-3.770812e+01
1.900000e-06	2.428050e-07	-5.209504e-10	1.737647e+00	-3.624610e+01
1.910000e-06	2.882318e-07	-4.955748e-10	2.062747e+00	-3.476559e+01
1.920000e-06	3.336104e-07	-4.716856e-10	2.387501e+00	-3.326710e+01
1.930000e-06	3.790482e-07	-4.482518e-10	2.712679e+00	-3.175114e+01
1.940000e-06	4.244826e-07	-4.273824e-10	3.037833e+00	-3.021829e+01
1.950000e-06	4.697847e-07	-4.098467e-10	3.362040e+00	-2.866910e+01
1.960000e-06	5.150432e-07	-3.945283e-10	3.685935e+00	-2.710415e+01
1.970000e-06	5.603155e-07	-3.732521e-10	4.009929e+00	-2.552399e+01
1.980000e-06	6.055461e-07	-3.436331e-10	4.333623e+00	-2.392915e+01
1.990000e-06	6.507433e-07	-3.139822e-10	4.657080e+00	-2.232012e+01
2.000000e-06	6.958914e-07	-2.906203e-10	4.980185e+00	-2.069735e+01
2.010000e-06	7.409736e-07	-2.699297e-10	5.302818e+00	-1.906124e+01
2.020000e-06	7.860021e-07	-2.479404e-10	5.625067e+00	-1.741211e+01
2.030000e-06	8.309617e-07	-2.247100e-10	5.946823e+00	-1.575025e+01
2.040000e-06	8.758961e-07	-2.004809e-10	6.268398e+00	-1.407586e+01
2.050000e-06	9.207371e-07	-1.731237e-10	6.589306e+00	-1.238911e+01
2.060000e-06	9.654628e-07	-1.426463e-10	6.909387e+00	-1.069009e+01
2.070000e-06	1.010129e-06	-1.152650e-10	7.229041e+00	-8.978856e+00
2.080000e-06	1.054691e-06	-9.490143e-11	7.547957e+00	-7.255409e+00
2.090000e-06	1.099144e-06	-7.877673e-11	7.866085e+00	-5.519730e+00
2.100000e-06	1.143537e-06	-6.097511e-11	8.183787e+00	-3.771776e+00
2.110000e-06	1.187817e-06	-3.829320e-11	8.500680e+00	-2.011500e+00
2.120000e-06	1.232008e-06	-1.088931e-11	8.816933e+00	-2.388610e-01
2.130000e-06	1.276200e-06	2.237204e-11	9.133196e+00	1.546159e+00
2.140000e-06	1.320296e-06	5.998990e-11	9.448774e+00	3.343538e+00
2.150000e-06	1.364258e-06	9.394705e-11	9.763390e+00	5.153203e+00
2.160000e-06	1.408192e-06	1.192332e-10	1.007780e+01	6.975013e+00
2.170000e-06	1.452130e-06	1.384887e-10	1.039225e+01	8.808743e+00
2.180000e-06	1.496049e-06	1.588825e-10	1.070656e+01	1.065408e+01
2.190000e-06	1.539956e-06	1.810317e-10	1.102078e+01	1.251058e+01
2.200000e-06	1.583812e-06	2.045657e-10	1.133464e+01	1.437773e+01
2.210000e-06	1.627587e-06	2.337234e-10	1.164791e+01	1.625485e+01
2.220000e-06	1.671265e-06	2.713015e-10	1.196050e+01	1.814115e+01
2.230000e-06	1.714814e-06	3.101979e-10	1.227216e+01	2.003571e+01
2.240000e-06	1.758213e-06	3.402942e-10	1.258275e+01	2.193747e+01
2.250000e-06	1.801580e-06	3.596106e-10	1.289311e+01	2.384525e+01
2.260000e-06	1.844888e-06	3.785297e-10	1.320304e+01	2.575774e+01
2.270000e-06	1.887990e-06	4.034413e-10	1.351150e+01	2.767351e+01
2.280000e-06	1.930808e-06	4.314855e-10	1.381793e+01	2.959102e+01
2.290000e-06	1.973472e-06	4.589461e-10	1.412326e+01	3.150866e+01
2.300000e-06	2.016006e-06	4.885893e-10	1.442766e+01	3.342470e+01
2.310000e-06	2.058211e-06	5.223346e-10	1.472970e+01	3.533738e+01
2.320000e-06	2.100018e-06	5.527430e-10	1.502889e+01	3.724487e+01
2.330000e-06	2.141495e-06	5.753584e-10	1.532573e+01	3.914531e+01
2.340000e-06	2.182870e-06	5.963117e-10	1.562183e+01	4.103684e+01
2.350000e-06	2.224072e-06	6.222684e-10	1.591669e+01	4.291762e+01
2.360000e-06	2.264914e-06	6.527786e-10	1.620898e+01	4.478581e+01
2.370000e-06	2.305509e-06	6.831099e-10	1.649950e+01	4.663964e+01
2.380000e-06	2.345961e-06	7.108914e-10	1.678900e+01	4.847740e+01
2.390000e-06	2.386170e-06	7.376704e-10	1.707676e+01	5.029747e+01
2.400000e-06	2.426161e-06	7.623005e-10	1.736296e+01	5.209832e+01
2.410000e-06	2.466071e-06	7.832773e-10	1.764857e+01	5.387854e+01
2.420000e-06	2.505940e-06	8.039648e-10	1.793390e+01	5.563685e+01
2.430000e-06	2.545752e-06	8.308963e-10	1.821881e+01	5.737211e+01
2.440000e-06	2.585435e-06	8.636570e-10	1.850281e+01	5.908331e+01
2.450000e-06	2.625021e-06	8.940324e-10	1.878611e+01	6.076961e+01
2.460000e-06	2.664514e-06	9.173039e-10	1.906874e+01	6.243031e+01
2.470000e-06	2.703777e-06	9.383803e-10	1.934973e+01	6.406487e+01
2.480000e-06	2.742785e-06	9.592655e-10	1.962889e+01	6.567289e+01
2.490000e-06	2.781615e-06	9.773640e-10	1.990678e+01	6.725414e+01
2.500000e-06	2.820304e-06	9.940550e-10	2.018366e+01	6.880850e+01
2.510000e-06	2.858827e-06	1.015708e-09	2.045935e+01	7.033601e+01
2.520000e-06	2.897144e-06	1.045058e-09	2.073357e+01	7.183680e+01
2.530000e-06	2.935263e-06	1.074152e-09	2.100637e+01	7.331114e+01
2.540000e-06	2.973165e-06	1.096508e-09	2.127762e+01	7.475936e+01
2.550000e-06	3.010858e-06	1.115065e-09	2.154737e+01	7.618191e+01
2.560000e-06	3.048397e-06	1.134462e-09	2.181602e+01	7.757928e+01
2.570000e-06	3.085704e-06	1.152583e-09	2.208301e+01	7.895199e+01
2.580000e-06	3.122723e-06	1.167570e-09	2.234794e+01	8.030065e+01
2.590000e-06	3.159466e-06	1.185038e-09	2.261089e+01	8.162583e+01
2.600000e-06	3.196025e-06	1.208151e-09	2.287253e+01	8.292814e+01
2.610000e-06	3.232374e-06	1.232270e-09	2.313266e+01	8.420817e+01
2.620000e-06	3.268446e-06	1.251233e-09	2.339081e+01	8.546650e+01
2.630000e-06	3.304415e-06	1.268489e-09	2.364823e+01	8.670366e+01
2.640000e-06	3.340323e-06	1.289010e-09	2.390520e+01	8.792016e+01
2.650000e-06	3.376108e-06	1.308827e-09	2.416130e+01	8.911644e+01
2.660000e-06	3.411749e-06	1.323126e-09	2.441636e+01	9.029289e+01
2.670000e-06	3.447177e-06	1.335485e-09	2.466991e+01	9.144986e+01
2.680000e-06	3.482377e-06	1.351414e-09	2.492182e+01	9.258763e+01
2.690000e-06	3.517331e-06	1.368599e-09	2.517197e+01	9.370640e+01
2.700000e-06	3.551858e-06	1.382514e-09	2.541906e+01	9.480634e+01
2.710000e-06	3.585916e-06	1.394949e-09	2.566280e+01	9.588754e+01
2.720000e-06	3.619575e-06	1.411576e-09	2.590368e+01	9.695006e+01
2.730000e-06	3.652748e-06	1.430229e-09	2.614109e+01	9.799390e+01
2.740000e-06	3.685483e-06	1.445151e-09	2.637536e+01	9.901902e+01
2.750000e-06	3.717857e-06	1.458005e-09	2.660705e+01	1.000254e+02
2.760000e-06	3.750022e-06	1.474422e-09	2.683724e+01	1.010128e+02
2.770000e-06	3.782065e-06	1.493790e-09	2.706655e+01	1.019813e+02
2.780000e-06	3.813927e-06	1.510250e-09	2.729458e+01	1.029307e+02
2.790000e-06	3.845589e-06	1.522216e-09	2.752116e+01	1.038609e+02
2.800000e-06	3.877057e-06	1.535237e-09	2.774637e+01	1.047718e+02
2.810000e-06	3.908384e-06	1.551169e-09	2.797056e+01	1.056633e+02
2.820000e-06	3.939502e-06	1.564131e-09	2.819326e+01	1.065354e+02
2.830000e-06	3.970259e-06	1.571782e-09	2.841337e+01	1.073881e+02
2.840000e-06	4.000661e-06	1.580280e-09	2.863095e+01	1.082213e+02
2.850000e-06	4.030782e-06	1.594869e-09	2.884651e+01	1.090352e+02
2.860000e-06	4.060668e-06	1.610863e-09	2.906039e+01	1.098299e+02
2.870000e-06	4.090319e-06	1.624640e-09	2.927259e+01	1.106055e+02
2.880000e-06	4.119658e-06	1.637337e-09	2.948256e+01	1.113622e+02
2.890000e-06	4.148712e-06	1.647878e-09	2.969048e+01	1.121003e+02
2.900000e-06	4.177470e-06	1.655106e-09	2.989629e+01	1.128200e+02
