# Temperatura_=_12.77
# Concentracion g/m^3_=_4090.0
# C_Vs_to_Am_M_A/Vsm_=_65563218390.804596
# pendiente_HvsI_1/m_=_3716.3
# ordenada_HvsI_A/m_=_1297.0
# frecuencia_Hz_=_135079.5199934563

Tiempo_(s)	Campo_(V.s)	Magnetizacion_(V.s)	Campo_(kA/m)	Magnetizacion_(A/m)
0.000000e+00	-5.418928e-06	-2.661623e-09	-3.838657e+01	-1.713265e+02
1.000000e-08	-5.418880e-06	-2.659386e-09	-3.838623e+01	-1.712557e+02
2.000000e-08	-5.418650e-06	-2.657119e-09	-3.838461e+01	-1.711848e+02
3.000000e-08	-5.418214e-06	-2.654527e-09	-3.838151e+01	-1.711158e+02
4.000000e-08	-5.417457e-06	-2.650265e-09	-3.837615e+01	-1.710508e+02
5.000000e-08	-5.416221e-06	-2.646098e-09	-3.836740e+01	-1.709916e+02
6.000000e-08	-5.414438e-06	-2.643440e-09	-3.835476e+01	-1.709404e+02
7.000000e-08	-5.412018e-06	-2.646877e-09	-3.833763e+01	-1.708991e+02
8.000000e-08	-5.408881e-06	-2.655200e-09	-3.831540e+01	-1.708693e+02
9.000000e-08	-5.405151e-06	-2.654008e-09	-3.828898e+01	-1.708529e+02
1.000000e-07	-5.400992e-06	-2.649632e-09	-3.825951e+01	-1.708512e+02
1.100000e-07	-5.396602e-06	-2.647126e-09	-3.822842e+01	-1.708655e+02
1.200000e-07	-5.392074e-06	-2.623183e-09	-3.819634e+01	-1.708969e+02
1.300000e-07	-5.387319e-06	-2.618252e-09	-3.816266e+01	-1.709459e+02
1.400000e-07	-5.382117e-06	-2.619969e-09	-3.812581e+01	-1.710131e+02
1.500000e-07	-5.376409e-06	-2.619431e-09	-3.808537e+01	-1.710985e+02
1.600000e-07	-5.370369e-06	-2.606122e-09	-3.804259e+01	-1.712020e+02
1.700000e-07	-5.363966e-06	-2.591385e-09	-3.799723e+01	-1.713230e+02
1.800000e-07	-5.357173e-06	-2.640934e-09	-3.794912e+01	-1.714607e+02
1.900000e-07	-5.350070e-06	-2.641522e-09	-3.789880e+01	-1.716139e+02
2.000000e-07	-5.342679e-06	-2.600684e-09	-3.784644e+01	-1.717811e+02
2.100000e-07	-5.334931e-06	-2.575812e-09	-3.779156e+01	-1.719607e+02
2.200000e-07	-5.326889e-06	-2.638210e-09	-3.773459e+01	-1.721506e+02
2.300000e-07	-5.318687e-06	-2.648784e-09	-3.767649e+01	-1.723487e+02
2.400000e-07	-5.310148e-06	-2.618418e-09	-3.761600e+01	-1.725527e+02
2.500000e-07	-5.300955e-06	-2.627179e-09	-3.755088e+01	-1.727600e+02
2.600000e-07	-5.291140e-06	-2.691114e-09	-3.748135e+01	-1.729680e+02
2.700000e-07	-5.280699e-06	-2.690577e-09	-3.740739e+01	-1.731741e+02
2.800000e-07	-5.269529e-06	-2.647163e-09	-3.732826e+01	-1.733756e+02
2.900000e-07	-5.257896e-06	-2.650529e-09	-3.724586e+01	-1.735699e+02
3.000000e-07	-5.246015e-06	-2.678138e-09	-3.716169e+01	-1.737544e+02
3.100000e-07	-5.233771e-06	-2.679590e-09	-3.707496e+01	-1.739268e+02
3.200000e-07	-5.221075e-06	-2.665903e-09	-3.698502e+01	-1.740847e+02
3.300000e-07	-5.208007e-06	-2.682138e-09	-3.689245e+01	-1.742261e+02
3.400000e-07	-5.194616e-06	-2.671102e-09	-3.679759e+01	-1.743491e+02
3.500000e-07	-5.180960e-06	-2.658512e-09	-3.670086e+01	-1.744521e+02
3.600000e-07	-5.166976e-06	-2.658300e-09	-3.660179e+01	-1.745338e+02
3.700000e-07	-5.152593e-06	-2.667263e-09	-3.649991e+01	-1.745931e+02
3.800000e-07	-5.137678e-06	-2.645883e-09	-3.639426e+01	-1.746294e+02
3.900000e-07	-5.122058e-06	-2.654513e-09	-3.628361e+01	-1.746421e+02
4.000000e-07	-5.105838e-06	-2.670115e-09	-3.616870e+01	-1.746312e+02
4.100000e-07	-5.089163e-06	-2.665969e-09	-3.605059e+01	-1.745968e+02
4.200000e-07	-5.072238e-06	-2.640610e-09	-3.593069e+01	-1.745394e+02
4.300000e-07	-5.055106e-06	-2.646870e-09	-3.580933e+01	-1.744596e+02
4.400000e-07	-5.037647e-06	-2.639170e-09	-3.568565e+01	-1.743585e+02
4.500000e-07	-5.019855e-06	-2.629499e-09	-3.555962e+01	-1.742373e+02
4.600000e-07	-5.001725e-06	-2.625901e-09	-3.543119e+01	-1.740973e+02
4.700000e-07	-4.983236e-06	-2.635651e-09	-3.530022e+01	-1.739400e+02
4.800000e-07	-4.964324e-06	-2.634497e-09	-3.516625e+01	-1.737671e+02
4.900000e-07	-4.945013e-06	-2.641390e-09	-3.502946e+01	-1.735803e+02
5.000000e-07	-4.925334e-06	-2.632909e-09	-3.489005e+01	-1.733815e+02
5.100000e-07	-4.905342e-06	-2.620825e-09	-3.474843e+01	-1.731724e+02
5.200000e-07	-4.885178e-06	-2.619757e-09	-3.460559e+01	-1.729549e+02
5.300000e-07	-4.864793e-06	-2.622226e-09	-3.446120e+01	-1.727307e+02
5.400000e-07	-4.844110e-06	-2.610851e-09	-3.431468e+01	-1.725013e+02
5.500000e-07	-4.823172e-06	-2.608477e-09	-3.416636e+01	-1.722685e+02
5.600000e-07	-4.801825e-06	-2.611334e-09	-3.401514e+01	-1.720336e+02
5.700000e-07	-4.780057e-06	-2.602304e-09	-3.386094e+01	-1.717979e+02
5.800000e-07	-4.758006e-06	-2.595297e-09	-3.370474e+01	-1.715625e+02
5.900000e-07	-4.735706e-06	-2.592838e-09	-3.354677e+01	-1.713282e+02
6.000000e-07	-4.713070e-06	-2.585924e-09	-3.338642e+01	-1.710958e+02
6.100000e-07	-4.689979e-06	-2.580800e-09	-3.322284e+01	-1.708659e+02
6.200000e-07	-4.666494e-06	-2.585154e-09	-3.305648e+01	-1.706387e+02
6.300000e-07	-4.642796e-06	-2.576506e-09	-3.288861e+01	-1.704145e+02
6.400000e-07	-4.618871e-06	-2.566570e-09	-3.271913e+01	-1.701932e+02
6.500000e-07	-4.594727e-06	-2.560936e-09	-3.254810e+01	-1.699746e+02
6.600000e-07	-4.570448e-06	-2.558362e-09	-3.237611e+01	-1.697583e+02
6.700000e-07	-4.545953e-06	-2.548767e-09	-3.220260e+01	-1.695440e+02
6.800000e-07	-4.521059e-06	-2.548436e-09	-3.202626e+01	-1.693310e+02
6.900000e-07	-4.495583e-06	-2.544632e-09	-3.184579e+01	-1.691186e+02
7.000000e-07	-4.469582e-06	-2.543424e-09	-3.166160e+01	-1.689061e+02
7.100000e-07	-4.443141e-06	-2.538699e-09	-3.147430e+01	-1.686927e+02
7.200000e-07	-4.416268e-06	-2.534443e-09	-3.128393e+01	-1.684776e+02
7.300000e-07	-4.388962e-06	-2.524419e-09	-3.109051e+01	-1.682600e+02
7.400000e-07	-4.361290e-06	-2.520707e-09	-3.089448e+01	-1.680391e+02
7.500000e-07	-4.333355e-06	-2.513531e-09	-3.069660e+01	-1.678141e+02
7.600000e-07	-4.305223e-06	-2.509178e-09	-3.049731e+01	-1.675843e+02
7.700000e-07	-4.276905e-06	-2.505315e-09	-3.029671e+01	-1.673490e+02
7.800000e-07	-4.248334e-06	-2.506096e-09	-3.009432e+01	-1.671078e+02
7.900000e-07	-4.219501e-06	-2.504790e-09	-2.989008e+01	-1.668601e+02
8.000000e-07	-4.190376e-06	-2.501851e-09	-2.968376e+01	-1.666055e+02
8.100000e-07	-4.160885e-06	-2.493372e-09	-2.947486e+01	-1.663438e+02
8.200000e-07	-4.131074e-06	-2.485708e-09	-2.926368e+01	-1.660748e+02
8.300000e-07	-4.101014e-06	-2.479976e-09	-2.905074e+01	-1.657983e+02
8.400000e-07	-4.070776e-06	-2.475160e-09	-2.883654e+01	-1.655144e+02
8.500000e-07	-4.040304e-06	-2.469038e-09	-2.862068e+01	-1.652232e+02
8.600000e-07	-4.009556e-06	-2.463146e-09	-2.840287e+01	-1.649247e+02
8.700000e-07	-3.978558e-06	-2.460027e-09	-2.818329e+01	-1.646193e+02
8.800000e-07	-3.947249e-06	-2.455971e-09	-2.796150e+01	-1.643073e+02
8.900000e-07	-3.915552e-06	-2.448982e-09	-2.773697e+01	-1.639889e+02
9.000000e-07	-3.883564e-06	-2.439944e-09	-2.751037e+01	-1.636645e+02
9.100000e-07	-3.851471e-06	-2.434952e-09	-2.728303e+01	-1.633346e+02
9.200000e-07	-3.819285e-06	-2.433121e-09	-2.705503e+01	-1.629994e+02
9.300000e-07	-3.786949e-06	-2.433185e-09	-2.682597e+01	-1.626595e+02
9.400000e-07	-3.754377e-06	-2.429399e-09	-2.659524e+01	-1.623151e+02
9.500000e-07	-3.721431e-06	-2.426781e-09	-2.636185e+01	-1.619667e+02
9.600000e-07	-3.688160e-06	-2.421968e-09	-2.612617e+01	-1.616146e+02
9.700000e-07	-3.654593e-06	-2.416593e-09	-2.588839e+01	-1.612590e+02
9.800000e-07	-3.620552e-06	-2.406974e-09	-2.564724e+01	-1.609003e+02
9.900000e-07	-3.586051e-06	-2.399826e-09	-2.540285e+01	-1.605387e+02
1.000000e-06	-3.551202e-06	-2.396450e-09	-2.515598e+01	-1.601742e+02
1.010000e-06	-3.515880e-06	-2.399680e-09	-2.490577e+01	-1.598071e+02
1.020000e-06	-3.480176e-06	-2.397912e-09	-2.465285e+01	-1.594375e+02
1.030000e-06	-3.444314e-06	-2.390300e-09	-2.439881e+01	-1.590653e+02
1.040000e-06	-3.408306e-06	-2.381317e-09	-2.414374e+01	-1.586906e+02
1.050000e-06	-3.372123e-06	-2.373710e-09	-2.388743e+01	-1.583133e+02
1.060000e-06	-3.335860e-06	-2.361046e-09	-2.363055e+01	-1.579334e+02
1.070000e-06	-3.299568e-06	-2.347858e-09	-2.337346e+01	-1.575507e+02
1.080000e-06	-3.263067e-06	-2.340681e-09	-2.311489e+01	-1.571652e+02
1.090000e-06	-3.226246e-06	-2.343331e-09	-2.285406e+01	-1.567767e+02
1.100000e-06	-3.189115e-06	-2.344612e-09	-2.259104e+01	-1.563851e+02
1.110000e-06	-3.151671e-06	-2.339453e-09	-2.232579e+01	-1.559901e+02
1.120000e-06	-3.114041e-06	-2.331408e-09	-2.205922e+01	-1.555917e+02
1.130000e-06	-3.076304e-06	-2.325071e-09	-2.179190e+01	-1.551896e+02
1.140000e-06	-3.038415e-06	-2.317043e-09	-2.152351e+01	-1.547837e+02
1.150000e-06	-3.000274e-06	-2.305562e-09	-2.125332e+01	-1.543737e+02
1.160000e-06	-2.961901e-06	-2.296645e-09	-2.098150e+01	-1.539595e+02
1.170000e-06	-2.923374e-06	-2.291286e-09	-2.070858e+01	-1.535409e+02
1.180000e-06	-2.884615e-06	-2.287639e-09	-2.043402e+01	-1.531176e+02
1.190000e-06	-2.845584e-06	-2.281831e-09	-2.015753e+01	-1.526893e+02
1.200000e-06	-2.806323e-06	-2.272377e-09	-1.987941e+01	-1.522560e+02
1.210000e-06	-2.766879e-06	-2.261264e-09	-1.960000e+01	-1.518171e+02
1.220000e-06	-2.727300e-06	-2.252119e-09	-1.931964e+01	-1.513724e+02
1.230000e-06	-2.687558e-06	-2.243268e-09	-1.903811e+01	-1.509217e+02
1.240000e-06	-2.647605e-06	-2.234280e-09	-1.875509e+01	-1.504643e+02
1.250000e-06	-2.607495e-06	-2.223595e-09	-1.847096e+01	-1.500000e+02
1.260000e-06	-2.567317e-06	-2.216334e-09	-1.818634e+01	-1.495282e+02
1.270000e-06	-2.527130e-06	-2.209640e-09	-1.790167e+01	-1.490483e+02
1.280000e-06	-2.486868e-06	-2.199838e-09	-1.761646e+01	-1.485598e+02
1.290000e-06	-2.446451e-06	-2.187228e-09	-1.733016e+01	-1.480621e+02
1.300000e-06	-2.405912e-06	-2.177783e-09	-1.704299e+01	-1.475543e+02
1.310000e-06	-2.365193e-06	-2.171178e-09	-1.675454e+01	-1.470358e+02
1.320000e-06	-2.324265e-06	-2.164791e-09	-1.646461e+01	-1.465057e+02
1.330000e-06	-2.283166e-06	-2.154353e-09	-1.617348e+01	-1.459633e+02
1.340000e-06	-2.241800e-06	-2.144078e-09	-1.588045e+01	-1.454076e+02
1.350000e-06	-2.200101e-06	-2.134188e-09	-1.558506e+01	-1.448378e+02
1.360000e-06	-2.158151e-06	-2.121665e-09	-1.528790e+01	-1.442529e+02
1.370000e-06	-2.115965e-06	-2.106011e-09	-1.498906e+01	-1.436521e+02
1.380000e-06	-2.073426e-06	-2.090716e-09	-1.468772e+01	-1.430345e+02
1.390000e-06	-2.030495e-06	-2.077190e-09	-1.438361e+01	-1.423992e+02
1.400000e-06	-1.987354e-06	-2.067050e-09	-1.407801e+01	-1.417454e+02
1.410000e-06	-1.944059e-06	-2.057578e-09	-1.377132e+01	-1.410723e+02
1.420000e-06	-1.900619e-06	-2.046062e-09	-1.346360e+01	-1.403790e+02
1.430000e-06	-1.857121e-06	-2.033809e-09	-1.315546e+01	-1.396651e+02
1.440000e-06	-1.813486e-06	-2.022872e-09	-1.284636e+01	-1.389297e+02
1.450000e-06	-1.769693e-06	-2.010804e-09	-1.253614e+01	-1.381725e+02
1.460000e-06	-1.725704e-06	-1.994165e-09	-1.222453e+01	-1.373929e+02
1.470000e-06	-1.681592e-06	-1.974661e-09	-1.191206e+01	-1.365906e+02
1.480000e-06	-1.637433e-06	-1.955400e-09	-1.159924e+01	-1.357653e+02
1.490000e-06	-1.593222e-06	-1.942675e-09	-1.128606e+01	-1.349169e+02
1.500000e-06	-1.549025e-06	-1.933864e-09	-1.097297e+01	-1.340451e+02
1.510000e-06	-1.504790e-06	-1.922486e-09	-1.065962e+01	-1.331499e+02
1.520000e-06	-1.460452e-06	-1.908456e-09	-1.034554e+01	-1.322313e+02
1.530000e-06	-1.416063e-06	-1.896096e-09	-1.003110e+01	-1.312893e+02
1.540000e-06	-1.371595e-06	-1.882606e-09	-9.716097e+00	-1.303240e+02
1.550000e-06	-1.327021e-06	-1.864408e-09	-9.400341e+00	-1.293355e+02
1.560000e-06	-1.282386e-06	-1.845130e-09	-9.084157e+00	-1.283239e+02
1.570000e-06	-1.237744e-06	-1.830267e-09	-8.767924e+00	-1.272892e+02
1.580000e-06	-1.192990e-06	-1.818631e-09	-8.450893e+00	-1.262313e+02
1.590000e-06	-1.148060e-06	-1.807080e-09	-8.132621e+00	-1.251503e+02
1.600000e-06	-1.103106e-06	-1.791841e-09	-7.814175e+00	-1.240460e+02
1.610000e-06	-1.058108e-06	-1.775795e-09	-7.495418e+00	-1.229181e+02
1.620000e-06	-1.012957e-06	-1.760140e-09	-7.175579e+00	-1.217662e+02
1.630000e-06	-9.675994e-07	-1.742496e-09	-6.854275e+00	-1.205899e+02
1.640000e-06	-9.221697e-07	-1.721028e-09	-6.532461e+00	-1.193884e+02
1.650000e-06	-8.767569e-07	-1.699849e-09	-6.210766e+00	-1.181609e+02
1.660000e-06	-8.313061e-07	-1.682333e-09	-5.888802e+00	-1.169065e+02
1.670000e-06	-7.858531e-07	-1.666867e-09	-5.566822e+00	-1.156239e+02
1.680000e-06	-7.403586e-07	-1.648340e-09	-5.244548e+00	-1.143117e+02
1.690000e-06	-6.948068e-07	-1.625488e-09	-4.921869e+00	-1.129685e+02
1.700000e-06	-6.491860e-07	-1.605070e-09	-4.598700e+00	-1.115926e+02
1.710000e-06	-6.034582e-07	-1.584948e-09	-4.274774e+00	-1.101820e+02
1.720000e-06	-5.576925e-07	-1.560242e-09	-3.950579e+00	-1.087348e+02
1.730000e-06	-5.118603e-07	-1.532950e-09	-3.625913e+00	-1.072488e+02
1.740000e-06	-4.659495e-07	-1.509484e-09	-3.300691e+00	-1.057219e+02
1.750000e-06	-4.200206e-07	-1.491036e-09	-2.975340e+00	-1.041517e+02
1.760000e-06	-3.740692e-07	-1.470306e-09	-2.649829e+00	-1.025358e+02
1.770000e-06	-3.281166e-07	-1.444427e-09	-2.324310e+00	-1.008719e+02
1.780000e-06	-2.821267e-07	-1.417630e-09	-1.998527e+00	-9.915762e+01
1.790000e-06	-2.361272e-07	-1.394148e-09	-1.672677e+00	-9.739059e+01
1.800000e-06	-1.901246e-07	-1.368194e-09	-1.346804e+00	-9.556858e+01
1.810000e-06	-1.441078e-07	-1.335943e-09	-1.020830e+00	-9.368944e+01
1.820000e-06	-9.811541e-08	-1.304151e-09	-6.950294e-01	-9.175117e+01
1.830000e-06	-5.209442e-08	-1.276453e-09	-3.690261e-01	-8.975193e+01
1.840000e-06	-6.070391e-09	-1.249318e-09	-4.300140e-02	-8.769011e+01
1.850000e-06	3.994736e-08	-1.217550e-09	2.829789e-01	-8.556429e+01
1.860000e-06	8.593198e-08	-1.180539e-09	6.087245e-01	-8.337331e+01
1.870000e-06	1.319058e-07	-1.145005e-09	9.343933e-01	-8.111631e+01
1.880000e-06	1.779437e-07	-1.111711e-09	1.260516e+00	-7.879267e+01
1.890000e-06	2.240030e-07	-1.074091e-09	1.586791e+00	-7.640211e+01
1.900000e-06	2.700230e-07	-1.032077e-09	1.912787e+00	-7.394463e+01
1.910000e-06	3.159690e-07	-9.916197e-10	2.238260e+00	-7.142055e+01
1.920000e-06	3.618507e-07	-9.535198e-10	2.563276e+00	-6.883051e+01
1.930000e-06	4.077154e-07	-9.161522e-10	2.888172e+00	-6.617543e+01
1.940000e-06	4.536147e-07	-8.765365e-10	3.213313e+00	-6.345654e+01
1.950000e-06	4.995033e-07	-8.359034e-10	3.538379e+00	-6.067535e+01
1.960000e-06	5.453320e-07	-7.962331e-10	3.863020e+00	-5.783364e+01
1.970000e-06	5.910634e-07	-7.515265e-10	4.186972e+00	-5.493342e+01
1.980000e-06	6.367302e-07	-6.996595e-10	4.510466e+00	-5.197694e+01
1.990000e-06	6.823083e-07	-6.472482e-10	4.833332e+00	-4.896663e+01
2.000000e-06	7.278662e-07	-6.001766e-10	5.156054e+00	-4.590511e+01
2.010000e-06	7.733925e-07	-5.570773e-10	5.478553e+00	-4.279512e+01
2.020000e-06	8.188804e-07	-5.125416e-10	5.800781e+00	-3.963955e+01
2.030000e-06	8.643260e-07	-4.647172e-10	6.122708e+00	-3.644134e+01
2.040000e-06	9.096882e-07	-4.172115e-10	6.444044e+00	-3.320354e+01
2.050000e-06	9.549458e-07	-3.682472e-10	6.764640e+00	-2.992920e+01
2.060000e-06	1.000119e-06	-3.159592e-10	7.084636e+00	-2.662141e+01
2.070000e-06	1.045259e-06	-2.619625e-10	7.404399e+00	-2.328324e+01
2.080000e-06	1.090327e-06	-2.106662e-10	7.723652e+00	-1.991774e+01
2.090000e-06	1.135295e-06	-1.640884e-10	8.042194e+00	-1.652793e+01
2.100000e-06	1.180074e-06	-1.200104e-10	8.359403e+00	-1.311679e+01
2.110000e-06	1.224751e-06	-7.053190e-11	8.675882e+00	-9.687202e+00
2.120000e-06	1.269350e-06	-1.448320e-11	8.991817e+00	-6.242026e+00
2.130000e-06	1.313887e-06	4.062964e-11	9.307308e+00	-2.784035e+00
2.140000e-06	1.358338e-06	9.338314e-11	9.622186e+00	6.840585e-01
2.150000e-06	1.402700e-06	1.488672e-10	9.936435e+00	4.159605e+00
2.160000e-06	1.447021e-06	2.053701e-10	1.025040e+01	7.640012e+00
2.170000e-06	1.491317e-06	2.565481e-10	1.056418e+01	1.112273e+01
2.180000e-06	1.535616e-06	3.032952e-10	1.087799e+01	1.460526e+01
2.190000e-06	1.579859e-06	3.538283e-10	1.119140e+01	1.808511e+01
2.200000e-06	1.624039e-06	4.086978e-10	1.150436e+01	2.155982e+01
2.210000e-06	1.668180e-06	4.617608e-10	1.181704e+01	2.502693e+01
2.220000e-06	1.712245e-06	5.120318e-10	1.212919e+01	2.848397e+01
2.230000e-06	1.756200e-06	5.609037e-10	1.244056e+01	3.192846e+01
2.240000e-06	1.799941e-06	6.103107e-10	1.275041e+01	3.535788e+01
2.250000e-06	1.843482e-06	6.596730e-10	1.305885e+01	3.876969e+01
2.260000e-06	1.886993e-06	7.063375e-10	1.336707e+01	4.216130e+01
2.270000e-06	1.930472e-06	7.533573e-10	1.367507e+01	4.553008e+01
2.280000e-06	1.973864e-06	8.031091e-10	1.398244e+01	4.887337e+01
2.290000e-06	2.017058e-06	8.521810e-10	1.428842e+01	5.218847e+01
2.300000e-06	2.060036e-06	8.990952e-10	1.459287e+01	5.547264e+01
2.310000e-06	2.102814e-06	9.429051e-10	1.489590e+01	5.872312e+01
2.320000e-06	2.145240e-06	9.859580e-10	1.519644e+01	6.193714e+01
2.330000e-06	2.187361e-06	1.029447e-09	1.549481e+01	6.511196e+01
2.340000e-06	2.229227e-06	1.072399e-09	1.579138e+01	6.824483e+01
2.350000e-06	2.270747e-06	1.117461e-09	1.608551e+01	7.133306e+01
2.360000e-06	2.311995e-06	1.167191e-09	1.637770e+01	7.437403e+01
2.370000e-06	2.352981e-06	1.215967e-09	1.666803e+01	7.736520e+01
2.380000e-06	2.393718e-06	1.257019e-09	1.695661e+01	8.030414e+01
2.390000e-06	2.434290e-06	1.292391e-09	1.724401e+01	8.318856e+01
2.400000e-06	2.474711e-06	1.325554e-09	1.753034e+01	8.601634e+01
2.410000e-06	2.515002e-06	1.358102e-09	1.781576e+01	8.878552e+01
2.420000e-06	2.555205e-06	1.392944e-09	1.810055e+01	9.149435e+01
2.430000e-06	2.595332e-06	1.432382e-09	1.838480e+01	9.414132e+01
2.440000e-06	2.635354e-06	1.476399e-09	1.866830e+01	9.672513e+01
2.450000e-06	2.675314e-06	1.518264e-09	1.895137e+01	9.924475e+01
2.460000e-06	2.715122e-06	1.553099e-09	1.923337e+01	1.016994e+02
2.470000e-06	2.754684e-06	1.581235e-09	1.951361e+01	1.040886e+02
2.480000e-06	2.794019e-06	1.605946e-09	1.979225e+01	1.064120e+02
2.490000e-06	2.833212e-06	1.632665e-09	2.006989e+01	1.086698e+02
2.500000e-06	2.872172e-06	1.663268e-09	2.034587e+01	1.108622e+02
2.510000e-06	2.910936e-06	1.698977e-09	2.062047e+01	1.129897e+02
2.520000e-06	2.949554e-06	1.736057e-09	2.089403e+01	1.150531e+02
2.530000e-06	2.987898e-06	1.768320e-09	2.116566e+01	1.170535e+02
2.540000e-06	3.026035e-06	1.795626e-09	2.143581e+01	1.189921e+02
2.550000e-06	3.063970e-06	1.821370e-09	2.170453e+01	1.208701e+02
2.560000e-06	3.101687e-06	1.846430e-09	2.197171e+01	1.226893e+02
2.570000e-06	3.139235e-06	1.868505e-09	2.223769e+01	1.244511e+02
2.580000e-06	3.176599e-06	1.888287e-09	2.250237e+01	1.261575e+02
2.590000e-06	3.213720e-06	1.910679e-09	2.276533e+01	1.278101e+02
2.600000e-06	3.250545e-06	1.937579e-09	2.302619e+01	1.294110e+02
2.610000e-06	3.287150e-06	1.966151e-09	2.328550e+01	1.309618e+02
2.620000e-06	3.323615e-06	1.993062e-09	2.354381e+01	1.324645e+02
2.630000e-06	3.359913e-06	2.018974e-09	2.380093e+01	1.339210e+02
2.640000e-06	3.396084e-06	2.042808e-09	2.405716e+01	1.353328e+02
2.650000e-06	3.432145e-06	2.059655e-09	2.431261e+01	1.367017e+02
2.660000e-06	3.468075e-06	2.071467e-09	2.456713e+01	1.380291e+02
2.670000e-06	3.503847e-06	2.085282e-09	2.482053e+01	1.393166e+02
2.680000e-06	3.539389e-06	2.104199e-09	2.507231e+01	1.405653e+02
2.690000e-06	3.574514e-06	2.124923e-09	2.532112e+01	1.417765e+02
2.700000e-06	3.609110e-06	2.144214e-09	2.556619e+01	1.429510e+02
2.710000e-06	3.643251e-06	2.162678e-09	2.580804e+01	1.440899e+02
2.720000e-06	3.676978e-06	2.180742e-09	2.604695e+01	1.451937e+02
2.730000e-06	3.710405e-06	2.195596e-09	2.628374e+01	1.462632e+02
2.740000e-06	3.743469e-06	2.207932e-09	2.651796e+01	1.472988e+02
2.750000e-06	3.776098e-06	2.221323e-09	2.674911e+01	1.483008e+02
2.760000e-06	3.808496e-06	2.237286e-09	2.697860e+01	1.492697e+02
2.770000e-06	3.840747e-06	2.251999e-09	2.720706e+01	1.502056e+02
2.780000e-06	3.872838e-06	2.264788e-09	2.743439e+01	1.511088e+02
2.790000e-06	3.904829e-06	2.279231e-09	2.766101e+01	1.519795e+02
2.800000e-06	3.936621e-06	2.293557e-09	2.788621e+01	1.528178e+02
2.810000e-06	3.968113e-06	2.306283e-09	2.810930e+01	1.536240e+02
2.820000e-06	3.999295e-06	2.313812e-09	2.833018e+01	1.543984e+02
2.830000e-06	4.030142e-06	2.320146e-09	2.854870e+01	1.551412e+02
2.840000e-06	4.060710e-06	2.328332e-09	2.876524e+01	1.558529e+02
2.850000e-06	4.091062e-06	2.338184e-09	2.898024e+01	1.565340e+02
2.860000e-06	4.121231e-06	2.348753e-09	2.919396e+01	1.571851e+02
2.870000e-06	4.151123e-06	2.358856e-09	2.940571e+01	1.578068e+02
2.880000e-06	4.180741e-06	2.369733e-09	2.961551e+01	1.584000e+02
2.890000e-06	4.210019e-06	2.376412e-09	2.982291e+01	1.589656e+02
2.900000e-06	4.238923e-06	2.378323e-09	3.002766e+01	1.595046e+02
