# Temperatura_=_-2.82
# Concentracion g/m^3_=_4090.0
# C_Vs_to_Am_M_A/Vsm_=_65563218390.804596
# pendiente_HvsI_1/m_=_3716.3
# ordenada_HvsI_A/m_=_1297.0
# frecuencia_Hz_=_135079.85526681723

Tiempo_(s)	Campo_(V.s)	Magnetizacion_(V.s)	Campo_(kA/m)	Magnetizacion_(A/m)
0.000000e+00	-5.397262e-06	-2.462477e-09	-3.839959e+01	-1.578903e+02
1.000000e-08	-5.397326e-06	-2.460344e-09	-3.840005e+01	-1.578347e+02
2.000000e-08	-5.397214e-06	-2.460738e-09	-3.839925e+01	-1.577852e+02
3.000000e-08	-5.396961e-06	-2.460835e-09	-3.839745e+01	-1.577434e+02
4.000000e-08	-5.396451e-06	-2.461210e-09	-3.839383e+01	-1.577111e+02
5.000000e-08	-5.395487e-06	-2.460505e-09	-3.838697e+01	-1.576898e+02
6.000000e-08	-5.393915e-06	-2.458277e-09	-3.837578e+01	-1.576811e+02
7.000000e-08	-5.391705e-06	-2.457646e-09	-3.836005e+01	-1.576862e+02
8.000000e-08	-5.388907e-06	-2.455316e-09	-3.834015e+01	-1.577062e+02
9.000000e-08	-5.385509e-06	-2.443662e-09	-3.831597e+01	-1.577420e+02
1.000000e-07	-5.381498e-06	-2.460859e-09	-3.828744e+01	-1.577942e+02
1.100000e-07	-5.377161e-06	-2.500190e-09	-3.825658e+01	-1.578634e+02
1.200000e-07	-5.372709e-06	-2.459340e-09	-3.822491e+01	-1.579496e+02
1.300000e-07	-5.368142e-06	-2.406056e-09	-3.819242e+01	-1.580528e+02
1.400000e-07	-5.363191e-06	-2.427666e-09	-3.815719e+01	-1.581726e+02
1.500000e-07	-5.357696e-06	-2.485548e-09	-3.811810e+01	-1.583084e+02
1.600000e-07	-5.351879e-06	-2.457757e-09	-3.807671e+01	-1.584594e+02
1.700000e-07	-5.345859e-06	-2.357961e-09	-3.803388e+01	-1.586246e+02
1.800000e-07	-5.339514e-06	-2.427325e-09	-3.798874e+01	-1.588025e+02
1.900000e-07	-5.332579e-06	-2.506507e-09	-3.793940e+01	-1.589918e+02
2.000000e-07	-5.325290e-06	-2.489369e-09	-3.788754e+01	-1.591908e+02
2.100000e-07	-5.317818e-06	-2.394889e-09	-3.783438e+01	-1.593977e+02
2.200000e-07	-5.309999e-06	-2.447636e-09	-3.777875e+01	-1.596106e+02
2.300000e-07	-5.301858e-06	-2.488702e-09	-3.772083e+01	-1.598275e+02
2.400000e-07	-5.293476e-06	-2.448192e-09	-3.766120e+01	-1.600464e+02
2.500000e-07	-5.284656e-06	-2.427757e-09	-3.759844e+01	-1.602652e+02
2.600000e-07	-5.275242e-06	-2.503528e-09	-3.753146e+01	-1.604819e+02
2.700000e-07	-5.265186e-06	-2.517201e-09	-3.745992e+01	-1.606944e+02
2.800000e-07	-5.254581e-06	-2.457353e-09	-3.738447e+01	-1.609008e+02
2.900000e-07	-5.243412e-06	-2.470534e-09	-3.730501e+01	-1.610992e+02
3.000000e-07	-5.231670e-06	-2.501414e-09	-3.722147e+01	-1.612879e+02
3.100000e-07	-5.219596e-06	-2.457022e-09	-3.713557e+01	-1.614652e+02
3.200000e-07	-5.207271e-06	-2.416627e-09	-3.704788e+01	-1.616297e+02
3.300000e-07	-5.194633e-06	-2.493084e-09	-3.695796e+01	-1.617801e+02
3.400000e-07	-5.181613e-06	-2.503517e-09	-3.686533e+01	-1.619153e+02
3.500000e-07	-5.168212e-06	-2.456568e-09	-3.676999e+01	-1.620343e+02
3.600000e-07	-5.154384e-06	-2.459954e-09	-3.667160e+01	-1.621365e+02
3.700000e-07	-5.140207e-06	-2.518249e-09	-3.657074e+01	-1.622212e+02
3.800000e-07	-5.125644e-06	-2.480467e-09	-3.646713e+01	-1.622880e+02
3.900000e-07	-5.110466e-06	-2.456627e-09	-3.635914e+01	-1.623370e+02
4.000000e-07	-5.094455e-06	-2.468003e-09	-3.624523e+01	-1.623679e+02
4.100000e-07	-5.077906e-06	-2.466177e-09	-3.612749e+01	-1.623810e+02
4.200000e-07	-5.061128e-06	-2.440886e-09	-3.600812e+01	-1.623767e+02
4.300000e-07	-5.043979e-06	-2.474703e-09	-3.588611e+01	-1.623554e+02
4.400000e-07	-5.026497e-06	-2.466703e-09	-3.576173e+01	-1.623176e+02
4.500000e-07	-5.008881e-06	-2.439513e-09	-3.563640e+01	-1.622642e+02
4.600000e-07	-4.991031e-06	-2.448588e-09	-3.550940e+01	-1.621958e+02
4.700000e-07	-4.972816e-06	-2.475276e-09	-3.537981e+01	-1.621133e+02
4.800000e-07	-4.954313e-06	-2.437122e-09	-3.524817e+01	-1.620178e+02
4.900000e-07	-4.935425e-06	-2.425442e-09	-3.511379e+01	-1.619101e+02
5.000000e-07	-4.916014e-06	-2.444325e-09	-3.497569e+01	-1.617913e+02
5.100000e-07	-4.896224e-06	-2.446773e-09	-3.483489e+01	-1.616624e+02
5.200000e-07	-4.876258e-06	-2.431840e-09	-3.469284e+01	-1.615243e+02
5.300000e-07	-4.856166e-06	-2.435135e-09	-3.454989e+01	-1.613781e+02
5.400000e-07	-4.835887e-06	-2.426891e-09	-3.440561e+01	-1.612249e+02
5.500000e-07	-4.815300e-06	-2.422588e-09	-3.425914e+01	-1.610654e+02
5.600000e-07	-4.794327e-06	-2.429761e-09	-3.410993e+01	-1.609007e+02
5.700000e-07	-4.772954e-06	-2.419589e-09	-3.395787e+01	-1.607315e+02
5.800000e-07	-4.751173e-06	-2.406318e-09	-3.380290e+01	-1.605588e+02
5.900000e-07	-4.729085e-06	-2.413797e-09	-3.364575e+01	-1.603832e+02
6.000000e-07	-4.706722e-06	-2.418429e-09	-3.348665e+01	-1.602055e+02
6.100000e-07	-4.684028e-06	-2.399470e-09	-3.332519e+01	-1.600263e+02
6.200000e-07	-4.661010e-06	-2.391114e-09	-3.316143e+01	-1.598461e+02
6.300000e-07	-4.637590e-06	-2.388368e-09	-3.299480e+01	-1.596656e+02
6.400000e-07	-4.613795e-06	-2.392918e-09	-3.282551e+01	-1.594850e+02
6.500000e-07	-4.589832e-06	-2.390706e-09	-3.265502e+01	-1.593050e+02
6.600000e-07	-4.565766e-06	-2.386692e-09	-3.248379e+01	-1.591256e+02
6.700000e-07	-4.541521e-06	-2.374904e-09	-3.231130e+01	-1.589474e+02
6.800000e-07	-4.516963e-06	-2.379969e-09	-3.213658e+01	-1.587705e+02
6.900000e-07	-4.491954e-06	-2.375015e-09	-3.195865e+01	-1.585950e+02
7.000000e-07	-4.466427e-06	-2.364360e-09	-3.177703e+01	-1.584211e+02
7.100000e-07	-4.440275e-06	-2.350284e-09	-3.159097e+01	-1.582489e+02
7.200000e-07	-4.413662e-06	-2.352640e-09	-3.140163e+01	-1.580783e+02
7.300000e-07	-4.386584e-06	-2.350382e-09	-3.120898e+01	-1.579094e+02
7.400000e-07	-4.359020e-06	-2.350094e-09	-3.101287e+01	-1.577420e+02
7.500000e-07	-4.331207e-06	-2.341126e-09	-3.081500e+01	-1.575760e+02
7.600000e-07	-4.303209e-06	-2.340659e-09	-3.061579e+01	-1.574113e+02
7.700000e-07	-4.275022e-06	-2.340959e-09	-3.041526e+01	-1.572475e+02
7.800000e-07	-4.246657e-06	-2.341171e-09	-3.021345e+01	-1.570845e+02
7.900000e-07	-4.218128e-06	-2.332243e-09	-3.001048e+01	-1.569219e+02
8.000000e-07	-4.189317e-06	-2.329490e-09	-2.980550e+01	-1.567594e+02
8.100000e-07	-4.160143e-06	-2.327920e-09	-2.959793e+01	-1.565965e+02
8.200000e-07	-4.130644e-06	-2.325754e-09	-2.938806e+01	-1.564328e+02
8.300000e-07	-4.100895e-06	-2.318585e-09	-2.917640e+01	-1.562679e+02
8.400000e-07	-4.070880e-06	-2.314565e-09	-2.896286e+01	-1.561012e+02
8.500000e-07	-4.040611e-06	-2.314941e-09	-2.874751e+01	-1.559323e+02
8.600000e-07	-4.010125e-06	-2.315763e-09	-2.853061e+01	-1.557606e+02
8.700000e-07	-3.979349e-06	-2.313376e-09	-2.831165e+01	-1.555857e+02
8.800000e-07	-3.948243e-06	-2.309088e-09	-2.809034e+01	-1.554069e+02
8.900000e-07	-3.916840e-06	-2.308231e-09	-2.786692e+01	-1.552238e+02
9.000000e-07	-3.885172e-06	-2.305407e-09	-2.764161e+01	-1.550359e+02
9.100000e-07	-3.853305e-06	-2.299798e-09	-2.741489e+01	-1.548427e+02
9.200000e-07	-3.821345e-06	-2.290576e-09	-2.718751e+01	-1.546438e+02
9.300000e-07	-3.789255e-06	-2.289540e-09	-2.695920e+01	-1.544388e+02
9.400000e-07	-3.756959e-06	-2.291361e-09	-2.672942e+01	-1.542273e+02
9.500000e-07	-3.724473e-06	-2.293781e-09	-2.649830e+01	-1.540092e+02
9.600000e-07	-3.691712e-06	-2.289740e-09	-2.626521e+01	-1.537843e+02
9.700000e-07	-3.658574e-06	-2.288544e-09	-2.602945e+01	-1.535523e+02
9.800000e-07	-3.625085e-06	-2.285573e-09	-2.579119e+01	-1.533132e+02
9.900000e-07	-3.591184e-06	-2.280729e-09	-2.555000e+01	-1.530671e+02
1.000000e-06	-3.556790e-06	-2.270568e-09	-2.530530e+01	-1.528141e+02
1.010000e-06	-3.521941e-06	-2.268273e-09	-2.505735e+01	-1.525543e+02
1.020000e-06	-3.486598e-06	-2.269076e-09	-2.480590e+01	-1.522881e+02
1.030000e-06	-3.450850e-06	-2.271387e-09	-2.455157e+01	-1.520157e+02
1.040000e-06	-3.414952e-06	-2.266772e-09	-2.429617e+01	-1.517376e+02
1.050000e-06	-3.378958e-06	-2.261639e-09	-2.404008e+01	-1.514541e+02
1.060000e-06	-3.342864e-06	-2.253605e-09	-2.378328e+01	-1.511659e+02
1.070000e-06	-3.306712e-06	-2.247005e-09	-2.352608e+01	-1.508735e+02
1.080000e-06	-3.270459e-06	-2.237131e-09	-2.326815e+01	-1.505774e+02
1.090000e-06	-3.233975e-06	-2.226818e-09	-2.300858e+01	-1.502782e+02
1.100000e-06	-3.197198e-06	-2.221792e-09	-2.274692e+01	-1.499765e+02
1.110000e-06	-3.160209e-06	-2.221658e-09	-2.248376e+01	-1.496728e+02
1.120000e-06	-3.122986e-06	-2.220556e-09	-2.221893e+01	-1.493677e+02
1.130000e-06	-3.085439e-06	-2.217694e-09	-2.195179e+01	-1.490616e+02
1.140000e-06	-3.047642e-06	-2.212363e-09	-2.168288e+01	-1.487550e+02
1.150000e-06	-3.009613e-06	-2.208154e-09	-2.141232e+01	-1.484482e+02
1.160000e-06	-2.971422e-06	-2.201897e-09	-2.114061e+01	-1.481414e+02
1.170000e-06	-2.933169e-06	-2.190921e-09	-2.086845e+01	-1.478350e+02
1.180000e-06	-2.894753e-06	-2.179458e-09	-2.059513e+01	-1.475288e+02
1.190000e-06	-2.856022e-06	-2.171211e-09	-2.031958e+01	-1.472229e+02
1.200000e-06	-2.817040e-06	-2.167594e-09	-2.004223e+01	-1.469172e+02
1.210000e-06	-2.777860e-06	-2.165371e-09	-1.976348e+01	-1.466113e+02
1.220000e-06	-2.738483e-06	-2.163493e-09	-1.948333e+01	-1.463049e+02
1.230000e-06	-2.698917e-06	-2.159254e-09	-1.920183e+01	-1.459974e+02
1.240000e-06	-2.659128e-06	-2.151552e-09	-1.891875e+01	-1.456884e+02
1.250000e-06	-2.619217e-06	-2.138210e-09	-1.863480e+01	-1.453770e+02
1.260000e-06	-2.579230e-06	-2.126887e-09	-1.835030e+01	-1.450626e+02
1.270000e-06	-2.539152e-06	-2.117256e-09	-1.806516e+01	-1.447442e+02
1.280000e-06	-2.499022e-06	-2.111207e-09	-1.777965e+01	-1.444210e+02
1.290000e-06	-2.458833e-06	-2.106755e-09	-1.749372e+01	-1.440919e+02
1.300000e-06	-2.418541e-06	-2.105083e-09	-1.720706e+01	-1.437560e+02
1.310000e-06	-2.378134e-06	-2.102943e-09	-1.691958e+01	-1.434123e+02
1.320000e-06	-2.337552e-06	-2.100233e-09	-1.663085e+01	-1.430598e+02
1.330000e-06	-2.296757e-06	-2.091127e-09	-1.634061e+01	-1.426975e+02
1.340000e-06	-2.255775e-06	-2.077198e-09	-1.604904e+01	-1.423244e+02
1.350000e-06	-2.214518e-06	-2.064866e-09	-1.575551e+01	-1.419397e+02
1.360000e-06	-2.172984e-06	-2.056419e-09	-1.546000e+01	-1.415426e+02
1.370000e-06	-2.131260e-06	-2.048657e-09	-1.516315e+01	-1.411322e+02
1.380000e-06	-2.089300e-06	-2.043042e-09	-1.486462e+01	-1.407080e+02
1.390000e-06	-2.046998e-06	-2.037853e-09	-1.456366e+01	-1.402694e+02
1.400000e-06	-2.004256e-06	-2.033409e-09	-1.425956e+01	-1.398159e+02
1.410000e-06	-1.961202e-06	-2.025974e-09	-1.395325e+01	-1.393472e+02
1.420000e-06	-1.917992e-06	-2.014097e-09	-1.364583e+01	-1.388632e+02
1.430000e-06	-1.874627e-06	-2.002077e-09	-1.333731e+01	-1.383636e+02
1.440000e-06	-1.831088e-06	-1.992741e-09	-1.302753e+01	-1.378485e+02
1.450000e-06	-1.787425e-06	-1.985597e-09	-1.271689e+01	-1.373179e+02
1.460000e-06	-1.743672e-06	-1.977269e-09	-1.240560e+01	-1.367720e+02
1.470000e-06	-1.699812e-06	-1.967392e-09	-1.209356e+01	-1.362110e+02
1.480000e-06	-1.655873e-06	-1.958284e-09	-1.178094e+01	-1.356352e+02
1.490000e-06	-1.611915e-06	-1.950548e-09	-1.146820e+01	-1.350450e+02
1.500000e-06	-1.567881e-06	-1.941357e-09	-1.115492e+01	-1.344408e+02
1.510000e-06	-1.523734e-06	-1.929850e-09	-1.084083e+01	-1.338228e+02
1.520000e-06	-1.479552e-06	-1.918572e-09	-1.052649e+01	-1.331916e+02
1.530000e-06	-1.435325e-06	-1.909476e-09	-1.021183e+01	-1.325473e+02
1.540000e-06	-1.391005e-06	-1.902321e-09	-9.896502e+00	-1.318903e+02
1.550000e-06	-1.346627e-06	-1.894542e-09	-9.580769e+00	-1.312209e+02
1.560000e-06	-1.302206e-06	-1.884825e-09	-9.264733e+00	-1.305392e+02
1.570000e-06	-1.257761e-06	-1.876072e-09	-8.948523e+00	-1.298452e+02
1.580000e-06	-1.213262e-06	-1.868451e-09	-8.631927e+00	-1.291389e+02
1.590000e-06	-1.168651e-06	-1.861799e-09	-8.314532e+00	-1.284201e+02
1.600000e-06	-1.123992e-06	-1.853547e-09	-7.996802e+00	-1.276887e+02
1.610000e-06	-1.079199e-06	-1.842074e-09	-7.678117e+00	-1.269440e+02
1.620000e-06	-1.034310e-06	-1.826408e-09	-7.358748e+00	-1.261856e+02
1.630000e-06	-9.893639e-07	-1.813480e-09	-7.038971e+00	-1.254129e+02
1.640000e-06	-9.443535e-07	-1.804237e-09	-6.718738e+00	-1.246248e+02
1.650000e-06	-8.991924e-07	-1.794244e-09	-6.397433e+00	-1.238206e+02
1.660000e-06	-8.538795e-07	-1.785078e-09	-6.075048e+00	-1.229991e+02
1.670000e-06	-8.086322e-07	-1.777944e-09	-5.753130e+00	-1.221591e+02
1.680000e-06	-7.633648e-07	-1.768267e-09	-5.431068e+00	-1.212992e+02
1.690000e-06	-7.179418e-07	-1.755144e-09	-5.107900e+00	-1.204180e+02
1.700000e-06	-6.724453e-07	-1.738388e-09	-4.784208e+00	-1.195140e+02
1.710000e-06	-6.269506e-07	-1.721740e-09	-4.460530e+00	-1.185856e+02
1.720000e-06	-5.813668e-07	-1.706683e-09	-4.136217e+00	-1.176309e+02
1.730000e-06	-5.357185e-07	-1.693991e-09	-3.811446e+00	-1.166484e+02
1.740000e-06	-4.900599e-07	-1.681996e-09	-3.486602e+00	-1.156361e+02
1.750000e-06	-4.444245e-07	-1.667101e-09	-3.161922e+00	-1.145922e+02
1.760000e-06	-3.987052e-07	-1.651258e-09	-2.836645e+00	-1.135147e+02
1.770000e-06	-3.528678e-07	-1.636507e-09	-2.510528e+00	-1.124016e+02
1.780000e-06	-3.070595e-07	-1.620881e-09	-2.184619e+00	-1.112510e+02
1.790000e-06	-2.612994e-07	-1.602929e-09	-1.859052e+00	-1.100609e+02
1.800000e-06	-2.155041e-07	-1.583109e-09	-1.533235e+00	-1.088290e+02
1.810000e-06	-1.696132e-07	-1.562347e-09	-1.206738e+00	-1.075535e+02
1.820000e-06	-1.236910e-07	-1.541003e-09	-8.800175e-01	-1.062320e+02
1.830000e-06	-7.776826e-08	-1.519373e-09	-5.532934e-01	-1.048625e+02
1.840000e-06	-3.190432e-08	-1.497846e-09	-2.269879e-01	-1.034427e+02
1.850000e-06	1.392979e-08	-1.474464e-09	9.910548e-02	-1.019704e+02
1.860000e-06	5.977368e-08	-1.450771e-09	4.252684e-01	-1.004433e+02
1.870000e-06	1.055710e-07	-1.428053e-09	7.511000e-01	-9.885900e+01
1.880000e-06	1.513654e-07	-1.403956e-09	1.076911e+00	-9.721511e+01
1.890000e-06	1.971781e-07	-1.375076e-09	1.402852e+00	-9.550918e+01
1.900000e-06	2.429567e-07	-1.343942e-09	1.728550e+00	-9.373870e+01
1.910000e-06	2.887014e-07	-1.313597e-09	2.054008e+00	-9.190109e+01
1.920000e-06	3.344268e-07	-1.282068e-09	2.379327e+00	-8.999377e+01
1.930000e-06	3.801038e-07	-1.250661e-09	2.704303e+00	-8.801409e+01
1.940000e-06	4.257644e-07	-1.219995e-09	3.029162e+00	-8.595941e+01
1.950000e-06	4.714696e-07	-1.188786e-09	3.354338e+00	-8.382706e+01
1.960000e-06	5.171317e-07	-1.156885e-09	3.679208e+00	-8.161442e+01
1.970000e-06	5.627625e-07	-1.123838e-09	4.003855e+00	-7.931890e+01
1.980000e-06	6.083019e-07	-1.088687e-09	4.327851e+00	-7.693797e+01
1.990000e-06	6.537430e-07	-1.048584e-09	4.651148e+00	-7.446924e+01
2.000000e-06	6.992143e-07	-1.006433e-09	4.974661e+00	-7.191045e+01
2.010000e-06	7.446484e-07	-9.637762e-10	5.297908e+00	-6.925951e+01
2.020000e-06	7.899739e-07	-9.220287e-10	5.620383e+00	-6.651459e+01
2.030000e-06	8.352115e-07	-8.798373e-10	5.942232e+00	-6.367410e+01
2.040000e-06	8.804695e-07	-8.364950e-10	6.264226e+00	-6.073680e+01
2.050000e-06	9.256342e-07	-7.946891e-10	6.585557e+00	-5.770180e+01
2.060000e-06	9.707173e-07	-7.543662e-10	6.906308e+00	-5.456862e+01
2.070000e-06	1.015756e-06	-7.111227e-10	7.226743e+00	-5.133727e+01
2.080000e-06	1.060620e-06	-6.635887e-10	7.545930e+00	-4.800822e+01
2.090000e-06	1.105352e-06	-6.143442e-10	7.864186e+00	-4.458251e+01
2.100000e-06	1.150028e-06	-5.635084e-10	8.182041e+00	-4.106176e+01
2.110000e-06	1.194656e-06	-5.106434e-10	8.499549e+00	-3.744819e+01
2.120000e-06	1.239178e-06	-4.536130e-10	8.816312e+00	-3.374467e+01
2.130000e-06	1.283608e-06	-3.958204e-10	9.132414e+00	-2.995473e+01
2.140000e-06	1.327928e-06	-3.406785e-10	9.447731e+00	-2.608254e+01
2.150000e-06	1.372125e-06	-2.859972e-10	9.762183e+00	-2.213296e+01
2.160000e-06	1.416325e-06	-2.294051e-10	1.007665e+01	-1.811151e+01
2.170000e-06	1.460537e-06	-1.699907e-10	1.039120e+01	-1.402436e+01
2.180000e-06	1.504712e-06	-1.080311e-10	1.070549e+01	-9.878296e+00
2.190000e-06	1.548868e-06	-4.278856e-11	1.101964e+01	-5.680699e+00
2.200000e-06	1.592953e-06	2.515234e-11	1.133329e+01	-1.439494e+00
2.210000e-06	1.636941e-06	9.204073e-11	1.164625e+01	2.836897e+00
2.220000e-06	1.680875e-06	1.576732e-10	1.195882e+01	7.139619e+00
2.230000e-06	1.724740e-06	2.239501e-10	1.227091e+01	1.145945e+01
2.240000e-06	1.768511e-06	2.916012e-10	1.258232e+01	1.578689e+01
2.250000e-06	1.812194e-06	3.591755e-10	1.289312e+01	2.011220e+01
2.260000e-06	1.855711e-06	4.221139e-10	1.320272e+01	2.442555e+01
2.270000e-06	1.899069e-06	4.826489e-10	1.351120e+01	2.871707e+01
2.280000e-06	1.942262e-06	5.459631e-10	1.381850e+01	3.297693e+01
2.290000e-06	1.985190e-06	6.102949e-10	1.412392e+01	3.719547e+01
2.300000e-06	2.027871e-06	6.718810e-10	1.442758e+01	4.136328e+01
2.310000e-06	2.070202e-06	7.322223e-10	1.472875e+01	4.547128e+01
2.320000e-06	2.112177e-06	7.931818e-10	1.502739e+01	4.951081e+01
2.330000e-06	2.153957e-06	8.526755e-10	1.532464e+01	5.347372e+01
2.340000e-06	2.195533e-06	9.058622e-10	1.562044e+01	5.735244e+01
2.350000e-06	2.236881e-06	9.539774e-10	1.591461e+01	6.114007e+01
2.360000e-06	2.277925e-06	1.005287e-09	1.620662e+01	6.483040e+01
2.370000e-06	2.318660e-06	1.058058e-09	1.649644e+01	6.841799e+01
2.380000e-06	2.359195e-06	1.106987e-09	1.678483e+01	7.189822e+01
2.390000e-06	2.399619e-06	1.152655e-09	1.707244e+01	7.526729e+01
2.400000e-06	2.439950e-06	1.198366e-09	1.735938e+01	7.852226e+01
2.410000e-06	2.480190e-06	1.243688e-09	1.764567e+01	8.166106e+01
2.420000e-06	2.520337e-06	1.286455e-09	1.793130e+01	8.468246e+01
2.430000e-06	2.560389e-06	1.327980e-09	1.821626e+01	8.758607e+01
2.440000e-06	2.600388e-06	1.370587e-09	1.850083e+01	9.037232e+01
2.450000e-06	2.640303e-06	1.412247e-09	1.878481e+01	9.304241e+01
2.460000e-06	2.680118e-06	1.449457e-09	1.906808e+01	9.559826e+01
2.470000e-06	2.719810e-06	1.483017e-09	1.935048e+01	9.804246e+01
2.480000e-06	2.759231e-06	1.515230e-09	1.963094e+01	1.003782e+02
2.490000e-06	2.798306e-06	1.547551e-09	1.990895e+01	1.026092e+02
2.500000e-06	2.837168e-06	1.579468e-09	2.018544e+01	1.047396e+02
2.510000e-06	2.875855e-06	1.609447e-09	2.046068e+01	1.067740e+02
2.520000e-06	2.914269e-06	1.639444e-09	2.073399e+01	1.087173e+02
2.530000e-06	2.952423e-06	1.669702e-09	2.100543e+01	1.105743e+02
2.540000e-06	2.990451e-06	1.695446e-09	2.127599e+01	1.123504e+02
2.550000e-06	3.028414e-06	1.718050e-09	2.154609e+01	1.140507e+02
2.560000e-06	3.066154e-06	1.741756e-09	2.181459e+01	1.156804e+02
2.570000e-06	3.103612e-06	1.766649e-09	2.208109e+01	1.172445e+02
2.580000e-06	3.140830e-06	1.789387e-09	2.234589e+01	1.187480e+02
2.590000e-06	3.177780e-06	1.810237e-09	2.260877e+01	1.201953e+02
2.600000e-06	3.214518e-06	1.831727e-09	2.287015e+01	1.215909e+02
2.610000e-06	3.251042e-06	1.854448e-09	2.313000e+01	1.229388e+02
2.620000e-06	3.287408e-06	1.876244e-09	2.338873e+01	1.242427e+02
2.630000e-06	3.323647e-06	1.895763e-09	2.364656e+01	1.255057e+02
2.640000e-06	3.359772e-06	1.915032e-09	2.390358e+01	1.267307e+02
2.650000e-06	3.395808e-06	1.933945e-09	2.415996e+01	1.279200e+02
2.660000e-06	3.431692e-06	1.950602e-09	2.441527e+01	1.290758e+02
2.670000e-06	3.467430e-06	1.965670e-09	2.466952e+01	1.301996e+02
2.680000e-06	3.502968e-06	1.980646e-09	2.492237e+01	1.312926e+02
2.690000e-06	3.538130e-06	1.994828e-09	2.517253e+01	1.323556e+02
2.700000e-06	3.572911e-06	2.008234e-09	2.541998e+01	1.333892e+02
2.710000e-06	3.607272e-06	2.020055e-09	2.566445e+01	1.343937e+02
2.720000e-06	3.641043e-06	2.033085e-09	2.590472e+01	1.353689e+02
2.730000e-06	3.674312e-06	2.048528e-09	2.614142e+01	1.363147e+02
2.740000e-06	3.707230e-06	2.064853e-09	2.637562e+01	1.372308e+02
2.750000e-06	3.739868e-06	2.078731e-09	2.660783e+01	1.381167e+02
2.760000e-06	3.772270e-06	2.088036e-09	2.683836e+01	1.389718e+02
2.770000e-06	3.804478e-06	2.097214e-09	2.706751e+01	1.397957e+02
2.780000e-06	3.836584e-06	2.108458e-09	2.729593e+01	1.405880e+02
2.790000e-06	3.868504e-06	2.121183e-09	2.752303e+01	1.413481e+02
2.800000e-06	3.900223e-06	2.133240e-09	2.774870e+01	1.420759e+02
2.810000e-06	3.931771e-06	2.145126e-09	2.797315e+01	1.427712e+02
2.820000e-06	3.963089e-06	2.156658e-09	2.819596e+01	1.434339e+02
2.830000e-06	3.994149e-06	2.163853e-09	2.841694e+01	1.440645e+02
2.840000e-06	4.024927e-06	2.165001e-09	2.863592e+01	1.446632e+02
2.850000e-06	4.055286e-06	2.166359e-09	2.885191e+01	1.452308e+02
2.860000e-06	4.085296e-06	2.173905e-09	2.906542e+01	1.457681e+02
2.870000e-06	4.115117e-06	2.187316e-09	2.927759e+01	1.462761e+02
2.880000e-06	4.144663e-06	2.199500e-09	2.948780e+01	1.467560e+02
2.890000e-06	4.173898e-06	2.205987e-09	2.969579e+01	1.472094e+02
2.900000e-06	4.202771e-06	2.208333e-09	2.990122e+01	1.476377e+02
