# Temperatura_=_-1.61
# Concentracion g/m^3_=_4090.0
# C_Vs_to_Am_M_A/Vsm_=_65563218390.804596
# pendiente_HvsI_1/m_=_3716.3
# ordenada_HvsI_A/m_=_1297.0
# frecuencia_Hz_=_135082.84185409587

Tiempo_(s)	Campo_(V.s)	Magnetizacion_(V.s)	Campo_(kA/m)	Magnetizacion_(A/m)
0.000000e+00	-5.439936e-06	-2.570984e-09	-3.838279e+01	-1.632369e+02
1.000000e-08	-5.440027e-06	-2.572953e-09	-3.838343e+01	-1.632141e+02
2.000000e-08	-5.439964e-06	-2.571998e-09	-3.838298e+01	-1.631882e+02
3.000000e-08	-5.439544e-06	-2.568711e-09	-3.838002e+01	-1.631606e+02
4.000000e-08	-5.438658e-06	-2.561260e-09	-3.837377e+01	-1.631324e+02
5.000000e-08	-5.437300e-06	-2.551616e-09	-3.836419e+01	-1.631051e+02
6.000000e-08	-5.435227e-06	-2.545751e-09	-3.834956e+01	-1.630800e+02
7.000000e-08	-5.432428e-06	-2.543051e-09	-3.832981e+01	-1.630585e+02
8.000000e-08	-5.428973e-06	-2.549998e-09	-3.830543e+01	-1.630422e+02
9.000000e-08	-5.424994e-06	-2.602660e-09	-3.827736e+01	-1.630323e+02
1.000000e-07	-5.420720e-06	-2.628812e-09	-3.824720e+01	-1.630301e+02
1.100000e-07	-5.416305e-06	-2.552279e-09	-3.821606e+01	-1.630368e+02
1.200000e-07	-5.411850e-06	-2.482057e-09	-3.818462e+01	-1.630536e+02
1.300000e-07	-5.407188e-06	-2.549869e-09	-3.815172e+01	-1.630812e+02
1.400000e-07	-5.402021e-06	-2.606880e-09	-3.811527e+01	-1.631205e+02
1.500000e-07	-5.396327e-06	-2.526388e-09	-3.807509e+01	-1.631719e+02
1.600000e-07	-5.390355e-06	-2.419796e-09	-3.803296e+01	-1.632359e+02
1.700000e-07	-5.384054e-06	-2.523456e-09	-3.798850e+01	-1.633124e+02
1.800000e-07	-5.377134e-06	-2.597486e-09	-3.793968e+01	-1.634014e+02
1.900000e-07	-5.369792e-06	-2.527174e-09	-3.788787e+01	-1.635025e+02
2.000000e-07	-5.362268e-06	-2.435843e-09	-3.783478e+01	-1.636152e+02
2.100000e-07	-5.354526e-06	-2.503020e-09	-3.778015e+01	-1.637385e+02
2.200000e-07	-5.346489e-06	-2.523824e-09	-3.772345e+01	-1.638716e+02
2.300000e-07	-5.338195e-06	-2.464200e-09	-3.766493e+01	-1.640131e+02
2.400000e-07	-5.329574e-06	-2.465643e-09	-3.760410e+01	-1.641617e+02
2.500000e-07	-5.320244e-06	-2.541332e-09	-3.753827e+01	-1.643157e+02
2.600000e-07	-5.309988e-06	-2.536748e-09	-3.746591e+01	-1.644735e+02
2.700000e-07	-5.299151e-06	-2.486475e-09	-3.738945e+01	-1.646333e+02
2.800000e-07	-5.288091e-06	-2.536172e-09	-3.731141e+01	-1.647931e+02
2.900000e-07	-5.276650e-06	-2.560312e-09	-3.723068e+01	-1.649510e+02
3.000000e-07	-5.264785e-06	-2.501690e-09	-3.714696e+01	-1.651051e+02
3.100000e-07	-5.252513e-06	-2.494503e-09	-3.706038e+01	-1.652533e+02
3.200000e-07	-5.239781e-06	-2.601961e-09	-3.697054e+01	-1.653939e+02
3.300000e-07	-5.226616e-06	-2.581811e-09	-3.687765e+01	-1.655249e+02
3.400000e-07	-5.213158e-06	-2.511921e-09	-3.678270e+01	-1.656446e+02
3.500000e-07	-5.199375e-06	-2.511208e-09	-3.668545e+01	-1.657514e+02
3.600000e-07	-5.185210e-06	-2.563735e-09	-3.658551e+01	-1.658439e+02
3.700000e-07	-5.170618e-06	-2.519019e-09	-3.648255e+01	-1.659207e+02
3.800000e-07	-5.155492e-06	-2.512613e-09	-3.637583e+01	-1.659808e+02
3.900000e-07	-5.139645e-06	-2.530800e-09	-3.626401e+01	-1.660233e+02
4.000000e-07	-5.123240e-06	-2.541174e-09	-3.614826e+01	-1.660475e+02
4.100000e-07	-5.106573e-06	-2.537627e-09	-3.603067e+01	-1.660530e+02
4.200000e-07	-5.089591e-06	-2.559166e-09	-3.591084e+01	-1.660395e+02
4.300000e-07	-5.072309e-06	-2.518104e-09	-3.578890e+01	-1.660069e+02
4.400000e-07	-5.054741e-06	-2.481572e-09	-3.566495e+01	-1.659556e+02
4.500000e-07	-5.036854e-06	-2.503006e-09	-3.553875e+01	-1.658860e+02
4.600000e-07	-5.018573e-06	-2.526991e-09	-3.540976e+01	-1.657985e+02
4.700000e-07	-4.999866e-06	-2.495027e-09	-3.527777e+01	-1.656941e+02
4.800000e-07	-4.980763e-06	-2.494599e-09	-3.514298e+01	-1.655737e+02
4.900000e-07	-4.961280e-06	-2.526423e-09	-3.500551e+01	-1.654383e+02
5.000000e-07	-4.941509e-06	-2.530202e-09	-3.486602e+01	-1.652892e+02
5.100000e-07	-4.921588e-06	-2.507891e-09	-3.472546e+01	-1.651278e+02
5.200000e-07	-4.901504e-06	-2.487729e-09	-3.458375e+01	-1.649553e+02
5.300000e-07	-4.881121e-06	-2.481105e-09	-3.443993e+01	-1.647733e+02
5.400000e-07	-4.860316e-06	-2.490770e-09	-3.429314e+01	-1.645833e+02
5.500000e-07	-4.839109e-06	-2.498226e-09	-3.414351e+01	-1.643867e+02
5.600000e-07	-4.817591e-06	-2.478836e-09	-3.399168e+01	-1.641850e+02
5.700000e-07	-4.795828e-06	-2.476297e-09	-3.383813e+01	-1.639796e+02
5.800000e-07	-4.773747e-06	-2.489505e-09	-3.368233e+01	-1.637719e+02
5.900000e-07	-4.751355e-06	-2.490686e-09	-3.352434e+01	-1.635632e+02
6.000000e-07	-4.728615e-06	-2.468216e-09	-3.336389e+01	-1.633548e+02
6.100000e-07	-4.705461e-06	-2.462645e-09	-3.320052e+01	-1.631476e+02
6.200000e-07	-4.681979e-06	-2.463588e-09	-3.303484e+01	-1.629428e+02
6.300000e-07	-4.658224e-06	-2.472844e-09	-3.286723e+01	-1.627411e+02
6.400000e-07	-4.634299e-06	-2.464609e-09	-3.269842e+01	-1.625433e+02
6.500000e-07	-4.610224e-06	-2.452445e-09	-3.252856e+01	-1.623500e+02
6.600000e-07	-4.585849e-06	-2.444938e-09	-3.235657e+01	-1.621617e+02
6.700000e-07	-4.561110e-06	-2.455430e-09	-3.218202e+01	-1.619787e+02
6.800000e-07	-4.535930e-06	-2.446252e-09	-3.200436e+01	-1.618012e+02
6.900000e-07	-4.510055e-06	-2.432410e-09	-3.182179e+01	-1.616293e+02
7.000000e-07	-4.483485e-06	-2.424409e-09	-3.163431e+01	-1.614629e+02
7.100000e-07	-4.456506e-06	-2.433748e-09	-3.144396e+01	-1.613018e+02
7.200000e-07	-4.429220e-06	-2.434146e-09	-3.125144e+01	-1.611459e+02
7.300000e-07	-4.401638e-06	-2.428416e-09	-3.105682e+01	-1.609947e+02
7.400000e-07	-4.373899e-06	-2.415881e-09	-3.086111e+01	-1.608479e+02
7.500000e-07	-4.345988e-06	-2.414143e-09	-3.066417e+01	-1.607049e+02
7.600000e-07	-4.317865e-06	-2.409859e-09	-3.046574e+01	-1.605652e+02
7.700000e-07	-4.289579e-06	-2.399728e-09	-3.026617e+01	-1.604281e+02
7.800000e-07	-4.261062e-06	-2.390414e-09	-3.006496e+01	-1.602931e+02
7.900000e-07	-4.232197e-06	-2.396479e-09	-2.986129e+01	-1.601594e+02
8.000000e-07	-4.202967e-06	-2.404982e-09	-2.965505e+01	-1.600264e+02
8.100000e-07	-4.173341e-06	-2.401698e-09	-2.944602e+01	-1.598933e+02
8.200000e-07	-4.143414e-06	-2.391787e-09	-2.923486e+01	-1.597597e+02
8.300000e-07	-4.113299e-06	-2.386389e-09	-2.902238e+01	-1.596246e+02
8.400000e-07	-4.082911e-06	-2.385448e-09	-2.880797e+01	-1.594876e+02
8.500000e-07	-4.052190e-06	-2.378072e-09	-2.859121e+01	-1.593480e+02
8.600000e-07	-4.021166e-06	-2.366013e-09	-2.837231e+01	-1.592053e+02
8.700000e-07	-3.989947e-06	-2.359075e-09	-2.815204e+01	-1.590588e+02
8.800000e-07	-3.958487e-06	-2.364638e-09	-2.793007e+01	-1.589081e+02
8.900000e-07	-3.926828e-06	-2.366340e-09	-2.770669e+01	-1.587527e+02
9.000000e-07	-3.895099e-06	-2.362450e-09	-2.748281e+01	-1.585922e+02
9.100000e-07	-3.863200e-06	-2.354071e-09	-2.725775e+01	-1.584263e+02
9.200000e-07	-3.831005e-06	-2.354914e-09	-2.703059e+01	-1.582546e+02
9.300000e-07	-3.798481e-06	-2.355537e-09	-2.680110e+01	-1.580769e+02
9.400000e-07	-3.765681e-06	-2.352602e-09	-2.656968e+01	-1.578929e+02
9.500000e-07	-3.732547e-06	-2.342524e-09	-2.633589e+01	-1.577026e+02
9.600000e-07	-3.698895e-06	-2.339642e-09	-2.609845e+01	-1.575056e+02
9.700000e-07	-3.664699e-06	-2.338685e-09	-2.585717e+01	-1.573021e+02
9.800000e-07	-3.630044e-06	-2.336680e-09	-2.561266e+01	-1.570919e+02
9.900000e-07	-3.594973e-06	-2.328175e-09	-2.536520e+01	-1.568750e+02
1.000000e-06	-3.559609e-06	-2.327270e-09	-2.511568e+01	-1.566516e+02
1.010000e-06	-3.524053e-06	-2.331045e-09	-2.486481e+01	-1.564216e+02
1.020000e-06	-3.488336e-06	-2.332770e-09	-2.461280e+01	-1.561852e+02
1.030000e-06	-3.452488e-06	-2.323789e-09	-2.435986e+01	-1.559425e+02
1.040000e-06	-3.416519e-06	-2.314684e-09	-2.410608e+01	-1.556937e+02
1.050000e-06	-3.380397e-06	-2.305860e-09	-2.385121e+01	-1.554390e+02
1.060000e-06	-3.344012e-06	-2.297584e-09	-2.359449e+01	-1.551786e+02
1.070000e-06	-3.307410e-06	-2.286620e-09	-2.333623e+01	-1.549126e+02
1.080000e-06	-3.270637e-06	-2.278636e-09	-2.307677e+01	-1.546414e+02
1.090000e-06	-3.233635e-06	-2.277475e-09	-2.281570e+01	-1.543652e+02
1.100000e-06	-3.196337e-06	-2.279947e-09	-2.255253e+01	-1.540842e+02
1.110000e-06	-3.158728e-06	-2.277698e-09	-2.228717e+01	-1.537986e+02
1.120000e-06	-3.120964e-06	-2.273022e-09	-2.202072e+01	-1.535086e+02
1.130000e-06	-3.083056e-06	-2.271002e-09	-2.175325e+01	-1.532145e+02
1.140000e-06	-3.044853e-06	-2.264308e-09	-2.148370e+01	-1.529164e+02
1.150000e-06	-3.006424e-06	-2.251890e-09	-2.121255e+01	-1.526146e+02
1.160000e-06	-2.967859e-06	-2.238699e-09	-2.094045e+01	-1.523090e+02
1.170000e-06	-2.929093e-06	-2.232294e-09	-2.066692e+01	-1.519998e+02
1.180000e-06	-2.890051e-06	-2.229481e-09	-2.039145e+01	-1.516871e+02
1.190000e-06	-2.850781e-06	-2.229922e-09	-2.011438e+01	-1.513708e+02
1.200000e-06	-2.811330e-06	-2.229098e-09	-1.983602e+01	-1.510510e+02
1.210000e-06	-2.771722e-06	-2.227038e-09	-1.955656e+01	-1.507274e+02
1.220000e-06	-2.731980e-06	-2.221317e-09	-1.927615e+01	-1.504000e+02
1.230000e-06	-2.692131e-06	-2.212280e-09	-1.899498e+01	-1.500686e+02
1.240000e-06	-2.652238e-06	-2.199746e-09	-1.871351e+01	-1.497330e+02
1.250000e-06	-2.612311e-06	-2.188608e-09	-1.843179e+01	-1.493927e+02
1.260000e-06	-2.572263e-06	-2.179349e-09	-1.814922e+01	-1.490474e+02
1.270000e-06	-2.532000e-06	-2.176277e-09	-1.786514e+01	-1.486968e+02
1.280000e-06	-2.491632e-06	-2.173669e-09	-1.758031e+01	-1.483404e+02
1.290000e-06	-2.451146e-06	-2.170310e-09	-1.729465e+01	-1.479777e+02
1.300000e-06	-2.410424e-06	-2.164268e-09	-1.700733e+01	-1.476080e+02
1.310000e-06	-2.369438e-06	-2.159139e-09	-1.671814e+01	-1.472310e+02
1.320000e-06	-2.328067e-06	-2.150020e-09	-1.642624e+01	-1.468458e+02
1.330000e-06	-2.286313e-06	-2.137521e-09	-1.613164e+01	-1.464520e+02
1.340000e-06	-2.244193e-06	-2.126509e-09	-1.583445e+01	-1.460489e+02
1.350000e-06	-2.201647e-06	-2.119760e-09	-1.553426e+01	-1.456359e+02
1.360000e-06	-2.158798e-06	-2.112630e-09	-1.523192e+01	-1.452122e+02
1.370000e-06	-2.115766e-06	-2.106033e-09	-1.492830e+01	-1.447773e+02
1.380000e-06	-2.072594e-06	-2.098867e-09	-1.462369e+01	-1.443306e+02
1.390000e-06	-2.029275e-06	-2.090757e-09	-1.431804e+01	-1.438715e+02
1.400000e-06	-1.985823e-06	-2.085635e-09	-1.401145e+01	-1.433994e+02
1.410000e-06	-1.942247e-06	-2.079700e-09	-1.370400e+01	-1.429138e+02
1.420000e-06	-1.898626e-06	-2.070867e-09	-1.339622e+01	-1.424141e+02
1.430000e-06	-1.854925e-06	-2.063103e-09	-1.308787e+01	-1.419000e+02
1.440000e-06	-1.811119e-06	-2.058727e-09	-1.277879e+01	-1.413711e+02
1.450000e-06	-1.767247e-06	-2.051676e-09	-1.246924e+01	-1.408269e+02
1.460000e-06	-1.723256e-06	-2.039634e-09	-1.215885e+01	-1.402671e+02
1.470000e-06	-1.679197e-06	-2.024830e-09	-1.184798e+01	-1.396915e+02
1.480000e-06	-1.635080e-06	-2.012163e-09	-1.153671e+01	-1.390998e+02
1.490000e-06	-1.590856e-06	-2.001452e-09	-1.122467e+01	-1.384918e+02
1.500000e-06	-1.546553e-06	-1.991598e-09	-1.091208e+01	-1.378673e+02
1.510000e-06	-1.502212e-06	-1.980895e-09	-1.059922e+01	-1.372261e+02
1.520000e-06	-1.457816e-06	-1.972043e-09	-1.028597e+01	-1.365680e+02
1.530000e-06	-1.413343e-06	-1.965452e-09	-9.972183e+00	-1.358928e+02
1.540000e-06	-1.368756e-06	-1.956993e-09	-9.657591e+00	-1.352005e+02
1.550000e-06	-1.324121e-06	-1.944814e-09	-9.342656e+00	-1.344906e+02
1.560000e-06	-1.279387e-06	-1.932473e-09	-9.027026e+00	-1.337631e+02
1.570000e-06	-1.234443e-06	-1.921373e-09	-8.709915e+00	-1.330176e+02
1.580000e-06	-1.189428e-06	-1.911021e-09	-8.392294e+00	-1.322537e+02
1.590000e-06	-1.144333e-06	-1.897398e-09	-8.074118e+00	-1.314710e+02
1.600000e-06	-1.099089e-06	-1.884584e-09	-7.754890e+00	-1.306691e+02
1.610000e-06	-1.053696e-06	-1.876628e-09	-7.434604e+00	-1.298474e+02
1.620000e-06	-1.008199e-06	-1.871386e-09	-7.113595e+00	-1.290051e+02
1.630000e-06	-9.626828e-07	-1.859195e-09	-6.792442e+00	-1.281416e+02
1.640000e-06	-9.171032e-07	-1.841479e-09	-6.470844e+00	-1.272559e+02
1.650000e-06	-8.714487e-07	-1.827006e-09	-6.148717e+00	-1.263470e+02
1.660000e-06	-8.257273e-07	-1.815744e-09	-5.826119e+00	-1.254140e+02
1.670000e-06	-7.799811e-07	-1.800158e-09	-5.503346e+00	-1.244555e+02
1.680000e-06	-7.342065e-07	-1.778187e-09	-5.180372e+00	-1.234703e+02
1.690000e-06	-6.884677e-07	-1.757897e-09	-4.857651e+00	-1.224569e+02
1.700000e-06	-6.427172e-07	-1.745196e-09	-4.534847e+00	-1.214140e+02
1.710000e-06	-5.968583e-07	-1.733482e-09	-4.211279e+00	-1.203398e+02
1.720000e-06	-5.510291e-07	-1.717358e-09	-3.887919e+00	-1.192328e+02
1.730000e-06	-5.051786e-07	-1.701898e-09	-3.564410e+00	-1.180912e+02
1.740000e-06	-4.592007e-07	-1.689018e-09	-3.240002e+00	-1.169132e+02
1.750000e-06	-4.131822e-07	-1.672524e-09	-2.915307e+00	-1.156969e+02
1.760000e-06	-3.671206e-07	-1.649169e-09	-2.590308e+00	-1.144406e+02
1.770000e-06	-3.209925e-07	-1.623393e-09	-2.264841e+00	-1.131422e+02
1.780000e-06	-2.748689e-07	-1.602629e-09	-1.939404e+00	-1.117999e+02
1.790000e-06	-2.287570e-07	-1.585273e-09	-1.614050e+00	-1.104118e+02
1.800000e-06	-1.826637e-07	-1.564526e-09	-1.288828e+00	-1.089761e+02
1.810000e-06	-1.365292e-07	-1.543873e-09	-9.633148e-01	-1.074907e+02
1.820000e-06	-9.038449e-08	-1.525738e-09	-6.377297e-01	-1.059540e+02
1.830000e-06	-4.424711e-08	-1.505949e-09	-3.121962e-01	-1.043642e+02
1.840000e-06	1.959466e-09	-1.480308e-09	1.382549e-02	-1.027195e+02
1.850000e-06	4.808417e-08	-1.451651e-09	3.392695e-01	-1.010183e+02
1.860000e-06	9.416950e-08	-1.423191e-09	6.644357e-01	-9.925903e+01
1.870000e-06	1.402813e-07	-1.396628e-09	9.897887e-01	-9.744020e+01
1.880000e-06	1.863845e-07	-1.368664e-09	1.315081e+00	-9.556040e+01
1.890000e-06	2.324660e-07	-1.338988e-09	1.640220e+00	-9.361832e+01
1.900000e-06	2.785689e-07	-1.311220e-09	1.965511e+00	-9.161271e+01
1.910000e-06	3.246868e-07	-1.283584e-09	2.290907e+00	-8.954247e+01
1.920000e-06	3.707269e-07	-1.249543e-09	2.615754e+00	-8.740653e+01
1.930000e-06	4.167544e-07	-1.213492e-09	2.940512e+00	-8.520397e+01
1.940000e-06	4.628346e-07	-1.180105e-09	3.265642e+00	-8.293394e+01
1.950000e-06	5.088513e-07	-1.147771e-09	3.590324e+00	-8.059571e+01
1.960000e-06	5.547059e-07	-1.113600e-09	3.913862e+00	-7.818862e+01
1.970000e-06	6.005505e-07	-1.076280e-09	4.237330e+00	-7.571215e+01
1.980000e-06	6.463433e-07	-1.037753e-09	4.560432e+00	-7.316587e+01
1.990000e-06	6.920557e-07	-9.988614e-10	4.882967e+00	-7.054947e+01
2.000000e-06	7.378120e-07	-9.577120e-10	5.205812e+00	-6.786275e+01
2.010000e-06	7.835627e-07	-9.161938e-10	5.528616e+00	-6.510564e+01
2.020000e-06	8.292146e-07	-8.764982e-10	5.850725e+00	-6.227820e+01
2.030000e-06	8.747693e-07	-8.362221e-10	6.172147e+00	-5.938065e+01
2.040000e-06	9.202717e-07	-7.920085e-10	6.493200e+00	-5.641333e+01
2.050000e-06	9.657028e-07	-7.448185e-10	6.813751e+00	-5.337679e+01
2.060000e-06	1.011127e-06	-6.993626e-10	7.134250e+00	-5.027173e+01
2.070000e-06	1.056549e-06	-6.549263e-10	7.454740e+00	-4.709905e+01
2.080000e-06	1.101881e-06	-6.080097e-10	7.774587e+00	-4.385987e+01
2.090000e-06	1.147063e-06	-5.592561e-10	8.093382e+00	-4.055553e+01
2.100000e-06	1.192091e-06	-5.105641e-10	8.411085e+00	-3.718763e+01
2.110000e-06	1.236948e-06	-4.627356e-10	8.727589e+00	-3.375799e+01
2.120000e-06	1.281707e-06	-4.135894e-10	9.043393e+00	-3.026874e+01
2.130000e-06	1.326451e-06	-3.591370e-10	9.359097e+00	-2.672228e+01
2.140000e-06	1.371081e-06	-3.005506e-10	9.673997e+00	-2.312130e+01
2.150000e-06	1.415569e-06	-2.426766e-10	9.987887e+00	-1.946883e+01
2.160000e-06	1.459999e-06	-1.887496e-10	1.030138e+01	-1.576818e+01
2.170000e-06	1.504355e-06	-1.331567e-10	1.061434e+01	-1.202301e+01
2.180000e-06	1.548596e-06	-7.438319e-11	1.092649e+01	-8.237271e+00
2.190000e-06	1.592731e-06	-1.682692e-11	1.123790e+01	-4.415255e+00
2.200000e-06	1.636766e-06	3.707301e-11	1.154860e+01	-5.615564e-01
2.210000e-06	1.680727e-06	9.191885e-11	1.185878e+01	3.318930e+00
2.220000e-06	1.724639e-06	1.520828e-10	1.216861e+01	7.221026e+00
2.230000e-06	1.768529e-06	2.149465e-10	1.247828e+01	1.113929e+01
2.240000e-06	1.812378e-06	2.760915e-10	1.278767e+01	1.506804e+01
2.250000e-06	1.856178e-06	3.368006e-10	1.309671e+01	1.900138e+01
2.260000e-06	1.899897e-06	3.972786e-10	1.340519e+01	2.293327e+01
2.270000e-06	1.943524e-06	4.563718e-10	1.371300e+01	2.685748e+01
2.280000e-06	1.987053e-06	5.142843e-10	1.402014e+01	3.076772e+01
2.290000e-06	2.030520e-06	5.712777e-10	1.432683e+01	3.465765e+01
2.300000e-06	2.073821e-06	6.294775e-10	1.463234e+01	3.852090e+01
2.310000e-06	2.116790e-06	6.867358e-10	1.493553e+01	4.235118e+01
2.320000e-06	2.159572e-06	7.425530e-10	1.523738e+01	4.614225e+01
2.330000e-06	2.202300e-06	7.970392e-10	1.553886e+01	4.988806e+01
2.340000e-06	2.244730e-06	8.496784e-10	1.583824e+01	5.358273e+01
2.350000e-06	2.286645e-06	9.037592e-10	1.613398e+01	5.722063e+01
2.360000e-06	2.328185e-06	9.597032e-10	1.642708e+01	6.079643e+01
2.370000e-06	2.369356e-06	1.012876e-09	1.671757e+01	6.430513e+01
2.380000e-06	2.410255e-06	1.061737e-09	1.700614e+01	6.774213e+01
2.390000e-06	2.451003e-06	1.108459e-09	1.729364e+01	7.110322e+01
2.400000e-06	2.491534e-06	1.152969e-09	1.757962e+01	7.438467e+01
2.410000e-06	2.531857e-06	1.195953e-09	1.786413e+01	7.758321e+01
2.420000e-06	2.572025e-06	1.238761e-09	1.814755e+01	8.069610e+01
2.430000e-06	2.612090e-06	1.282633e-09	1.843024e+01	8.372109e+01
2.440000e-06	2.652057e-06	1.328292e-09	1.871223e+01	8.665647e+01
2.450000e-06	2.691966e-06	1.370076e-09	1.899382e+01	8.950106e+01
2.460000e-06	2.731793e-06	1.407766e-09	1.927483e+01	9.225422e+01
2.470000e-06	2.771505e-06	1.444545e-09	1.955502e+01	9.491579e+01
2.480000e-06	2.811054e-06	1.479671e-09	1.983407e+01	9.748615e+01
2.490000e-06	2.850442e-06	1.512802e-09	2.011199e+01	9.996613e+01
2.500000e-06	2.889586e-06	1.545000e-09	2.038818e+01	1.023570e+02
2.510000e-06	2.928485e-06	1.580323e-09	2.066264e+01	1.046605e+02
2.520000e-06	2.967161e-06	1.617431e-09	2.093552e+01	1.068786e+02
2.530000e-06	3.005489e-06	1.648198e-09	2.120596e+01	1.090138e+02
2.540000e-06	3.043700e-06	1.672087e-09	2.147556e+01	1.110687e+02
2.550000e-06	3.081789e-06	1.697679e-09	2.174431e+01	1.130461e+02
2.560000e-06	3.119634e-06	1.726342e-09	2.201133e+01	1.149493e+02
2.570000e-06	3.157288e-06	1.752963e-09	2.227701e+01	1.167814e+02
2.580000e-06	3.194689e-06	1.777611e-09	2.254090e+01	1.185456e+02
2.590000e-06	3.231917e-06	1.804714e-09	2.280357e+01	1.202454e+02
2.600000e-06	3.268889e-06	1.833417e-09	2.306444e+01	1.218839e+02
2.610000e-06	3.305593e-06	1.856964e-09	2.332341e+01	1.234644e+02
2.620000e-06	3.342089e-06	1.875715e-09	2.358092e+01	1.249900e+02
2.630000e-06	3.378309e-06	1.895592e-09	2.383648e+01	1.264637e+02
2.640000e-06	3.414322e-06	1.918171e-09	2.409058e+01	1.278883e+02
2.650000e-06	3.450231e-06	1.938137e-09	2.434394e+01	1.292663e+02
2.660000e-06	3.486034e-06	1.954970e-09	2.459656e+01	1.306002e+02
2.670000e-06	3.521673e-06	1.974503e-09	2.484802e+01	1.318921e+02
2.680000e-06	3.557061e-06	1.997474e-09	2.509771e+01	1.331438e+02
2.690000e-06	3.592289e-06	2.018232e-09	2.534627e+01	1.343569e+02
2.700000e-06	3.627329e-06	2.032471e-09	2.559350e+01	1.355329e+02
2.710000e-06	3.661954e-06	2.045935e-09	2.583781e+01	1.366728e+02
2.720000e-06	3.696038e-06	2.062000e-09	2.607829e+01	1.377776e+02
2.730000e-06	3.729709e-06	2.076109e-09	2.631587e+01	1.388479e+02
2.740000e-06	3.763018e-06	2.087030e-09	2.655088e+01	1.398842e+02
2.750000e-06	3.795824e-06	2.098728e-09	2.678236e+01	1.408869e+02
2.760000e-06	3.828259e-06	2.114687e-09	2.701121e+01	1.418562e+02
2.770000e-06	3.860405e-06	2.133295e-09	2.723803e+01	1.427921e+02
2.780000e-06	3.892326e-06	2.149801e-09	2.746325e+01	1.436946e+02
2.790000e-06	3.924170e-06	2.162501e-09	2.768793e+01	1.445639e+02
2.800000e-06	3.955938e-06	2.173994e-09	2.791208e+01	1.453997e+02
2.810000e-06	3.987505e-06	2.186564e-09	2.813481e+01	1.462022e+02
2.820000e-06	4.018772e-06	2.196022e-09	2.835542e+01	1.469712e+02
2.830000e-06	4.049695e-06	2.201123e-09	2.857360e+01	1.477071e+02
2.840000e-06	4.080323e-06	2.207976e-09	2.878971e+01	1.484099e+02
2.850000e-06	4.110625e-06	2.219206e-09	2.900351e+01	1.490801e+02
2.860000e-06	4.140580e-06	2.235876e-09	2.921487e+01	1.497180e+02
2.870000e-06	4.170360e-06	2.252893e-09	2.942498e+01	1.503243e+02
2.880000e-06	4.200003e-06	2.264163e-09	2.963414e+01	1.508998e+02
2.890000e-06	4.229362e-06	2.270665e-09	2.984129e+01	1.514454e+02
2.900000e-06	4.258324e-06	2.274394e-09	3.004564e+01	1.519621e+02
