# Temperatura_=_-1.39
# Concentracion g/m^3_=_4090.0
# C_Vs_to_Am_M_A/Vsm_=_65563218390.804596
# pendiente_HvsI_1/m_=_3716.3
# ordenada_HvsI_A/m_=_1297.0
# frecuencia_Hz_=_135084.4679985798

Tiempo_(s)	Campo_(V.s)	Magnetizacion_(V.s)	Campo_(kA/m)	Magnetizacion_(A/m)
0.000000e+00	-5.408840e-06	-2.617077e-09	-3.838906e+01	-1.687388e+02
1.000000e-08	-5.408881e-06	-2.611396e-09	-3.838935e+01	-1.687332e+02
2.000000e-08	-5.408698e-06	-2.607169e-09	-3.838805e+01	-1.687278e+02
3.000000e-08	-5.408131e-06	-2.606042e-09	-3.838403e+01	-1.687240e+02
4.000000e-08	-5.407125e-06	-2.605979e-09	-3.837688e+01	-1.687229e+02
5.000000e-08	-5.405714e-06	-2.605507e-09	-3.836687e+01	-1.687258e+02
6.000000e-08	-5.403696e-06	-2.615052e-09	-3.835255e+01	-1.687338e+02
7.000000e-08	-5.401002e-06	-2.635922e-09	-3.833343e+01	-1.687482e+02
8.000000e-08	-5.397766e-06	-2.626260e-09	-3.831046e+01	-1.687700e+02
9.000000e-08	-5.394048e-06	-2.563961e-09	-3.828408e+01	-1.688002e+02
1.000000e-07	-5.389931e-06	-2.581570e-09	-3.825485e+01	-1.688397e+02
1.100000e-07	-5.385602e-06	-2.632850e-09	-3.822413e+01	-1.688891e+02
1.200000e-07	-5.381084e-06	-2.650611e-09	-3.819206e+01	-1.689490e+02
1.300000e-07	-5.376235e-06	-2.529773e-09	-3.815765e+01	-1.690197e+02
1.400000e-07	-5.371002e-06	-2.553814e-09	-3.812050e+01	-1.691015e+02
1.500000e-07	-5.365401e-06	-2.654815e-09	-3.808075e+01	-1.691943e+02
1.600000e-07	-5.359461e-06	-2.656486e-09	-3.803859e+01	-1.692978e+02
1.700000e-07	-5.353042e-06	-2.514547e-09	-3.799304e+01	-1.694116e+02
1.800000e-07	-5.346167e-06	-2.547736e-09	-3.794424e+01	-1.695352e+02
1.900000e-07	-5.338865e-06	-2.667772e-09	-3.789241e+01	-1.696676e+02
2.000000e-07	-5.331357e-06	-2.640528e-09	-3.783913e+01	-1.698079e+02
2.100000e-07	-5.323742e-06	-2.542537e-09	-3.778508e+01	-1.699549e+02
2.200000e-07	-5.315891e-06	-2.596586e-09	-3.772936e+01	-1.701072e+02
2.300000e-07	-5.307807e-06	-2.683604e-09	-3.767198e+01	-1.702635e+02
2.400000e-07	-5.299226e-06	-2.621153e-09	-3.761107e+01	-1.704222e+02
2.500000e-07	-5.289910e-06	-2.613386e-09	-3.754496e+01	-1.705816e+02
2.600000e-07	-5.279973e-06	-2.676992e-09	-3.747443e+01	-1.707401e+02
2.700000e-07	-5.269418e-06	-2.706211e-09	-3.739951e+01	-1.708961e+02
2.800000e-07	-5.258415e-06	-2.607577e-09	-3.732143e+01	-1.710477e+02
2.900000e-07	-5.247146e-06	-2.630289e-09	-3.724144e+01	-1.711934e+02
3.000000e-07	-5.235415e-06	-2.696348e-09	-3.715818e+01	-1.713316e+02
3.100000e-07	-5.223217e-06	-2.674586e-09	-3.707160e+01	-1.714608e+02
3.200000e-07	-5.210611e-06	-2.591733e-09	-3.698213e+01	-1.715794e+02
3.300000e-07	-5.197655e-06	-2.670312e-09	-3.689018e+01	-1.716864e+02
3.400000e-07	-5.184312e-06	-2.696654e-09	-3.679548e+01	-1.717805e+02
3.500000e-07	-5.170637e-06	-2.657408e-09	-3.669842e+01	-1.718607e+02
3.600000e-07	-5.156587e-06	-2.625084e-09	-3.659870e+01	-1.719263e+02
3.700000e-07	-5.142086e-06	-2.678549e-09	-3.649578e+01	-1.719767e+02
3.800000e-07	-5.126968e-06	-2.634487e-09	-3.638848e+01	-1.720113e+02
3.900000e-07	-5.111178e-06	-2.629175e-09	-3.627641e+01	-1.720300e+02
4.000000e-07	-5.094903e-06	-2.657302e-09	-3.616090e+01	-1.720326e+02
4.100000e-07	-5.078235e-06	-2.646674e-09	-3.604260e+01	-1.720193e+02
4.200000e-07	-5.061329e-06	-2.608046e-09	-3.592261e+01	-1.719903e+02
4.300000e-07	-5.044252e-06	-2.650492e-09	-3.580141e+01	-1.719461e+02
4.400000e-07	-5.026800e-06	-2.665839e-09	-3.567754e+01	-1.718872e+02
4.500000e-07	-5.008956e-06	-2.603811e-09	-3.555090e+01	-1.718143e+02
4.600000e-07	-4.990767e-06	-2.598065e-09	-3.542180e+01	-1.717282e+02
4.700000e-07	-4.972273e-06	-2.633847e-09	-3.529054e+01	-1.716298e+02
4.800000e-07	-4.953443e-06	-2.629890e-09	-3.515689e+01	-1.715201e+02
4.900000e-07	-4.934164e-06	-2.597745e-09	-3.502006e+01	-1.714000e+02
5.000000e-07	-4.914541e-06	-2.612835e-09	-3.488079e+01	-1.712706e+02
5.100000e-07	-4.894637e-06	-2.610117e-09	-3.473952e+01	-1.711330e+02
5.200000e-07	-4.874492e-06	-2.618345e-09	-3.459654e+01	-1.709882e+02
5.300000e-07	-4.854151e-06	-2.612341e-09	-3.445217e+01	-1.708371e+02
5.400000e-07	-4.833565e-06	-2.602228e-09	-3.430606e+01	-1.706808e+02
5.500000e-07	-4.812631e-06	-2.582301e-09	-3.415749e+01	-1.705202e+02
5.600000e-07	-4.791321e-06	-2.610382e-09	-3.400624e+01	-1.703560e+02
5.700000e-07	-4.769587e-06	-2.603000e-09	-3.385198e+01	-1.701891e+02
5.800000e-07	-4.747531e-06	-2.583592e-09	-3.369544e+01	-1.700202e+02
5.900000e-07	-4.725225e-06	-2.571536e-09	-3.353712e+01	-1.698497e+02
6.000000e-07	-4.702619e-06	-2.590616e-09	-3.337668e+01	-1.696783e+02
6.100000e-07	-4.679752e-06	-2.582377e-09	-3.321438e+01	-1.695063e+02
6.200000e-07	-4.656551e-06	-2.572259e-09	-3.304971e+01	-1.693339e+02
6.300000e-07	-4.632977e-06	-2.550973e-09	-3.288240e+01	-1.691615e+02
6.400000e-07	-4.609129e-06	-2.557903e-09	-3.271313e+01	-1.689891e+02
6.500000e-07	-4.585069e-06	-2.566648e-09	-3.254237e+01	-1.688168e+02
6.600000e-07	-4.560823e-06	-2.569385e-09	-3.237029e+01	-1.686446e+02
6.700000e-07	-4.536271e-06	-2.550281e-09	-3.219603e+01	-1.684723e+02
6.800000e-07	-4.511288e-06	-2.551404e-09	-3.201872e+01	-1.682998e+02
6.900000e-07	-4.485804e-06	-2.556364e-09	-3.183784e+01	-1.681269e+02
7.000000e-07	-4.459851e-06	-2.549931e-09	-3.165364e+01	-1.679535e+02
7.100000e-07	-4.433432e-06	-2.529800e-09	-3.146613e+01	-1.677791e+02
7.200000e-07	-4.406530e-06	-2.522910e-09	-3.127520e+01	-1.676037e+02
7.300000e-07	-4.379272e-06	-2.532546e-09	-3.108173e+01	-1.674268e+02
7.400000e-07	-4.351651e-06	-2.539958e-09	-3.088569e+01	-1.672482e+02
7.500000e-07	-4.323829e-06	-2.530610e-09	-3.068823e+01	-1.670676e+02
7.600000e-07	-4.295890e-06	-2.517365e-09	-3.048993e+01	-1.668848e+02
7.700000e-07	-4.267630e-06	-2.521924e-09	-3.028936e+01	-1.666994e+02
7.800000e-07	-4.239100e-06	-2.521537e-09	-3.008687e+01	-1.665113e+02
7.900000e-07	-4.210325e-06	-2.508667e-09	-2.988264e+01	-1.663202e+02
8.000000e-07	-4.181175e-06	-2.489422e-09	-2.967574e+01	-1.661259e+02
8.100000e-07	-4.151715e-06	-2.490334e-09	-2.946666e+01	-1.659282e+02
8.200000e-07	-4.122025e-06	-2.496149e-09	-2.925593e+01	-1.657269e+02
8.300000e-07	-4.092038e-06	-2.502431e-09	-2.904310e+01	-1.655220e+02
8.400000e-07	-4.061625e-06	-2.492186e-09	-2.882724e+01	-1.653132e+02
8.500000e-07	-4.030979e-06	-2.491151e-09	-2.860973e+01	-1.651005e+02
8.600000e-07	-4.000249e-06	-2.489346e-09	-2.839163e+01	-1.648837e+02
8.700000e-07	-3.969299e-06	-2.487543e-09	-2.817197e+01	-1.646628e+02
8.800000e-07	-3.938113e-06	-2.468878e-09	-2.795062e+01	-1.644377e+02
8.900000e-07	-3.906705e-06	-2.459853e-09	-2.772771e+01	-1.642082e+02
9.000000e-07	-3.875100e-06	-2.460465e-09	-2.750339e+01	-1.639743e+02
9.100000e-07	-3.843208e-06	-2.471255e-09	-2.727704e+01	-1.637360e+02
9.200000e-07	-3.810844e-06	-2.468887e-09	-2.704734e+01	-1.634931e+02
9.300000e-07	-3.778284e-06	-2.469268e-09	-2.681624e+01	-1.632456e+02
9.400000e-07	-3.745729e-06	-2.470759e-09	-2.658519e+01	-1.629934e+02
9.500000e-07	-3.712883e-06	-2.472366e-09	-2.635206e+01	-1.627364e+02
9.600000e-07	-3.679496e-06	-2.458420e-09	-2.611510e+01	-1.624746e+02
9.700000e-07	-3.645624e-06	-2.443301e-09	-2.587469e+01	-1.622080e+02
9.800000e-07	-3.611462e-06	-2.435294e-09	-2.563223e+01	-1.619365e+02
9.900000e-07	-3.577009e-06	-2.438263e-09	-2.538770e+01	-1.616601e+02
1.000000e-06	-3.542097e-06	-2.437115e-09	-2.513992e+01	-1.613787e+02
1.010000e-06	-3.506767e-06	-2.434163e-09	-2.488916e+01	-1.610924e+02
1.020000e-06	-3.471194e-06	-2.434080e-09	-2.463669e+01	-1.608013e+02
1.030000e-06	-3.435513e-06	-2.434314e-09	-2.438344e+01	-1.605053e+02
1.040000e-06	-3.399739e-06	-2.429554e-09	-2.412953e+01	-1.602046e+02
1.050000e-06	-3.363711e-06	-2.415719e-09	-2.387383e+01	-1.598993e+02
1.060000e-06	-3.327497e-06	-2.403730e-09	-2.361680e+01	-1.595895e+02
1.070000e-06	-3.291104e-06	-2.396225e-09	-2.335850e+01	-1.592754e+02
1.080000e-06	-3.254482e-06	-2.390501e-09	-2.309857e+01	-1.589571e+02
1.090000e-06	-3.217674e-06	-2.382295e-09	-2.283733e+01	-1.586349e+02
1.100000e-06	-3.180589e-06	-2.381814e-09	-2.257412e+01	-1.583090e+02
1.110000e-06	-3.143280e-06	-2.383961e-09	-2.230932e+01	-1.579795e+02
1.120000e-06	-3.105802e-06	-2.384331e-09	-2.204333e+01	-1.576469e+02
1.130000e-06	-3.068082e-06	-2.374709e-09	-2.177561e+01	-1.573112e+02
1.140000e-06	-3.030144e-06	-2.366084e-09	-2.150635e+01	-1.569727e+02
1.150000e-06	-2.992039e-06	-2.359230e-09	-2.123590e+01	-1.566316e+02
1.160000e-06	-2.953778e-06	-2.354059e-09	-2.096434e+01	-1.562882e+02
1.170000e-06	-2.915235e-06	-2.340619e-09	-2.069078e+01	-1.559424e+02
1.180000e-06	-2.876442e-06	-2.330612e-09	-2.041545e+01	-1.555945e+02
1.190000e-06	-2.837500e-06	-2.327828e-09	-2.013906e+01	-1.552445e+02
1.200000e-06	-2.798372e-06	-2.328937e-09	-1.986135e+01	-1.548923e+02
1.210000e-06	-2.759097e-06	-2.320264e-09	-1.958260e+01	-1.545380e+02
1.220000e-06	-2.719638e-06	-2.309857e-09	-1.930254e+01	-1.541812e+02
1.230000e-06	-2.679995e-06	-2.300755e-09	-1.902117e+01	-1.538219e+02
1.240000e-06	-2.640199e-06	-2.296047e-09	-1.873873e+01	-1.534597e+02
1.250000e-06	-2.600229e-06	-2.284115e-09	-1.845504e+01	-1.530942e+02
1.260000e-06	-2.560154e-06	-2.272008e-09	-1.817060e+01	-1.527249e+02
1.270000e-06	-2.520060e-06	-2.264035e-09	-1.788604e+01	-1.523512e+02
1.280000e-06	-2.479895e-06	-2.261730e-09	-1.760097e+01	-1.519726e+02
1.290000e-06	-2.439493e-06	-2.258919e-09	-1.731422e+01	-1.515883e+02
1.300000e-06	-2.398895e-06	-2.250792e-09	-1.702607e+01	-1.511975e+02
1.310000e-06	-2.358208e-06	-2.242677e-09	-1.673730e+01	-1.507995e+02
1.320000e-06	-2.317264e-06	-2.236465e-09	-1.644670e+01	-1.503933e+02
1.330000e-06	-2.276014e-06	-2.226400e-09	-1.615393e+01	-1.499780e+02
1.340000e-06	-2.234461e-06	-2.211154e-09	-1.585901e+01	-1.495527e+02
1.350000e-06	-2.192636e-06	-2.199733e-09	-1.556216e+01	-1.491164e+02
1.360000e-06	-2.150605e-06	-2.192089e-09	-1.526384e+01	-1.486683e+02
1.370000e-06	-2.108226e-06	-2.185501e-09	-1.496306e+01	-1.482074e+02
1.380000e-06	-2.065538e-06	-2.177696e-09	-1.466009e+01	-1.477327e+02
1.390000e-06	-2.022662e-06	-2.170470e-09	-1.435577e+01	-1.472436e+02
1.400000e-06	-1.979616e-06	-2.162681e-09	-1.405026e+01	-1.467391e+02
1.410000e-06	-1.936440e-06	-2.152707e-09	-1.374382e+01	-1.462186e+02
1.420000e-06	-1.893136e-06	-2.138006e-09	-1.343647e+01	-1.456814e+02
1.430000e-06	-1.849711e-06	-2.125102e-09	-1.312826e+01	-1.451270e+02
1.440000e-06	-1.806110e-06	-2.115140e-09	-1.281880e+01	-1.445550e+02
1.450000e-06	-1.762319e-06	-2.107287e-09	-1.250800e+01	-1.439648e+02
1.460000e-06	-1.718452e-06	-2.097611e-09	-1.219665e+01	-1.433562e+02
1.470000e-06	-1.674501e-06	-2.087814e-09	-1.188471e+01	-1.427291e+02
1.480000e-06	-1.630470e-06	-2.077361e-09	-1.157221e+01	-1.420834e+02
1.490000e-06	-1.586437e-06	-2.069149e-09	-1.125968e+01	-1.414189e+02
1.500000e-06	-1.542387e-06	-2.058675e-09	-1.094704e+01	-1.407357e+02
1.510000e-06	-1.498224e-06	-2.047474e-09	-1.063359e+01	-1.400339e+02
1.520000e-06	-1.453939e-06	-2.035792e-09	-1.031928e+01	-1.393136e+02
1.530000e-06	-1.409608e-06	-2.026649e-09	-1.000464e+01	-1.385751e+02
1.540000e-06	-1.365160e-06	-2.016496e-09	-9.689179e+00	-1.378183e+02
1.550000e-06	-1.320620e-06	-2.003968e-09	-9.373053e+00	-1.370435e+02
1.560000e-06	-1.276088e-06	-1.992152e-09	-9.056989e+00	-1.362507e+02
1.570000e-06	-1.231469e-06	-1.983183e-09	-8.740307e+00	-1.354401e+02
1.580000e-06	-1.186719e-06	-1.971341e-09	-8.422698e+00	-1.346116e+02
1.590000e-06	-1.141846e-06	-1.957409e-09	-8.104214e+00	-1.337651e+02
1.600000e-06	-1.096906e-06	-1.946951e-09	-7.785256e+00	-1.329005e+02
1.610000e-06	-1.051941e-06	-1.939313e-09	-7.466119e+00	-1.320174e+02
1.620000e-06	-1.006931e-06	-1.930019e-09	-7.146655e+00	-1.311153e+02
1.630000e-06	-9.617744e-07	-1.916423e-09	-6.826161e+00	-1.301936e+02
1.640000e-06	-9.164549e-07	-1.900171e-09	-6.504508e+00	-1.292516e+02
1.650000e-06	-8.710864e-07	-1.884435e-09	-6.182506e+00	-1.282884e+02
1.660000e-06	-8.257176e-07	-1.869683e-09	-5.860503e+00	-1.273028e+02
1.670000e-06	-7.803154e-07	-1.852830e-09	-5.538262e+00	-1.262936e+02
1.680000e-06	-7.347315e-07	-1.836393e-09	-5.214732e+00	-1.252594e+02
1.690000e-06	-6.890625e-07	-1.824303e-09	-4.890598e+00	-1.241986e+02
1.700000e-06	-6.435023e-07	-1.815381e-09	-4.567236e+00	-1.231094e+02
1.710000e-06	-5.979282e-07	-1.802313e-09	-4.243775e+00	-1.219901e+02
1.720000e-06	-5.522852e-07	-1.783190e-09	-3.919826e+00	-1.208386e+02
1.730000e-06	-5.065436e-07	-1.760697e-09	-3.595176e+00	-1.196528e+02
1.740000e-06	-4.607105e-07	-1.739021e-09	-3.269877e+00	-1.184306e+02
1.750000e-06	-4.149254e-07	-1.715340e-09	-2.944919e+00	-1.171697e+02
1.760000e-06	-3.691566e-07	-1.692363e-09	-2.620077e+00	-1.158679e+02
1.770000e-06	-3.232939e-07	-1.672609e-09	-2.294568e+00	-1.145228e+02
1.780000e-06	-2.773639e-07	-1.658387e-09	-1.968581e+00	-1.131322e+02
1.790000e-06	-2.314057e-07	-1.644019e-09	-1.642394e+00	-1.116937e+02
1.800000e-06	-1.854185e-07	-1.622697e-09	-1.316001e+00	-1.102053e+02
1.810000e-06	-1.394519e-07	-1.595659e-09	-9.897548e-01	-1.086648e+02
1.820000e-06	-9.352730e-08	-1.566469e-09	-6.638068e-01	-1.070701e+02
1.830000e-06	-4.769867e-08	-1.535869e-09	-3.385397e-01	-1.054192e+02
1.840000e-06	-1.887013e-09	-1.506630e-09	-1.339301e-02	-1.037105e+02
1.850000e-06	4.400505e-08	-1.481941e-09	3.123243e-01	-1.019423e+02
1.860000e-06	8.992948e-08	-1.458760e-09	6.382714e-01	-1.001129e+02
1.870000e-06	1.358205e-07	-1.432670e-09	9.639816e-01	-9.822126e+01
1.880000e-06	1.816880e-07	-1.401859e-09	1.289525e+00	-9.626605e+01
1.890000e-06	2.275673e-07	-1.364723e-09	1.615151e+00	-9.424631e+01
1.900000e-06	2.733679e-07	-1.329874e-09	1.940219e+00	-9.216125e+01
1.910000e-06	3.191441e-07	-1.295334e-09	2.265114e+00	-9.001022e+01
1.920000e-06	3.649803e-07	-1.261381e-09	2.590435e+00	-8.779278e+01
1.930000e-06	4.108008e-07	-1.232099e-09	2.915645e+00	-8.550863e+01
1.940000e-06	4.565749e-07	-1.204550e-09	3.240525e+00	-8.315762e+01
1.950000e-06	5.022855e-07	-1.171659e-09	3.564954e+00	-8.073979e+01
1.960000e-06	5.479564e-07	-1.130544e-09	3.889102e+00	-7.825528e+01
1.970000e-06	5.935672e-07	-1.084902e-09	4.212823e+00	-7.570439e+01
1.980000e-06	6.390996e-07	-1.038585e-09	4.535987e+00	-7.308754e+01
1.990000e-06	6.846143e-07	-9.968379e-10	4.859027e+00	-7.040524e+01
2.000000e-06	7.301036e-07	-9.595844e-10	5.181885e+00	-6.765815e+01
2.010000e-06	7.755028e-07	-9.256698e-10	5.504105e+00	-6.484699e+01
2.020000e-06	8.208436e-07	-8.907524e-10	5.825909e+00	-6.197260e+01
2.030000e-06	8.661465e-07	-8.496328e-10	6.147445e+00	-5.903590e+01
2.040000e-06	9.113418e-07	-8.008931e-10	6.468218e+00	-5.603791e+01
2.050000e-06	9.564708e-07	-7.467370e-10	6.788519e+00	-5.297972e+01
2.060000e-06	1.001574e-06	-6.936922e-10	7.108637e+00	-4.986254e+01
2.070000e-06	1.046608e-06	-6.484648e-10	7.428263e+00	-4.668766e+01
2.080000e-06	1.091534e-06	-6.075690e-10	7.747129e+00	-4.345650e+01
2.090000e-06	1.136359e-06	-5.683929e-10	8.065268e+00	-4.017056e+01
2.100000e-06	1.181010e-06	-5.258176e-10	8.382180e+00	-3.683150e+01
2.110000e-06	1.225512e-06	-4.776054e-10	8.698027e+00	-3.344111e+01
2.120000e-06	1.269978e-06	-4.226921e-10	9.013625e+00	-3.000134e+01
2.130000e-06	1.314363e-06	-3.623805e-10	9.328649e+00	-2.651430e+01
2.140000e-06	1.358677e-06	-3.000872e-10	9.643165e+00	-2.298228e+01
2.150000e-06	1.402988e-06	-2.414810e-10	9.957657e+00	-1.940778e+01
2.160000e-06	1.447243e-06	-1.886375e-10	1.027176e+01	-1.579349e+01
2.170000e-06	1.491401e-06	-1.420724e-10	1.058517e+01	-1.214235e+01
2.180000e-06	1.535483e-06	-9.580225e-11	1.089804e+01	-8.457509e+00
2.190000e-06	1.579520e-06	-4.556054e-11	1.121059e+01	-4.742359e+00
2.200000e-06	1.623498e-06	9.471210e-12	1.152272e+01	-1.000535e+00
2.210000e-06	1.667377e-06	7.026235e-11	1.183415e+01	2.764085e+00
2.220000e-06	1.711223e-06	1.342060e-10	1.214535e+01	6.547385e+00
2.230000e-06	1.755042e-06	1.971102e-10	1.245635e+01	1.034502e+01
2.240000e-06	1.798752e-06	2.547495e-10	1.276658e+01	1.415242e+01
2.250000e-06	1.842368e-06	3.062857e-10	1.307615e+01	1.796482e+01
2.260000e-06	1.885973e-06	3.554536e-10	1.338563e+01	2.177726e+01
2.270000e-06	1.929408e-06	4.069328e-10	1.369391e+01	2.558464e+01
2.280000e-06	1.972603e-06	4.624530e-10	1.400048e+01	2.938171e+01
2.290000e-06	2.015687e-06	5.208750e-10	1.430627e+01	3.316315e+01
2.300000e-06	2.058669e-06	5.815520e-10	1.461134e+01	3.692356e+01
2.310000e-06	2.101424e-06	6.403531e-10	1.491478e+01	4.065752e+01
2.320000e-06	2.143799e-06	6.936721e-10	1.521554e+01	4.435965e+01
2.330000e-06	2.185784e-06	7.440096e-10	1.551353e+01	4.802462e+01
2.340000e-06	2.227538e-06	7.933068e-10	1.580988e+01	5.164721e+01
2.350000e-06	2.269074e-06	8.446950e-10	1.610468e+01	5.522238e+01
2.360000e-06	2.310241e-06	8.966794e-10	1.639686e+01	5.874526e+01
2.370000e-06	2.351179e-06	9.471256e-10	1.668741e+01	6.221123e+01
2.380000e-06	2.391909e-06	9.964115e-10	1.697649e+01	6.561596e+01
2.390000e-06	2.432389e-06	1.044798e-09	1.726380e+01	6.895545e+01
2.400000e-06	2.472620e-06	1.088939e-09	1.754934e+01	7.222604e+01
2.410000e-06	2.512692e-06	1.130097e-09	1.783375e+01	7.542446e+01
2.420000e-06	2.552733e-06	1.171468e-09	1.811794e+01	7.854788e+01
2.430000e-06	2.592678e-06	1.217651e-09	1.840144e+01	8.159386e+01
2.440000e-06	2.632522e-06	1.266520e-09	1.868423e+01	8.456045e+01
2.450000e-06	2.672255e-06	1.311363e-09	1.896624e+01	8.744613e+01
2.460000e-06	2.711893e-06	1.351426e-09	1.924757e+01	9.024986e+01
2.470000e-06	2.751392e-06	1.387264e-09	1.952791e+01	9.297104e+01
2.480000e-06	2.790719e-06	1.421252e-09	1.980704e+01	9.560953e+01
2.490000e-06	2.829874e-06	1.454673e-09	2.008493e+01	9.816562e+01
2.500000e-06	2.868825e-06	1.487691e-09	2.036139e+01	1.006400e+02
2.510000e-06	2.907499e-06	1.525846e-09	2.063588e+01	1.030337e+02
2.520000e-06	2.945835e-06	1.567947e-09	2.090796e+01	1.053483e+02
2.530000e-06	2.983988e-06	1.604980e-09	2.117875e+01	1.075853e+02
2.540000e-06	3.021997e-06	1.633790e-09	2.144852e+01	1.097469e+02
2.550000e-06	3.059761e-06	1.660521e-09	2.171655e+01	1.118353e+02
2.560000e-06	3.097320e-06	1.688892e-09	2.198312e+01	1.138529e+02
2.570000e-06	3.134687e-06	1.715254e-09	2.224833e+01	1.158024e+02
2.580000e-06	3.171952e-06	1.738002e-09	2.251282e+01	1.176862e+02
2.590000e-06	3.209080e-06	1.762776e-09	2.277633e+01	1.195073e+02
2.600000e-06	3.245960e-06	1.796226e-09	2.303809e+01	1.212683e+02
2.610000e-06	3.282569e-06	1.830679e-09	2.329792e+01	1.229719e+02
2.620000e-06	3.318831e-06	1.857763e-09	2.355529e+01	1.246207e+02
2.630000e-06	3.354861e-06	1.879155e-09	2.381101e+01	1.262173e+02
2.640000e-06	3.390815e-06	1.899934e-09	2.406619e+01	1.277640e+02
2.650000e-06	3.426666e-06	1.919221e-09	2.432064e+01	1.292631e+02
2.660000e-06	3.462387e-06	1.935922e-09	2.457417e+01	1.307166e+02
2.670000e-06	3.497976e-06	1.954482e-09	2.482676e+01	1.321263e+02
2.680000e-06	3.533361e-06	1.978350e-09	2.507791e+01	1.334938e+02
2.690000e-06	3.568433e-06	2.004331e-09	2.532683e+01	1.348206e+02
2.700000e-06	3.603067e-06	2.025918e-09	2.557265e+01	1.361079e+02
2.710000e-06	3.637294e-06	2.041824e-09	2.581557e+01	1.373566e+02
2.720000e-06	3.671185e-06	2.055972e-09	2.605611e+01	1.385677e+02
2.730000e-06	3.704664e-06	2.070273e-09	2.629373e+01	1.397417e+02
2.740000e-06	3.737692e-06	2.085815e-09	2.652814e+01	1.408790e+02
2.750000e-06	3.770250e-06	2.103743e-09	2.675922e+01	1.419802e+02
2.760000e-06	3.802462e-06	2.122104e-09	2.698785e+01	1.430453e+02
2.770000e-06	3.834507e-06	2.137944e-09	2.721528e+01	1.440746e+02
2.780000e-06	3.866408e-06	2.151362e-09	2.744170e+01	1.450681e+02
2.790000e-06	3.898196e-06	2.164368e-09	2.766731e+01	1.460260e+02
2.800000e-06	3.929805e-06	2.176954e-09	2.789166e+01	1.469483e+02
2.810000e-06	3.961129e-06	2.187909e-09	2.811398e+01	1.478351e+02
2.820000e-06	3.992232e-06	2.197505e-09	2.833473e+01	1.486866e+02
2.830000e-06	4.023145e-06	2.208381e-09	2.855413e+01	1.495031e+02
2.840000e-06	4.053710e-06	2.221626e-09	2.877107e+01	1.502850e+02
2.850000e-06	4.083853e-06	2.233232e-09	2.898501e+01	1.510326e+02
2.860000e-06	4.113735e-06	2.244110e-09	2.919710e+01	1.517466e+02
2.870000e-06	4.143408e-06	2.255942e-09	2.940770e+01	1.524278e+02
2.880000e-06	4.172833e-06	2.265031e-09	2.961654e+01	1.530770e+02
2.890000e-06	4.202062e-06	2.269886e-09	2.982400e+01	1.536953e+02
2.900000e-06	4.230995e-06	2.273235e-09	3.002934e+01	1.542838e+02
