# Temperatura_=_6.5
# Concentracion g/m^3_=_4090.0
# C_Vs_to_Am_M_A/Vsm_=_65563218390.804596
# pendiente_HvsI_1/m_=_3716.3
# ordenada_HvsI_A/m_=_1297.0
# frecuencia_Hz_=_135082.55081978007

Tiempo_(s)	Campo_(V.s)	Magnetizacion_(V.s)	Campo_(kA/m)	Magnetizacion_(A/m)
0.000000e+00	-5.406642e-06	-2.610746e-09	-3.838857e+01	-1.675200e+02
1.000000e-08	-5.406605e-06	-2.611943e-09	-3.838830e+01	-1.674735e+02
2.000000e-08	-5.406420e-06	-2.613878e-09	-3.838699e+01	-1.674296e+02
3.000000e-08	-5.405932e-06	-2.616484e-09	-3.838352e+01	-1.673899e+02
4.000000e-08	-5.405043e-06	-2.617462e-09	-3.837721e+01	-1.673563e+02
5.000000e-08	-5.403662e-06	-2.618398e-09	-3.836740e+01	-1.673303e+02
6.000000e-08	-5.401574e-06	-2.625675e-09	-3.835258e+01	-1.673136e+02
7.000000e-08	-5.398755e-06	-2.613520e-09	-3.833257e+01	-1.673078e+02
8.000000e-08	-5.395382e-06	-2.588301e-09	-3.830862e+01	-1.673142e+02
9.000000e-08	-5.391541e-06	-2.598740e-09	-3.828135e+01	-1.673341e+02
1.000000e-07	-5.387336e-06	-2.658737e-09	-3.825149e+01	-1.673685e+02
1.100000e-07	-5.382976e-06	-2.621557e-09	-3.822053e+01	-1.674183e+02
1.200000e-07	-5.378532e-06	-2.575034e-09	-3.818898e+01	-1.674840e+02
1.300000e-07	-5.373741e-06	-2.552756e-09	-3.815496e+01	-1.675659e+02
1.400000e-07	-5.368441e-06	-2.645602e-09	-3.811733e+01	-1.676642e+02
1.500000e-07	-5.362757e-06	-2.601300e-09	-3.807697e+01	-1.677787e+02
1.600000e-07	-5.356798e-06	-2.541437e-09	-3.803466e+01	-1.679087e+02
1.700000e-07	-5.350354e-06	-2.553985e-09	-3.798890e+01	-1.680538e+02
1.800000e-07	-5.343395e-06	-2.643416e-09	-3.793950e+01	-1.682127e+02
1.900000e-07	-5.336103e-06	-2.626941e-09	-3.788772e+01	-1.683843e+02
2.000000e-07	-5.328622e-06	-2.563611e-09	-3.783460e+01	-1.685672e+02
2.100000e-07	-5.320940e-06	-2.589384e-09	-3.778006e+01	-1.687596e+02
2.200000e-07	-5.313051e-06	-2.620521e-09	-3.772404e+01	-1.689597e+02
2.300000e-07	-5.304924e-06	-2.607487e-09	-3.766634e+01	-1.691655e+02
2.400000e-07	-5.296413e-06	-2.575540e-09	-3.760591e+01	-1.693749e+02
2.500000e-07	-5.287158e-06	-2.635087e-09	-3.754020e+01	-1.695856e+02
2.600000e-07	-5.277065e-06	-2.630910e-09	-3.746853e+01	-1.697956e+02
2.700000e-07	-5.266518e-06	-2.607688e-09	-3.739365e+01	-1.700025e+02
2.800000e-07	-5.255518e-06	-2.598287e-09	-3.731554e+01	-1.702041e+02
2.900000e-07	-5.244134e-06	-2.645045e-09	-3.723472e+01	-1.703982e+02
3.000000e-07	-5.232336e-06	-2.598655e-09	-3.715095e+01	-1.705829e+02
3.100000e-07	-5.220104e-06	-2.592087e-09	-3.706410e+01	-1.707561e+02
3.200000e-07	-5.207543e-06	-2.616683e-09	-3.697491e+01	-1.709160e+02
3.300000e-07	-5.194608e-06	-2.645885e-09	-3.688307e+01	-1.710612e+02
3.400000e-07	-5.181264e-06	-2.592412e-09	-3.678832e+01	-1.711902e+02
3.500000e-07	-5.167511e-06	-2.610389e-09	-3.669068e+01	-1.713018e+02
3.600000e-07	-5.153323e-06	-2.622727e-09	-3.658993e+01	-1.713950e+02
3.700000e-07	-5.138741e-06	-2.624061e-09	-3.648640e+01	-1.714693e+02
3.800000e-07	-5.123635e-06	-2.599078e-09	-3.637914e+01	-1.715240e+02
3.900000e-07	-5.107973e-06	-2.614486e-09	-3.626793e+01	-1.715589e+02
4.000000e-07	-5.091697e-06	-2.601317e-09	-3.615237e+01	-1.715742e+02
4.100000e-07	-5.074849e-06	-2.601604e-09	-3.603275e+01	-1.715699e+02
4.200000e-07	-5.057760e-06	-2.612439e-09	-3.591141e+01	-1.715465e+02
4.300000e-07	-5.040473e-06	-2.606653e-09	-3.578867e+01	-1.715047e+02
4.400000e-07	-5.022984e-06	-2.586433e-09	-3.566449e+01	-1.714453e+02
4.500000e-07	-5.005205e-06	-2.589658e-09	-3.553826e+01	-1.713692e+02
4.600000e-07	-4.986941e-06	-2.606928e-09	-3.540858e+01	-1.712775e+02
4.700000e-07	-4.968253e-06	-2.592242e-09	-3.527589e+01	-1.711713e+02
4.800000e-07	-4.949247e-06	-2.587865e-09	-3.514094e+01	-1.710520e+02
4.900000e-07	-4.929869e-06	-2.589625e-09	-3.500336e+01	-1.709208e+02
5.000000e-07	-4.910189e-06	-2.606238e-09	-3.486362e+01	-1.707790e+02
5.100000e-07	-4.890330e-06	-2.596340e-09	-3.472262e+01	-1.706280e+02
5.200000e-07	-4.870303e-06	-2.591033e-09	-3.458042e+01	-1.704689e+02
5.300000e-07	-4.850004e-06	-2.579467e-09	-3.443629e+01	-1.703032e+02
5.400000e-07	-4.829341e-06	-2.595659e-09	-3.428958e+01	-1.701318e+02
5.500000e-07	-4.808298e-06	-2.584714e-09	-3.414017e+01	-1.699559e+02
5.600000e-07	-4.786902e-06	-2.578743e-09	-3.398825e+01	-1.697766e+02
5.700000e-07	-4.765204e-06	-2.567142e-09	-3.383419e+01	-1.695945e+02
5.800000e-07	-4.743200e-06	-2.573476e-09	-3.367795e+01	-1.694105e+02
5.900000e-07	-4.720852e-06	-2.564613e-09	-3.351927e+01	-1.692253e+02
6.000000e-07	-4.698138e-06	-2.568845e-09	-3.335800e+01	-1.690392e+02
6.100000e-07	-4.675095e-06	-2.555698e-09	-3.319439e+01	-1.688528e+02
6.200000e-07	-4.651792e-06	-2.553698e-09	-3.302893e+01	-1.686662e+02
6.300000e-07	-4.628193e-06	-2.551658e-09	-3.286138e+01	-1.684796e+02
6.400000e-07	-4.604381e-06	-2.555431e-09	-3.269230e+01	-1.682931e+02
6.500000e-07	-4.580351e-06	-2.538357e-09	-3.252168e+01	-1.681066e+02
6.600000e-07	-4.556145e-06	-2.536098e-09	-3.234982e+01	-1.679200e+02
6.700000e-07	-4.531595e-06	-2.536723e-09	-3.217550e+01	-1.677331e+02
6.800000e-07	-4.506475e-06	-2.536228e-09	-3.199714e+01	-1.675457e+02
6.900000e-07	-4.480811e-06	-2.523841e-09	-3.181493e+01	-1.673575e+02
7.000000e-07	-4.454586e-06	-2.516774e-09	-3.162872e+01	-1.671682e+02
7.100000e-07	-4.427903e-06	-2.511400e-09	-3.143926e+01	-1.669774e+02
7.200000e-07	-4.400797e-06	-2.509056e-09	-3.124681e+01	-1.667849e+02
7.300000e-07	-4.373366e-06	-2.505465e-09	-3.105203e+01	-1.665903e+02
7.400000e-07	-4.345713e-06	-2.497549e-09	-3.085569e+01	-1.663933e+02
7.500000e-07	-4.317895e-06	-2.494052e-09	-3.065818e+01	-1.661936e+02
7.600000e-07	-4.289901e-06	-2.491915e-09	-3.045941e+01	-1.659909e+02
7.700000e-07	-4.261695e-06	-2.488691e-09	-3.025914e+01	-1.657851e+02
7.800000e-07	-4.233279e-06	-2.477863e-09	-3.005738e+01	-1.655759e+02
7.900000e-07	-4.204539e-06	-2.473915e-09	-2.985332e+01	-1.653632e+02
8.000000e-07	-4.175451e-06	-2.468584e-09	-2.964679e+01	-1.651468e+02
8.100000e-07	-4.145956e-06	-2.469479e-09	-2.943737e+01	-1.649266e+02
8.200000e-07	-4.116139e-06	-2.465204e-09	-2.922566e+01	-1.647025e+02
8.300000e-07	-4.086184e-06	-2.465899e-09	-2.901297e+01	-1.644745e+02
8.400000e-07	-4.056018e-06	-2.461127e-09	-2.879878e+01	-1.642425e+02
8.500000e-07	-4.025612e-06	-2.460286e-09	-2.858289e+01	-1.640065e+02
8.600000e-07	-3.994861e-06	-2.447515e-09	-2.836455e+01	-1.637664e+02
8.700000e-07	-3.963712e-06	-2.439009e-09	-2.814338e+01	-1.635221e+02
8.800000e-07	-3.932323e-06	-2.430130e-09	-2.792052e+01	-1.632738e+02
8.900000e-07	-3.900806e-06	-2.430765e-09	-2.769674e+01	-1.630211e+02
9.000000e-07	-3.869150e-06	-2.426287e-09	-2.747197e+01	-1.627642e+02
9.100000e-07	-3.837308e-06	-2.426876e-09	-2.724589e+01	-1.625028e+02
9.200000e-07	-3.805292e-06	-2.424594e-09	-2.701856e+01	-1.622368e+02
9.300000e-07	-3.773075e-06	-2.426257e-09	-2.678982e+01	-1.619661e+02
9.400000e-07	-3.740505e-06	-2.420246e-09	-2.655856e+01	-1.616905e+02
9.500000e-07	-3.707633e-06	-2.413696e-09	-2.632516e+01	-1.614099e+02
9.600000e-07	-3.674491e-06	-2.404256e-09	-2.608985e+01	-1.611240e+02
9.700000e-07	-3.640968e-06	-2.399675e-09	-2.585182e+01	-1.608325e+02
9.800000e-07	-3.606908e-06	-2.394678e-09	-2.560998e+01	-1.605354e+02
9.900000e-07	-3.572271e-06	-2.391816e-09	-2.536406e+01	-1.602324e+02
1.000000e-06	-3.537227e-06	-2.389510e-09	-2.511523e+01	-1.599233e+02
1.010000e-06	-3.501871e-06	-2.390359e-09	-2.486420e+01	-1.596079e+02
1.020000e-06	-3.466298e-06	-2.388334e-09	-2.461162e+01	-1.592861e+02
1.030000e-06	-3.430562e-06	-2.377940e-09	-2.435788e+01	-1.589577e+02
1.040000e-06	-3.394696e-06	-2.366549e-09	-2.410322e+01	-1.586227e+02
1.050000e-06	-3.358719e-06	-2.357606e-09	-2.384778e+01	-1.582811e+02
1.060000e-06	-3.322550e-06	-2.350164e-09	-2.359097e+01	-1.579327e+02
1.070000e-06	-3.286202e-06	-2.340437e-09	-2.333289e+01	-1.575778e+02
1.080000e-06	-3.249719e-06	-2.333916e-09	-2.307385e+01	-1.572164e+02
1.090000e-06	-3.212980e-06	-2.329397e-09	-2.281300e+01	-1.568487e+02
1.100000e-06	-3.175928e-06	-2.329582e-09	-2.254992e+01	-1.564749e+02
1.110000e-06	-3.138555e-06	-2.324628e-09	-2.228455e+01	-1.560952e+02
1.120000e-06	-3.100903e-06	-2.320305e-09	-2.201722e+01	-1.557101e+02
1.130000e-06	-3.063033e-06	-2.315509e-09	-2.174833e+01	-1.553197e+02
1.140000e-06	-3.025029e-06	-2.313675e-09	-2.147850e+01	-1.549245e+02
1.150000e-06	-2.986917e-06	-2.306337e-09	-2.120789e+01	-1.545248e+02
1.160000e-06	-2.948602e-06	-2.296174e-09	-2.093584e+01	-1.541210e+02
1.170000e-06	-2.910070e-06	-2.283742e-09	-2.066226e+01	-1.537133e+02
1.180000e-06	-2.871284e-06	-2.278648e-09	-2.038686e+01	-1.533022e+02
1.190000e-06	-2.832209e-06	-2.273776e-09	-2.010942e+01	-1.528880e+02
1.200000e-06	-2.792946e-06	-2.267451e-09	-1.983064e+01	-1.524707e+02
1.210000e-06	-2.753563e-06	-2.256400e-09	-1.955102e+01	-1.520506e+02
1.220000e-06	-2.714025e-06	-2.250624e-09	-1.927029e+01	-1.516277e+02
1.230000e-06	-2.674315e-06	-2.245449e-09	-1.898833e+01	-1.512019e+02
1.240000e-06	-2.634499e-06	-2.238334e-09	-1.870563e+01	-1.507732e+02
1.250000e-06	-2.594600e-06	-2.225039e-09	-1.842234e+01	-1.503413e+02
1.260000e-06	-2.554614e-06	-2.212818e-09	-1.813842e+01	-1.499058e+02
1.270000e-06	-2.514491e-06	-2.205027e-09	-1.785354e+01	-1.494663e+02
1.280000e-06	-2.474268e-06	-2.200839e-09	-1.756794e+01	-1.490220e+02
1.290000e-06	-2.434000e-06	-2.193508e-09	-1.728203e+01	-1.485723e+02
1.300000e-06	-2.393571e-06	-2.184773e-09	-1.699498e+01	-1.481164e+02
1.310000e-06	-2.352851e-06	-2.180903e-09	-1.670586e+01	-1.476533e+02
1.320000e-06	-2.311845e-06	-2.176363e-09	-1.641470e+01	-1.471819e+02
1.330000e-06	-2.270655e-06	-2.166128e-09	-1.612224e+01	-1.467011e+02
1.340000e-06	-2.229232e-06	-2.153110e-09	-1.582813e+01	-1.462098e+02
1.350000e-06	-2.187537e-06	-2.141108e-09	-1.553208e+01	-1.457067e+02
1.360000e-06	-2.145442e-06	-2.128168e-09	-1.523320e+01	-1.451906e+02
1.370000e-06	-2.103001e-06	-2.116539e-09	-1.493186e+01	-1.446602e+02
1.380000e-06	-2.060352e-06	-2.102917e-09	-1.462903e+01	-1.441141e+02
1.390000e-06	-2.017437e-06	-2.092324e-09	-1.432433e+01	-1.435513e+02
1.400000e-06	-1.974432e-06	-2.088746e-09	-1.401898e+01	-1.429704e+02
1.410000e-06	-1.931328e-06	-2.085446e-09	-1.371293e+01	-1.423705e+02
1.420000e-06	-1.888025e-06	-2.070975e-09	-1.340547e+01	-1.417503e+02
1.430000e-06	-1.844568e-06	-2.053706e-09	-1.309691e+01	-1.411091e+02
1.440000e-06	-1.800905e-06	-2.039270e-09	-1.278690e+01	-1.404461e+02
1.450000e-06	-1.757068e-06	-2.028870e-09	-1.247564e+01	-1.397604e+02
1.460000e-06	-1.713206e-06	-2.014545e-09	-1.216421e+01	-1.390516e+02
1.470000e-06	-1.669294e-06	-1.996433e-09	-1.185242e+01	-1.383193e+02
1.480000e-06	-1.625278e-06	-1.980356e-09	-1.153990e+01	-1.375631e+02
1.490000e-06	-1.581210e-06	-1.970134e-09	-1.122700e+01	-1.367830e+02
1.500000e-06	-1.537085e-06	-1.958148e-09	-1.091371e+01	-1.359788e+02
1.510000e-06	-1.492961e-06	-1.942679e-09	-1.060041e+01	-1.351506e+02
1.520000e-06	-1.448829e-06	-1.929383e-09	-1.028706e+01	-1.342987e+02
1.530000e-06	-1.404573e-06	-1.921355e-09	-9.972830e+00	-1.334233e+02
1.540000e-06	-1.360196e-06	-1.913059e-09	-9.657745e+00	-1.325247e+02
1.550000e-06	-1.315744e-06	-1.899783e-09	-9.342123e+00	-1.316033e+02
1.560000e-06	-1.271249e-06	-1.881102e-09	-9.026195e+00	-1.306593e+02
1.570000e-06	-1.226629e-06	-1.863917e-09	-8.709387e+00	-1.296933e+02
1.580000e-06	-1.181871e-06	-1.849517e-09	-8.391589e+00	-1.287055e+02
1.590000e-06	-1.137114e-06	-1.834350e-09	-8.073809e+00	-1.276961e+02
1.600000e-06	-1.092268e-06	-1.816110e-09	-7.755391e+00	-1.266653e+02
1.610000e-06	-1.047287e-06	-1.801922e-09	-7.436012e+00	-1.256131e+02
1.620000e-06	-1.002171e-06	-1.793227e-09	-7.115674e+00	-1.245395e+02
1.630000e-06	-9.569549e-07	-1.781276e-09	-6.794629e+00	-1.234441e+02
1.640000e-06	-9.117097e-07	-1.764271e-09	-6.473376e+00	-1.223264e+02
1.650000e-06	-8.663787e-07	-1.746267e-09	-6.151514e+00	-1.211859e+02
1.660000e-06	-8.209418e-07	-1.728356e-09	-5.828901e+00	-1.200216e+02
1.670000e-06	-7.754479e-07	-1.707690e-09	-5.505882e+00	-1.188325e+02
1.680000e-06	-7.299949e-07	-1.683750e-09	-5.183154e+00	-1.176173e+02
1.690000e-06	-6.845460e-07	-1.660729e-09	-4.860455e+00	-1.163745e+02
1.700000e-06	-6.390038e-07	-1.647493e-09	-4.537093e+00	-1.151023e+02
1.710000e-06	-5.933622e-07	-1.635963e-09	-4.213026e+00	-1.137988e+02
1.720000e-06	-5.477330e-07	-1.617044e-09	-3.889046e+00	-1.124620e+02
1.730000e-06	-5.020258e-07	-1.594659e-09	-3.564514e+00	-1.110897e+02
1.740000e-06	-4.563343e-07	-1.573429e-09	-3.240092e+00	-1.096794e+02
1.750000e-06	-4.106308e-07	-1.549469e-09	-2.915586e+00	-1.082287e+02
1.760000e-06	-3.647281e-07	-1.522496e-09	-2.589664e+00	-1.067351e+02
1.770000e-06	-3.188393e-07	-1.495323e-09	-2.263842e+00	-1.051959e+02
1.780000e-06	-2.729388e-07	-1.473719e-09	-1.937937e+00	-1.036086e+02
1.790000e-06	-2.270571e-07	-1.456515e-09	-1.612164e+00	-1.019707e+02
1.800000e-06	-1.811427e-07	-1.436323e-09	-1.286160e+00	-1.002797e+02
1.810000e-06	-1.351622e-07	-1.410066e-09	-9.596866e-01	-9.853328e+01
1.820000e-06	-8.923388e-08	-1.382674e-09	-6.335838e-01	-9.672915e+01
1.830000e-06	-4.329975e-08	-1.356639e-09	-3.074395e-01	-9.486532e+01
1.840000e-06	2.650530e-09	-1.329254e-09	1.881945e-02	-9.293997e+01
1.850000e-06	4.855280e-08	-1.295746e-09	3.447375e-01	-9.095151e+01
1.860000e-06	9.438632e-08	-1.260877e-09	6.701674e-01	-8.889864e+01
1.870000e-06	1.402285e-07	-1.227557e-09	9.956589e-01	-8.678029e+01
1.880000e-06	1.861064e-07	-1.195941e-09	1.321404e+00	-8.459574e+01
1.890000e-06	2.319577e-07	-1.163228e-09	1.646960e+00	-8.234455e+01
1.900000e-06	2.777749e-07	-1.129404e-09	1.972274e+00	-8.002660e+01
1.910000e-06	3.235797e-07	-1.094367e-09	2.297500e+00	-7.764209e+01
1.920000e-06	3.694071e-07	-1.056849e-09	2.622887e+00	-7.519152e+01
1.930000e-06	4.152145e-07	-1.019152e-09	2.948131e+00	-7.267572e+01
1.940000e-06	4.609935e-07	-9.798540e-10	3.273174e+00	-7.009578e+01
1.950000e-06	5.067923e-07	-9.408304e-10	3.598357e+00	-6.745309e+01
1.960000e-06	5.524722e-07	-9.020255e-10	3.922697e+00	-6.474927e+01
1.970000e-06	5.980375e-07	-8.611480e-10	4.246222e+00	-6.198621e+01
1.980000e-06	6.435780e-07	-8.181140e-10	4.569571e+00	-5.916596e+01
1.990000e-06	6.890549e-07	-7.738422e-10	4.892469e+00	-5.629078e+01
2.000000e-06	7.344823e-07	-7.301828e-10	5.215015e+00	-5.336308e+01
2.010000e-06	7.799530e-07	-6.868860e-10	5.537869e+00	-5.038537e+01
2.020000e-06	8.254232e-07	-6.429712e-10	5.860719e+00	-4.736027e+01
2.030000e-06	8.707492e-07	-5.975450e-10	6.182546e+00	-4.429047e+01
2.040000e-06	9.159565e-07	-5.488305e-10	6.503530e+00	-4.117868e+01
2.050000e-06	9.610434e-07	-5.008137e-10	6.823658e+00	-3.802764e+01
2.060000e-06	1.006011e-06	-4.549091e-10	7.142941e+00	-3.484008e+01
2.070000e-06	1.050911e-06	-4.099280e-10	7.461739e+00	-3.161872e+01
2.080000e-06	1.095707e-06	-3.640718e-10	7.779801e+00	-2.836620e+01
2.090000e-06	1.140474e-06	-3.185446e-10	8.097665e+00	-2.508515e+01
2.100000e-06	1.185245e-06	-2.736647e-10	8.415546e+00	-2.177813e+01
2.110000e-06	1.229925e-06	-2.265834e-10	8.732785e+00	-1.844762e+01
2.120000e-06	1.274470e-06	-1.750828e-10	9.049072e+00	-1.509606e+01
2.130000e-06	1.318916e-06	-1.211455e-10	9.364646e+00	-1.172581e+01
2.140000e-06	1.363263e-06	-6.676284e-11	9.679519e+00	-8.339195e+00
2.150000e-06	1.407463e-06	-1.277540e-11	9.993351e+00	-4.938474e+00
2.160000e-06	1.451586e-06	3.827236e-11	1.030664e+01	-1.525888e+00
2.170000e-06	1.495694e-06	8.598218e-11	1.061981e+01	1.896348e+00
2.180000e-06	1.539761e-06	1.333056e-10	1.093270e+01	5.326020e+00
2.190000e-06	1.583774e-06	1.810769e-10	1.124520e+01	8.760905e+00
2.200000e-06	1.627714e-06	2.296344e-10	1.155719e+01	1.219875e+01
2.210000e-06	1.671586e-06	2.816091e-10	1.186870e+01	1.563727e+01
2.220000e-06	1.715426e-06	3.373972e-10	1.217997e+01	1.907411e+01
2.230000e-06	1.759237e-06	3.932901e-10	1.249104e+01	2.250684e+01
2.240000e-06	1.802970e-06	4.441136e-10	1.280156e+01	2.593296e+01
2.250000e-06	1.846575e-06	4.906818e-10	1.311116e+01	2.934989e+01
2.260000e-06	1.890066e-06	5.368013e-10	1.341996e+01	3.275493e+01
2.270000e-06	1.933378e-06	5.832389e-10	1.372748e+01	3.614530e+01
2.280000e-06	1.976420e-06	6.287491e-10	1.403310e+01	3.951812e+01
2.290000e-06	2.019298e-06	6.741401e-10	1.433754e+01	4.287042e+01
2.300000e-06	2.062040e-06	7.241013e-10	1.464102e+01	4.619915e+01
2.310000e-06	2.104584e-06	7.742665e-10	1.494309e+01	4.950119e+01
2.320000e-06	2.146993e-06	8.213521e-10	1.524421e+01	5.277339e+01
2.330000e-06	2.189157e-06	8.664608e-10	1.554358e+01	5.601253e+01
2.340000e-06	2.230935e-06	9.116453e-10	1.584022e+01	5.921541e+01
2.350000e-06	2.272392e-06	9.587173e-10	1.613457e+01	6.237884e+01
2.360000e-06	2.313579e-06	1.003083e-09	1.642701e+01	6.549968e+01
2.370000e-06	2.354451e-06	1.044221e-09	1.671722e+01	6.857484e+01
2.380000e-06	2.395134e-06	1.084311e-09	1.700607e+01	7.160136e+01
2.390000e-06	2.435680e-06	1.125873e-09	1.729396e+01	7.457640e+01
2.400000e-06	2.476045e-06	1.164464e-09	1.758057e+01	7.749727e+01
2.410000e-06	2.516250e-06	1.200475e-09	1.786603e+01	8.036149e+01
2.420000e-06	2.556315e-06	1.237763e-09	1.815050e+01	8.316678e+01
2.430000e-06	2.596254e-06	1.280866e-09	1.843408e+01	8.591110e+01
2.440000e-06	2.636061e-06	1.326753e-09	1.871672e+01	8.859268e+01
2.450000e-06	2.675834e-06	1.365801e-09	1.899912e+01	9.121001e+01
2.460000e-06	2.715519e-06	1.399763e-09	1.928089e+01	9.376190e+01
2.470000e-06	2.754997e-06	1.433375e-09	1.956119e+01	9.624741e+01
2.480000e-06	2.794210e-06	1.465848e-09	1.983962e+01	9.866596e+01
2.490000e-06	2.833214e-06	1.496013e-09	2.011656e+01	1.010172e+02
2.500000e-06	2.872060e-06	1.525326e-09	2.039237e+01	1.033013e+02
2.510000e-06	2.910776e-06	1.559359e-09	2.066727e+01	1.055183e+02
2.520000e-06	2.949312e-06	1.598538e-09	2.094088e+01	1.076689e+02
2.530000e-06	2.987585e-06	1.633893e-09	2.121263e+01	1.097540e+02
2.540000e-06	3.025616e-06	1.660739e-09	2.148266e+01	1.117746e+02
2.550000e-06	3.063444e-06	1.686025e-09	2.175125e+01	1.137319e+02
2.560000e-06	3.101042e-06	1.713720e-09	2.201821e+01	1.156275e+02
2.570000e-06	3.138443e-06	1.739380e-09	2.228376e+01	1.174630e+02
2.580000e-06	3.175703e-06	1.761861e-09	2.254832e+01	1.192402e+02
2.590000e-06	3.212783e-06	1.785569e-09	2.281160e+01	1.209609e+02
2.600000e-06	3.249556e-06	1.814440e-09	2.307269e+01	1.226271e+02
2.610000e-06	3.285952e-06	1.843088e-09	2.333111e+01	1.242406e+02
2.620000e-06	3.322193e-06	1.868980e-09	2.358843e+01	1.258035e+02
2.630000e-06	3.358323e-06	1.892847e-09	2.384497e+01	1.273177e+02
2.640000e-06	3.394321e-06	1.918370e-09	2.410056e+01	1.287851e+02
2.650000e-06	3.430201e-06	1.939577e-09	2.435532e+01	1.302075e+02
2.660000e-06	3.465918e-06	1.953721e-09	2.460892e+01	1.315865e+02
2.670000e-06	3.501431e-06	1.966104e-09	2.486107e+01	1.329238e+02
2.680000e-06	3.536683e-06	1.980211e-09	2.511137e+01	1.342209e+02
2.690000e-06	3.571674e-06	1.996524e-09	2.535982e+01	1.354790e+02
2.700000e-06	3.606334e-06	2.014712e-09	2.560591e+01	1.366994e+02
2.710000e-06	3.640595e-06	2.039222e-09	2.584917e+01	1.378831e+02
2.720000e-06	3.674397e-06	2.069430e-09	2.608917e+01	1.390310e+02
2.730000e-06	3.707723e-06	2.096148e-09	2.632580e+01	1.401440e+02
2.740000e-06	3.740598e-06	2.110230e-09	2.655922e+01	1.412226e+02
2.750000e-06	3.773081e-06	2.115942e-09	2.678985e+01	1.422674e+02
2.760000e-06	3.805302e-06	2.122392e-09	2.701863e+01	1.432788e+02
2.770000e-06	3.837336e-06	2.131601e-09	2.724609e+01	1.442574e+02
2.780000e-06	3.869231e-06	2.142384e-09	2.747254e+01	1.452032e+02
2.790000e-06	3.900995e-06	2.158812e-09	2.769808e+01	1.461168e+02
2.800000e-06	3.932553e-06	2.182714e-09	2.792215e+01	1.469983e+02
2.810000e-06	3.963867e-06	2.208268e-09	2.814449e+01	1.478480e+02
2.820000e-06	3.994875e-06	2.222172e-09	2.836465e+01	1.486663e+02
2.830000e-06	4.025540e-06	2.224106e-09	2.858238e+01	1.494534e+02
2.840000e-06	4.055925e-06	2.223970e-09	2.879812e+01	1.502098e+02
2.850000e-06	4.086063e-06	2.228511e-09	2.901211e+01	1.509360e+02
2.860000e-06	4.116005e-06	2.237043e-09	2.922471e+01	1.516324e+02
2.870000e-06	4.145648e-06	2.248630e-09	2.943518e+01	1.522998e+02
2.880000e-06	4.174968e-06	2.263889e-09	2.964336e+01	1.529389e+02
2.890000e-06	4.204056e-06	2.279433e-09	2.984989e+01	1.535505e+02
2.900000e-06	4.232899e-06	2.289284e-09	3.005468e+01	1.541355e+02
