# Temperatura_=_10.82
# Concentracion g/m^3_=_4090.0
# C_Vs_to_Am_M_A/Vsm_=_65563218390.804596
# pendiente_HvsI_1/m_=_3716.3
# ordenada_HvsI_A/m_=_1297.0
# frecuencia_Hz_=_135082.5910210044

Tiempo_(s)	Campo_(V.s)	Magnetizacion_(V.s)	Campo_(kA/m)	Magnetizacion_(A/m)
0.000000e+00	-5.400907e-06	-2.624951e-09	-3.839670e+01	-1.682312e+02
1.000000e-08	-5.400976e-06	-2.622405e-09	-3.839719e+01	-1.682176e+02
2.000000e-08	-5.400875e-06	-2.616011e-09	-3.839647e+01	-1.682056e+02
3.000000e-08	-5.400440e-06	-2.611742e-09	-3.839337e+01	-1.681966e+02
4.000000e-08	-5.399448e-06	-2.610677e-09	-3.838633e+01	-1.681917e+02
5.000000e-08	-5.397879e-06	-2.609093e-09	-3.837517e+01	-1.681925e+02
6.000000e-08	-5.395781e-06	-2.608382e-09	-3.836025e+01	-1.682001e+02
7.000000e-08	-5.393111e-06	-2.613414e-09	-3.834127e+01	-1.682157e+02
8.000000e-08	-5.389892e-06	-2.640325e-09	-3.831839e+01	-1.682407e+02
9.000000e-08	-5.386205e-06	-2.646348e-09	-3.829218e+01	-1.682760e+02
1.000000e-07	-5.382037e-06	-2.594285e-09	-3.826254e+01	-1.683226e+02
1.100000e-07	-5.377641e-06	-2.556867e-09	-3.823129e+01	-1.683813e+02
1.200000e-07	-5.373278e-06	-2.651969e-09	-3.820027e+01	-1.684528e+02
1.300000e-07	-5.368628e-06	-2.624251e-09	-3.816721e+01	-1.685374e+02
1.400000e-07	-5.363419e-06	-2.586975e-09	-3.813018e+01	-1.686355e+02
1.500000e-07	-5.357795e-06	-2.538093e-09	-3.809020e+01	-1.687470e+02
1.600000e-07	-5.351929e-06	-2.659626e-09	-3.804849e+01	-1.688717e+02
1.700000e-07	-5.345652e-06	-2.651517e-09	-3.800387e+01	-1.690093e+02
1.800000e-07	-5.338915e-06	-2.558549e-09	-3.795597e+01	-1.691590e+02
1.900000e-07	-5.331818e-06	-2.565492e-09	-3.790552e+01	-1.693199e+02
2.000000e-07	-5.324433e-06	-2.635656e-09	-3.785302e+01	-1.694910e+02
2.100000e-07	-5.316790e-06	-2.631116e-09	-3.779868e+01	-1.696709e+02
2.200000e-07	-5.308853e-06	-2.533210e-09	-3.774225e+01	-1.698581e+02
2.300000e-07	-5.300667e-06	-2.612203e-09	-3.768406e+01	-1.700510e+02
2.400000e-07	-5.292297e-06	-2.659255e-09	-3.762455e+01	-1.702477e+02
2.500000e-07	-5.283185e-06	-2.632418e-09	-3.755977e+01	-1.704463e+02
2.600000e-07	-5.273179e-06	-2.568639e-09	-3.748864e+01	-1.706449e+02
2.700000e-07	-5.262742e-06	-2.677632e-09	-3.741444e+01	-1.708412e+02
2.800000e-07	-5.251782e-06	-2.669006e-09	-3.733652e+01	-1.710333e+02
2.900000e-07	-5.240370e-06	-2.585787e-09	-3.725539e+01	-1.712190e+02
3.000000e-07	-5.228575e-06	-2.588677e-09	-3.717154e+01	-1.713962e+02
3.100000e-07	-5.216413e-06	-2.710041e-09	-3.708507e+01	-1.715630e+02
3.200000e-07	-5.203881e-06	-2.650900e-09	-3.699598e+01	-1.717175e+02
3.300000e-07	-5.191011e-06	-2.590090e-09	-3.690448e+01	-1.718579e+02
3.400000e-07	-5.177756e-06	-2.641599e-09	-3.681025e+01	-1.719825e+02
3.500000e-07	-5.164067e-06	-2.690132e-09	-3.671292e+01	-1.720899e+02
3.600000e-07	-5.149930e-06	-2.610776e-09	-3.661242e+01	-1.721790e+02
3.700000e-07	-5.135513e-06	-2.621937e-09	-3.650993e+01	-1.722485e+02
3.800000e-07	-5.120549e-06	-2.645132e-09	-3.640355e+01	-1.722977e+02
3.900000e-07	-5.104904e-06	-2.614531e-09	-3.629232e+01	-1.723260e+02
4.000000e-07	-5.088876e-06	-2.609900e-09	-3.617837e+01	-1.723330e+02
4.100000e-07	-5.072403e-06	-2.657151e-09	-3.606126e+01	-1.723186e+02
4.200000e-07	-5.055556e-06	-2.614289e-09	-3.594149e+01	-1.722828e+02
4.300000e-07	-5.038545e-06	-2.573140e-09	-3.582055e+01	-1.722260e+02
4.400000e-07	-5.021266e-06	-2.639451e-09	-3.569771e+01	-1.721487e+02
4.500000e-07	-5.003617e-06	-2.636269e-09	-3.557224e+01	-1.720516e+02
4.600000e-07	-4.985576e-06	-2.578080e-09	-3.544398e+01	-1.719356e+02
4.700000e-07	-4.967116e-06	-2.578482e-09	-3.531274e+01	-1.718017e+02
4.800000e-07	-4.948266e-06	-2.630501e-09	-3.517873e+01	-1.716512e+02
4.900000e-07	-4.928950e-06	-2.597018e-09	-3.504141e+01	-1.714852e+02
5.000000e-07	-4.909367e-06	-2.593141e-09	-3.490219e+01	-1.713053e+02
5.100000e-07	-4.889604e-06	-2.588561e-09	-3.476169e+01	-1.711128e+02
5.200000e-07	-4.869672e-06	-2.589665e-09	-3.461998e+01	-1.709093e+02
5.300000e-07	-4.849520e-06	-2.584987e-09	-3.447672e+01	-1.706961e+02
5.400000e-07	-4.828996e-06	-2.610181e-09	-3.433080e+01	-1.704749e+02
5.500000e-07	-4.808060e-06	-2.569033e-09	-3.418197e+01	-1.702470e+02
5.600000e-07	-4.786824e-06	-2.569068e-09	-3.403099e+01	-1.700139e+02
5.700000e-07	-4.765307e-06	-2.587976e-09	-3.387802e+01	-1.697768e+02
5.800000e-07	-4.743408e-06	-2.587952e-09	-3.372233e+01	-1.695370e+02
5.900000e-07	-4.721281e-06	-2.545338e-09	-3.356503e+01	-1.692956e+02
6.000000e-07	-4.698810e-06	-2.554659e-09	-3.340528e+01	-1.690537e+02
6.100000e-07	-4.675832e-06	-2.559744e-09	-3.324192e+01	-1.688120e+02
6.200000e-07	-4.652554e-06	-2.564173e-09	-3.307643e+01	-1.685714e+02
6.300000e-07	-4.628944e-06	-2.550877e-09	-3.290858e+01	-1.683325e+02
6.400000e-07	-4.605151e-06	-2.540022e-09	-3.273942e+01	-1.680957e+02
6.500000e-07	-4.581304e-06	-2.531366e-09	-3.256988e+01	-1.678614e+02
6.600000e-07	-4.557264e-06	-2.543873e-09	-3.239898e+01	-1.676298e+02
6.700000e-07	-4.532814e-06	-2.533391e-09	-3.222516e+01	-1.674010e+02
6.800000e-07	-4.507955e-06	-2.514496e-09	-3.204843e+01	-1.671750e+02
6.900000e-07	-4.482691e-06	-2.515104e-09	-3.186882e+01	-1.669515e+02
7.000000e-07	-4.456848e-06	-2.524309e-09	-3.168509e+01	-1.667305e+02
7.100000e-07	-4.430420e-06	-2.519803e-09	-3.149721e+01	-1.665116e+02
7.200000e-07	-4.403468e-06	-2.504239e-09	-3.130560e+01	-1.662943e+02
7.300000e-07	-4.376154e-06	-2.498750e-09	-3.111142e+01	-1.660783e+02
7.400000e-07	-4.348596e-06	-2.498137e-09	-3.091549e+01	-1.658630e+02
7.500000e-07	-4.320802e-06	-2.501927e-09	-3.071790e+01	-1.656479e+02
7.600000e-07	-4.292823e-06	-2.484528e-09	-3.051898e+01	-1.654324e+02
7.700000e-07	-4.264734e-06	-2.477441e-09	-3.031930e+01	-1.652161e+02
7.800000e-07	-4.236416e-06	-2.478558e-09	-3.011797e+01	-1.649982e+02
7.900000e-07	-4.207764e-06	-2.487408e-09	-2.991428e+01	-1.647782e+02
8.000000e-07	-4.178750e-06	-2.473739e-09	-2.970801e+01	-1.645557e+02
8.100000e-07	-4.149453e-06	-2.465936e-09	-2.949973e+01	-1.643300e+02
8.200000e-07	-4.119909e-06	-2.459860e-09	-2.928969e+01	-1.641006e+02
8.300000e-07	-4.090089e-06	-2.470192e-09	-2.907769e+01	-1.638672e+02
8.400000e-07	-4.060061e-06	-2.463917e-09	-2.886421e+01	-1.636292e+02
8.500000e-07	-4.029688e-06	-2.455986e-09	-2.864828e+01	-1.633863e+02
8.600000e-07	-3.998967e-06	-2.443312e-09	-2.842988e+01	-1.631382e+02
8.700000e-07	-3.968045e-06	-2.448970e-09	-2.821004e+01	-1.628845e+02
8.800000e-07	-3.936962e-06	-2.442939e-09	-2.798906e+01	-1.626251e+02
8.900000e-07	-3.905578e-06	-2.431008e-09	-2.776595e+01	-1.623596e+02
9.000000e-07	-3.873921e-06	-2.416946e-09	-2.754088e+01	-1.620880e+02
9.100000e-07	-3.842135e-06	-2.422616e-09	-2.731491e+01	-1.618101e+02
9.200000e-07	-3.810146e-06	-2.425069e-09	-2.708749e+01	-1.615259e+02
9.300000e-07	-3.777872e-06	-2.421629e-09	-2.685805e+01	-1.612353e+02
9.400000e-07	-3.745296e-06	-2.410068e-09	-2.662645e+01	-1.609382e+02
9.500000e-07	-3.712432e-06	-2.408762e-09	-2.639281e+01	-1.606347e+02
9.600000e-07	-3.679254e-06	-2.408255e-09	-2.615694e+01	-1.603249e+02
9.700000e-07	-3.645674e-06	-2.399242e-09	-2.591821e+01	-1.600088e+02
9.800000e-07	-3.611671e-06	-2.384832e-09	-2.567647e+01	-1.596865e+02
9.900000e-07	-3.577304e-06	-2.379274e-09	-2.543214e+01	-1.593582e+02
1.000000e-06	-3.542567e-06	-2.382839e-09	-2.518519e+01	-1.590240e+02
1.010000e-06	-3.507470e-06	-2.383349e-09	-2.493567e+01	-1.586840e+02
1.020000e-06	-3.472103e-06	-2.376700e-09	-2.468424e+01	-1.583385e+02
1.030000e-06	-3.436575e-06	-2.366162e-09	-2.443166e+01	-1.579876e+02
1.040000e-06	-3.400863e-06	-2.359938e-09	-2.417777e+01	-1.576316e+02
1.050000e-06	-3.364975e-06	-2.349574e-09	-2.392263e+01	-1.572705e+02
1.060000e-06	-3.328870e-06	-2.337281e-09	-2.366595e+01	-1.569047e+02
1.070000e-06	-3.292634e-06	-2.324092e-09	-2.340834e+01	-1.565344e+02
1.080000e-06	-3.256215e-06	-2.323703e-09	-2.314943e+01	-1.561598e+02
1.090000e-06	-3.219466e-06	-2.321090e-09	-2.288817e+01	-1.557810e+02
1.100000e-06	-3.182515e-06	-2.316878e-09	-2.262547e+01	-1.553983e+02
1.110000e-06	-3.145369e-06	-2.305331e-09	-2.236139e+01	-1.550119e+02
1.120000e-06	-3.107925e-06	-2.300982e-09	-2.209518e+01	-1.546219e+02
1.130000e-06	-3.070214e-06	-2.297328e-09	-2.182709e+01	-1.542284e+02
1.140000e-06	-3.032322e-06	-2.293715e-09	-2.155771e+01	-1.538316e+02
1.150000e-06	-2.994286e-06	-2.283467e-09	-2.128729e+01	-1.534314e+02
1.160000e-06	-2.956110e-06	-2.281349e-09	-2.101589e+01	-1.530280e+02
1.170000e-06	-2.917693e-06	-2.274649e-09	-2.074277e+01	-1.526214e+02
1.180000e-06	-2.878921e-06	-2.262262e-09	-2.046713e+01	-1.522113e+02
1.190000e-06	-2.839982e-06	-2.245744e-09	-2.019030e+01	-1.517978e+02
1.200000e-06	-2.800949e-06	-2.239701e-09	-1.991280e+01	-1.513806e+02
1.210000e-06	-2.761681e-06	-2.236560e-09	-1.963363e+01	-1.509594e+02
1.220000e-06	-2.722293e-06	-2.233012e-09	-1.935361e+01	-1.505340e+02
1.230000e-06	-2.682745e-06	-2.226382e-09	-1.907245e+01	-1.501039e+02
1.240000e-06	-2.642995e-06	-2.223284e-09	-1.878985e+01	-1.496688e+02
1.250000e-06	-2.603167e-06	-2.216549e-09	-1.850671e+01	-1.492279e+02
1.260000e-06	-2.563237e-06	-2.204627e-09	-1.822283e+01	-1.487809e+02
1.270000e-06	-2.523165e-06	-2.188551e-09	-1.793795e+01	-1.483270e+02
1.280000e-06	-2.483009e-06	-2.174870e-09	-1.765247e+01	-1.478655e+02
1.290000e-06	-2.442719e-06	-2.168352e-09	-1.736603e+01	-1.473957e+02
1.300000e-06	-2.402195e-06	-2.163267e-09	-1.707794e+01	-1.469167e+02
1.310000e-06	-2.361485e-06	-2.159841e-09	-1.678852e+01	-1.464278e+02
1.320000e-06	-2.320609e-06	-2.156052e-09	-1.649792e+01	-1.459281e+02
1.330000e-06	-2.279445e-06	-2.152518e-09	-1.620527e+01	-1.454166e+02
1.340000e-06	-2.238005e-06	-2.141670e-09	-1.591066e+01	-1.448926e+02
1.350000e-06	-2.196222e-06	-2.126352e-09	-1.561361e+01	-1.443551e+02
1.360000e-06	-2.154035e-06	-2.110273e-09	-1.531369e+01	-1.438032e+02
1.370000e-06	-2.111701e-06	-2.099988e-09	-1.501273e+01	-1.432362e+02
1.380000e-06	-2.069277e-06	-2.087259e-09	-1.471112e+01	-1.426533e+02
1.390000e-06	-2.026569e-06	-2.075229e-09	-1.440749e+01	-1.420537e+02
1.400000e-06	-1.983563e-06	-2.067713e-09	-1.410176e+01	-1.414367e+02
1.410000e-06	-1.940391e-06	-2.065583e-09	-1.379483e+01	-1.408017e+02
1.420000e-06	-1.897071e-06	-2.056620e-09	-1.348685e+01	-1.401482e+02
1.430000e-06	-1.853665e-06	-2.041306e-09	-1.317827e+01	-1.394756e+02
1.440000e-06	-1.810141e-06	-2.025236e-09	-1.286884e+01	-1.387836e+02
1.450000e-06	-1.766382e-06	-2.015112e-09	-1.255775e+01	-1.380718e+02
1.460000e-06	-1.722560e-06	-2.001513e-09	-1.224621e+01	-1.373400e+02
1.470000e-06	-1.678762e-06	-1.983129e-09	-1.193483e+01	-1.365880e+02
1.480000e-06	-1.634864e-06	-1.966198e-09	-1.162275e+01	-1.358157e+02
1.490000e-06	-1.590813e-06	-1.956745e-09	-1.130958e+01	-1.350231e+02
1.500000e-06	-1.546678e-06	-1.946199e-09	-1.099581e+01	-1.342100e+02
1.510000e-06	-1.502553e-06	-1.930437e-09	-1.068211e+01	-1.333766e+02
1.520000e-06	-1.458394e-06	-1.914535e-09	-1.036817e+01	-1.325228e+02
1.530000e-06	-1.414129e-06	-1.905174e-09	-1.005347e+01	-1.316488e+02
1.540000e-06	-1.369795e-06	-1.895448e-09	-9.738287e+00	-1.307544e+02
1.550000e-06	-1.325447e-06	-1.876460e-09	-9.423010e+00	-1.298397e+02
1.560000e-06	-1.280936e-06	-1.853319e-09	-9.106562e+00	-1.289046e+02
1.570000e-06	-1.236353e-06	-1.838499e-09	-8.789610e+00	-1.279491e+02
1.580000e-06	-1.191680e-06	-1.829708e-09	-8.472016e+00	-1.269727e+02
1.590000e-06	-1.146851e-06	-1.818232e-09	-8.153316e+00	-1.259753e+02
1.600000e-06	-1.102104e-06	-1.803215e-09	-7.835191e+00	-1.249564e+02
1.610000e-06	-1.057321e-06	-1.791477e-09	-7.516815e+00	-1.239153e+02
1.620000e-06	-1.012372e-06	-1.783220e-09	-7.197259e+00	-1.228514e+02
1.630000e-06	-9.672811e-07	-1.768776e-09	-6.876697e+00	-1.217638e+02
1.640000e-06	-9.220826e-07	-1.745317e-09	-6.555366e+00	-1.206514e+02
1.650000e-06	-8.768221e-07	-1.721920e-09	-6.233596e+00	-1.195129e+02
1.660000e-06	-8.314992e-07	-1.706017e-09	-5.911381e+00	-1.183472e+02
1.670000e-06	-7.861736e-07	-1.690168e-09	-5.589148e+00	-1.171525e+02
1.680000e-06	-7.407724e-07	-1.668671e-09	-5.266377e+00	-1.159272e+02
1.690000e-06	-6.952419e-07	-1.645462e-09	-4.942687e+00	-1.146695e+02
1.700000e-06	-6.497487e-07	-1.630773e-09	-4.619262e+00	-1.133774e+02
1.710000e-06	-6.041728e-07	-1.616998e-09	-4.295249e+00	-1.120488e+02
1.720000e-06	-5.584828e-07	-1.596811e-09	-3.970425e+00	-1.106816e+02
1.730000e-06	-5.128496e-07	-1.572133e-09	-3.646004e+00	-1.092734e+02
1.740000e-06	-4.672467e-07	-1.550522e-09	-3.321799e+00	-1.078221e+02
1.750000e-06	-4.215997e-07	-1.529961e-09	-2.997281e+00	-1.063253e+02
1.760000e-06	-3.758285e-07	-1.507200e-09	-2.671880e+00	-1.047807e+02
1.770000e-06	-3.300577e-07	-1.479679e-09	-2.346481e+00	-1.031859e+02
1.780000e-06	-2.843452e-07	-1.454801e-09	-2.021497e+00	-1.015389e+02
1.790000e-06	-2.385447e-07	-1.432847e-09	-1.695887e+00	-9.983755e+01
1.800000e-06	-1.926701e-07	-1.408580e-09	-1.369750e+00	-9.807976e+01
1.810000e-06	-1.468291e-07	-1.380195e-09	-1.043853e+00	-9.626375e+01
1.820000e-06	-1.010524e-07	-1.352823e-09	-7.184125e-01	-9.438785e+01
1.830000e-06	-5.529371e-08	-1.326330e-09	-3.930999e-01	-9.245060e+01
1.840000e-06	-9.480296e-09	-1.296774e-09	-6.739831e-02	-9.045076e+01
1.850000e-06	3.638975e-08	-1.262079e-09	2.587058e-01	-8.838732e+01
1.860000e-06	8.228495e-08	-1.226165e-09	5.849888e-01	-8.625953e+01
1.870000e-06	1.281134e-07	-1.195167e-09	9.107974e-01	-8.406689e+01
1.880000e-06	1.738880e-07	-1.162836e-09	1.236223e+00	-8.180918e+01
1.890000e-06	2.196892e-07	-1.125341e-09	1.561837e+00	-7.948646e+01
1.900000e-06	2.653618e-07	-1.089838e-09	1.886538e+00	-7.709904e+01
1.910000e-06	3.109643e-07	-1.054959e-09	2.210740e+00	-7.464752e+01
1.920000e-06	3.567308e-07	-1.015650e-09	2.536108e+00	-7.213274e+01
1.930000e-06	4.025306e-07	-9.710090e-10	2.861713e+00	-6.955580e+01
1.940000e-06	4.482182e-07	-9.286404e-10	3.186520e+00	-6.691805e+01
1.950000e-06	4.938050e-07	-8.934844e-10	3.510610e+00	-6.422102e+01
1.960000e-06	5.393103e-07	-8.604248e-10	3.834122e+00	-6.146646e+01
1.970000e-06	5.848429e-07	-8.215394e-10	4.157826e+00	-5.865630e+01
1.980000e-06	6.304306e-07	-7.749877e-10	4.481924e+00	-5.579262e+01
1.990000e-06	6.759181e-07	-7.280069e-10	4.805308e+00	-5.287763e+01
2.000000e-06	7.212641e-07	-6.817854e-10	5.127687e+00	-4.991364e+01
2.010000e-06	7.665852e-07	-6.342108e-10	5.449888e+00	-4.690307e+01
2.020000e-06	8.118872e-07	-5.841484e-10	5.771953e+00	-4.384837e+01
2.030000e-06	8.572124e-07	-5.389270e-10	6.094184e+00	-4.075206e+01
2.040000e-06	9.024206e-07	-4.980715e-10	6.415583e+00	-3.761667e+01
2.050000e-06	9.474682e-07	-4.544817e-10	6.735840e+00	-3.444474e+01
2.060000e-06	9.924925e-07	-4.047044e-10	7.055932e+00	-3.123880e+01
2.070000e-06	1.037436e-06	-3.559209e-10	7.375451e+00	-2.800137e+01
2.080000e-06	1.082278e-06	-3.101393e-10	7.694242e+00	-2.473493e+01
2.090000e-06	1.127045e-06	-2.629854e-10	8.012506e+00	-2.144194e+01
2.100000e-06	1.171704e-06	-2.135715e-10	8.329999e+00	-1.812481e+01
2.110000e-06	1.216238e-06	-1.648137e-10	8.646610e+00	-1.478592e+01
2.120000e-06	1.260782e-06	-1.163600e-10	8.963284e+00	-1.142761e+01
2.130000e-06	1.305318e-06	-6.544171e-11	9.279907e+00	-8.052215e+00
2.140000e-06	1.349689e-06	-9.966359e-12	9.595353e+00	-4.662022e+00
2.150000e-06	1.393952e-06	4.313620e-11	9.910033e+00	-1.259322e+00
2.160000e-06	1.438166e-06	9.079560e-11	1.022436e+01	2.153593e+00
2.170000e-06	1.482292e-06	1.367145e-10	1.053807e+01	5.574420e+00
2.180000e-06	1.526380e-06	1.843111e-10	1.085150e+01	9.000830e+00
2.190000e-06	1.570423e-06	2.355400e-10	1.116461e+01	1.243046e+01
2.200000e-06	1.614426e-06	2.881400e-10	1.147745e+01	1.586088e+01
2.210000e-06	1.658320e-06	3.405629e-10	1.178950e+01	1.928962e+01
2.220000e-06	1.702089e-06	3.942335e-10	1.210067e+01	2.271414e+01
2.230000e-06	1.745852e-06	4.489811e-10	1.241179e+01	2.613179e+01
2.240000e-06	1.789531e-06	4.986456e-10	1.272232e+01	2.953988e+01
2.250000e-06	1.833032e-06	5.430700e-10	1.303158e+01	3.293560e+01
2.260000e-06	1.876421e-06	5.892663e-10	1.334005e+01	3.631607e+01
2.270000e-06	1.919690e-06	6.399671e-10	1.364766e+01	3.967834e+01
2.280000e-06	1.962756e-06	6.899849e-10	1.395383e+01	4.301936e+01
2.290000e-06	2.005624e-06	7.372581e-10	1.425859e+01	4.633603e+01
2.300000e-06	2.048243e-06	7.853893e-10	1.456158e+01	4.962521e+01
2.310000e-06	2.090663e-06	8.351917e-10	1.486316e+01	5.288370e+01
2.320000e-06	2.132994e-06	8.825687e-10	1.516410e+01	5.610832e+01
2.330000e-06	2.175095e-06	9.255281e-10	1.546342e+01	5.929589e+01
2.340000e-06	2.216931e-06	9.658621e-10	1.576084e+01	6.244323e+01
2.350000e-06	2.258486e-06	1.009860e-09	1.605627e+01	6.554727e+01
2.360000e-06	2.299698e-06	1.057268e-09	1.634926e+01	6.860500e+01
2.370000e-06	2.340615e-06	1.103023e-09	1.664014e+01	7.161352e+01
2.380000e-06	2.381298e-06	1.145978e-09	1.692937e+01	7.457008e+01
2.390000e-06	2.421826e-06	1.188865e-09	1.721750e+01	7.747212e+01
2.400000e-06	2.462179e-06	1.228881e-09	1.750438e+01	8.031725e+01
2.410000e-06	2.502344e-06	1.263796e-09	1.778992e+01	8.310331e+01
2.420000e-06	2.542335e-06	1.298210e-09	1.807423e+01	8.582838e+01
2.430000e-06	2.582208e-06	1.338227e-09	1.835770e+01	8.849080e+01
2.440000e-06	2.622036e-06	1.383252e-09	1.864085e+01	9.108922e+01
2.450000e-06	2.661740e-06	1.422505e-09	1.892312e+01	9.362253e+01
2.460000e-06	2.701275e-06	1.454447e-09	1.920418e+01	9.608995e+01
2.470000e-06	2.740651e-06	1.485920e-09	1.948412e+01	9.849100e+01
2.480000e-06	2.779864e-06	1.518765e-09	1.976290e+01	1.008255e+02
2.490000e-06	2.818989e-06	1.549031e-09	2.004105e+01	1.030936e+02
2.500000e-06	2.857846e-06	1.577134e-09	2.031730e+01	1.052956e+02
2.510000e-06	2.896469e-06	1.610849e-09	2.059188e+01	1.074322e+02
2.520000e-06	2.934978e-06	1.650425e-09	2.086565e+01	1.095045e+02
2.530000e-06	2.973232e-06	1.684704e-09	2.113761e+01	1.115134e+02
2.540000e-06	3.011237e-06	1.709761e-09	2.140781e+01	1.134605e+02
2.550000e-06	3.049057e-06	1.733453e-09	2.167667e+01	1.153471e+02
2.560000e-06	3.086701e-06	1.758913e-09	2.194430e+01	1.171752e+02
2.570000e-06	3.124085e-06	1.782045e-09	2.221007e+01	1.189464e+02
2.580000e-06	3.161232e-06	1.801132e-09	2.247416e+01	1.206627e+02
2.590000e-06	3.198137e-06	1.823708e-09	2.273653e+01	1.223260e+02
2.600000e-06	3.234778e-06	1.855475e-09	2.299702e+01	1.239384e+02
2.610000e-06	3.271223e-06	1.885906e-09	2.325613e+01	1.255017e+02
2.620000e-06	3.307479e-06	1.908064e-09	2.351388e+01	1.270179e+02
2.630000e-06	3.343579e-06	1.928661e-09	2.377052e+01	1.284889e+02
2.640000e-06	3.379558e-06	1.951267e-09	2.402631e+01	1.299164e+02
2.650000e-06	3.415422e-06	1.969924e-09	2.428128e+01	1.313021e+02
2.660000e-06	3.451063e-06	1.981539e-09	2.453466e+01	1.326475e+02
2.670000e-06	3.486545e-06	1.993574e-09	2.478691e+01	1.339540e+02
2.680000e-06	3.521935e-06	2.014368e-09	2.503851e+01	1.352227e+02
2.690000e-06	3.556988e-06	2.039277e-09	2.528772e+01	1.364547e+02
2.700000e-06	3.591593e-06	2.059685e-09	2.553373e+01	1.376509e+02
2.710000e-06	3.625748e-06	2.074716e-09	2.577655e+01	1.388120e+02
2.720000e-06	3.659456e-06	2.091743e-09	2.601619e+01	1.399386e+02
2.730000e-06	3.692763e-06	2.107971e-09	2.625298e+01	1.410310e+02
2.740000e-06	3.725659e-06	2.118807e-09	2.648684e+01	1.420897e+02
2.750000e-06	3.758192e-06	2.129233e-09	2.671813e+01	1.431148e+02
2.760000e-06	3.790486e-06	2.142142e-09	2.694772e+01	1.441065e+02
2.770000e-06	3.822595e-06	2.158990e-09	2.717599e+01	1.450646e+02
2.780000e-06	3.854552e-06	2.175505e-09	2.740319e+01	1.459893e+02
2.790000e-06	3.886361e-06	2.191202e-09	2.762933e+01	1.468806e+02
2.800000e-06	3.917968e-06	2.207306e-09	2.785403e+01	1.477384e+02
2.810000e-06	3.949331e-06	2.221623e-09	2.807700e+01	1.485627e+02
2.820000e-06	3.980419e-06	2.229706e-09	2.829801e+01	1.493537e+02
2.830000e-06	4.011234e-06	2.231370e-09	2.851709e+01	1.501115e+02
2.840000e-06	4.041696e-06	2.235354e-09	2.873365e+01	1.508364e+02
2.850000e-06	4.071821e-06	2.244718e-09	2.894782e+01	1.515287e+02
2.860000e-06	4.101811e-06	2.258736e-09	2.916102e+01	1.521890e+02
2.870000e-06	4.131511e-06	2.275639e-09	2.937217e+01	1.528178e+02
2.880000e-06	4.160899e-06	2.291220e-09	2.958110e+01	1.534160e+02
2.890000e-06	4.190132e-06	2.303182e-09	2.978893e+01	1.539845e+02
2.900000e-06	4.219027e-06	2.307608e-09	2.999435e+01	1.545244e+02
