# Temperatura_=_15.27
# Concentracion g/m^3_=_4090.0
# C_Vs_to_Am_M_A/Vsm_=_65563218390.804596
# pendiente_HvsI_1/m_=_3716.3
# ordenada_HvsI_A/m_=_1297.0
# frecuencia_Hz_=_135081.31032062482

Tiempo_(s)	Campo_(V.s)	Magnetizacion_(V.s)	Campo_(kA/m)	Magnetizacion_(A/m)
0.000000e+00	-5.418669e-06	-2.666029e-09	-3.839079e+01	-1.721745e+02
1.000000e-08	-5.418952e-06	-2.665653e-09	-3.839280e+01	-1.721362e+02
2.000000e-08	-5.419019e-06	-2.664665e-09	-3.839327e+01	-1.720981e+02
3.000000e-08	-5.418752e-06	-2.663987e-09	-3.839137e+01	-1.720611e+02
4.000000e-08	-5.418097e-06	-2.660763e-09	-3.838674e+01	-1.720264e+02
5.000000e-08	-5.417060e-06	-2.655137e-09	-3.837939e+01	-1.719952e+02
6.000000e-08	-5.415534e-06	-2.652365e-09	-3.836857e+01	-1.719685e+02
7.000000e-08	-5.413229e-06	-2.662109e-09	-3.835225e+01	-1.719476e+02
8.000000e-08	-5.410266e-06	-2.705071e-09	-3.833125e+01	-1.719335e+02
9.000000e-08	-5.406819e-06	-2.706739e-09	-3.830683e+01	-1.719274e+02
1.000000e-07	-5.402861e-06	-2.588604e-09	-3.827879e+01	-1.719301e+02
1.100000e-07	-5.398739e-06	-2.501925e-09	-3.824959e+01	-1.719425e+02
1.200000e-07	-5.394572e-06	-2.687069e-09	-3.822006e+01	-1.719654e+02
1.300000e-07	-5.390097e-06	-2.762543e-09	-3.818836e+01	-1.719993e+02
1.400000e-07	-5.385035e-06	-2.619126e-09	-3.815249e+01	-1.720445e+02
1.500000e-07	-5.379477e-06	-2.467745e-09	-3.811312e+01	-1.721014e+02
1.600000e-07	-5.373742e-06	-2.684825e-09	-3.807248e+01	-1.721699e+02
1.700000e-07	-5.367553e-06	-2.817831e-09	-3.802864e+01	-1.722499e+02
1.800000e-07	-5.360764e-06	-2.603724e-09	-3.798053e+01	-1.723409e+02
1.900000e-07	-5.353643e-06	-2.444377e-09	-3.793008e+01	-1.724424e+02
2.000000e-07	-5.346464e-06	-2.614260e-09	-3.787922e+01	-1.725536e+02
2.100000e-07	-5.338970e-06	-2.724393e-09	-3.782613e+01	-1.726735e+02
2.200000e-07	-5.331064e-06	-2.560470e-09	-3.777012e+01	-1.728009e+02
2.300000e-07	-5.323014e-06	-2.561854e-09	-3.771308e+01	-1.729346e+02
2.400000e-07	-5.314742e-06	-2.722736e-09	-3.765447e+01	-1.730731e+02
2.500000e-07	-5.305806e-06	-2.715393e-09	-3.759116e+01	-1.732147e+02
2.600000e-07	-5.296030e-06	-2.552403e-09	-3.752190e+01	-1.733578e+02
2.700000e-07	-5.285773e-06	-2.671603e-09	-3.744923e+01	-1.735007e+02
2.800000e-07	-5.275038e-06	-2.770358e-09	-3.737318e+01	-1.736415e+02
2.900000e-07	-5.263777e-06	-2.617505e-09	-3.729339e+01	-1.737784e+02
3.000000e-07	-5.252190e-06	-2.539399e-09	-3.721130e+01	-1.739097e+02
3.100000e-07	-5.240312e-06	-2.761747e-09	-3.712714e+01	-1.740334e+02
3.200000e-07	-5.227914e-06	-2.759862e-09	-3.703931e+01	-1.741481e+02
3.300000e-07	-5.215098e-06	-2.575027e-09	-3.694851e+01	-1.742519e+02
3.400000e-07	-5.201933e-06	-2.591000e-09	-3.685524e+01	-1.743435e+02
3.500000e-07	-5.188322e-06	-2.750310e-09	-3.675880e+01	-1.744214e+02
3.600000e-07	-5.174359e-06	-2.675756e-09	-3.665988e+01	-1.744846e+02
3.700000e-07	-5.160139e-06	-2.620906e-09	-3.655913e+01	-1.745319e+02
3.800000e-07	-5.145434e-06	-2.669909e-09	-3.645494e+01	-1.745625e+02
3.900000e-07	-5.129997e-06	-2.666169e-09	-3.634557e+01	-1.745757e+02
4.000000e-07	-5.113972e-06	-2.626064e-09	-3.623204e+01	-1.745712e+02
4.100000e-07	-5.097575e-06	-2.685529e-09	-3.611587e+01	-1.745486e+02
4.200000e-07	-5.080758e-06	-2.654462e-09	-3.599672e+01	-1.745080e+02
4.300000e-07	-5.063553e-06	-2.566209e-09	-3.587482e+01	-1.744494e+02
4.400000e-07	-5.046145e-06	-2.644232e-09	-3.575149e+01	-1.743731e+02
4.500000e-07	-5.028458e-06	-2.718978e-09	-3.562618e+01	-1.742797e+02
4.600000e-07	-5.010355e-06	-2.627605e-09	-3.549792e+01	-1.741698e+02
4.700000e-07	-4.991927e-06	-2.567376e-09	-3.536736e+01	-1.740443e+02
4.800000e-07	-4.973090e-06	-2.649470e-09	-3.523390e+01	-1.739039e+02
4.900000e-07	-4.953889e-06	-2.659820e-09	-3.509787e+01	-1.737497e+02
5.000000e-07	-4.934386e-06	-2.615076e-09	-3.495969e+01	-1.735829e+02
5.100000e-07	-4.914573e-06	-2.591358e-09	-3.481931e+01	-1.734044e+02
5.200000e-07	-4.894620e-06	-2.617881e-09	-3.467795e+01	-1.732157e+02
5.300000e-07	-4.874482e-06	-2.643062e-09	-3.453527e+01	-1.730177e+02
5.400000e-07	-4.854063e-06	-2.661938e-09	-3.439060e+01	-1.728118e+02
5.500000e-07	-4.833216e-06	-2.599030e-09	-3.424291e+01	-1.725990e+02
5.600000e-07	-4.811992e-06	-2.576878e-09	-3.409253e+01	-1.723805e+02
5.700000e-07	-4.790497e-06	-2.616856e-09	-3.394024e+01	-1.721573e+02
5.800000e-07	-4.768750e-06	-2.635328e-09	-3.378617e+01	-1.719304e+02
5.900000e-07	-4.746734e-06	-2.575102e-09	-3.363019e+01	-1.717007e+02
6.000000e-07	-4.724356e-06	-2.562244e-09	-3.347164e+01	-1.714690e+02
6.100000e-07	-4.701554e-06	-2.588852e-09	-3.331009e+01	-1.712360e+02
6.200000e-07	-4.678292e-06	-2.618742e-09	-3.314528e+01	-1.710022e+02
6.300000e-07	-4.654715e-06	-2.597187e-09	-3.297824e+01	-1.707682e+02
6.400000e-07	-4.630957e-06	-2.559174e-09	-3.280992e+01	-1.705341e+02
6.500000e-07	-4.607043e-06	-2.548955e-09	-3.264049e+01	-1.703004e+02
6.600000e-07	-4.582957e-06	-2.584479e-09	-3.246984e+01	-1.700671e+02
6.700000e-07	-4.558501e-06	-2.577002e-09	-3.229657e+01	-1.698344e+02
6.800000e-07	-4.533593e-06	-2.533973e-09	-3.212010e+01	-1.696020e+02
6.900000e-07	-4.508185e-06	-2.525405e-09	-3.194009e+01	-1.693699e+02
7.000000e-07	-4.482299e-06	-2.560494e-09	-3.175669e+01	-1.691379e+02
7.100000e-07	-4.455968e-06	-2.571821e-09	-3.157014e+01	-1.689057e+02
7.200000e-07	-4.429169e-06	-2.544583e-09	-3.138027e+01	-1.686730e+02
7.300000e-07	-4.401979e-06	-2.521953e-09	-3.118763e+01	-1.684393e+02
7.400000e-07	-4.374468e-06	-2.529768e-09	-3.099272e+01	-1.682044e+02
7.500000e-07	-4.346796e-06	-2.544720e-09	-3.079666e+01	-1.679677e+02
7.600000e-07	-4.318965e-06	-2.519889e-09	-3.059948e+01	-1.677289e+02
7.700000e-07	-4.290867e-06	-2.490780e-09	-3.040041e+01	-1.674874e+02
7.800000e-07	-4.262464e-06	-2.497008e-09	-3.019918e+01	-1.672429e+02
7.900000e-07	-4.233774e-06	-2.523845e-09	-2.999591e+01	-1.669948e+02
8.000000e-07	-4.204779e-06	-2.513199e-09	-2.979048e+01	-1.667428e+02
8.100000e-07	-4.175469e-06	-2.488660e-09	-2.958282e+01	-1.664865e+02
8.200000e-07	-4.145921e-06	-2.478293e-09	-2.937348e+01	-1.662255e+02
8.300000e-07	-4.116145e-06	-2.495985e-09	-2.916252e+01	-1.659594e+02
8.400000e-07	-4.086118e-06	-2.492416e-09	-2.894978e+01	-1.656878e+02
8.500000e-07	-4.055650e-06	-2.468395e-09	-2.873392e+01	-1.654106e+02
8.600000e-07	-4.024805e-06	-2.446531e-09	-2.851539e+01	-1.651273e+02
8.700000e-07	-3.993899e-06	-2.461835e-09	-2.829642e+01	-1.648379e+02
8.800000e-07	-3.962790e-06	-2.472731e-09	-2.807601e+01	-1.645419e+02
8.900000e-07	-3.931355e-06	-2.457650e-09	-2.785330e+01	-1.642393e+02
9.000000e-07	-3.899681e-06	-2.430521e-09	-2.762889e+01	-1.639298e+02
9.100000e-07	-3.867797e-06	-2.436270e-09	-2.740300e+01	-1.636134e+02
9.200000e-07	-3.835765e-06	-2.448494e-09	-2.717606e+01	-1.632898e+02
9.300000e-07	-3.803613e-06	-2.440302e-09	-2.694826e+01	-1.629591e+02
9.400000e-07	-3.771205e-06	-2.415249e-09	-2.671865e+01	-1.626210e+02
9.500000e-07	-3.738421e-06	-2.413642e-09	-2.648638e+01	-1.622757e+02
9.600000e-07	-3.705218e-06	-2.424835e-09	-2.625114e+01	-1.619229e+02
9.700000e-07	-3.671612e-06	-2.422203e-09	-2.601305e+01	-1.615629e+02
9.800000e-07	-3.637595e-06	-2.400143e-09	-2.577204e+01	-1.611955e+02
9.900000e-07	-3.603228e-06	-2.389939e-09	-2.552855e+01	-1.608209e+02
1.000000e-06	-3.568511e-06	-2.400083e-09	-2.528258e+01	-1.604391e+02
1.010000e-06	-3.533358e-06	-2.405912e-09	-2.503353e+01	-1.600503e+02
1.020000e-06	-3.497874e-06	-2.392833e-09	-2.478213e+01	-1.596546e+02
1.030000e-06	-3.462215e-06	-2.376192e-09	-2.452949e+01	-1.592522e+02
1.040000e-06	-3.426447e-06	-2.374897e-09	-2.427607e+01	-1.588434e+02
1.050000e-06	-3.390497e-06	-2.376164e-09	-2.402137e+01	-1.584285e+02
1.060000e-06	-3.354368e-06	-2.364099e-09	-2.376540e+01	-1.580077e+02
1.070000e-06	-3.318124e-06	-2.344870e-09	-2.350862e+01	-1.575813e+02
1.080000e-06	-3.281694e-06	-2.342016e-09	-2.325051e+01	-1.571499e+02
1.090000e-06	-3.244959e-06	-2.344629e-09	-2.299025e+01	-1.567136e+02
1.100000e-06	-3.207883e-06	-2.338716e-09	-2.272756e+01	-1.562730e+02
1.110000e-06	-3.170538e-06	-2.319940e-09	-2.246298e+01	-1.558285e+02
1.120000e-06	-3.132990e-06	-2.310291e-09	-2.219695e+01	-1.553805e+02
1.130000e-06	-3.095290e-06	-2.310431e-09	-2.192985e+01	-1.549294e+02
1.140000e-06	-3.057426e-06	-2.309107e-09	-2.166159e+01	-1.544756e+02
1.150000e-06	-3.019322e-06	-2.293297e-09	-2.139163e+01	-1.540196e+02
1.160000e-06	-2.981039e-06	-2.281661e-09	-2.112040e+01	-1.535616e+02
1.170000e-06	-2.942604e-06	-2.277941e-09	-2.084809e+01	-1.531021e+02
1.180000e-06	-2.903982e-06	-2.275577e-09	-2.057446e+01	-1.526411e+02
1.190000e-06	-2.865146e-06	-2.260653e-09	-2.029930e+01	-1.521790e+02
1.200000e-06	-2.825961e-06	-2.248298e-09	-2.002168e+01	-1.517158e+02
1.210000e-06	-2.786577e-06	-2.243296e-09	-1.974265e+01	-1.512515e+02
1.220000e-06	-2.747119e-06	-2.240046e-09	-1.946309e+01	-1.507859e+02
1.230000e-06	-2.707479e-06	-2.227229e-09	-1.918225e+01	-1.503189e+02
1.240000e-06	-2.667732e-06	-2.215184e-09	-1.890065e+01	-1.498502e+02
1.250000e-06	-2.627905e-06	-2.207196e-09	-1.861847e+01	-1.493792e+02
1.260000e-06	-2.587909e-06	-2.200482e-09	-1.833510e+01	-1.489055e+02
1.270000e-06	-2.547749e-06	-2.187441e-09	-1.805058e+01	-1.484282e+02
1.280000e-06	-2.507479e-06	-2.172015e-09	-1.776526e+01	-1.479465e+02
1.290000e-06	-2.467070e-06	-2.162853e-09	-1.747897e+01	-1.474596e+02
1.300000e-06	-2.426537e-06	-2.157701e-09	-1.719180e+01	-1.469663e+02
1.310000e-06	-2.385833e-06	-2.149015e-09	-1.690341e+01	-1.464655e+02
1.320000e-06	-2.344898e-06	-2.136204e-09	-1.661339e+01	-1.459559e+02
1.330000e-06	-2.303713e-06	-2.126255e-09	-1.632160e+01	-1.454362e+02
1.340000e-06	-2.262289e-06	-2.118075e-09	-1.602811e+01	-1.449050e+02
1.350000e-06	-2.220566e-06	-2.107188e-09	-1.573251e+01	-1.443608e+02
1.360000e-06	-2.178513e-06	-2.092738e-09	-1.543457e+01	-1.438023e+02
1.370000e-06	-2.136215e-06	-2.082555e-09	-1.513489e+01	-1.432279e+02
1.380000e-06	-2.093652e-06	-2.076564e-09	-1.483334e+01	-1.426362e+02
1.390000e-06	-2.050799e-06	-2.069858e-09	-1.452973e+01	-1.420259e+02
1.400000e-06	-2.007733e-06	-2.057271e-09	-1.422461e+01	-1.413955e+02
1.410000e-06	-1.964458e-06	-2.044027e-09	-1.391801e+01	-1.407438e+02
1.420000e-06	-1.921069e-06	-2.030029e-09	-1.361060e+01	-1.400697e+02
1.430000e-06	-1.877608e-06	-2.017067e-09	-1.330269e+01	-1.393721e+02
1.440000e-06	-1.834029e-06	-2.003050e-09	-1.299393e+01	-1.386500e+02
1.450000e-06	-1.790324e-06	-1.990336e-09	-1.268429e+01	-1.379027e+02
1.460000e-06	-1.746454e-06	-1.978105e-09	-1.237347e+01	-1.371295e+02
1.470000e-06	-1.702532e-06	-1.966940e-09	-1.206229e+01	-1.363299e+02
1.480000e-06	-1.658559e-06	-1.950980e-09	-1.175075e+01	-1.355037e+02
1.490000e-06	-1.614495e-06	-1.933236e-09	-1.143856e+01	-1.346504e+02
1.500000e-06	-1.570327e-06	-1.917383e-09	-1.112562e+01	-1.337703e+02
1.510000e-06	-1.526137e-06	-1.904283e-09	-1.081254e+01	-1.328631e+02
1.520000e-06	-1.481881e-06	-1.888804e-09	-1.049900e+01	-1.319293e+02
1.530000e-06	-1.437522e-06	-1.873304e-09	-1.018472e+01	-1.309690e+02
1.540000e-06	-1.393112e-06	-1.860167e-09	-9.870072e+00	-1.299826e+02
1.550000e-06	-1.348565e-06	-1.849094e-09	-9.554461e+00	-1.289704e+02
1.560000e-06	-1.303925e-06	-1.836028e-09	-9.238194e+00	-1.279331e+02
1.570000e-06	-1.259212e-06	-1.819424e-09	-8.921404e+00	-1.268709e+02
1.580000e-06	-1.214414e-06	-1.802776e-09	-8.604015e+00	-1.257844e+02
1.590000e-06	-1.169518e-06	-1.788630e-09	-8.285933e+00	-1.246738e+02
1.600000e-06	-1.124465e-06	-1.775047e-09	-7.966733e+00	-1.235394e+02
1.610000e-06	-1.079350e-06	-1.759438e-09	-7.647100e+00	-1.223815e+02
1.620000e-06	-1.034222e-06	-1.739798e-09	-7.327373e+00	-1.211999e+02
1.630000e-06	-9.890371e-07	-1.719106e-09	-7.007240e+00	-1.199947e+02
1.640000e-06	-9.437909e-07	-1.699830e-09	-6.686675e+00	-1.187654e+02
1.650000e-06	-8.984257e-07	-1.680292e-09	-6.365266e+00	-1.175115e+02
1.660000e-06	-8.529611e-07	-1.661254e-09	-6.043153e+00	-1.162323e+02
1.670000e-06	-8.074401e-07	-1.642998e-09	-5.720641e+00	-1.149268e+02
1.680000e-06	-7.618062e-07	-1.624262e-09	-5.397329e+00	-1.135937e+02
1.690000e-06	-7.161405e-07	-1.601632e-09	-5.073792e+00	-1.122318e+02
1.700000e-06	-6.704613e-07	-1.576891e-09	-4.750159e+00	-1.108392e+02
1.710000e-06	-6.247518e-07	-1.554786e-09	-4.426311e+00	-1.094141e+02
1.720000e-06	-5.790353e-07	-1.536020e-09	-4.102414e+00	-1.079544e+02
1.730000e-06	-5.332387e-07	-1.515298e-09	-3.777949e+00	-1.064579e+02
1.740000e-06	-4.874137e-07	-1.495074e-09	-3.453282e+00	-1.049220e+02
1.750000e-06	-4.415958e-07	-1.474600e-09	-3.128667e+00	-1.033444e+02
1.760000e-06	-3.957840e-07	-1.452999e-09	-2.804094e+00	-1.017222e+02
1.770000e-06	-3.500447e-07	-1.427690e-09	-2.480035e+00	-1.000528e+02
1.780000e-06	-3.042221e-07	-1.401203e-09	-2.155387e+00	-9.833345e+01
1.790000e-06	-2.582099e-07	-1.374480e-09	-1.829394e+00	-9.656146e+01
1.800000e-06	-2.122036e-07	-1.348234e-09	-1.503443e+00	-9.473417e+01
1.810000e-06	-1.663076e-07	-1.322144e-09	-1.178274e+00	-9.284903e+01
1.820000e-06	-1.203904e-07	-1.297524e-09	-8.529550e-01	-9.090364e+01
1.830000e-06	-7.443742e-08	-1.269931e-09	-5.273825e-01	-8.889579e+01
1.840000e-06	-2.853780e-08	-1.238090e-09	-2.021878e-01	-8.682350e+01
1.850000e-06	1.739106e-08	-1.203752e-09	1.232141e-01	-8.468503e+01
1.860000e-06	6.336076e-08	-1.168173e-09	4.489054e-01	-8.247896e+01
1.870000e-06	1.093290e-07	-1.132975e-09	7.745859e-01	-8.020417e+01
1.880000e-06	1.552454e-07	-1.097046e-09	1.099900e+00	-7.785989e+01
1.890000e-06	2.011717e-07	-1.060723e-09	1.425284e+00	-7.544573e+01
1.900000e-06	2.471025e-07	-1.026072e-09	1.750699e+00	-7.296164e+01
1.910000e-06	2.929820e-07	-9.922879e-10	2.075751e+00	-7.040797e+01
1.920000e-06	3.388581e-07	-9.540195e-10	2.400779e+00	-6.778547e+01
1.930000e-06	3.848874e-07	-9.099211e-10	2.726893e+00	-6.509525e+01
1.940000e-06	4.308972e-07	-8.654699e-10	3.052868e+00	-6.233879e+01
1.950000e-06	4.767481e-07	-8.241878e-10	3.377718e+00	-5.951791e+01
1.960000e-06	5.225389e-07	-7.839559e-10	3.702142e+00	-5.663480e+01
1.970000e-06	5.681956e-07	-7.417882e-10	4.025615e+00	-5.369193e+01
1.980000e-06	6.138072e-07	-6.959007e-10	4.348769e+00	-5.069205e+01
1.990000e-06	6.594563e-07	-6.502462e-10	4.672189e+00	-4.763815e+01
2.000000e-06	7.050982e-07	-6.052177e-10	4.995558e+00	-4.453346e+01
2.010000e-06	7.506505e-07	-5.584072e-10	5.318292e+00	-4.138136e+01
2.020000e-06	7.961005e-07	-5.092079e-10	5.640302e+00	-3.818535e+01
2.030000e-06	8.414588e-07	-4.603797e-10	5.961661e+00	-3.494907e+01
2.040000e-06	8.868203e-07	-4.126466e-10	6.283043e+00	-3.167619e+01
2.050000e-06	9.321438e-07	-3.645688e-10	6.604156e+00	-2.837040e+01
2.060000e-06	9.774013e-07	-3.142315e-10	6.924801e+00	-2.503540e+01
2.070000e-06	1.022600e-06	-2.641268e-10	7.245030e+00	-2.167482e+01
2.080000e-06	1.067722e-06	-2.152929e-10	7.564715e+00	-1.829223e+01
2.090000e-06	1.112749e-06	-1.678939e-10	7.883730e+00	-1.489110e+01
2.100000e-06	1.157671e-06	-1.193174e-10	8.201994e+00	-1.147478e+01
2.110000e-06	1.202585e-06	-6.711626e-11	8.520209e+00	-8.046470e+00
2.120000e-06	1.247379e-06	-1.289123e-11	8.837570e+00	-4.609243e+00
2.130000e-06	1.291973e-06	4.128248e-11	9.153517e+00	-1.166001e+00
2.140000e-06	1.336401e-06	9.378613e-11	9.468282e+00	2.280510e+00
2.150000e-06	1.380764e-06	1.440744e-10	9.782590e+00	5.727704e+00
2.160000e-06	1.425145e-06	1.930386e-10	1.009703e+01	9.173142e+00
2.170000e-06	1.469496e-06	2.409562e-10	1.041125e+01	1.261453e+01
2.180000e-06	1.513748e-06	2.906908e-10	1.072477e+01	1.604970e+01
2.190000e-06	1.557891e-06	3.419088e-10	1.103752e+01	1.947660e+01
2.200000e-06	1.601974e-06	3.930510e-10	1.134984e+01	2.289328e+01
2.210000e-06	1.645982e-06	4.446883e-10	1.166164e+01	2.629783e+01
2.220000e-06	1.689908e-06	4.978124e-10	1.197285e+01	2.968843e+01
2.230000e-06	1.733774e-06	5.509869e-10	1.228363e+01	3.306327e+01
2.240000e-06	1.777538e-06	6.015303e-10	1.259370e+01	3.642056e+01
2.250000e-06	1.821250e-06	6.475634e-10	1.290340e+01	3.975849e+01
2.260000e-06	1.864926e-06	6.898636e-10	1.321284e+01	4.307524e+01
2.270000e-06	1.908491e-06	7.347213e-10	1.352149e+01	4.636891e+01
2.280000e-06	1.951889e-06	7.808221e-10	1.382896e+01	4.963759e+01
2.290000e-06	1.995085e-06	8.272961e-10	1.413500e+01	5.287927e+01
2.300000e-06	2.038142e-06	8.752617e-10	1.444006e+01	5.609188e+01
2.310000e-06	2.081033e-06	9.248112e-10	1.474393e+01	5.927326e+01
2.320000e-06	2.123670e-06	9.712490e-10	1.504601e+01	6.242120e+01
2.330000e-06	2.166021e-06	1.012088e-09	1.534607e+01	6.553341e+01
2.340000e-06	2.208131e-06	1.049837e-09	1.564441e+01	6.860754e+01
2.350000e-06	2.249894e-06	1.088991e-09	1.594030e+01	7.164120e+01
2.360000e-06	2.291336e-06	1.132852e-09	1.623391e+01	7.463197e+01
2.370000e-06	2.332517e-06	1.176688e-09	1.652567e+01	7.757745e+01
2.380000e-06	2.373376e-06	1.217496e-09	1.681516e+01	8.047521e+01
2.390000e-06	2.414056e-06	1.260198e-09	1.710337e+01	8.332290e+01
2.400000e-06	2.454528e-06	1.303733e-09	1.739011e+01	8.611824e+01
2.410000e-06	2.494813e-06	1.341569e-09	1.767553e+01	8.885902e+01
2.420000e-06	2.535059e-06	1.372365e-09	1.796066e+01	9.154319e+01
2.430000e-06	2.575293e-06	1.404712e-09	1.824572e+01	9.416882e+01
2.440000e-06	2.615419e-06	1.445411e-09	1.853001e+01	9.673418e+01
2.450000e-06	2.655328e-06	1.486596e-09	1.881276e+01	9.923775e+01
2.460000e-06	2.695118e-06	1.520894e-09	1.909467e+01	1.016782e+02
2.470000e-06	2.734835e-06	1.553976e-09	1.937606e+01	1.040545e+02
2.480000e-06	2.774348e-06	1.588976e-09	1.965601e+01	1.063659e+02
2.490000e-06	2.813667e-06	1.618383e-09	1.993458e+01	1.086118e+02
2.500000e-06	2.852866e-06	1.643358e-09	2.021230e+01	1.107919e+02
2.510000e-06	2.891819e-06	1.671647e-09	2.048828e+01	1.129064e+02
2.520000e-06	2.930510e-06	1.707351e-09	2.076240e+01	1.149556e+02
2.530000e-06	2.968951e-06	1.742832e-09	2.103476e+01	1.169400e+02
2.540000e-06	3.007149e-06	1.769963e-09	2.130538e+01	1.188605e+02
2.550000e-06	3.045136e-06	1.794204e-09	2.157452e+01	1.207183e+02
2.560000e-06	3.082939e-06	1.822137e-09	2.184235e+01	1.225147e+02
2.570000e-06	3.120563e-06	1.850543e-09	2.210891e+01	1.242513e+02
2.580000e-06	3.157993e-06	1.873071e-09	2.237410e+01	1.259298e+02
2.590000e-06	3.195259e-06	1.892538e-09	2.263813e+01	1.275521e+02
2.600000e-06	3.232295e-06	1.916975e-09	2.290052e+01	1.291202e+02
2.610000e-06	3.269037e-06	1.943387e-09	2.316084e+01	1.306363e+02
2.620000e-06	3.305475e-06	1.964520e-09	2.341899e+01	1.321026e+02
2.630000e-06	3.341762e-06	1.984391e-09	2.367609e+01	1.335211e+02
2.640000e-06	3.377916e-06	2.010236e-09	2.393224e+01	1.348943e+02
2.650000e-06	3.413895e-06	2.036866e-09	2.418714e+01	1.362241e+02
2.660000e-06	3.449752e-06	2.054734e-09	2.444119e+01	1.375127e+02
2.670000e-06	3.485460e-06	2.068034e-09	2.469417e+01	1.387621e+02
2.680000e-06	3.521007e-06	2.084477e-09	2.494602e+01	1.399742e+02
2.690000e-06	3.556298e-06	2.102272e-09	2.519605e+01	1.411507e+02
2.700000e-06	3.591198e-06	2.115250e-09	2.544332e+01	1.422933e+02
2.710000e-06	3.625753e-06	2.126179e-09	2.568814e+01	1.434034e+02
2.720000e-06	3.659947e-06	2.143747e-09	2.593040e+01	1.444823e+02
2.730000e-06	3.693633e-06	2.167616e-09	2.616906e+01	1.455310e+02
2.740000e-06	3.726773e-06	2.187675e-09	2.640386e+01	1.465505e+02
2.750000e-06	3.759520e-06	2.199978e-09	2.663587e+01	1.475416e+02
2.760000e-06	3.792043e-06	2.213499e-09	2.686629e+01	1.485048e+02
2.770000e-06	3.824357e-06	2.230200e-09	2.709523e+01	1.494406e+02
2.780000e-06	3.856511e-06	2.243586e-09	2.732304e+01	1.503494e+02
2.790000e-06	3.888470e-06	2.251200e-09	2.754947e+01	1.512313e+02
2.800000e-06	3.920214e-06	2.261480e-09	2.777437e+01	1.520865e+02
2.810000e-06	3.951789e-06	2.282021e-09	2.799807e+01	1.529151e+02
2.820000e-06	3.983089e-06	2.299335e-09	2.821983e+01	1.537170e+02
2.830000e-06	4.014081e-06	2.305953e-09	2.843940e+01	1.544922e+02
2.840000e-06	4.044724e-06	2.306112e-09	2.865651e+01	1.552407e+02
2.850000e-06	4.075043e-06	2.311994e-09	2.887132e+01	1.559626e+02
2.860000e-06	4.105119e-06	2.325611e-09	2.908440e+01	1.566579e+02
2.870000e-06	4.134901e-06	2.340243e-09	2.929541e+01	1.573267e+02
2.880000e-06	4.164457e-06	2.352318e-09	2.950481e+01	1.579692e+02
2.890000e-06	4.193847e-06	2.362293e-09	2.971304e+01	1.585856e+02
2.900000e-06	4.222955e-06	2.371922e-09	2.991926e+01	1.591765e+02
