# Temperatura_=_-2.4
# Concentracion g/m^3_=_4090.0
# C_Vs_to_Am_M_A/Vsm_=_65563218390.804596
# pendiente_HvsI_1/m_=_3716.3
# ordenada_HvsI_A/m_=_1297.0
# frecuencia_Hz_=_135071.77949643572

Tiempo_(s)	Campo_(V.s)	Magnetizacion_(V.s)	Campo_(kA/m)	Magnetizacion_(A/m)
0.000000e+00	-5.377337e-06	-2.492116e-09	-3.839702e+01	-1.579588e+02
1.000000e-08	-5.377455e-06	-2.500424e-09	-3.839787e+01	-1.579445e+02
2.000000e-08	-5.377333e-06	-2.504394e-09	-3.839699e+01	-1.579342e+02
3.000000e-08	-5.376941e-06	-2.502856e-09	-3.839419e+01	-1.579289e+02
4.000000e-08	-5.376167e-06	-2.495356e-09	-3.838867e+01	-1.579294e+02
5.000000e-08	-5.374871e-06	-2.484941e-09	-3.837941e+01	-1.579365e+02
6.000000e-08	-5.373018e-06	-2.488322e-09	-3.836618e+01	-1.579511e+02
7.000000e-08	-5.370553e-06	-2.487062e-09	-3.834858e+01	-1.579736e+02
8.000000e-08	-5.367488e-06	-2.458787e-09	-3.832669e+01	-1.580047e+02
9.000000e-08	-5.363882e-06	-2.464763e-09	-3.830095e+01	-1.580448e+02
1.000000e-07	-5.359807e-06	-2.531196e-09	-3.827185e+01	-1.580940e+02
1.100000e-07	-5.355460e-06	-2.497371e-09	-3.824081e+01	-1.581526e+02
1.200000e-07	-5.350991e-06	-2.474920e-09	-3.820889e+01	-1.582204e+02
1.300000e-07	-5.346269e-06	-2.432008e-09	-3.817518e+01	-1.582975e+02
1.400000e-07	-5.341153e-06	-2.509045e-09	-3.813865e+01	-1.583833e+02
1.500000e-07	-5.335642e-06	-2.486466e-09	-3.809930e+01	-1.584776e+02
1.600000e-07	-5.329838e-06	-2.423457e-09	-3.805785e+01	-1.585798e+02
1.700000e-07	-5.323639e-06	-2.449565e-09	-3.801359e+01	-1.586891e+02
1.800000e-07	-5.316792e-06	-2.480590e-09	-3.796470e+01	-1.588048e+02
1.900000e-07	-5.309500e-06	-2.516778e-09	-3.791263e+01	-1.589260e+02
2.000000e-07	-5.302180e-06	-2.437832e-09	-3.786036e+01	-1.590518e+02
2.100000e-07	-5.294720e-06	-2.489561e-09	-3.780709e+01	-1.591811e+02
2.200000e-07	-5.286896e-06	-2.468251e-09	-3.775123e+01	-1.593128e+02
2.300000e-07	-5.278757e-06	-2.466483e-09	-3.769310e+01	-1.594458e+02
2.400000e-07	-5.270315e-06	-2.422067e-09	-3.763283e+01	-1.595789e+02
2.500000e-07	-5.261343e-06	-2.482916e-09	-3.756876e+01	-1.597110e+02
2.600000e-07	-5.251476e-06	-2.463632e-09	-3.749831e+01	-1.598409e+02
2.700000e-07	-5.241017e-06	-2.442390e-09	-3.742362e+01	-1.599676e+02
2.800000e-07	-5.230139e-06	-2.441680e-09	-3.734595e+01	-1.600898e+02
2.900000e-07	-5.218830e-06	-2.469820e-09	-3.726520e+01	-1.602067e+02
3.000000e-07	-5.207133e-06	-2.419679e-09	-3.718168e+01	-1.603171e+02
3.100000e-07	-5.194995e-06	-2.405310e-09	-3.709501e+01	-1.604201e+02
3.200000e-07	-5.182452e-06	-2.444816e-09	-3.700544e+01	-1.605150e+02
3.300000e-07	-5.169624e-06	-2.438191e-09	-3.691384e+01	-1.606010e+02
3.400000e-07	-5.156482e-06	-2.415759e-09	-3.682000e+01	-1.606772e+02
3.500000e-07	-5.142857e-06	-2.434391e-09	-3.672271e+01	-1.607433e+02
3.600000e-07	-5.128886e-06	-2.454712e-09	-3.662295e+01	-1.607985e+02
3.700000e-07	-5.114609e-06	-2.422213e-09	-3.652100e+01	-1.608426e+02
3.800000e-07	-5.099754e-06	-2.432923e-09	-3.641494e+01	-1.608752e+02
3.900000e-07	-5.084247e-06	-2.438531e-09	-3.630420e+01	-1.608961e+02
4.000000e-07	-5.068340e-06	-2.423598e-09	-3.619062e+01	-1.609050e+02
4.100000e-07	-5.051997e-06	-2.407438e-09	-3.607393e+01	-1.609019e+02
4.200000e-07	-5.035149e-06	-2.445654e-09	-3.595362e+01	-1.608868e+02
4.300000e-07	-5.017913e-06	-2.421509e-09	-3.583055e+01	-1.608598e+02
4.400000e-07	-5.000458e-06	-2.415919e-09	-3.570591e+01	-1.608211e+02
4.500000e-07	-4.982767e-06	-2.411901e-09	-3.557959e+01	-1.607707e+02
4.600000e-07	-4.964731e-06	-2.426492e-09	-3.545080e+01	-1.607091e+02
4.700000e-07	-4.946340e-06	-2.395300e-09	-3.531947e+01	-1.606364e+02
4.800000e-07	-4.927569e-06	-2.416834e-09	-3.518544e+01	-1.605532e+02
4.900000e-07	-4.908367e-06	-2.405552e-09	-3.504833e+01	-1.604598e+02
5.000000e-07	-4.888821e-06	-2.410605e-09	-3.490876e+01	-1.603567e+02
5.100000e-07	-4.869046e-06	-2.404030e-09	-3.476756e+01	-1.602444e+02
5.200000e-07	-4.849047e-06	-2.414981e-09	-3.462475e+01	-1.601235e+02
5.300000e-07	-4.828819e-06	-2.388741e-09	-3.448031e+01	-1.599945e+02
5.400000e-07	-4.808409e-06	-2.401837e-09	-3.433458e+01	-1.598580e+02
5.500000e-07	-4.787640e-06	-2.399374e-09	-3.418627e+01	-1.597147e+02
5.600000e-07	-4.766464e-06	-2.394894e-09	-3.403507e+01	-1.595652e+02
5.700000e-07	-4.744949e-06	-2.384792e-09	-3.388144e+01	-1.594103e+02
5.800000e-07	-4.723150e-06	-2.393492e-09	-3.372578e+01	-1.592505e+02
5.900000e-07	-4.701119e-06	-2.379696e-09	-3.356847e+01	-1.590865e+02
6.000000e-07	-4.678748e-06	-2.378829e-09	-3.340872e+01	-1.589192e+02
6.100000e-07	-4.656009e-06	-2.378136e-09	-3.324636e+01	-1.587490e+02
6.200000e-07	-4.632887e-06	-2.369432e-09	-3.308125e+01	-1.585768e+02
6.300000e-07	-4.609393e-06	-2.365822e-09	-3.291350e+01	-1.584031e+02
6.400000e-07	-4.585594e-06	-2.369848e-09	-3.274356e+01	-1.582286e+02
6.500000e-07	-4.561643e-06	-2.364132e-09	-3.257253e+01	-1.580539e+02
6.600000e-07	-4.537599e-06	-2.353184e-09	-3.240085e+01	-1.578796e+02
6.700000e-07	-4.513278e-06	-2.358134e-09	-3.222718e+01	-1.577061e+02
6.800000e-07	-4.488496e-06	-2.351916e-09	-3.205023e+01	-1.575340e+02
6.900000e-07	-4.463247e-06	-2.351686e-09	-3.186994e+01	-1.573636e+02
7.000000e-07	-4.437507e-06	-2.345364e-09	-3.168614e+01	-1.571953e+02
7.100000e-07	-4.411269e-06	-2.350002e-09	-3.149879e+01	-1.570293e+02
7.200000e-07	-4.384557e-06	-2.344680e-09	-3.130805e+01	-1.568658e+02
7.300000e-07	-4.357362e-06	-2.353026e-09	-3.111386e+01	-1.567049e+02
7.400000e-07	-4.329850e-06	-2.339838e-09	-3.091741e+01	-1.565466e+02
7.500000e-07	-4.302170e-06	-2.334231e-09	-3.071976e+01	-1.563909e+02
7.600000e-07	-4.274235e-06	-2.322386e-09	-3.052029e+01	-1.562376e+02
7.700000e-07	-4.246067e-06	-2.326098e-09	-3.031916e+01	-1.560865e+02
7.800000e-07	-4.217705e-06	-2.320403e-09	-3.011664e+01	-1.559372e+02
7.900000e-07	-4.189098e-06	-2.329951e-09	-2.991237e+01	-1.557893e+02
8.000000e-07	-4.160167e-06	-2.328133e-09	-2.970579e+01	-1.556424e+02
8.100000e-07	-4.130890e-06	-2.332634e-09	-2.949674e+01	-1.554958e+02
8.200000e-07	-4.101285e-06	-2.321776e-09	-2.928534e+01	-1.553491e+02
8.300000e-07	-4.071441e-06	-2.314481e-09	-2.907224e+01	-1.552016e+02
8.400000e-07	-4.041416e-06	-2.302521e-09	-2.885784e+01	-1.550526e+02
8.500000e-07	-4.011162e-06	-2.303115e-09	-2.864181e+01	-1.549014e+02
8.600000e-07	-3.980688e-06	-2.300328e-09	-2.842421e+01	-1.547473e+02
8.700000e-07	-3.949929e-06	-2.304549e-09	-2.820457e+01	-1.545896e+02
8.800000e-07	-3.918793e-06	-2.305683e-09	-2.798225e+01	-1.544277e+02
8.900000e-07	-3.887335e-06	-2.306903e-09	-2.775762e+01	-1.542609e+02
9.000000e-07	-3.855719e-06	-2.300330e-09	-2.753187e+01	-1.540886e+02
9.100000e-07	-3.823944e-06	-2.292273e-09	-2.730498e+01	-1.539105e+02
9.200000e-07	-3.791985e-06	-2.285788e-09	-2.707677e+01	-1.537259e+02
9.300000e-07	-3.759913e-06	-2.283354e-09	-2.684776e+01	-1.535346e+02
9.400000e-07	-3.727626e-06	-2.284091e-09	-2.661721e+01	-1.533362e+02
9.500000e-07	-3.694984e-06	-2.283394e-09	-2.638413e+01	-1.531308e+02
9.600000e-07	-3.662079e-06	-2.283946e-09	-2.614918e+01	-1.529182e+02
9.700000e-07	-3.628810e-06	-2.280545e-09	-2.591162e+01	-1.526984e+02
9.800000e-07	-3.594980e-06	-2.277244e-09	-2.567005e+01	-1.524718e+02
9.900000e-07	-3.560709e-06	-2.268129e-09	-2.542534e+01	-1.522385e+02
1.000000e-06	-3.526133e-06	-2.265795e-09	-2.517845e+01	-1.519989e+02
1.010000e-06	-3.491230e-06	-2.264124e-09	-2.492923e+01	-1.517536e+02
1.020000e-06	-3.455997e-06	-2.267011e-09	-2.467764e+01	-1.515031e+02
1.030000e-06	-3.420487e-06	-2.261107e-09	-2.442408e+01	-1.512481e+02
1.040000e-06	-3.384765e-06	-2.258362e-09	-2.416901e+01	-1.509891e+02
1.050000e-06	-3.348895e-06	-2.250161e-09	-2.391287e+01	-1.507271e+02
1.060000e-06	-3.312875e-06	-2.245775e-09	-2.365567e+01	-1.504627e+02
1.070000e-06	-3.276685e-06	-2.233862e-09	-2.339726e+01	-1.501967e+02
1.080000e-06	-3.240317e-06	-2.227420e-09	-2.313757e+01	-1.499298e+02
1.090000e-06	-3.203793e-06	-2.221689e-09	-2.287677e+01	-1.496629e+02
1.100000e-06	-3.167071e-06	-2.224105e-09	-2.261456e+01	-1.493964e+02
1.110000e-06	-3.130117e-06	-2.220768e-09	-2.235069e+01	-1.491311e+02
1.120000e-06	-3.092958e-06	-2.220314e-09	-2.208535e+01	-1.488675e+02
1.130000e-06	-3.055558e-06	-2.216643e-09	-2.181830e+01	-1.486058e+02
1.140000e-06	-3.017937e-06	-2.212842e-09	-2.154966e+01	-1.483465e+02
1.150000e-06	-2.980083e-06	-2.202557e-09	-2.127937e+01	-1.480897e+02
1.160000e-06	-2.942029e-06	-2.192908e-09	-2.100764e+01	-1.478354e+02
1.170000e-06	-2.903787e-06	-2.183724e-09	-2.073457e+01	-1.475834e+02
1.180000e-06	-2.865270e-06	-2.183089e-09	-2.045954e+01	-1.473336e+02
1.190000e-06	-2.826563e-06	-2.186804e-09	-2.018315e+01	-1.470855e+02
1.200000e-06	-2.787743e-06	-2.190368e-09	-1.990595e+01	-1.468385e+02
1.210000e-06	-2.748753e-06	-2.186537e-09	-1.962755e+01	-1.465919e+02
1.220000e-06	-2.709532e-06	-2.178099e-09	-1.934749e+01	-1.463451e+02
1.230000e-06	-2.670067e-06	-2.165394e-09	-1.906568e+01	-1.460969e+02
1.240000e-06	-2.630372e-06	-2.150240e-09	-1.878224e+01	-1.458465e+02
1.250000e-06	-2.590557e-06	-2.138570e-09	-1.849794e+01	-1.455927e+02
1.260000e-06	-2.550674e-06	-2.131232e-09	-1.821316e+01	-1.453344e+02
1.270000e-06	-2.510656e-06	-2.134446e-09	-1.792741e+01	-1.450703e+02
1.280000e-06	-2.470507e-06	-2.138693e-09	-1.764072e+01	-1.447993e+02
1.290000e-06	-2.430277e-06	-2.138966e-09	-1.735346e+01	-1.445202e+02
1.300000e-06	-2.389953e-06	-2.129225e-09	-1.706552e+01	-1.442317e+02
1.310000e-06	-2.349506e-06	-2.119487e-09	-1.677671e+01	-1.439328e+02
1.320000e-06	-2.308941e-06	-2.106398e-09	-1.648706e+01	-1.436224e+02
1.330000e-06	-2.268192e-06	-2.095135e-09	-1.619609e+01	-1.432995e+02
1.340000e-06	-2.227146e-06	-2.085612e-09	-1.590300e+01	-1.429633e+02
1.350000e-06	-2.185831e-06	-2.083165e-09	-1.560799e+01	-1.426129e+02
1.360000e-06	-2.144248e-06	-2.083418e-09	-1.531106e+01	-1.422477e+02
1.370000e-06	-2.102385e-06	-2.087168e-09	-1.501213e+01	-1.418673e+02
1.380000e-06	-2.060260e-06	-2.084008e-09	-1.471134e+01	-1.414712e+02
1.390000e-06	-2.017902e-06	-2.073188e-09	-1.440888e+01	-1.410593e+02
1.400000e-06	-1.975332e-06	-2.058091e-09	-1.410491e+01	-1.406314e+02
1.410000e-06	-1.932402e-06	-2.047041e-09	-1.379837e+01	-1.401876e+02
1.420000e-06	-1.889276e-06	-2.036160e-09	-1.349042e+01	-1.397279e+02
1.430000e-06	-1.846072e-06	-2.028283e-09	-1.318193e+01	-1.392528e+02
1.440000e-06	-1.802714e-06	-2.022331e-09	-1.287233e+01	-1.387624e+02
1.450000e-06	-1.759300e-06	-2.020519e-09	-1.256233e+01	-1.382573e+02
1.460000e-06	-1.715784e-06	-2.016113e-09	-1.225160e+01	-1.377378e+02
1.470000e-06	-1.672126e-06	-2.006075e-09	-1.193986e+01	-1.372045e+02
1.480000e-06	-1.628346e-06	-1.991027e-09	-1.162725e+01	-1.366579e+02
1.490000e-06	-1.584478e-06	-1.977288e-09	-1.131401e+01	-1.360984e+02
1.500000e-06	-1.540547e-06	-1.969621e-09	-1.100032e+01	-1.355265e+02
1.510000e-06	-1.496494e-06	-1.963209e-09	-1.068575e+01	-1.349426e+02
1.520000e-06	-1.452361e-06	-1.954952e-09	-1.037063e+01	-1.343469e+02
1.530000e-06	-1.408210e-06	-1.948153e-09	-1.005536e+01	-1.337397e+02
1.540000e-06	-1.363993e-06	-1.941410e-09	-9.739628e+00	-1.331209e+02
1.550000e-06	-1.319731e-06	-1.930425e-09	-9.423572e+00	-1.324906e+02
1.560000e-06	-1.275456e-06	-1.915249e-09	-9.107430e+00	-1.318485e+02
1.570000e-06	-1.231114e-06	-1.901642e-09	-8.790804e+00	-1.311942e+02
1.580000e-06	-1.186679e-06	-1.893194e-09	-8.473517e+00	-1.305272e+02
1.590000e-06	-1.142143e-06	-1.884608e-09	-8.155500e+00	-1.298467e+02
1.600000e-06	-1.097542e-06	-1.875031e-09	-7.837028e+00	-1.291520e+02
1.610000e-06	-1.052932e-06	-1.864512e-09	-7.518487e+00	-1.284419e+02
1.620000e-06	-1.008151e-06	-1.854583e-09	-7.198731e+00	-1.277153e+02
1.630000e-06	-9.632515e-07	-1.842921e-09	-6.878123e+00	-1.269709e+02
1.640000e-06	-9.183428e-07	-1.830387e-09	-6.557452e+00	-1.262073e+02
1.650000e-06	-8.732688e-07	-1.815583e-09	-6.235599e+00	-1.254227e+02
1.660000e-06	-8.281074e-07	-1.803316e-09	-5.913124e+00	-1.246157e+02
1.670000e-06	-7.830262e-07	-1.793187e-09	-5.591220e+00	-1.237845e+02
1.680000e-06	-7.379070e-07	-1.780235e-09	-5.269045e+00	-1.229273e+02
1.690000e-06	-6.926593e-07	-1.763069e-09	-4.945952e+00	-1.220424e+02
1.700000e-06	-6.473417e-07	-1.748145e-09	-4.622361e+00	-1.211278e+02
1.710000e-06	-6.020001e-07	-1.731720e-09	-4.298598e+00	-1.201817e+02
1.720000e-06	-5.566161e-07	-1.714577e-09	-3.974533e+00	-1.192024e+02
1.730000e-06	-5.111748e-07	-1.697029e-09	-3.650057e+00	-1.181880e+02
1.740000e-06	-4.656682e-07	-1.682506e-09	-3.325117e+00	-1.171368e+02
1.750000e-06	-4.201382e-07	-1.667429e-09	-3.000008e+00	-1.160471e+02
1.760000e-06	-3.745647e-07	-1.650713e-09	-2.674590e+00	-1.149174e+02
1.770000e-06	-3.289903e-07	-1.631389e-09	-2.349164e+00	-1.137460e+02
1.780000e-06	-2.834223e-07	-1.614586e-09	-2.023785e+00	-1.125314e+02
1.790000e-06	-2.378206e-07	-1.598476e-09	-1.698164e+00	-1.112722e+02
1.800000e-06	-1.922137e-07	-1.577428e-09	-1.372507e+00	-1.099669e+02
1.810000e-06	-1.465801e-07	-1.554467e-09	-1.046659e+00	-1.086142e+02
1.820000e-06	-1.009976e-07	-1.533728e-09	-7.211759e-01	-1.072128e+02
1.830000e-06	-5.541367e-08	-1.513333e-09	-3.956828e-01	-1.057613e+02
1.840000e-06	-9.715889e-09	-1.491665e-09	-6.937657e-02	-1.042584e+02
1.850000e-06	3.600655e-08	-1.467507e-09	2.571057e-01	-1.027027e+02
1.860000e-06	8.166506e-08	-1.439889e-09	5.831316e-01	-1.010928e+02
1.870000e-06	1.272627e-07	-1.412511e-09	9.087226e-01	-9.942732e+01
1.880000e-06	1.728668e-07	-1.384348e-09	1.234360e+00	-9.770470e+01
1.890000e-06	2.184971e-07	-1.356185e-09	1.560185e+00	-9.592332e+01
1.900000e-06	2.641094e-07	-1.329136e-09	1.885881e+00	-9.408151e+01
1.910000e-06	3.096783e-07	-1.300326e-09	2.211267e+00	-9.217744e+01
1.920000e-06	3.552175e-07	-1.265951e-09	2.536440e+00	-9.020922e+01
1.930000e-06	4.007432e-07	-1.231146e-09	2.861518e+00	-8.817484e+01
1.940000e-06	4.462836e-07	-1.199411e-09	3.186700e+00	-8.607220e+01
1.950000e-06	4.917722e-07	-1.169985e-09	3.511513e+00	-8.389910e+01
1.960000e-06	5.371271e-07	-1.138764e-09	3.835370e+00	-8.165327e+01
1.970000e-06	5.823503e-07	-1.105533e-09	4.158288e+00	-7.933242e+01
1.980000e-06	6.275981e-07	-1.069939e-09	4.481382e+00	-7.693423e+01
1.990000e-06	6.728717e-07	-1.033175e-09	4.804659e+00	-7.445637e+01
2.000000e-06	7.180665e-07	-9.942648e-10	5.127373e+00	-7.189660e+01
2.010000e-06	7.632416e-07	-9.548685e-10	5.449948e+00	-6.925276e+01
2.020000e-06	8.083462e-07	-9.148486e-10	5.772018e+00	-6.652284e+01
2.030000e-06	8.534762e-07	-8.769261e-10	6.094270e+00	-6.370502e+01
2.040000e-06	8.985548e-07	-8.388312e-10	6.416155e+00	-6.079774e+01
2.050000e-06	9.434853e-07	-7.963180e-10	6.736983e+00	-5.779972e+01
2.060000e-06	9.883364e-07	-7.480229e-10	7.057243e+00	-5.471006e+01
2.070000e-06	1.033094e-06	-6.983696e-10	7.376838e+00	-5.152826e+01
2.080000e-06	1.077812e-06	-6.520064e-10	7.696145e+00	-4.825427e+01
2.090000e-06	1.122460e-06	-6.067090e-10	8.014954e+00	-4.488856e+01
2.100000e-06	1.166936e-06	-5.595802e-10	8.332538e+00	-4.143216e+01
2.110000e-06	1.211288e-06	-5.074093e-10	8.649234e+00	-3.788669e+01
2.120000e-06	1.255617e-06	-4.530200e-10	8.965770e+00	-3.425437e+01
2.130000e-06	1.299871e-06	-3.974595e-10	9.281761e+00	-3.053811e+01
2.140000e-06	1.344054e-06	-3.393323e-10	9.597254e+00	-2.674146e+01
2.150000e-06	1.388211e-06	-2.798265e-10	9.912557e+00	-2.286865e+01
2.160000e-06	1.432295e-06	-2.215545e-10	1.022734e+01	-1.892458e+01
2.170000e-06	1.476354e-06	-1.653025e-10	1.054195e+01	-1.491484e+01
2.180000e-06	1.520377e-06	-1.073701e-10	1.085629e+01	-1.084562e+01
2.190000e-06	1.564340e-06	-4.488542e-11	1.117021e+01	-6.723744e+00
2.200000e-06	1.608257e-06	1.943411e-11	1.148380e+01	-2.556605e+00
2.210000e-06	1.652127e-06	8.321157e-11	1.179705e+01	1.647892e+00
2.220000e-06	1.695948e-06	1.468522e-10	1.210996e+01	5.881383e+00
2.230000e-06	1.739650e-06	2.116520e-10	1.242202e+01	1.013511e+01
2.240000e-06	1.783224e-06	2.760459e-10	1.273316e+01	1.440000e+01
2.250000e-06	1.826720e-06	3.392116e-10	1.304375e+01	1.866675e+01
2.260000e-06	1.870025e-06	4.042828e-10	1.335297e+01	2.292591e+01
2.270000e-06	1.913094e-06	4.716729e-10	1.366050e+01	2.716796e+01
2.280000e-06	1.955964e-06	5.379663e-10	1.396661e+01	3.138343e+01
2.290000e-06	1.998684e-06	5.995696e-10	1.427166e+01	3.556297e+01
2.300000e-06	2.041165e-06	6.572081e-10	1.457499e+01	3.969746e+01
2.310000e-06	2.083327e-06	7.156506e-10	1.487605e+01	4.377807e+01
2.320000e-06	2.125242e-06	7.766157e-10	1.517535e+01	4.779638e+01
2.330000e-06	2.166897e-06	8.364684e-10	1.547279e+01	5.174447e+01
2.340000e-06	2.208274e-06	8.914178e-10	1.576824e+01	5.561494e+01
2.350000e-06	2.249445e-06	9.471698e-10	1.606223e+01	5.940103e+01
2.360000e-06	2.290384e-06	1.006368e-09	1.635455e+01	6.309666e+01
2.370000e-06	2.330977e-06	1.060890e-09	1.664441e+01	6.669649e+01
2.380000e-06	2.371378e-06	1.106615e-09	1.693289e+01	7.019593e+01
2.390000e-06	2.411674e-06	1.148597e-09	1.722062e+01	7.359120e+01
2.400000e-06	2.451824e-06	1.192242e-09	1.750732e+01	7.687932e+01
2.410000e-06	2.491858e-06	1.237754e-09	1.779318e+01	8.005814e+01
2.420000e-06	2.531812e-06	1.283497e-09	1.807847e+01	8.312631e+01
2.430000e-06	2.571676e-06	1.328936e-09	1.836312e+01	8.608329e+01
2.440000e-06	2.611396e-06	1.374755e-09	1.864675e+01	8.892928e+01
2.450000e-06	2.650966e-06	1.416089e-09	1.892930e+01	9.166521e+01
2.460000e-06	2.690479e-06	1.449950e-09	1.921144e+01	9.429271e+01
2.470000e-06	2.729824e-06	1.479114e-09	1.949238e+01	9.681399e+01
2.480000e-06	2.768899e-06	1.507669e-09	1.977140e+01	9.923184e+01
2.490000e-06	2.807753e-06	1.538081e-09	2.004884e+01	1.015495e+02
2.500000e-06	2.846327e-06	1.570717e-09	2.032428e+01	1.037707e+02
2.510000e-06	2.884682e-06	1.606947e-09	2.059815e+01	1.058995e+02
2.520000e-06	2.922942e-06	1.644592e-09	2.087135e+01	1.079400e+02
2.530000e-06	2.961079e-06	1.677296e-09	2.114367e+01	1.098968e+02
2.540000e-06	2.999048e-06	1.702158e-09	2.141479e+01	1.117744e+02
2.550000e-06	3.036827e-06	1.724589e-09	2.168454e+01	1.135774e+02
2.560000e-06	3.074339e-06	1.746123e-09	2.195240e+01	1.153103e+02
2.570000e-06	3.111576e-06	1.767721e-09	2.221829e+01	1.169774e+02
2.580000e-06	3.148530e-06	1.788615e-09	2.248216e+01	1.185831e+02
2.590000e-06	3.185255e-06	1.810917e-09	2.274440e+01	1.201313e+02
2.600000e-06	3.221769e-06	1.837141e-09	2.300513e+01	1.216258e+02
2.610000e-06	3.258115e-06	1.862073e-09	2.326466e+01	1.230701e+02
2.620000e-06	3.294309e-06	1.883724e-09	2.352310e+01	1.244671e+02
2.630000e-06	3.330359e-06	1.902778e-09	2.378052e+01	1.258196e+02
2.640000e-06	3.366326e-06	1.919175e-09	2.403735e+01	1.271301e+02
2.650000e-06	3.402177e-06	1.934174e-09	2.429334e+01	1.284005e+02
2.660000e-06	3.437828e-06	1.948205e-09	2.454790e+01	1.296324e+02
2.670000e-06	3.473234e-06	1.963299e-09	2.480072e+01	1.308273e+02
2.680000e-06	3.508421e-06	1.980279e-09	2.505198e+01	1.319860e+02
2.690000e-06	3.543266e-06	1.996552e-09	2.530079e+01	1.331092e+02
2.700000e-06	3.577646e-06	2.010444e-09	2.554628e+01	1.341974e+02
2.710000e-06	3.611481e-06	2.023658e-09	2.578788e+01	1.352508e+02
2.720000e-06	3.644773e-06	2.038847e-09	2.602560e+01	1.362694e+02
2.730000e-06	3.677626e-06	2.054541e-09	2.626019e+01	1.372530e+02
2.740000e-06	3.710158e-06	2.067378e-09	2.649249e+01	1.382015e+02
2.750000e-06	3.742515e-06	2.079440e-09	2.672353e+01	1.391146e+02
2.760000e-06	3.774703e-06	2.092967e-09	2.695337e+01	1.399920e+02
2.770000e-06	3.806727e-06	2.106441e-09	2.718204e+01	1.408335e+02
2.780000e-06	3.838628e-06	2.117009e-09	2.740983e+01	1.416389e+02
2.790000e-06	3.870368e-06	2.124111e-09	2.763647e+01	1.424082e+02
2.800000e-06	3.901848e-06	2.132826e-09	2.786125e+01	1.431414e+02
2.810000e-06	3.933022e-06	2.144785e-09	2.808385e+01	1.438387e+02
2.820000e-06	3.963838e-06	2.155233e-09	2.830389e+01	1.445007e+02
2.830000e-06	3.994372e-06	2.162182e-09	2.852192e+01	1.451278e+02
2.840000e-06	4.024714e-06	2.169123e-09	2.873858e+01	1.457209e+02
2.850000e-06	4.054766e-06	2.178218e-09	2.895316e+01	1.462809e+02
2.860000e-06	4.084572e-06	2.189172e-09	2.916600e+01	1.468091e+02
2.870000e-06	4.114219e-06	2.197931e-09	2.937769e+01	1.473069e+02
2.880000e-06	4.143582e-06	2.203526e-09	2.958736e+01	1.477756e+02
2.890000e-06	4.172610e-06	2.208458e-09	2.979464e+01	1.482171e+02
2.900000e-06	4.201358e-06	2.213717e-09	2.999991e+01	1.486332e+02
