# Temperatura_=_-2.61
# Concentracion g/m^3_=_4090.0
# C_Vs_to_Am_M_A/Vsm_=_65563218390.804596
# pendiente_HvsI_1/m_=_3716.3
# ordenada_HvsI_A/m_=_1297.0
# frecuencia_Hz_=_135080.39134099684

Tiempo_(s)	Campo_(V.s)	Magnetizacion_(V.s)	Campo_(kA/m)	Magnetizacion_(A/m)
0.000000e+00	-5.403711e-06	-2.483914e-09	-3.839869e+01	-1.586757e+02
1.000000e-08	-5.403876e-06	-2.485184e-09	-3.839986e+01	-1.586819e+02
2.000000e-08	-5.403840e-06	-2.480926e-09	-3.839961e+01	-1.586928e+02
3.000000e-08	-5.403541e-06	-2.477424e-09	-3.839749e+01	-1.587088e+02
4.000000e-08	-5.402933e-06	-2.473575e-09	-3.839316e+01	-1.587306e+02
5.000000e-08	-5.401877e-06	-2.465500e-09	-3.838565e+01	-1.587583e+02
6.000000e-08	-5.400264e-06	-2.465347e-09	-3.837420e+01	-1.587924e+02
7.000000e-08	-5.398090e-06	-2.489836e-09	-3.835875e+01	-1.588328e+02
8.000000e-08	-5.395211e-06	-2.476341e-09	-3.833829e+01	-1.588797e+02
9.000000e-08	-5.391684e-06	-2.400680e-09	-3.831322e+01	-1.589330e+02
1.000000e-07	-5.387750e-06	-2.414712e-09	-3.828527e+01	-1.589925e+02
1.100000e-07	-5.383534e-06	-2.557057e-09	-3.825531e+01	-1.590579e+02
1.200000e-07	-5.379078e-06	-2.525712e-09	-3.822365e+01	-1.591289e+02
1.300000e-07	-5.374488e-06	-2.385161e-09	-3.819103e+01	-1.592049e+02
1.400000e-07	-5.369724e-06	-2.355287e-09	-3.815718e+01	-1.592855e+02
1.500000e-07	-5.364563e-06	-2.565273e-09	-3.812050e+01	-1.593699e+02
1.600000e-07	-5.358879e-06	-2.551984e-09	-3.808011e+01	-1.594575e+02
1.700000e-07	-5.352803e-06	-2.352301e-09	-3.803694e+01	-1.595476e+02
1.800000e-07	-5.346373e-06	-2.348543e-09	-3.799124e+01	-1.596394e+02
1.900000e-07	-5.339507e-06	-2.525260e-09	-3.794246e+01	-1.597322e+02
2.000000e-07	-5.332256e-06	-2.551752e-09	-3.789093e+01	-1.598251e+02
2.100000e-07	-5.324719e-06	-2.380153e-09	-3.783737e+01	-1.599175e+02
2.200000e-07	-5.316961e-06	-2.421822e-09	-3.778225e+01	-1.600084e+02
2.300000e-07	-5.308945e-06	-2.503562e-09	-3.772528e+01	-1.600973e+02
2.400000e-07	-5.300589e-06	-2.447183e-09	-3.766590e+01	-1.601834e+02
2.500000e-07	-5.291822e-06	-2.336003e-09	-3.760361e+01	-1.602660e+02
2.600000e-07	-5.282461e-06	-2.445069e-09	-3.753709e+01	-1.603446e+02
2.700000e-07	-5.272367e-06	-2.488217e-09	-3.746536e+01	-1.604187e+02
2.800000e-07	-5.261707e-06	-2.399164e-09	-3.738961e+01	-1.604877e+02
2.900000e-07	-5.250604e-06	-2.396373e-09	-3.731071e+01	-1.605513e+02
3.000000e-07	-5.239072e-06	-2.523980e-09	-3.722877e+01	-1.606090e+02
3.100000e-07	-5.227102e-06	-2.451287e-09	-3.714371e+01	-1.606607e+02
3.200000e-07	-5.214829e-06	-2.343454e-09	-3.705650e+01	-1.607059e+02
3.300000e-07	-5.202227e-06	-2.415815e-09	-3.696695e+01	-1.607445e+02
3.400000e-07	-5.189216e-06	-2.488062e-09	-3.687449e+01	-1.607764e+02
3.500000e-07	-5.175835e-06	-2.412653e-09	-3.677941e+01	-1.608015e+02
3.600000e-07	-5.162040e-06	-2.409330e-09	-3.668138e+01	-1.608196e+02
3.700000e-07	-5.147728e-06	-2.468463e-09	-3.657968e+01	-1.608306e+02
3.800000e-07	-5.132947e-06	-2.440188e-09	-3.647464e+01	-1.608346e+02
3.900000e-07	-5.117692e-06	-2.412434e-09	-3.636624e+01	-1.608315e+02
4.000000e-07	-5.101819e-06	-2.442407e-09	-3.625345e+01	-1.608212e+02
4.100000e-07	-5.085469e-06	-2.412269e-09	-3.613727e+01	-1.608038e+02
4.200000e-07	-5.068814e-06	-2.372242e-09	-3.601892e+01	-1.607792e+02
4.300000e-07	-5.051827e-06	-2.439007e-09	-3.589821e+01	-1.607474e+02
4.400000e-07	-5.034473e-06	-2.455292e-09	-3.577489e+01	-1.607083e+02
4.500000e-07	-5.016802e-06	-2.398290e-09	-3.564932e+01	-1.606620e+02
4.600000e-07	-4.998884e-06	-2.389255e-09	-3.552200e+01	-1.606082e+02
4.700000e-07	-4.980621e-06	-2.445658e-09	-3.539222e+01	-1.605471e+02
4.800000e-07	-4.961882e-06	-2.421621e-09	-3.525906e+01	-1.604785e+02
4.900000e-07	-4.942754e-06	-2.398040e-09	-3.512314e+01	-1.604025e+02
5.000000e-07	-4.923327e-06	-2.391541e-09	-3.498509e+01	-1.603189e+02
5.100000e-07	-4.903583e-06	-2.411799e-09	-3.484479e+01	-1.602278e+02
5.200000e-07	-4.883566e-06	-2.419080e-09	-3.470255e+01	-1.601291e+02
5.300000e-07	-4.863390e-06	-2.427691e-09	-3.455918e+01	-1.600230e+02
5.400000e-07	-4.843003e-06	-2.390273e-09	-3.441431e+01	-1.599094e+02
5.500000e-07	-4.822325e-06	-2.394639e-09	-3.426737e+01	-1.597885e+02
5.600000e-07	-4.801234e-06	-2.417583e-09	-3.411750e+01	-1.596604e+02
5.700000e-07	-4.779758e-06	-2.416577e-09	-3.396489e+01	-1.595254e+02
5.800000e-07	-4.758011e-06	-2.379082e-09	-3.381036e+01	-1.593837e+02
5.900000e-07	-4.735964e-06	-2.380952e-09	-3.365369e+01	-1.592356e+02
6.000000e-07	-4.713581e-06	-2.390015e-09	-3.349464e+01	-1.590815e+02
6.100000e-07	-4.690850e-06	-2.397077e-09	-3.333311e+01	-1.589219e+02
6.200000e-07	-4.667645e-06	-2.383434e-09	-3.316822e+01	-1.587572e+02
6.300000e-07	-4.644123e-06	-2.367249e-09	-3.300107e+01	-1.585879e+02
6.400000e-07	-4.620481e-06	-2.367857e-09	-3.283307e+01	-1.584146e+02
6.500000e-07	-4.596599e-06	-2.384807e-09	-3.266337e+01	-1.582379e+02
6.600000e-07	-4.572492e-06	-2.369346e-09	-3.249206e+01	-1.580585e+02
6.700000e-07	-4.548125e-06	-2.341220e-09	-3.231891e+01	-1.578771e+02
6.800000e-07	-4.523396e-06	-2.347799e-09	-3.214319e+01	-1.576942e+02
6.900000e-07	-4.498221e-06	-2.365718e-09	-3.196429e+01	-1.575106e+02
7.000000e-07	-4.472528e-06	-2.363001e-09	-3.178172e+01	-1.573268e+02
7.100000e-07	-4.446420e-06	-2.343652e-09	-3.159619e+01	-1.571436e+02
7.200000e-07	-4.419856e-06	-2.339808e-09	-3.140743e+01	-1.569614e+02
7.300000e-07	-4.392810e-06	-2.346315e-09	-3.121525e+01	-1.567808e+02
7.400000e-07	-4.365435e-06	-2.351898e-09	-3.102072e+01	-1.566022e+02
7.500000e-07	-4.337801e-06	-2.328899e-09	-3.082435e+01	-1.564260e+02
7.600000e-07	-4.309946e-06	-2.315943e-09	-3.062642e+01	-1.562525e+02
7.700000e-07	-4.281866e-06	-2.320559e-09	-3.042688e+01	-1.560818e+02
7.800000e-07	-4.253594e-06	-2.332782e-09	-3.022597e+01	-1.559140e+02
7.900000e-07	-4.225091e-06	-2.320252e-09	-3.002343e+01	-1.557492e+02
8.000000e-07	-4.196237e-06	-2.312734e-09	-2.981840e+01	-1.555872e+02
8.100000e-07	-4.167024e-06	-2.311680e-09	-2.961081e+01	-1.554278e+02
8.200000e-07	-4.137548e-06	-2.320128e-09	-2.940135e+01	-1.552706e+02
8.300000e-07	-4.107809e-06	-2.310240e-09	-2.919003e+01	-1.551153e+02
8.400000e-07	-4.077772e-06	-2.296238e-09	-2.897659e+01	-1.549613e+02
8.500000e-07	-4.047382e-06	-2.288379e-09	-2.876063e+01	-1.548080e+02
8.600000e-07	-4.016728e-06	-2.299350e-09	-2.854281e+01	-1.546548e+02
8.700000e-07	-3.985876e-06	-2.297937e-09	-2.832358e+01	-1.545009e+02
8.800000e-07	-3.954847e-06	-2.288207e-09	-2.810308e+01	-1.543457e+02
8.900000e-07	-3.923515e-06	-2.279688e-09	-2.788044e+01	-1.541882e+02
9.000000e-07	-3.891871e-06	-2.287101e-09	-2.765558e+01	-1.540279e+02
9.100000e-07	-3.860116e-06	-2.287848e-09	-2.742993e+01	-1.538637e+02
9.200000e-07	-3.828196e-06	-2.277122e-09	-2.720311e+01	-1.536951e+02
9.300000e-07	-3.796041e-06	-2.267649e-09	-2.697461e+01	-1.535212e+02
9.400000e-07	-3.763684e-06	-2.275220e-09	-2.674468e+01	-1.533415e+02
9.500000e-07	-3.731103e-06	-2.283452e-09	-2.651317e+01	-1.531553e+02
9.600000e-07	-3.698179e-06	-2.278763e-09	-2.627921e+01	-1.529620e+02
9.700000e-07	-3.664855e-06	-2.269690e-09	-2.604240e+01	-1.527614e+02
9.800000e-07	-3.631055e-06	-2.270356e-09	-2.580222e+01	-1.525529e+02
9.900000e-07	-3.596848e-06	-2.274756e-09	-2.555915e+01	-1.523365e+02
1.000000e-06	-3.562216e-06	-2.267022e-09	-2.531305e+01	-1.521120e+02
1.010000e-06	-3.527153e-06	-2.258002e-09	-2.506390e+01	-1.518794e+02
1.020000e-06	-3.491768e-06	-2.257331e-09	-2.481245e+01	-1.516387e+02
1.030000e-06	-3.456182e-06	-2.264158e-09	-2.455958e+01	-1.513902e+02
1.040000e-06	-3.420460e-06	-2.259116e-09	-2.430574e+01	-1.511343e+02
1.050000e-06	-3.384508e-06	-2.248015e-09	-2.405027e+01	-1.508712e+02
1.060000e-06	-3.348348e-06	-2.238017e-09	-2.379331e+01	-1.506014e+02
1.070000e-06	-3.312074e-06	-2.237510e-09	-2.353555e+01	-1.503254e+02
1.080000e-06	-3.275632e-06	-2.233075e-09	-2.327659e+01	-1.500439e+02
1.090000e-06	-3.238976e-06	-2.225386e-09	-2.301611e+01	-1.497574e+02
1.100000e-06	-3.202106e-06	-2.217996e-09	-2.275411e+01	-1.494666e+02
1.110000e-06	-3.164965e-06	-2.223000e-09	-2.249019e+01	-1.491720e+02
1.120000e-06	-3.127618e-06	-2.224573e-09	-2.222481e+01	-1.488743e+02
1.130000e-06	-3.090099e-06	-2.218471e-09	-2.195820e+01	-1.485740e+02
1.140000e-06	-3.052365e-06	-2.205982e-09	-2.169006e+01	-1.482717e+02
1.150000e-06	-3.014440e-06	-2.201137e-09	-2.142057e+01	-1.479678e+02
1.160000e-06	-2.976327e-06	-2.199192e-09	-2.114974e+01	-1.476627e+02
1.170000e-06	-2.938024e-06	-2.194178e-09	-2.087756e+01	-1.473568e+02
1.180000e-06	-2.899491e-06	-2.183005e-09	-2.060374e+01	-1.470501e+02
1.190000e-06	-2.860698e-06	-2.178216e-09	-2.032808e+01	-1.467429e+02
1.200000e-06	-2.821677e-06	-2.177702e-09	-2.005080e+01	-1.464351e+02
1.210000e-06	-2.782376e-06	-2.173471e-09	-1.977152e+01	-1.461266e+02
1.220000e-06	-2.742884e-06	-2.160562e-09	-1.949089e+01	-1.458172e+02
1.230000e-06	-2.703306e-06	-2.150969e-09	-1.920966e+01	-1.455067e+02
1.240000e-06	-2.663563e-06	-2.147243e-09	-1.892724e+01	-1.451945e+02
1.250000e-06	-2.623726e-06	-2.142761e-09	-1.864416e+01	-1.448802e+02
1.260000e-06	-2.583842e-06	-2.133582e-09	-1.836074e+01	-1.445632e+02
1.270000e-06	-2.543847e-06	-2.124689e-09	-1.807654e+01	-1.442430e+02
1.280000e-06	-2.503771e-06	-2.123655e-09	-1.779176e+01	-1.439187e+02
1.290000e-06	-2.463600e-06	-2.123124e-09	-1.750631e+01	-1.435897e+02
1.300000e-06	-2.423306e-06	-2.115925e-09	-1.721998e+01	-1.432551e+02
1.310000e-06	-2.382858e-06	-2.105478e-09	-1.693255e+01	-1.429144e+02
1.320000e-06	-2.342213e-06	-2.100213e-09	-1.664373e+01	-1.425665e+02
1.330000e-06	-2.301335e-06	-2.093096e-09	-1.635325e+01	-1.422110e+02
1.340000e-06	-2.260115e-06	-2.080684e-09	-1.606034e+01	-1.418469e+02
1.350000e-06	-2.218528e-06	-2.066763e-09	-1.576483e+01	-1.414737e+02
1.360000e-06	-2.176655e-06	-2.061106e-09	-1.546728e+01	-1.410906e+02
1.370000e-06	-2.134614e-06	-2.057976e-09	-1.516853e+01	-1.406973e+02
1.380000e-06	-2.092362e-06	-2.052554e-09	-1.486830e+01	-1.402930e+02
1.390000e-06	-2.049762e-06	-2.041349e-09	-1.456558e+01	-1.398775e+02
1.400000e-06	-2.006938e-06	-2.033142e-09	-1.426127e+01	-1.394504e+02
1.410000e-06	-1.964007e-06	-2.028983e-09	-1.395621e+01	-1.390113e+02
1.420000e-06	-1.920891e-06	-2.022796e-09	-1.364982e+01	-1.385601e+02
1.430000e-06	-1.877546e-06	-2.010195e-09	-1.334181e+01	-1.380966e+02
1.440000e-06	-1.834004e-06	-2.000510e-09	-1.303241e+01	-1.376206e+02
1.450000e-06	-1.790352e-06	-1.996177e-09	-1.272222e+01	-1.371322e+02
1.460000e-06	-1.746648e-06	-1.993290e-09	-1.241166e+01	-1.366313e+02
1.470000e-06	-1.702829e-06	-1.983554e-09	-1.210028e+01	-1.361178e+02
1.480000e-06	-1.658902e-06	-1.969959e-09	-1.178813e+01	-1.355919e+02
1.490000e-06	-1.614945e-06	-1.957333e-09	-1.147577e+01	-1.350534e+02
1.500000e-06	-1.570948e-06	-1.947895e-09	-1.116313e+01	-1.345024e+02
1.510000e-06	-1.526877e-06	-1.939402e-09	-1.084996e+01	-1.339389e+02
1.520000e-06	-1.482744e-06	-1.928517e-09	-1.053636e+01	-1.333627e+02
1.530000e-06	-1.438511e-06	-1.918473e-09	-1.022204e+01	-1.327737e+02
1.540000e-06	-1.394212e-06	-1.911984e-09	-9.907247e+00	-1.321717e+02
1.550000e-06	-1.349888e-06	-1.906223e-09	-9.592287e+00	-1.315564e+02
1.560000e-06	-1.305539e-06	-1.899223e-09	-9.277143e+00	-1.309275e+02
1.570000e-06	-1.261068e-06	-1.891684e-09	-8.961129e+00	-1.302844e+02
1.580000e-06	-1.216426e-06	-1.884190e-09	-8.643903e+00	-1.296267e+02
1.590000e-06	-1.171770e-06	-1.874852e-09	-8.326579e+00	-1.289537e+02
1.600000e-06	-1.127060e-06	-1.863092e-09	-8.008872e+00	-1.282647e+02
1.610000e-06	-1.082248e-06	-1.852265e-09	-7.690435e+00	-1.275588e+02
1.620000e-06	-1.037326e-06	-1.843168e-09	-7.371222e+00	-1.268352e+02
1.630000e-06	-9.922843e-07	-1.833197e-09	-7.051158e+00	-1.260928e+02
1.640000e-06	-9.470574e-07	-1.819725e-09	-6.729775e+00	-1.253306e+02
1.650000e-06	-9.017634e-07	-1.804440e-09	-6.407918e+00	-1.245474e+02
1.660000e-06	-8.565797e-07	-1.790848e-09	-6.086843e+00	-1.237420e+02
1.670000e-06	-8.112944e-07	-1.781334e-09	-5.765046e+00	-1.229132e+02
1.680000e-06	-7.659185e-07	-1.772535e-09	-5.442605e+00	-1.220597e+02
1.690000e-06	-7.204807e-07	-1.760810e-09	-5.119725e+00	-1.211802e+02
1.700000e-06	-6.749988e-07	-1.746015e-09	-4.796531e+00	-1.202732e+02
1.710000e-06	-6.295335e-07	-1.733281e-09	-4.473455e+00	-1.193374e+02
1.720000e-06	-5.840171e-07	-1.718209e-09	-4.150017e+00	-1.183715e+02
1.730000e-06	-5.384401e-07	-1.700990e-09	-3.826147e+00	-1.173739e+02
1.740000e-06	-4.927860e-07	-1.684284e-09	-3.501730e+00	-1.163433e+02
1.750000e-06	-4.470544e-07	-1.671055e-09	-3.176762e+00	-1.152782e+02
1.760000e-06	-4.012706e-07	-1.658786e-09	-2.851423e+00	-1.141772e+02
1.770000e-06	-3.554610e-07	-1.644263e-09	-2.525900e+00	-1.130388e+02
1.780000e-06	-3.096731e-07	-1.626765e-09	-2.200533e+00	-1.118615e+02
1.790000e-06	-2.639068e-07	-1.609900e-09	-1.875318e+00	-1.106439e+02
1.800000e-06	-2.181091e-07	-1.592129e-09	-1.549880e+00	-1.093842e+02
1.810000e-06	-1.723288e-07	-1.572069e-09	-1.224566e+00	-1.080809e+02
1.820000e-06	-1.265200e-07	-1.552358e-09	-8.990493e-01	-1.067324e+02
1.830000e-06	-8.062492e-08	-1.532874e-09	-5.729195e-01	-1.053368e+02
1.840000e-06	-3.473489e-08	-1.512050e-09	-2.468256e-01	-1.038924e+02
1.850000e-06	1.111869e-08	-1.489556e-09	7.900926e-02	-1.023971e+02
1.860000e-06	5.698547e-08	-1.464420e-09	4.049379e-01	-1.008491e+02
1.870000e-06	1.028397e-07	-1.438808e-09	7.307773e-01	-9.924603e+01
1.880000e-06	1.487021e-07	-1.413556e-09	1.056675e+00	-9.758577e+01
1.890000e-06	1.945396e-07	-1.386099e-09	1.382395e+00	-9.586591e+01
1.900000e-06	2.402566e-07	-1.357822e-09	1.707260e+00	-9.408397e+01
1.910000e-06	2.859280e-07	-1.329619e-09	2.031800e+00	-9.223737e+01
1.920000e-06	3.315894e-07	-1.299351e-09	2.356269e+00	-9.032343e+01
1.930000e-06	3.773391e-07	-1.266055e-09	2.681366e+00	-8.833937e+01
1.940000e-06	4.230871e-07	-1.232885e-09	3.006450e+00	-8.628238e+01
1.950000e-06	4.687584e-07	-1.201655e-09	3.330990e+00	-8.414960e+01
1.960000e-06	5.143873e-07	-1.171997e-09	3.655229e+00	-8.193814e+01
1.970000e-06	5.599417e-07	-1.139823e-09	3.978937e+00	-7.964518e+01
1.980000e-06	6.054624e-07	-1.102834e-09	4.302407e+00	-7.726792e+01
1.990000e-06	6.510049e-07	-1.061770e-09	4.626031e+00	-7.480370e+01
2.000000e-06	6.965238e-07	-1.020274e-09	4.949488e+00	-7.225000e+01
2.010000e-06	7.419284e-07	-9.787149e-10	5.272132e+00	-6.960447e+01
2.020000e-06	7.872179e-07	-9.372986e-10	5.593959e+00	-6.686507e+01
2.030000e-06	8.325228e-07	-8.967381e-10	5.915894e+00	-6.403001e+01
2.040000e-06	8.778761e-07	-8.555534e-10	6.238174e+00	-6.109788e+01
2.050000e-06	9.231339e-07	-8.124034e-10	6.559776e+00	-5.806765e+01
2.060000e-06	9.682190e-07	-7.680177e-10	6.880150e+00	-5.493878e+01
2.070000e-06	1.013214e-06	-7.213620e-10	7.199886e+00	-5.171121e+01
2.080000e-06	1.058178e-06	-6.743071e-10	7.519396e+00	-4.838542e+01
2.090000e-06	1.103074e-06	-6.257993e-10	7.838429e+00	-4.496248e+01
2.100000e-06	1.147918e-06	-5.755179e-10	8.157087e+00	-4.144409e+01
2.110000e-06	1.192630e-06	-5.239837e-10	8.474811e+00	-3.783258e+01
2.120000e-06	1.237185e-06	-4.710463e-10	8.791416e+00	-3.413095e+01
2.130000e-06	1.281632e-06	-4.142326e-10	9.107261e+00	-3.034286e+01
2.140000e-06	1.326016e-06	-3.526809e-10	9.422648e+00	-2.647268e+01
2.150000e-06	1.370328e-06	-2.912551e-10	9.737533e+00	-2.252543e+01
2.160000e-06	1.414603e-06	-2.319033e-10	1.005215e+01	-1.850681e+01
2.170000e-06	1.458803e-06	-1.739305e-10	1.036623e+01	-1.442312e+01
2.180000e-06	1.502938e-06	-1.145172e-10	1.067986e+01	-1.028130e+01
2.190000e-06	1.546996e-06	-5.129856e-11	1.099293e+01	-6.088822e+00
2.200000e-06	1.590962e-06	1.404448e-11	1.130535e+01	-1.853686e+00
2.210000e-06	1.634906e-06	8.049317e-11	1.161762e+01	2.415670e+00
2.220000e-06	1.678793e-06	1.487573e-10	1.192948e+01	6.710424e+00
2.230000e-06	1.722625e-06	2.186172e-10	1.224095e+01	1.102144e+01
2.240000e-06	1.766387e-06	2.883493e-10	1.255192e+01	1.533936e+01
2.250000e-06	1.810072e-06	3.543053e-10	1.286234e+01	1.965467e+01
2.260000e-06	1.853695e-06	4.168348e-10	1.317233e+01	2.395780e+01
2.270000e-06	1.897202e-06	4.799114e-10	1.348149e+01	2.823919e+01
2.280000e-06	1.940478e-06	5.434080e-10	1.378901e+01	3.248942e+01
2.290000e-06	1.983526e-06	6.058082e-10	1.409491e+01	3.669925e+01
2.300000e-06	2.026370e-06	6.692041e-10	1.439935e+01	4.085975e+01
2.310000e-06	2.069002e-06	7.331051e-10	1.470230e+01	4.496235e+01
2.320000e-06	2.111367e-06	7.948401e-10	1.500334e+01	4.899891e+01
2.330000e-06	2.153494e-06	8.496087e-10	1.530270e+01	5.296185e+01
2.340000e-06	2.195382e-06	8.996900e-10	1.560035e+01	5.684415e+01
2.350000e-06	2.236966e-06	9.526595e-10	1.589585e+01	6.063943e+01
2.360000e-06	2.278263e-06	1.009565e-09	1.618930e+01	6.434200e+01
2.370000e-06	2.319275e-06	1.063838e-09	1.648073e+01	6.794692e+01
2.380000e-06	2.360081e-06	1.110193e-09	1.677070e+01	7.144997e+01
2.390000e-06	2.400723e-06	1.154901e-09	1.705950e+01	7.484773e+01
2.400000e-06	2.441159e-06	1.201474e-09	1.734684e+01	7.813755e+01
2.410000e-06	2.481367e-06	1.244299e-09	1.763256e+01	8.131757e+01
2.420000e-06	2.521439e-06	1.282765e-09	1.791731e+01	8.438667e+01
2.430000e-06	2.561479e-06	1.322307e-09	1.820183e+01	8.734448e+01
2.440000e-06	2.601416e-06	1.367018e-09	1.848563e+01	9.019137e+01
2.450000e-06	2.641166e-06	1.412097e-09	1.876809e+01	9.292832e+01
2.460000e-06	2.680875e-06	1.449584e-09	1.905026e+01	9.555697e+01
2.470000e-06	2.720566e-06	1.480834e-09	1.933230e+01	9.807952e+01
2.480000e-06	2.760053e-06	1.512201e-09	1.961290e+01	1.004987e+02
2.490000e-06	2.799326e-06	1.544815e-09	1.989197e+01	1.028175e+02
2.500000e-06	2.838394e-06	1.576370e-09	2.016959e+01	1.050396e+02
2.510000e-06	2.877131e-06	1.607126e-09	2.044485e+01	1.071686e+02
2.520000e-06	2.915647e-06	1.640696e-09	2.071854e+01	1.092087e+02
2.530000e-06	2.953996e-06	1.674729e-09	2.099105e+01	1.111640e+02
2.540000e-06	2.992162e-06	1.702499e-09	2.126226e+01	1.130387e+02
2.550000e-06	3.030104e-06	1.724792e-09	2.153188e+01	1.148372e+02
2.560000e-06	3.067830e-06	1.749024e-09	2.179996e+01	1.165638e+02
2.570000e-06	3.105365e-06	1.775270e-09	2.206668e+01	1.182224e+02
2.580000e-06	3.142706e-06	1.797520e-09	2.233202e+01	1.198172e+02
2.590000e-06	3.179949e-06	1.816605e-09	2.259667e+01	1.213520e+02
2.600000e-06	3.217052e-06	1.840298e-09	2.286033e+01	1.228304e+02
2.610000e-06	3.253831e-06	1.866581e-09	2.312167e+01	1.242556e+02
2.620000e-06	3.290274e-06	1.887809e-09	2.338064e+01	1.256308e+02
2.630000e-06	3.326469e-06	1.905595e-09	2.363784e+01	1.269587e+02
2.640000e-06	3.362484e-06	1.925837e-09	2.389376e+01	1.282417e+02
2.650000e-06	3.398454e-06	1.948270e-09	2.414936e+01	1.294820e+02
2.660000e-06	3.434310e-06	1.965118e-09	2.440416e+01	1.306814e+02
2.670000e-06	3.469960e-06	1.976889e-09	2.465749e+01	1.318415e+02
2.680000e-06	3.505390e-06	1.990846e-09	2.490925e+01	1.329637e+02
2.690000e-06	3.540597e-06	2.008177e-09	2.515943e+01	1.340488e+02
2.700000e-06	3.575469e-06	2.023507e-09	2.540723e+01	1.350979e+02
2.710000e-06	3.609929e-06	2.035152e-09	2.565210e+01	1.361115e+02
2.720000e-06	3.643962e-06	2.048205e-09	2.589394e+01	1.370902e+02
2.730000e-06	3.677471e-06	2.065365e-09	2.613206e+01	1.380343e+02
2.740000e-06	3.710476e-06	2.080046e-09	2.636659e+01	1.389441e+02
2.750000e-06	3.743108e-06	2.089362e-09	2.659847e+01	1.398198e+02
2.760000e-06	3.775473e-06	2.098972e-09	2.682846e+01	1.406617e+02
2.770000e-06	3.807652e-06	2.111810e-09	2.705712e+01	1.414700e+02
2.780000e-06	3.839663e-06	2.124277e-09	2.728459e+01	1.422450e+02
2.790000e-06	3.871520e-06	2.134509e-09	2.751096e+01	1.429870e+02
2.800000e-06	3.903240e-06	2.145119e-09	2.773636e+01	1.436964e+02
2.810000e-06	3.934780e-06	2.157573e-09	2.796049e+01	1.443737e+02
2.820000e-06	3.966075e-06	2.170000e-09	2.818287e+01	1.450195e+02
2.830000e-06	3.997027e-06	2.177731e-09	2.840281e+01	1.456345e+02
2.840000e-06	4.027667e-06	2.181235e-09	2.862054e+01	1.462197e+02
2.850000e-06	4.058118e-06	2.185301e-09	2.883692e+01	1.467760e+02
2.860000e-06	4.088299e-06	2.191764e-09	2.905139e+01	1.473045e+02
2.870000e-06	4.118149e-06	2.201128e-09	2.926351e+01	1.478063e+02
2.880000e-06	4.147710e-06	2.212030e-09	2.947357e+01	1.482827e+02
2.890000e-06	4.177042e-06	2.221677e-09	2.968200e+01	1.487352e+02
2.900000e-06	4.206117e-06	2.228410e-09	2.988860e+01	1.491652e+02
