# Temperatura_=_2.03
# Concentracion g/m^3_=_4090.0
# C_Vs_to_Am_M_A/Vsm_=_65563218390.804596
# pendiente_HvsI_1/m_=_3716.3
# ordenada_HvsI_A/m_=_1297.0
# frecuencia_Hz_=_135083.29978618285

Tiempo_(s)	Campo_(V.s)	Magnetizacion_(V.s)	Campo_(kA/m)	Magnetizacion_(A/m)
0.000000e+00	-5.435919e-06	-2.587983e-09	-3.839650e+01	-1.682862e+02
1.000000e-08	-5.435861e-06	-2.585706e-09	-3.839609e+01	-1.682610e+02
2.000000e-08	-5.435622e-06	-2.586333e-09	-3.839440e+01	-1.682341e+02
3.000000e-08	-5.435114e-06	-2.589949e-09	-3.839081e+01	-1.682068e+02
4.000000e-08	-5.434097e-06	-2.590443e-09	-3.838363e+01	-1.681806e+02
5.000000e-08	-5.432516e-06	-2.590484e-09	-3.837246e+01	-1.681569e+02
6.000000e-08	-5.430286e-06	-2.596391e-09	-3.835671e+01	-1.681372e+02
7.000000e-08	-5.427476e-06	-2.588238e-09	-3.833686e+01	-1.681232e+02
8.000000e-08	-5.424127e-06	-2.568585e-09	-3.831321e+01	-1.681162e+02
9.000000e-08	-5.420186e-06	-2.573376e-09	-3.828536e+01	-1.681177e+02
1.000000e-07	-5.415857e-06	-2.599584e-09	-3.825479e+01	-1.681289e+02
1.100000e-07	-5.411369e-06	-2.610271e-09	-3.822309e+01	-1.681510e+02
1.200000e-07	-5.406842e-06	-2.540173e-09	-3.819111e+01	-1.681851e+02
1.300000e-07	-5.401961e-06	-2.530857e-09	-3.815663e+01	-1.682318e+02
1.400000e-07	-5.396525e-06	-2.585872e-09	-3.811824e+01	-1.682919e+02
1.500000e-07	-5.390795e-06	-2.590123e-09	-3.807777e+01	-1.683657e+02
1.600000e-07	-5.384802e-06	-2.532655e-09	-3.803543e+01	-1.684534e+02
1.700000e-07	-5.378352e-06	-2.499339e-09	-3.798988e+01	-1.685548e+02
1.800000e-07	-5.371434e-06	-2.597895e-09	-3.794101e+01	-1.686695e+02
1.900000e-07	-5.364189e-06	-2.597265e-09	-3.788984e+01	-1.687971e+02
2.000000e-07	-5.356732e-06	-2.560183e-09	-3.783716e+01	-1.689365e+02
2.100000e-07	-5.348979e-06	-2.534304e-09	-3.778240e+01	-1.690867e+02
2.200000e-07	-5.340908e-06	-2.600422e-09	-3.772539e+01	-1.692465e+02
2.300000e-07	-5.332566e-06	-2.580395e-09	-3.766647e+01	-1.694142e+02
2.400000e-07	-5.323842e-06	-2.565048e-09	-3.760484e+01	-1.695883e+02
2.500000e-07	-5.314424e-06	-2.609444e-09	-3.753832e+01	-1.697668e+02
2.600000e-07	-5.304269e-06	-2.670398e-09	-3.746659e+01	-1.699478e+02
2.700000e-07	-5.293473e-06	-2.641889e-09	-3.739033e+01	-1.701293e+02
2.800000e-07	-5.282121e-06	-2.625595e-09	-3.731015e+01	-1.703092e+02
2.900000e-07	-5.270417e-06	-2.669257e-09	-3.722748e+01	-1.704852e+02
3.000000e-07	-5.258446e-06	-2.663157e-09	-3.714292e+01	-1.706555e+02
3.100000e-07	-5.246139e-06	-2.618843e-09	-3.705599e+01	-1.708178e+02
3.200000e-07	-5.233416e-06	-2.620214e-09	-3.696613e+01	-1.709703e+02
3.300000e-07	-5.220308e-06	-2.675806e-09	-3.687354e+01	-1.711110e+02
3.400000e-07	-5.206848e-06	-2.647859e-09	-3.677846e+01	-1.712383e+02
3.500000e-07	-5.193037e-06	-2.624641e-09	-3.668091e+01	-1.713506e+02
3.600000e-07	-5.178816e-06	-2.639885e-09	-3.658046e+01	-1.714466e+02
3.700000e-07	-5.164151e-06	-2.657382e-09	-3.647687e+01	-1.715252e+02
3.800000e-07	-5.148862e-06	-2.619780e-09	-3.636888e+01	-1.715853e+02
3.900000e-07	-5.132940e-06	-2.625866e-09	-3.625641e+01	-1.716265e+02
4.000000e-07	-5.116500e-06	-2.630292e-09	-3.614029e+01	-1.716482e+02
4.100000e-07	-5.099686e-06	-2.627912e-09	-3.602153e+01	-1.716502e+02
4.200000e-07	-5.082639e-06	-2.622961e-09	-3.590111e+01	-1.716326e+02
4.300000e-07	-5.065351e-06	-2.648547e-09	-3.577900e+01	-1.715956e+02
4.400000e-07	-5.047760e-06	-2.620353e-09	-3.565475e+01	-1.715398e+02
4.500000e-07	-5.029849e-06	-2.612917e-09	-3.552823e+01	-1.714659e+02
4.600000e-07	-5.011574e-06	-2.622147e-09	-3.539915e+01	-1.713746e+02
4.700000e-07	-4.992833e-06	-2.628275e-09	-3.526677e+01	-1.712670e+02
4.800000e-07	-4.973627e-06	-2.596283e-09	-3.513111e+01	-1.711444e+02
4.900000e-07	-4.954065e-06	-2.608228e-09	-3.499293e+01	-1.710080e+02
5.000000e-07	-4.934229e-06	-2.623501e-09	-3.485282e+01	-1.708591e+02
5.100000e-07	-4.914258e-06	-2.625035e-09	-3.471176e+01	-1.706991e+02
5.200000e-07	-4.894196e-06	-2.611265e-09	-3.457005e+01	-1.705296e+02
5.300000e-07	-4.873884e-06	-2.614445e-09	-3.442657e+01	-1.703519e+02
5.400000e-07	-4.853140e-06	-2.605194e-09	-3.428005e+01	-1.701674e+02
5.500000e-07	-4.831959e-06	-2.600652e-09	-3.413044e+01	-1.699776e+02
5.600000e-07	-4.810402e-06	-2.592307e-09	-3.397817e+01	-1.697836e+02
5.700000e-07	-4.788510e-06	-2.583847e-09	-3.382354e+01	-1.695868e+02
5.800000e-07	-4.766369e-06	-2.584123e-09	-3.366714e+01	-1.693881e+02
5.900000e-07	-4.743905e-06	-2.593983e-09	-3.350847e+01	-1.691885e+02
6.000000e-07	-4.721059e-06	-2.592523e-09	-3.334710e+01	-1.689890e+02
6.100000e-07	-4.697886e-06	-2.575682e-09	-3.318342e+01	-1.687900e+02
6.200000e-07	-4.674400e-06	-2.567486e-09	-3.301752e+01	-1.685922e+02
6.300000e-07	-4.650663e-06	-2.562664e-09	-3.284986e+01	-1.683959e+02
6.400000e-07	-4.626767e-06	-2.563231e-09	-3.268107e+01	-1.682015e+02
6.500000e-07	-4.602675e-06	-2.554155e-09	-3.251090e+01	-1.680089e+02
6.600000e-07	-4.578310e-06	-2.551841e-09	-3.233880e+01	-1.678182e+02
6.700000e-07	-4.553589e-06	-2.548941e-09	-3.216418e+01	-1.676292e+02
6.800000e-07	-4.528439e-06	-2.553445e-09	-3.198654e+01	-1.674416e+02
6.900000e-07	-4.502729e-06	-2.541676e-09	-3.180493e+01	-1.672551e+02
7.000000e-07	-4.476371e-06	-2.534571e-09	-3.161875e+01	-1.670692e+02
7.100000e-07	-4.449530e-06	-2.524557e-09	-3.142916e+01	-1.668834e+02
7.200000e-07	-4.422241e-06	-2.526764e-09	-3.123640e+01	-1.666971e+02
7.300000e-07	-4.394663e-06	-2.520985e-09	-3.104161e+01	-1.665099e+02
7.400000e-07	-4.366893e-06	-2.520821e-09	-3.084546e+01	-1.663210e+02
7.500000e-07	-4.338854e-06	-2.513741e-09	-3.064740e+01	-1.661298e+02
7.600000e-07	-4.310697e-06	-2.514457e-09	-3.044852e+01	-1.659358e+02
7.700000e-07	-4.282324e-06	-2.505387e-09	-3.024811e+01	-1.657385e+02
7.800000e-07	-4.253553e-06	-2.499422e-09	-3.004488e+01	-1.655371e+02
7.900000e-07	-4.224450e-06	-2.490740e-09	-2.983931e+01	-1.653314e+02
8.000000e-07	-4.195066e-06	-2.489840e-09	-2.963176e+01	-1.651208e+02
8.100000e-07	-4.165384e-06	-2.485430e-09	-2.942210e+01	-1.649050e+02
8.200000e-07	-4.135437e-06	-2.486552e-09	-2.921057e+01	-1.646836e+02
8.300000e-07	-4.105269e-06	-2.485354e-09	-2.899748e+01	-1.644565e+02
8.400000e-07	-4.074813e-06	-2.484235e-09	-2.878235e+01	-1.642234e+02
8.500000e-07	-4.044010e-06	-2.477271e-09	-2.856478e+01	-1.639843e+02
8.600000e-07	-4.012957e-06	-2.469655e-09	-2.834544e+01	-1.637391e+02
8.700000e-07	-3.981745e-06	-2.462408e-09	-2.812497e+01	-1.634878e+02
8.800000e-07	-3.950312e-06	-2.457230e-09	-2.790294e+01	-1.632304e+02
8.900000e-07	-3.918593e-06	-2.455264e-09	-2.767890e+01	-1.629671e+02
9.000000e-07	-3.886693e-06	-2.454210e-09	-2.745358e+01	-1.626979e+02
9.100000e-07	-3.854708e-06	-2.454642e-09	-2.722765e+01	-1.624232e+02
9.200000e-07	-3.822492e-06	-2.451717e-09	-2.700009e+01	-1.621429e+02
9.300000e-07	-3.789969e-06	-2.449104e-09	-2.677036e+01	-1.618574e+02
9.400000e-07	-3.757206e-06	-2.443220e-09	-2.653895e+01	-1.615668e+02
9.500000e-07	-3.724169e-06	-2.437984e-09	-2.630559e+01	-1.612713e+02
9.600000e-07	-3.690683e-06	-2.429081e-09	-2.606906e+01	-1.609712e+02
9.700000e-07	-3.656702e-06	-2.425928e-09	-2.582904e+01	-1.606667e+02
9.800000e-07	-3.622222e-06	-2.421753e-09	-2.558548e+01	-1.603579e+02
9.900000e-07	-3.587198e-06	-2.419095e-09	-2.533810e+01	-1.600449e+02
1.000000e-06	-3.551880e-06	-2.413513e-09	-2.508863e+01	-1.597280e+02
1.010000e-06	-3.516367e-06	-2.412655e-09	-2.483779e+01	-1.594072e+02
1.020000e-06	-3.480629e-06	-2.406056e-09	-2.458535e+01	-1.590826e+02
1.030000e-06	-3.444785e-06	-2.400202e-09	-2.433216e+01	-1.587543e+02
1.040000e-06	-3.408827e-06	-2.392799e-09	-2.407818e+01	-1.584224e+02
1.050000e-06	-3.372669e-06	-2.387023e-09	-2.382277e+01	-1.580868e+02
1.060000e-06	-3.336285e-06	-2.377032e-09	-2.356577e+01	-1.577477e+02
1.070000e-06	-3.299663e-06	-2.370414e-09	-2.330710e+01	-1.574049e+02
1.080000e-06	-3.262888e-06	-2.363879e-09	-2.304734e+01	-1.570585e+02
1.090000e-06	-3.225923e-06	-2.362419e-09	-2.278624e+01	-1.567084e+02
1.100000e-06	-3.188642e-06	-2.358984e-09	-2.252290e+01	-1.563546e+02
1.110000e-06	-3.151053e-06	-2.354328e-09	-2.225739e+01	-1.559971e+02
1.120000e-06	-3.113293e-06	-2.348328e-09	-2.199068e+01	-1.556357e+02
1.130000e-06	-3.075347e-06	-2.343351e-09	-2.172265e+01	-1.552704e+02
1.140000e-06	-3.037177e-06	-2.334503e-09	-2.145304e+01	-1.549011e+02
1.150000e-06	-2.998868e-06	-2.325778e-09	-2.118244e+01	-1.545278e+02
1.160000e-06	-2.960341e-06	-2.318652e-09	-2.091030e+01	-1.541503e+02
1.170000e-06	-2.921565e-06	-2.310776e-09	-2.063641e+01	-1.537685e+02
1.180000e-06	-2.882549e-06	-2.301190e-09	-2.036083e+01	-1.533823e+02
1.190000e-06	-2.843285e-06	-2.294154e-09	-2.008348e+01	-1.529915e+02
1.200000e-06	-2.803783e-06	-2.289547e-09	-1.980446e+01	-1.525960e+02
1.210000e-06	-2.764124e-06	-2.281182e-09	-1.952433e+01	-1.521956e+02
1.220000e-06	-2.724362e-06	-2.270011e-09	-1.924347e+01	-1.517899e+02
1.230000e-06	-2.684471e-06	-2.259056e-09	-1.896170e+01	-1.513788e+02
1.240000e-06	-2.644482e-06	-2.249831e-09	-1.867924e+01	-1.509620e+02
1.250000e-06	-2.604436e-06	-2.238954e-09	-1.839638e+01	-1.505391e+02
1.260000e-06	-2.564291e-06	-2.228320e-09	-1.811282e+01	-1.501097e+02
1.270000e-06	-2.523999e-06	-2.218171e-09	-1.782821e+01	-1.496733e+02
1.280000e-06	-2.483529e-06	-2.216878e-09	-1.754236e+01	-1.492296e+02
1.290000e-06	-2.442933e-06	-2.213624e-09	-1.725560e+01	-1.487780e+02
1.300000e-06	-2.402179e-06	-2.210048e-09	-1.696774e+01	-1.483179e+02
1.310000e-06	-2.361212e-06	-2.203366e-09	-1.667837e+01	-1.478488e+02
1.320000e-06	-2.319984e-06	-2.193462e-09	-1.638716e+01	-1.473699e+02
1.330000e-06	-2.278375e-06	-2.177755e-09	-1.609325e+01	-1.468806e+02
1.340000e-06	-2.236442e-06	-2.159859e-09	-1.579706e+01	-1.463802e+02
1.350000e-06	-2.194244e-06	-2.142568e-09	-1.549900e+01	-1.458680e+02
1.360000e-06	-2.151724e-06	-2.133276e-09	-1.519866e+01	-1.453433e+02
1.370000e-06	-2.108897e-06	-2.130535e-09	-1.489615e+01	-1.448054e+02
1.380000e-06	-2.065886e-06	-2.126276e-09	-1.459234e+01	-1.442534e+02
1.390000e-06	-2.022656e-06	-2.116109e-09	-1.428699e+01	-1.436867e+02
1.400000e-06	-1.979195e-06	-2.107922e-09	-1.398000e+01	-1.431046e+02
1.410000e-06	-1.935607e-06	-2.097297e-09	-1.367212e+01	-1.425064e+02
1.420000e-06	-1.891943e-06	-2.080422e-09	-1.336370e+01	-1.418915e+02
1.430000e-06	-1.848192e-06	-2.058621e-09	-1.305467e+01	-1.412594e+02
1.440000e-06	-1.804352e-06	-2.042819e-09	-1.274500e+01	-1.406095e+02
1.450000e-06	-1.760446e-06	-2.036958e-09	-1.243487e+01	-1.399413e+02
1.460000e-06	-1.716455e-06	-2.031390e-09	-1.212415e+01	-1.392544e+02
1.470000e-06	-1.672381e-06	-2.021054e-09	-1.181283e+01	-1.385484e+02
1.480000e-06	-1.628249e-06	-2.008342e-09	-1.150110e+01	-1.378232e+02
1.490000e-06	-1.584036e-06	-1.999147e-09	-1.118880e+01	-1.370783e+02
1.500000e-06	-1.539716e-06	-1.987534e-09	-1.087575e+01	-1.363137e+02
1.510000e-06	-1.495356e-06	-1.969605e-09	-1.056242e+01	-1.355292e+02
1.520000e-06	-1.450973e-06	-1.950578e-09	-1.024892e+01	-1.347246e+02
1.530000e-06	-1.406481e-06	-1.940228e-09	-9.934647e+00	-1.338999e+02
1.540000e-06	-1.361908e-06	-1.934117e-09	-9.619806e+00	-1.330550e+02
1.550000e-06	-1.317258e-06	-1.920856e-09	-9.304427e+00	-1.321899e+02
1.560000e-06	-1.272529e-06	-1.901561e-09	-8.988482e+00	-1.313044e+02
1.570000e-06	-1.227700e-06	-1.887380e-09	-8.671833e+00	-1.303985e+02
1.580000e-06	-1.182743e-06	-1.877359e-09	-8.354278e+00	-1.294719e+02
1.590000e-06	-1.137574e-06	-1.865716e-09	-8.035227e+00	-1.285244e+02
1.600000e-06	-1.092284e-06	-1.849425e-09	-7.715325e+00	-1.275558e+02
1.610000e-06	-1.047027e-06	-1.837115e-09	-7.395652e+00	-1.265656e+02
1.620000e-06	-1.001624e-06	-1.829156e-09	-7.074953e+00	-1.255534e+02
1.630000e-06	-9.560959e-07	-1.816622e-09	-6.753363e+00	-1.245185e+02
1.640000e-06	-9.105527e-07	-1.795381e-09	-6.431670e+00	-1.234601e+02
1.650000e-06	-8.649981e-07	-1.774728e-09	-6.109896e+00	-1.223774e+02
1.660000e-06	-8.194435e-07	-1.758759e-09	-5.788122e+00	-1.212693e+02
1.670000e-06	-7.738037e-07	-1.744270e-09	-5.465746e+00	-1.201347e+02
1.680000e-06	-7.280400e-07	-1.725706e-09	-5.142495e+00	-1.189722e+02
1.690000e-06	-6.821852e-07	-1.706972e-09	-4.818601e+00	-1.177803e+02
1.700000e-06	-6.362662e-07	-1.692623e-09	-4.494253e+00	-1.165574e+02
1.710000e-06	-5.903156e-07	-1.679059e-09	-4.169681e+00	-1.153017e+02
1.720000e-06	-5.443665e-07	-1.659227e-09	-3.845121e+00	-1.140115e+02
1.730000e-06	-4.984573e-07	-1.635664e-09	-3.520843e+00	-1.126846e+02
1.740000e-06	-4.525798e-07	-1.614723e-09	-3.196788e+00	-1.113191e+02
1.750000e-06	-4.066598e-07	-1.596607e-09	-2.872433e+00	-1.099127e+02
1.760000e-06	-3.606799e-07	-1.574789e-09	-2.547655e+00	-1.084634e+02
1.770000e-06	-3.146447e-07	-1.550159e-09	-2.222486e+00	-1.069689e+02
1.780000e-06	-2.685819e-07	-1.529620e-09	-1.897123e+00	-1.054270e+02
1.790000e-06	-2.225208e-07	-1.510828e-09	-1.571771e+00	-1.038355e+02
1.800000e-06	-1.763711e-07	-1.484845e-09	-1.245794e+00	-1.021923e+02
1.810000e-06	-1.301683e-07	-1.453895e-09	-9.194410e-01	-1.004954e+02
1.820000e-06	-8.399120e-08	-1.427357e-09	-5.932700e-01	-9.874277e+01
1.830000e-06	-3.785983e-08	-1.405876e-09	-2.674221e-01	-9.693272e+01
1.840000e-06	8.276516e-09	-1.381539e-09	5.846099e-02	-9.506355e+01
1.850000e-06	5.440330e-08	-1.348301e-09	3.842766e-01	-9.313379e+01
1.860000e-06	1.004524e-07	-1.314263e-09	7.095435e-01	-9.114217e+01
1.870000e-06	1.465026e-07	-1.283147e-09	1.034818e+00	-8.908761e+01
1.880000e-06	1.926013e-07	-1.250993e-09	1.360435e+00	-8.696927e+01
1.890000e-06	2.386887e-07	-1.213084e-09	1.685972e+00	-8.478654e+01
1.900000e-06	2.847208e-07	-1.177480e-09	2.011119e+00	-8.253906e+01
1.910000e-06	3.307291e-07	-1.145776e-09	2.336098e+00	-8.022669e+01
1.920000e-06	3.767278e-07	-1.111766e-09	2.661008e+00	-7.784957e+01
1.930000e-06	4.226725e-07	-1.072985e-09	2.985538e+00	-7.540805e+01
1.940000e-06	4.686210e-07	-1.034937e-09	3.310094e+00	-7.290274e+01
1.950000e-06	5.145307e-07	-9.994447e-10	3.634377e+00	-7.033446e+01
1.960000e-06	5.603435e-07	-9.629866e-10	3.957974e+00	-6.770426e+01
1.970000e-06	6.061427e-07	-9.204654e-10	4.281476e+00	-6.501339e+01
1.980000e-06	6.519422e-07	-8.746402e-10	4.604980e+00	-6.226327e+01
1.990000e-06	6.976777e-07	-8.322348e-10	4.928032e+00	-5.945550e+01
2.000000e-06	7.433788e-07	-7.929200e-10	5.250840e+00	-5.659186e+01
2.010000e-06	7.891136e-07	-7.501884e-10	5.573887e+00	-5.367421e+01
2.020000e-06	8.347652e-07	-7.036339e-10	5.896346e+00	-5.070458e+01
2.030000e-06	8.802790e-07	-6.585030e-10	6.217832e+00	-4.768506e+01
2.040000e-06	9.257478e-07	-6.145275e-10	6.539000e+00	-4.461783e+01
2.050000e-06	9.711602e-07	-5.674875e-10	6.859769e+00	-4.150514e+01
2.060000e-06	1.016512e-06	-5.160243e-10	7.180114e+00	-3.834929e+01
2.070000e-06	1.061775e-06	-4.667770e-10	7.499827e+00	-3.515262e+01
2.080000e-06	1.106887e-06	-4.224945e-10	7.818473e+00	-3.191749e+01
2.090000e-06	1.151976e-06	-3.772566e-10	8.136961e+00	-2.864629e+01
2.100000e-06	1.196982e-06	-3.282331e-10	8.454857e+00	-2.534141e+01
2.110000e-06	1.241801e-06	-2.787843e-10	8.771433e+00	-2.200526e+01
2.120000e-06	1.286486e-06	-2.302714e-10	9.087063e+00	-1.864027e+01
2.130000e-06	1.331032e-06	-1.795865e-10	9.401715e+00	-1.524886e+01
2.140000e-06	1.375534e-06	-1.249386e-10	9.716052e+00	-1.183349e+01
2.150000e-06	1.419972e-06	-7.170517e-11	1.002994e+01	-8.396623e+00
2.160000e-06	1.464337e-06	-2.442287e-11	1.034331e+01	-4.940760e+00
2.170000e-06	1.508637e-06	2.229613e-11	1.065623e+01	-1.468434e+00
2.180000e-06	1.552817e-06	7.305183e-11	1.096829e+01	2.017778e+00
2.190000e-06	1.596940e-06	1.239771e-10	1.127995e+01	5.515243e+00
2.200000e-06	1.641011e-06	1.727176e-10	1.159125e+01	9.021267e+00
2.210000e-06	1.684998e-06	2.229028e-10	1.190195e+01	1.253309e+01
2.220000e-06	1.728910e-06	2.788874e-10	1.221212e+01	1.604786e+01
2.230000e-06	1.772758e-06	3.351688e-10	1.252184e+01	1.956266e+01
2.240000e-06	1.816585e-06	3.861272e-10	1.283141e+01	2.307447e+01
2.250000e-06	1.860381e-06	4.338818e-10	1.314076e+01	2.658021e+01
2.260000e-06	1.904071e-06	4.856255e-10	1.344937e+01	3.007667e+01
2.270000e-06	1.947685e-06	5.380858e-10	1.375743e+01	3.356061e+01
2.280000e-06	1.991208e-06	5.854835e-10	1.406486e+01	3.702866e+01
2.290000e-06	2.034581e-06	6.309791e-10	1.437122e+01	4.047744e+01
2.300000e-06	2.077666e-06	6.813731e-10	1.467555e+01	4.390346e+01
2.310000e-06	2.120417e-06	7.343627e-10	1.497752e+01	4.730325e+01
2.320000e-06	2.162891e-06	7.830841e-10	1.527753e+01	5.067327e+01
2.330000e-06	2.205106e-06	8.279753e-10	1.557572e+01	5.401004e+01
2.340000e-06	2.247152e-06	8.748984e-10	1.587271e+01	5.731005e+01
2.350000e-06	2.288880e-06	9.268789e-10	1.616745e+01	6.056989e+01
2.360000e-06	2.330218e-06	9.751813e-10	1.645944e+01	6.378620e+01
2.370000e-06	2.371248e-06	1.014558e-09	1.674926e+01	6.695573e+01
2.380000e-06	2.412076e-06	1.053817e-09	1.703765e+01	7.007538e+01
2.390000e-06	2.452795e-06	1.097832e-09	1.732526e+01	7.314221e+01
2.400000e-06	2.493326e-06	1.141207e-09	1.761156e+01	7.615344e+01
2.410000e-06	2.533646e-06	1.180340e-09	1.789635e+01	7.910655e+01
2.420000e-06	2.573818e-06	1.219544e-09	1.818011e+01	8.199921e+01
2.430000e-06	2.613875e-06	1.263725e-09	1.846305e+01	8.482940e+01
2.440000e-06	2.653830e-06	1.308439e-09	1.874527e+01	8.759532e+01
2.450000e-06	2.693713e-06	1.347348e-09	1.902698e+01	9.029551e+01
2.460000e-06	2.733506e-06	1.382937e-09	1.930806e+01	9.292878e+01
2.470000e-06	2.773200e-06	1.419731e-09	1.958844e+01	9.549427e+01
2.480000e-06	2.812632e-06	1.454332e-09	1.986697e+01	9.799141e+01
2.490000e-06	2.851762e-06	1.484340e-09	2.014336e+01	1.004200e+02
2.500000e-06	2.890674e-06	1.515127e-09	2.041821e+01	1.027800e+02
2.510000e-06	2.929411e-06	1.552569e-09	2.069183e+01	1.050717e+02
2.520000e-06	2.968002e-06	1.593034e-09	2.096442e+01	1.072960e+02
2.530000e-06	3.006398e-06	1.626550e-09	2.123563e+01	1.094535e+02
2.540000e-06	3.044603e-06	1.652571e-09	2.150549e+01	1.115454e+02
2.550000e-06	3.082656e-06	1.680501e-09	2.177428e+01	1.135730e+02
2.560000e-06	3.120498e-06	1.710573e-09	2.204157e+01	1.155379e+02
2.570000e-06	3.158068e-06	1.736183e-09	2.230695e+01	1.174416e+02
2.580000e-06	3.195393e-06	1.758908e-09	2.257059e+01	1.192861e+02
2.590000e-06	3.232478e-06	1.787392e-09	2.283254e+01	1.210731e+02
2.600000e-06	3.269362e-06	1.820302e-09	2.309307e+01	1.228045e+02
2.610000e-06	3.305978e-06	1.848355e-09	2.335170e+01	1.244823e+02
2.620000e-06	3.342364e-06	1.869358e-09	2.360872e+01	1.261086e+02
2.630000e-06	3.378624e-06	1.891555e-09	2.386484e+01	1.276850e+02
2.640000e-06	3.414704e-06	1.918055e-09	2.411969e+01	1.292136e+02
2.650000e-06	3.450667e-06	1.939976e-09	2.437371e+01	1.306960e+02
2.660000e-06	3.486525e-06	1.955104e-09	2.462700e+01	1.321340e+02
2.670000e-06	3.522270e-06	1.973269e-09	2.487948e+01	1.335290e+02
2.680000e-06	3.557861e-06	1.998548e-09	2.513087e+01	1.348824e+02
2.690000e-06	3.593194e-06	2.020838e-09	2.538045e+01	1.361956e+02
2.700000e-06	3.628095e-06	2.034729e-09	2.562697e+01	1.374695e+02
2.710000e-06	3.662485e-06	2.048838e-09	2.586988e+01	1.387051e+02
2.720000e-06	3.696425e-06	2.070092e-09	2.610962e+01	1.399033e+02
2.730000e-06	3.729880e-06	2.092903e-09	2.634593e+01	1.410646e+02
2.740000e-06	3.762866e-06	2.109077e-09	2.657893e+01	1.421897e+02
2.750000e-06	3.795447e-06	2.121782e-09	2.680906e+01	1.432789e+02
2.760000e-06	3.827788e-06	2.140498e-09	2.703750e+01	1.443326e+02
2.770000e-06	3.859960e-06	2.161469e-09	2.726475e+01	1.453509e+02
2.780000e-06	3.891979e-06	2.175370e-09	2.749091e+01	1.463342e+02
2.790000e-06	3.923834e-06	2.184406e-09	2.771592e+01	1.472825e+02
2.800000e-06	3.955463e-06	2.195835e-09	2.793933e+01	1.481960e+02
2.810000e-06	3.986874e-06	2.210054e-09	2.816120e+01	1.490749e+02
2.820000e-06	4.018050e-06	2.220623e-09	2.838141e+01	1.499193e+02
2.830000e-06	4.048855e-06	2.226281e-09	2.859900e+01	1.507295e+02
2.840000e-06	4.079325e-06	2.236090e-09	2.881422e+01	1.515057e+02
2.850000e-06	4.109558e-06	2.253057e-09	2.902778e+01	1.522485e+02
2.860000e-06	4.139564e-06	2.270241e-09	2.923972e+01	1.529582e+02
2.870000e-06	4.169322e-06	2.282047e-09	2.944991e+01	1.536356e+02
2.880000e-06	4.198843e-06	2.289772e-09	2.965844e+01	1.542813e+02
2.890000e-06	4.228150e-06	2.294686e-09	2.986545e+01	1.548963e+02
2.900000e-06	4.257038e-06	2.296727e-09	3.006950e+01	1.554814e+02
