# Temperatura_=_-3.07
# Concentracion g/m^3_=_4090.0
# C_Vs_to_Am_M_A/Vsm_=_65563218390.804596
# pendiente_HvsI_1/m_=_3716.3
# ordenada_HvsI_A/m_=_1297.0
# frecuencia_Hz_=_135080.0666269131

Tiempo_(s)	Campo_(V.s)	Magnetizacion_(V.s)	Campo_(kA/m)	Magnetizacion_(A/m)
0.000000e+00	-5.399946e-06	-2.374379e-09	-3.839850e+01	-1.523176e+02
1.000000e-08	-5.400093e-06	-2.375000e-09	-3.839954e+01	-1.522923e+02
2.000000e-08	-5.399976e-06	-2.376117e-09	-3.839871e+01	-1.522718e+02
3.000000e-08	-5.399512e-06	-2.376357e-09	-3.839541e+01	-1.522568e+02
4.000000e-08	-5.398661e-06	-2.373726e-09	-3.838936e+01	-1.522478e+02
5.000000e-08	-5.397381e-06	-2.372790e-09	-3.838026e+01	-1.522457e+02
6.000000e-08	-5.395456e-06	-2.391272e-09	-3.836657e+01	-1.522508e+02
7.000000e-08	-5.392940e-06	-2.422775e-09	-3.834868e+01	-1.522637e+02
8.000000e-08	-5.389935e-06	-2.391423e-09	-3.832731e+01	-1.522848e+02
9.000000e-08	-5.386350e-06	-2.311876e-09	-3.830181e+01	-1.523143e+02
1.000000e-07	-5.382311e-06	-2.331472e-09	-3.827310e+01	-1.523525e+02
1.100000e-07	-5.378033e-06	-2.405970e-09	-3.824267e+01	-1.523994e+02
1.200000e-07	-5.373600e-06	-2.415552e-09	-3.821115e+01	-1.524550e+02
1.300000e-07	-5.368859e-06	-2.308192e-09	-3.817744e+01	-1.525193e+02
1.400000e-07	-5.363604e-06	-2.316768e-09	-3.814007e+01	-1.525920e+02
1.500000e-07	-5.357982e-06	-2.440114e-09	-3.810009e+01	-1.526728e+02
1.600000e-07	-5.352054e-06	-2.436056e-09	-3.805794e+01	-1.527613e+02
1.700000e-07	-5.345709e-06	-2.326550e-09	-3.801282e+01	-1.528570e+02
1.800000e-07	-5.338952e-06	-2.285319e-09	-3.796477e+01	-1.529593e+02
1.900000e-07	-5.331837e-06	-2.396535e-09	-3.791418e+01	-1.530676e+02
2.000000e-07	-5.324459e-06	-2.387239e-09	-3.786171e+01	-1.531811e+02
2.100000e-07	-5.316863e-06	-2.340935e-09	-3.780770e+01	-1.532990e+02
2.200000e-07	-5.309048e-06	-2.349330e-09	-3.775212e+01	-1.534204e+02
2.300000e-07	-5.300979e-06	-2.414659e-09	-3.769475e+01	-1.535446e+02
2.400000e-07	-5.292442e-06	-2.361528e-09	-3.763405e+01	-1.536705e+02
2.500000e-07	-5.283272e-06	-2.327866e-09	-3.756884e+01	-1.537971e+02
2.600000e-07	-5.273461e-06	-2.367328e-09	-3.749907e+01	-1.539235e+02
2.700000e-07	-5.263064e-06	-2.378295e-09	-3.742514e+01	-1.540488e+02
2.800000e-07	-5.252160e-06	-2.313206e-09	-3.734760e+01	-1.541718e+02
2.900000e-07	-5.240750e-06	-2.332865e-09	-3.726647e+01	-1.542917e+02
3.000000e-07	-5.228928e-06	-2.399315e-09	-3.718240e+01	-1.544074e+02
3.100000e-07	-5.216800e-06	-2.369183e-09	-3.709616e+01	-1.545181e+02
3.200000e-07	-5.204329e-06	-2.326218e-09	-3.700748e+01	-1.546227e+02
3.300000e-07	-5.191468e-06	-2.342248e-09	-3.691603e+01	-1.547205e+02
3.400000e-07	-5.178249e-06	-2.371947e-09	-3.682203e+01	-1.548106e+02
3.500000e-07	-5.164719e-06	-2.352129e-09	-3.672582e+01	-1.548922e+02
3.600000e-07	-5.150849e-06	-2.361634e-09	-3.662719e+01	-1.549645e+02
3.700000e-07	-5.136482e-06	-2.362526e-09	-3.652503e+01	-1.550271e+02
3.800000e-07	-5.121534e-06	-2.356202e-09	-3.641873e+01	-1.550791e+02
3.900000e-07	-5.106104e-06	-2.364916e-09	-3.630901e+01	-1.551201e+02
4.000000e-07	-5.090108e-06	-2.379956e-09	-3.619526e+01	-1.551497e+02
4.100000e-07	-5.073582e-06	-2.341284e-09	-3.607775e+01	-1.551673e+02
4.200000e-07	-5.056717e-06	-2.331210e-09	-3.595783e+01	-1.551728e+02
4.300000e-07	-5.039571e-06	-2.351257e-09	-3.583591e+01	-1.551659e+02
4.400000e-07	-5.022219e-06	-2.362123e-09	-3.571251e+01	-1.551465e+02
4.500000e-07	-5.004516e-06	-2.327368e-09	-3.558663e+01	-1.551144e+02
4.600000e-07	-4.986473e-06	-2.329040e-09	-3.545833e+01	-1.550697e+02
4.700000e-07	-4.968055e-06	-2.337147e-09	-3.532736e+01	-1.550126e+02
4.800000e-07	-4.949185e-06	-2.351731e-09	-3.519318e+01	-1.549431e+02
4.900000e-07	-4.929987e-06	-2.335992e-09	-3.505666e+01	-1.548617e+02
5.000000e-07	-4.910510e-06	-2.321202e-09	-3.491816e+01	-1.547686e+02
5.100000e-07	-4.890746e-06	-2.316095e-09	-3.477762e+01	-1.546642e+02
5.200000e-07	-4.870698e-06	-2.339728e-09	-3.463507e+01	-1.545492e+02
5.300000e-07	-4.850419e-06	-2.327523e-09	-3.449086e+01	-1.544241e+02
5.400000e-07	-4.829869e-06	-2.304750e-09	-3.434473e+01	-1.542896e+02
5.500000e-07	-4.809024e-06	-2.298857e-09	-3.419651e+01	-1.541464e+02
5.600000e-07	-4.787877e-06	-2.316930e-09	-3.404613e+01	-1.539953e+02
5.700000e-07	-4.766322e-06	-2.314022e-09	-3.389286e+01	-1.538371e+02
5.800000e-07	-4.744367e-06	-2.303292e-09	-3.373674e+01	-1.536727e+02
5.900000e-07	-4.722050e-06	-2.293295e-09	-3.357804e+01	-1.535030e+02
6.000000e-07	-4.699424e-06	-2.299543e-09	-3.341715e+01	-1.533290e+02
6.100000e-07	-4.676528e-06	-2.310298e-09	-3.325434e+01	-1.531515e+02
6.200000e-07	-4.653335e-06	-2.299401e-09	-3.308941e+01	-1.529716e+02
6.300000e-07	-4.629838e-06	-2.274942e-09	-3.292233e+01	-1.527901e+02
6.400000e-07	-4.606120e-06	-2.270321e-09	-3.275367e+01	-1.526079e+02
6.500000e-07	-4.582252e-06	-2.284841e-09	-3.258395e+01	-1.524259e+02
6.600000e-07	-4.558108e-06	-2.279389e-09	-3.241226e+01	-1.522448e+02
6.700000e-07	-4.533619e-06	-2.268718e-09	-3.223812e+01	-1.520655e+02
6.800000e-07	-4.508770e-06	-2.266804e-09	-3.206143e+01	-1.518885e+02
6.900000e-07	-4.483482e-06	-2.280513e-09	-3.188161e+01	-1.517145e+02
7.000000e-07	-4.457599e-06	-2.280173e-09	-3.169756e+01	-1.515439e+02
7.100000e-07	-4.431158e-06	-2.270652e-09	-3.150954e+01	-1.513771e+02
7.200000e-07	-4.404340e-06	-2.253930e-09	-3.131883e+01	-1.512144e+02
7.300000e-07	-4.377082e-06	-2.260805e-09	-3.112501e+01	-1.510559e+02
7.400000e-07	-4.349458e-06	-2.267131e-09	-3.092858e+01	-1.509017e+02
7.500000e-07	-4.321658e-06	-2.261118e-09	-3.073089e+01	-1.507517e+02
7.600000e-07	-4.293719e-06	-2.242916e-09	-3.053222e+01	-1.506057e+02
7.700000e-07	-4.265642e-06	-2.247164e-09	-3.033257e+01	-1.504633e+02
7.800000e-07	-4.237347e-06	-2.255313e-09	-3.013136e+01	-1.503242e+02
7.900000e-07	-4.208742e-06	-2.258350e-09	-2.992796e+01	-1.501879e+02
8.000000e-07	-4.179746e-06	-2.245640e-09	-2.972177e+01	-1.500537e+02
8.100000e-07	-4.150406e-06	-2.242993e-09	-2.951314e+01	-1.499209e+02
8.200000e-07	-4.120809e-06	-2.247021e-09	-2.930268e+01	-1.497887e+02
8.300000e-07	-4.090960e-06	-2.249676e-09	-2.909042e+01	-1.496564e+02
8.400000e-07	-4.060904e-06	-2.234186e-09	-2.887669e+01	-1.495231e+02
8.500000e-07	-4.030520e-06	-2.221711e-09	-2.866064e+01	-1.493879e+02
8.600000e-07	-3.999796e-06	-2.221474e-09	-2.844216e+01	-1.492499e+02
8.700000e-07	-3.968826e-06	-2.227770e-09	-2.822194e+01	-1.491082e+02
8.800000e-07	-3.937600e-06	-2.223255e-09	-2.799989e+01	-1.489619e+02
8.900000e-07	-3.906173e-06	-2.216722e-09	-2.777642e+01	-1.488103e+02
9.000000e-07	-3.874539e-06	-2.216726e-09	-2.755147e+01	-1.486525e+02
9.100000e-07	-3.842705e-06	-2.219612e-09	-2.732510e+01	-1.484880e+02
9.200000e-07	-3.810693e-06	-2.214898e-09	-2.709747e+01	-1.483161e+02
9.300000e-07	-3.778498e-06	-2.203824e-09	-2.686854e+01	-1.481362e+02
9.400000e-07	-3.746077e-06	-2.199062e-09	-2.663799e+01	-1.479481e+02
9.500000e-07	-3.713448e-06	-2.200588e-09	-2.640597e+01	-1.477514e+02
9.600000e-07	-3.680491e-06	-2.202182e-09	-2.617162e+01	-1.475460e+02
9.700000e-07	-3.647046e-06	-2.197652e-09	-2.593379e+01	-1.473318e+02
9.800000e-07	-3.613079e-06	-2.196703e-09	-2.569226e+01	-1.471090e+02
9.900000e-07	-3.578596e-06	-2.193465e-09	-2.544705e+01	-1.468776e+02
1.000000e-06	-3.543709e-06	-2.190151e-09	-2.519898e+01	-1.466381e+02
1.010000e-06	-3.508525e-06	-2.183654e-09	-2.494878e+01	-1.463908e+02
1.020000e-06	-3.473133e-06	-2.179088e-09	-2.469712e+01	-1.461363e+02
1.030000e-06	-3.437536e-06	-2.170812e-09	-2.444399e+01	-1.458751e+02
1.040000e-06	-3.401759e-06	-2.165146e-09	-2.418958e+01	-1.456080e+02
1.050000e-06	-3.365780e-06	-2.156620e-09	-2.393374e+01	-1.453356e+02
1.060000e-06	-3.329616e-06	-2.151826e-09	-2.367658e+01	-1.450587e+02
1.070000e-06	-3.293359e-06	-2.148530e-09	-2.341876e+01	-1.447781e+02
1.080000e-06	-3.256884e-06	-2.148072e-09	-2.315938e+01	-1.444945e+02
1.090000e-06	-3.220158e-06	-2.142524e-09	-2.289823e+01	-1.442087e+02
1.100000e-06	-3.183254e-06	-2.136899e-09	-2.263581e+01	-1.439214e+02
1.110000e-06	-3.146083e-06	-2.128652e-09	-2.237149e+01	-1.436333e+02
1.120000e-06	-3.108636e-06	-2.122816e-09	-2.210521e+01	-1.433450e+02
1.130000e-06	-3.071007e-06	-2.117489e-09	-2.183763e+01	-1.430569e+02
1.140000e-06	-3.033174e-06	-2.112225e-09	-2.156861e+01	-1.427696e+02
1.150000e-06	-2.995091e-06	-2.107967e-09	-2.129781e+01	-1.424833e+02
1.160000e-06	-2.956840e-06	-2.107057e-09	-2.102581e+01	-1.421982e+02
1.170000e-06	-2.918483e-06	-2.101170e-09	-2.075305e+01	-1.419144e+02
1.180000e-06	-2.879893e-06	-2.092441e-09	-2.047864e+01	-1.416319e+02
1.190000e-06	-2.840959e-06	-2.084536e-09	-2.020179e+01	-1.413505e+02
1.200000e-06	-2.801851e-06	-2.079898e-09	-1.992369e+01	-1.410699e+02
1.210000e-06	-2.762670e-06	-2.075571e-09	-1.964508e+01	-1.407897e+02
1.220000e-06	-2.723299e-06	-2.066883e-09	-1.936511e+01	-1.405094e+02
1.230000e-06	-2.683707e-06	-2.058745e-09	-1.908358e+01	-1.402285e+02
1.240000e-06	-2.643978e-06	-2.052668e-09	-1.880107e+01	-1.399461e+02
1.250000e-06	-2.604174e-06	-2.049008e-09	-1.851803e+01	-1.396615e+02
1.260000e-06	-2.564320e-06	-2.043596e-09	-1.823463e+01	-1.393740e+02
1.270000e-06	-2.524362e-06	-2.038953e-09	-1.795049e+01	-1.390825e+02
1.280000e-06	-2.484270e-06	-2.035242e-09	-1.766541e+01	-1.387863e+02
1.290000e-06	-2.444085e-06	-2.032051e-09	-1.737965e+01	-1.384844e+02
1.300000e-06	-2.403749e-06	-2.024153e-09	-1.709283e+01	-1.381758e+02
1.310000e-06	-2.363185e-06	-2.016602e-09	-1.680438e+01	-1.378598e+02
1.320000e-06	-2.322367e-06	-2.010675e-09	-1.651413e+01	-1.375353e+02
1.330000e-06	-2.281261e-06	-2.006179e-09	-1.622182e+01	-1.372017e+02
1.340000e-06	-2.239903e-06	-2.000608e-09	-1.592773e+01	-1.368581e+02
1.350000e-06	-2.198314e-06	-1.996938e-09	-1.563200e+01	-1.365039e+02
1.360000e-06	-2.156419e-06	-1.992952e-09	-1.533409e+01	-1.361384e+02
1.370000e-06	-2.114293e-06	-1.989370e-09	-1.503453e+01	-1.357611e+02
1.380000e-06	-2.071933e-06	-1.981081e-09	-1.473332e+01	-1.353716e+02
1.390000e-06	-2.029263e-06	-1.969191e-09	-1.442989e+01	-1.349696e+02
1.400000e-06	-1.986263e-06	-1.962787e-09	-1.412413e+01	-1.345547e+02
1.410000e-06	-1.942992e-06	-1.964195e-09	-1.381643e+01	-1.341267e+02
1.420000e-06	-1.899584e-06	-1.960234e-09	-1.350776e+01	-1.336855e+02
1.430000e-06	-1.856054e-06	-1.950468e-09	-1.319822e+01	-1.332311e+02
1.440000e-06	-1.812468e-06	-1.942073e-09	-1.288828e+01	-1.327635e+02
1.450000e-06	-1.768882e-06	-1.937157e-09	-1.257835e+01	-1.322826e+02
1.460000e-06	-1.725162e-06	-1.930282e-09	-1.226746e+01	-1.317885e+02
1.470000e-06	-1.681298e-06	-1.916691e-09	-1.195555e+01	-1.312814e+02
1.480000e-06	-1.637391e-06	-1.903432e-09	-1.164333e+01	-1.307613e+02
1.490000e-06	-1.593414e-06	-1.896986e-09	-1.133061e+01	-1.302283e+02
1.500000e-06	-1.549394e-06	-1.894598e-09	-1.101759e+01	-1.296823e+02
1.510000e-06	-1.505366e-06	-1.887921e-09	-1.070451e+01	-1.291235e+02
1.520000e-06	-1.461250e-06	-1.876867e-09	-1.039080e+01	-1.285518e+02
1.530000e-06	-1.417045e-06	-1.870313e-09	-1.007647e+01	-1.279670e+02
1.540000e-06	-1.372723e-06	-1.865535e-09	-9.761304e+00	-1.273690e+02
1.550000e-06	-1.328326e-06	-1.857461e-09	-9.445600e+00	-1.267575e+02
1.560000e-06	-1.283953e-06	-1.846163e-09	-9.130063e+00	-1.261322e+02
1.570000e-06	-1.239499e-06	-1.835702e-09	-8.813960e+00	-1.254926e+02
1.580000e-06	-1.194863e-06	-1.826234e-09	-8.496556e+00	-1.248381e+02
1.590000e-06	-1.150047e-06	-1.813644e-09	-8.177872e+00	-1.241682e+02
1.600000e-06	-1.105121e-06	-1.800915e-09	-7.858411e+00	-1.234822e+02
1.610000e-06	-1.060157e-06	-1.791797e-09	-7.538672e+00	-1.227792e+02
1.620000e-06	-1.015134e-06	-1.787846e-09	-7.218516e+00	-1.220584e+02
1.630000e-06	-9.699719e-07	-1.783552e-09	-6.897376e+00	-1.213188e+02
1.640000e-06	-9.247706e-07	-1.773673e-09	-6.575954e+00	-1.205594e+02
1.650000e-06	-8.795624e-07	-1.761009e-09	-6.254483e+00	-1.197791e+02
1.660000e-06	-8.342622e-07	-1.746341e-09	-5.932358e+00	-1.189768e+02
1.670000e-06	-7.888438e-07	-1.727150e-09	-5.609392e+00	-1.181513e+02
1.680000e-06	-7.433699e-07	-1.705014e-09	-5.286031e+00	-1.173013e+02
1.690000e-06	-6.978901e-07	-1.685032e-09	-4.962629e+00	-1.164256e+02
1.700000e-06	-6.523333e-07	-1.674425e-09	-4.638679e+00	-1.155231e+02
1.710000e-06	-6.066561e-07	-1.668801e-09	-4.313873e+00	-1.145923e+02
1.720000e-06	-5.609555e-07	-1.660937e-09	-3.988901e+00	-1.136320e+02
1.730000e-06	-5.153657e-07	-1.647539e-09	-3.664715e+00	-1.126408e+02
1.740000e-06	-4.697492e-07	-1.632237e-09	-3.340341e+00	-1.116175e+02
1.750000e-06	-4.240595e-07	-1.611843e-09	-3.015446e+00	-1.105606e+02
1.760000e-06	-3.783971e-07	-1.589448e-09	-2.690745e+00	-1.094689e+02
1.770000e-06	-3.327292e-07	-1.567889e-09	-2.366005e+00	-1.083408e+02
1.780000e-06	-2.869955e-07	-1.550782e-09	-2.040797e+00	-1.071750e+02
1.790000e-06	-2.411923e-07	-1.538025e-09	-1.715095e+00	-1.059700e+02
1.800000e-06	-1.953809e-07	-1.523279e-09	-1.389335e+00	-1.047241e+02
1.810000e-06	-1.496461e-07	-1.504279e-09	-1.064119e+00	-1.034359e+02
1.820000e-06	-1.039570e-07	-1.484691e-09	-7.392282e-01	-1.021035e+02
1.830000e-06	-5.818181e-08	-1.461302e-09	-4.137253e-01	-1.007253e+02
1.840000e-06	-1.229501e-08	-1.435090e-09	-8.742860e-02	-9.929923e+01
1.850000e-06	3.350735e-08	-1.409296e-09	2.382675e-01	-9.782336e+01
1.860000e-06	7.920929e-08	-1.384645e-09	5.632496e-01	-9.629553e+01
1.870000e-06	1.249498e-07	-1.364500e-09	8.885062e-01	-9.471350e+01
1.880000e-06	1.706944e-07	-1.344457e-09	1.213791e+00	-9.307488e+01
1.890000e-06	2.164631e-07	-1.320516e-09	1.539248e+00	-9.137716e+01
1.900000e-06	2.623020e-07	-1.293069e-09	1.865204e+00	-8.961772e+01
1.910000e-06	3.081026e-07	-1.263482e-09	2.190888e+00	-8.779380e+01
1.920000e-06	3.539095e-07	-1.228033e-09	2.516616e+00	-8.590258e+01
1.930000e-06	3.997230e-07	-1.191986e-09	2.842391e+00	-8.394114e+01
1.940000e-06	4.454388e-07	-1.161829e-09	3.167472e+00	-8.190652e+01
1.950000e-06	4.910518e-07	-1.137976e-09	3.491822e+00	-7.979572e+01
1.960000e-06	5.365855e-07	-1.113882e-09	3.815608e+00	-7.760579e+01
1.970000e-06	5.820906e-07	-1.082979e-09	4.139190e+00	-7.533377e+01
1.980000e-06	6.275430e-07	-1.045352e-09	4.462397e+00	-7.297684e+01
1.990000e-06	6.729529e-07	-1.004077e-09	4.785303e+00	-7.053229e+01
2.000000e-06	7.184043e-07	-9.612760e-10	5.108503e+00	-6.799761e+01
2.010000e-06	7.638367e-07	-9.183602e-10	5.431569e+00	-6.537051e+01
2.020000e-06	8.091561e-07	-8.785112e-10	5.753831e+00	-6.264901e+01
2.030000e-06	8.544085e-07	-8.449184e-10	6.075616e+00	-5.983146e+01
2.040000e-06	8.995705e-07	-8.127694e-10	6.396759e+00	-5.691660e+01
2.050000e-06	9.445637e-07	-7.740514e-10	6.716701e+00	-5.390363e+01
2.060000e-06	9.895359e-07	-7.257815e-10	7.036494e+00	-5.079224e+01
2.070000e-06	1.034548e-06	-6.745085e-10	7.356573e+00	-4.758268e+01
2.080000e-06	1.079416e-06	-6.242470e-10	7.675623e+00	-4.427575e+01
2.090000e-06	1.124177e-06	-5.727478e-10	7.993914e+00	-4.087289e+01
2.100000e-06	1.168811e-06	-5.207495e-10	8.311300e+00	-3.737621e+01
2.110000e-06	1.213367e-06	-4.719262e-10	8.628133e+00	-3.378846e+01
2.120000e-06	1.257922e-06	-4.239400e-10	8.944959e+00	-3.011310e+01
2.130000e-06	1.302382e-06	-3.701884e-10	9.261109e+00	-2.635427e+01
2.140000e-06	1.346669e-06	-3.071450e-10	9.576035e+00	-2.251682e+01
2.150000e-06	1.390801e-06	-2.414912e-10	9.889850e+00	-1.860627e+01
2.160000e-06	1.434919e-06	-1.811262e-10	1.020357e+01	-1.462880e+01
2.170000e-06	1.478981e-06	-1.224961e-10	1.051689e+01	-1.059123e+01
2.180000e-06	1.522977e-06	-6.000316e-11	1.082974e+01	-6.500957e+00
2.190000e-06	1.566950e-06	3.500532e-12	1.114243e+01	-2.365927e+00
2.200000e-06	1.610874e-06	6.382166e-11	1.145477e+01	1.805435e+00
2.210000e-06	1.654745e-06	1.233077e-10	1.176673e+01	6.004285e+00
2.220000e-06	1.698546e-06	1.881076e-10	1.207820e+01	1.022143e+01
2.230000e-06	1.742277e-06	2.572975e-10	1.238916e+01	1.444743e+01
2.240000e-06	1.785957e-06	3.245236e-10	1.269977e+01	1.867263e+01
2.250000e-06	1.829596e-06	3.889659e-10	1.301008e+01	2.288730e+01
2.260000e-06	1.873035e-06	4.544211e-10	1.331897e+01	2.708171e+01
2.270000e-06	1.916283e-06	5.204689e-10	1.362651e+01	3.124621e+01
2.280000e-06	1.959494e-06	5.810306e-10	1.393377e+01	3.537131e+01
2.290000e-06	2.002522e-06	6.361592e-10	1.423974e+01	3.944783e+01
2.300000e-06	2.045255e-06	6.923413e-10	1.454361e+01	4.346689e+01
2.310000e-06	2.087743e-06	7.530337e-10	1.484574e+01	4.742010e+01
2.320000e-06	2.129870e-06	8.115400e-10	1.514530e+01	5.129955e+01
2.330000e-06	2.171713e-06	8.669298e-10	1.544284e+01	5.509793e+01
2.340000e-06	2.213418e-06	9.208205e-10	1.573940e+01	5.880857e+01
2.350000e-06	2.254807e-06	9.755465e-10	1.603372e+01	6.242551e+01
2.360000e-06	2.295861e-06	1.031156e-09	1.632564e+01	6.594352e+01
2.370000e-06	2.336719e-06	1.078571e-09	1.661618e+01	6.935819e+01
2.380000e-06	2.377393e-06	1.120370e-09	1.690541e+01	7.266586e+01
2.390000e-06	2.417801e-06	1.165331e-09	1.719275e+01	7.586373e+01
2.400000e-06	2.458023e-06	1.210591e-09	1.747876e+01	7.894980e+01
2.410000e-06	2.498195e-06	1.252295e-09	1.776443e+01	8.192289e+01
2.420000e-06	2.538310e-06	1.291819e-09	1.804967e+01	8.478259e+01
2.430000e-06	2.578314e-06	1.333018e-09	1.833414e+01	8.752929e+01
2.440000e-06	2.618217e-06	1.376874e-09	1.861789e+01	9.016406e+01
2.450000e-06	2.658008e-06	1.415148e-09	1.890083e+01	9.268867e+01
2.460000e-06	2.697604e-06	1.447253e-09	1.918240e+01	9.510551e+01
2.470000e-06	2.737011e-06	1.478124e-09	1.946262e+01	9.741750e+01
2.480000e-06	2.776282e-06	1.509569e-09	1.974188e+01	9.962807e+01
2.490000e-06	2.815319e-06	1.540181e-09	2.001946e+01	1.017411e+02
2.500000e-06	2.854073e-06	1.567757e-09	2.029504e+01	1.037607e+02
2.510000e-06	2.892658e-06	1.596150e-09	2.056941e+01	1.056914e+02
2.520000e-06	2.931156e-06	1.628090e-09	2.084317e+01	1.075378e+02
2.530000e-06	2.969465e-06	1.657118e-09	2.111558e+01	1.093046e+02
2.540000e-06	3.007470e-06	1.678957e-09	2.138583e+01	1.109967e+02
2.550000e-06	3.045248e-06	1.701419e-09	2.165447e+01	1.126189e+02
2.560000e-06	3.082892e-06	1.728643e-09	2.192215e+01	1.141757e+02
2.570000e-06	3.120374e-06	1.753145e-09	2.218868e+01	1.156717e+02
2.580000e-06	3.157674e-06	1.771366e-09	2.245391e+01	1.171113e+02
2.590000e-06	3.194687e-06	1.789081e-09	2.271711e+01	1.184983e+02
2.600000e-06	3.231407e-06	1.810254e-09	2.297823e+01	1.198368e+02
2.610000e-06	3.267887e-06	1.832203e-09	2.323763e+01	1.211299e+02
2.620000e-06	3.304134e-06	1.850136e-09	2.349538e+01	1.223809e+02
2.630000e-06	3.340291e-06	1.865734e-09	2.375248e+01	1.235925e+02
2.640000e-06	3.376315e-06	1.884354e-09	2.400865e+01	1.247670e+02
2.650000e-06	3.412193e-06	1.902582e-09	2.426377e+01	1.259064e+02
2.660000e-06	3.447942e-06	1.914152e-09	2.451798e+01	1.270123e+02
2.670000e-06	3.483515e-06	1.925510e-09	2.477094e+01	1.280861e+02
2.680000e-06	3.518859e-06	1.939861e-09	2.502226e+01	1.291286e+02
2.690000e-06	3.553896e-06	1.954310e-09	2.527141e+01	1.301407e+02
2.700000e-06	3.588501e-06	1.966246e-09	2.551749e+01	1.311226e+02
2.710000e-06	3.622677e-06	1.975305e-09	2.576051e+01	1.320746e+02
2.720000e-06	3.656455e-06	1.987346e-09	2.600070e+01	1.329968e+02
2.730000e-06	3.689764e-06	2.003327e-09	2.623756e+01	1.338889e+02
2.740000e-06	3.722712e-06	2.017629e-09	2.647184e+01	1.347507e+02
2.750000e-06	3.755363e-06	2.028375e-09	2.670403e+01	1.355820e+02
2.760000e-06	3.787712e-06	2.038846e-09	2.693405e+01	1.363824e+02
2.770000e-06	3.819802e-06	2.052634e-09	2.716224e+01	1.371516e+02
2.780000e-06	3.851721e-06	2.064891e-09	2.738922e+01	1.378894e+02
2.790000e-06	3.883491e-06	2.069795e-09	2.761513e+01	1.385954e+02
2.800000e-06	3.915067e-06	2.073223e-09	2.783966e+01	1.392698e+02
2.810000e-06	3.946468e-06	2.081054e-09	2.806295e+01	1.399125e+02
2.820000e-06	3.977649e-06	2.092105e-09	2.828468e+01	1.405237e+02
2.830000e-06	4.008440e-06	2.100249e-09	2.850363e+01	1.411039e+02
2.840000e-06	4.038872e-06	2.104734e-09	2.872003e+01	1.416535e+02
2.850000e-06	4.069009e-06	2.111395e-09	2.893433e+01	1.421732e+02
2.860000e-06	4.098883e-06	2.120662e-09	2.914676e+01	1.426639e+02
2.870000e-06	4.128564e-06	2.129377e-09	2.935782e+01	1.431267e+02
2.880000e-06	4.158005e-06	2.133336e-09	2.956717e+01	1.435627e+02
2.890000e-06	4.187277e-06	2.133762e-09	2.977533e+01	1.439734e+02
2.900000e-06	4.216337e-06	2.136923e-09	2.998196e+01	1.443600e+02
