# Temperatura_=_6.71
# Concentracion g/m^3_=_4090.0
# C_Vs_to_Am_M_A/Vsm_=_65563218390.804596
# pendiente_HvsI_1/m_=_3716.3
# ordenada_HvsI_A/m_=_1297.0
# frecuencia_Hz_=_135081.54960090193

Tiempo_(s)	Campo_(V.s)	Magnetizacion_(V.s)	Campo_(kA/m)	Magnetizacion_(A/m)
0.000000e+00	-5.420276e-06	-2.583395e-09	-3.839233e+01	-1.670613e+02
1.000000e-08	-5.420288e-06	-2.582570e-09	-3.839242e+01	-1.669874e+02
2.000000e-08	-5.420050e-06	-2.581050e-09	-3.839073e+01	-1.669163e+02
3.000000e-08	-5.419553e-06	-2.579173e-09	-3.838721e+01	-1.668505e+02
4.000000e-08	-5.418600e-06	-2.578812e-09	-3.838046e+01	-1.667926e+02
5.000000e-08	-5.417136e-06	-2.588186e-09	-3.837009e+01	-1.667451e+02
6.000000e-08	-5.415138e-06	-2.593035e-09	-3.835594e+01	-1.667105e+02
7.000000e-08	-5.412541e-06	-2.568748e-09	-3.833755e+01	-1.666911e+02
8.000000e-08	-5.409366e-06	-2.542423e-09	-3.831506e+01	-1.666892e+02
9.000000e-08	-5.405619e-06	-2.569385e-09	-3.828852e+01	-1.667067e+02
1.000000e-07	-5.401391e-06	-2.591017e-09	-3.825857e+01	-1.667453e+02
1.100000e-07	-5.396929e-06	-2.590529e-09	-3.822696e+01	-1.668064e+02
1.200000e-07	-5.392390e-06	-2.552805e-09	-3.819481e+01	-1.668911e+02
1.300000e-07	-5.387605e-06	-2.543925e-09	-3.816092e+01	-1.669999e+02
1.400000e-07	-5.382346e-06	-2.581279e-09	-3.812367e+01	-1.671333e+02
1.500000e-07	-5.376659e-06	-2.561020e-09	-3.808339e+01	-1.672909e+02
1.600000e-07	-5.370601e-06	-2.538683e-09	-3.804048e+01	-1.674724e+02
1.700000e-07	-5.364178e-06	-2.517243e-09	-3.799499e+01	-1.676766e+02
1.800000e-07	-5.357288e-06	-2.550022e-09	-3.794618e+01	-1.679023e+02
1.900000e-07	-5.349998e-06	-2.580423e-09	-3.789455e+01	-1.681475e+02
2.000000e-07	-5.342555e-06	-2.587115e-09	-3.784183e+01	-1.684103e+02
2.100000e-07	-5.334853e-06	-2.589521e-09	-3.778727e+01	-1.686881e+02
2.200000e-07	-5.326876e-06	-2.603769e-09	-3.773077e+01	-1.689781e+02
2.300000e-07	-5.318721e-06	-2.639753e-09	-3.767301e+01	-1.692773e+02
2.400000e-07	-5.310171e-06	-2.649236e-09	-3.761245e+01	-1.695826e+02
2.500000e-07	-5.300922e-06	-2.649907e-09	-3.754694e+01	-1.698905e+02
2.600000e-07	-5.290905e-06	-2.652364e-09	-3.747598e+01	-1.701977e+02
2.700000e-07	-5.280282e-06	-2.677879e-09	-3.740074e+01	-1.705006e+02
2.800000e-07	-5.269276e-06	-2.671721e-09	-3.732279e+01	-1.707958e+02
2.900000e-07	-5.257856e-06	-2.655897e-09	-3.724190e+01	-1.710800e+02
3.000000e-07	-5.246038e-06	-2.659654e-09	-3.715819e+01	-1.713499e+02
3.100000e-07	-5.233851e-06	-2.672183e-09	-3.707186e+01	-1.716026e+02
3.200000e-07	-5.221209e-06	-2.658031e-09	-3.698232e+01	-1.718353e+02
3.300000e-07	-5.208209e-06	-2.651368e-09	-3.689024e+01	-1.720454e+02
3.400000e-07	-5.194888e-06	-2.663634e-09	-3.679589e+01	-1.722310e+02
3.500000e-07	-5.181131e-06	-2.655121e-09	-3.669844e+01	-1.723901e+02
3.600000e-07	-5.166878e-06	-2.639921e-09	-3.659749e+01	-1.725213e+02
3.700000e-07	-5.152232e-06	-2.651572e-09	-3.649375e+01	-1.726237e+02
3.800000e-07	-5.137121e-06	-2.653662e-09	-3.638672e+01	-1.726966e+02
3.900000e-07	-5.121393e-06	-2.635971e-09	-3.627532e+01	-1.727398e+02
4.000000e-07	-5.105086e-06	-2.636743e-09	-3.615981e+01	-1.727534e+02
4.100000e-07	-5.088408e-06	-2.652829e-09	-3.604168e+01	-1.727381e+02
4.200000e-07	-5.071531e-06	-2.638012e-09	-3.592214e+01	-1.726948e+02
4.300000e-07	-5.054321e-06	-2.626324e-09	-3.580024e+01	-1.726248e+02
4.400000e-07	-5.036786e-06	-2.630882e-09	-3.567604e+01	-1.725295e+02
4.500000e-07	-5.018945e-06	-2.618896e-09	-3.554967e+01	-1.724108e+02
4.600000e-07	-5.000760e-06	-2.608672e-09	-3.542086e+01	-1.722708e+02
4.700000e-07	-4.982152e-06	-2.620847e-09	-3.528906e+01	-1.721115e+02
4.800000e-07	-4.963062e-06	-2.626580e-09	-3.515384e+01	-1.719355e+02
4.900000e-07	-4.943639e-06	-2.614384e-09	-3.501627e+01	-1.717449e+02
5.000000e-07	-4.923953e-06	-2.621043e-09	-3.487683e+01	-1.715423e+02
5.100000e-07	-4.903997e-06	-2.623478e-09	-3.473548e+01	-1.713301e+02
5.200000e-07	-4.883856e-06	-2.610556e-09	-3.459282e+01	-1.711106e+02
5.300000e-07	-4.863617e-06	-2.603292e-09	-3.444947e+01	-1.708859e+02
5.400000e-07	-4.843045e-06	-2.605192e-09	-3.430375e+01	-1.706583e+02
5.500000e-07	-4.821990e-06	-2.593058e-09	-3.415462e+01	-1.704296e+02
5.600000e-07	-4.800589e-06	-2.591073e-09	-3.400303e+01	-1.702014e+02
5.700000e-07	-4.778845e-06	-2.589696e-09	-3.384901e+01	-1.699753e+02
5.800000e-07	-4.756782e-06	-2.581192e-09	-3.369274e+01	-1.697525e+02
5.900000e-07	-4.734457e-06	-2.577369e-09	-3.353461e+01	-1.695339e+02
6.000000e-07	-4.711846e-06	-2.586115e-09	-3.337445e+01	-1.693202e+02
6.100000e-07	-4.688942e-06	-2.578918e-09	-3.321223e+01	-1.691119e+02
6.200000e-07	-4.665680e-06	-2.568187e-09	-3.304746e+01	-1.689092e+02
6.300000e-07	-4.642089e-06	-2.562438e-09	-3.288036e+01	-1.687121e+02
6.400000e-07	-4.618239e-06	-2.557599e-09	-3.271143e+01	-1.685202e+02
6.500000e-07	-4.594150e-06	-2.551448e-09	-3.254080e+01	-1.683330e+02
6.600000e-07	-4.569740e-06	-2.549603e-09	-3.236791e+01	-1.681501e+02
6.700000e-07	-4.545012e-06	-2.546128e-09	-3.219276e+01	-1.679705e+02
6.800000e-07	-4.519950e-06	-2.546200e-09	-3.201524e+01	-1.677933e+02
6.900000e-07	-4.494447e-06	-2.549112e-09	-3.183460e+01	-1.676176e+02
7.000000e-07	-4.468325e-06	-2.544808e-09	-3.164957e+01	-1.674423e+02
7.100000e-07	-4.441590e-06	-2.534011e-09	-3.146020e+01	-1.672663e+02
7.200000e-07	-4.414516e-06	-2.527436e-09	-3.126844e+01	-1.670885e+02
7.300000e-07	-4.387164e-06	-2.524897e-09	-3.107470e+01	-1.669080e+02
7.400000e-07	-4.359501e-06	-2.522176e-09	-3.087876e+01	-1.667237e+02
7.500000e-07	-4.331594e-06	-2.517186e-09	-3.068109e+01	-1.665347e+02
7.600000e-07	-4.303481e-06	-2.509281e-09	-3.048197e+01	-1.663402e+02
7.700000e-07	-4.275131e-06	-2.505402e-09	-3.028116e+01	-1.661395e+02
7.800000e-07	-4.246519e-06	-2.502673e-09	-3.007850e+01	-1.659320e+02
7.900000e-07	-4.217584e-06	-2.498472e-09	-2.987355e+01	-1.657174e+02
8.000000e-07	-4.188333e-06	-2.491060e-09	-2.966636e+01	-1.654953e+02
8.100000e-07	-4.158846e-06	-2.486407e-09	-2.945750e+01	-1.652655e+02
8.200000e-07	-4.129096e-06	-2.481414e-09	-2.924678e+01	-1.650280e+02
8.300000e-07	-4.098915e-06	-2.476495e-09	-2.903301e+01	-1.647829e+02
8.400000e-07	-4.068459e-06	-2.469018e-09	-2.881728e+01	-1.645304e+02
8.500000e-07	-4.037858e-06	-2.463463e-09	-2.860053e+01	-1.642708e+02
8.600000e-07	-4.007064e-06	-2.457976e-09	-2.838242e+01	-1.640043e+02
8.700000e-07	-3.976001e-06	-2.454556e-09	-2.816239e+01	-1.637316e+02
8.800000e-07	-3.944710e-06	-2.449802e-09	-2.794076e+01	-1.634529e+02
8.900000e-07	-3.913245e-06	-2.445726e-09	-2.771789e+01	-1.631689e+02
9.000000e-07	-3.881516e-06	-2.441106e-09	-2.749315e+01	-1.628801e+02
9.100000e-07	-3.849573e-06	-2.437423e-09	-2.726690e+01	-1.625868e+02
9.200000e-07	-3.817368e-06	-2.433283e-09	-2.703879e+01	-1.622897e+02
9.300000e-07	-3.784868e-06	-2.430821e-09	-2.680858e+01	-1.619890e+02
9.400000e-07	-3.752199e-06	-2.426843e-09	-2.657718e+01	-1.616852e+02
9.500000e-07	-3.719241e-06	-2.422741e-09	-2.634374e+01	-1.613786e+02
9.600000e-07	-3.685761e-06	-2.416819e-09	-2.610660e+01	-1.610693e+02
9.700000e-07	-3.651846e-06	-2.410409e-09	-2.586637e+01	-1.607576e+02
9.800000e-07	-3.617594e-06	-2.403885e-09	-2.562376e+01	-1.604434e+02
9.900000e-07	-3.582947e-06	-2.397978e-09	-2.537836e+01	-1.601268e+02
1.000000e-06	-3.547849e-06	-2.394044e-09	-2.512976e+01	-1.598077e+02
1.010000e-06	-3.512471e-06	-2.392523e-09	-2.487917e+01	-1.594858e+02
1.020000e-06	-3.476904e-06	-2.390784e-09	-2.462724e+01	-1.591609e+02
1.030000e-06	-3.441113e-06	-2.385269e-09	-2.437373e+01	-1.588327e+02
1.040000e-06	-3.405178e-06	-2.378609e-09	-2.411920e+01	-1.585009e+02
1.050000e-06	-3.369135e-06	-2.370383e-09	-2.386391e+01	-1.581651e+02
1.060000e-06	-3.332967e-06	-2.362733e-09	-2.360772e+01	-1.578248e+02
1.070000e-06	-3.296527e-06	-2.355511e-09	-2.334961e+01	-1.574797e+02
1.080000e-06	-3.259829e-06	-2.349571e-09	-2.308968e+01	-1.571293e+02
1.090000e-06	-3.222986e-06	-2.343906e-09	-2.282872e+01	-1.567733e+02
1.100000e-06	-3.185852e-06	-2.339267e-09	-2.256570e+01	-1.564113e+02
1.110000e-06	-3.148461e-06	-2.333222e-09	-2.230085e+01	-1.560430e+02
1.120000e-06	-3.110830e-06	-2.325613e-09	-2.203431e+01	-1.556681e+02
1.130000e-06	-3.072944e-06	-2.317741e-09	-2.176596e+01	-1.552863e+02
1.140000e-06	-3.034924e-06	-2.311504e-09	-2.149666e+01	-1.548975e+02
1.150000e-06	-2.996734e-06	-2.306403e-09	-2.122615e+01	-1.545016e+02
1.160000e-06	-2.958392e-06	-2.301459e-09	-2.095458e+01	-1.540984e+02
1.170000e-06	-2.919885e-06	-2.294228e-09	-2.068182e+01	-1.536881e+02
1.180000e-06	-2.881099e-06	-2.287924e-09	-2.040710e+01	-1.532705e+02
1.190000e-06	-2.842012e-06	-2.283859e-09	-2.013024e+01	-1.528458e+02
1.200000e-06	-2.802782e-06	-2.278550e-09	-1.985237e+01	-1.524141e+02
1.210000e-06	-2.763439e-06	-2.269699e-09	-1.957370e+01	-1.519755e+02
1.220000e-06	-2.723835e-06	-2.258248e-09	-1.929318e+01	-1.515301e+02
1.230000e-06	-2.683985e-06	-2.246561e-09	-1.901092e+01	-1.510779e+02
1.240000e-06	-2.644042e-06	-2.237703e-09	-1.872800e+01	-1.506192e+02
1.250000e-06	-2.604051e-06	-2.228487e-09	-1.844474e+01	-1.501539e+02
1.260000e-06	-2.564018e-06	-2.220871e-09	-1.816118e+01	-1.496820e+02
1.270000e-06	-2.523876e-06	-2.214406e-09	-1.787686e+01	-1.492036e+02
1.280000e-06	-2.483586e-06	-2.206849e-09	-1.759148e+01	-1.487185e+02
1.290000e-06	-2.443158e-06	-2.195553e-09	-1.730513e+01	-1.482265e+02
1.300000e-06	-2.402524e-06	-2.182421e-09	-1.701731e+01	-1.477273e+02
1.310000e-06	-2.361574e-06	-2.173832e-09	-1.672725e+01	-1.472206e+02
1.320000e-06	-2.320369e-06	-2.167374e-09	-1.643540e+01	-1.467060e+02
1.330000e-06	-2.278988e-06	-2.157130e-09	-1.614229e+01	-1.461828e+02
1.340000e-06	-2.237399e-06	-2.145384e-09	-1.584771e+01	-1.456506e+02
1.350000e-06	-2.195510e-06	-2.137869e-09	-1.555101e+01	-1.451086e+02
1.360000e-06	-2.153227e-06	-2.131597e-09	-1.525151e+01	-1.445561e+02
1.370000e-06	-2.110680e-06	-2.121541e-09	-1.495015e+01	-1.439922e+02
1.380000e-06	-2.067988e-06	-2.106156e-09	-1.464776e+01	-1.434161e+02
1.390000e-06	-2.025200e-06	-2.090564e-09	-1.434468e+01	-1.428269e+02
1.400000e-06	-1.982187e-06	-2.081075e-09	-1.404002e+01	-1.422236e+02
1.410000e-06	-1.938842e-06	-2.074118e-09	-1.373300e+01	-1.416053e+02
1.420000e-06	-1.895281e-06	-2.061624e-09	-1.342446e+01	-1.409712e+02
1.430000e-06	-1.851611e-06	-2.048980e-09	-1.311514e+01	-1.403202e+02
1.440000e-06	-1.807815e-06	-2.040413e-09	-1.280493e+01	-1.396516e+02
1.450000e-06	-1.763936e-06	-2.031016e-09	-1.249412e+01	-1.389646e+02
1.460000e-06	-1.720070e-06	-2.016338e-09	-1.218342e+01	-1.382583e+02
1.470000e-06	-1.676119e-06	-2.000347e-09	-1.187211e+01	-1.375321e+02
1.480000e-06	-1.632046e-06	-1.986049e-09	-1.155994e+01	-1.367854e+02
1.490000e-06	-1.587969e-06	-1.975387e-09	-1.124773e+01	-1.360177e+02
1.500000e-06	-1.543779e-06	-1.965655e-09	-1.093473e+01	-1.352285e+02
1.510000e-06	-1.499430e-06	-1.954176e-09	-1.062061e+01	-1.344175e+02
1.520000e-06	-1.455072e-06	-1.940561e-09	-1.030641e+01	-1.335843e+02
1.530000e-06	-1.410732e-06	-1.926853e-09	-9.992350e+00	-1.327288e+02
1.540000e-06	-1.366305e-06	-1.912989e-09	-9.677666e+00	-1.318507e+02
1.550000e-06	-1.321757e-06	-1.896320e-09	-9.362128e+00	-1.309500e+02
1.560000e-06	-1.277017e-06	-1.882432e-09	-9.045235e+00	-1.300265e+02
1.570000e-06	-1.232201e-06	-1.874185e-09	-8.727797e+00	-1.290801e+02
1.580000e-06	-1.187398e-06	-1.865355e-09	-8.410453e+00	-1.281108e+02
1.590000e-06	-1.142444e-06	-1.853017e-09	-8.092037e+00	-1.271183e+02
1.600000e-06	-1.097376e-06	-1.838146e-09	-7.772819e+00	-1.261026e+02
1.610000e-06	-1.052266e-06	-1.823435e-09	-7.453303e+00	-1.250633e+02
1.620000e-06	-1.007045e-06	-1.808159e-09	-7.132996e+00	-1.240001e+02
1.630000e-06	-9.617661e-07	-1.788655e-09	-6.812281e+00	-1.229126e+02
1.640000e-06	-9.164606e-07	-1.768196e-09	-6.491378e+00	-1.218001e+02
1.650000e-06	-8.710410e-07	-1.752149e-09	-6.169666e+00	-1.206619e+02
1.660000e-06	-8.255482e-07	-1.738433e-09	-5.847436e+00	-1.194971e+02
1.670000e-06	-7.800082e-07	-1.722631e-09	-5.524872e+00	-1.183048e+02
1.680000e-06	-7.344309e-07	-1.704466e-09	-5.202044e+00	-1.170837e+02
1.690000e-06	-6.887485e-07	-1.687733e-09	-4.878471e+00	-1.158324e+02
1.700000e-06	-6.430403e-07	-1.671965e-09	-4.554716e+00	-1.145494e+02
1.710000e-06	-5.973632e-07	-1.650238e-09	-4.231181e+00	-1.132330e+02
1.720000e-06	-5.516362e-07	-1.623675e-09	-3.907292e+00	-1.118813e+02
1.730000e-06	-5.058607e-07	-1.598494e-09	-3.583059e+00	-1.104924e+02
1.740000e-06	-4.600014e-07	-1.577657e-09	-3.258234e+00	-1.090642e+02
1.750000e-06	-4.141813e-07	-1.557796e-09	-2.933686e+00	-1.075946e+02
1.760000e-06	-3.683196e-07	-1.539096e-09	-2.608843e+00	-1.060813e+02
1.770000e-06	-3.223315e-07	-1.522041e-09	-2.283105e+00	-1.045220e+02
1.780000e-06	-2.764128e-07	-1.504384e-09	-1.957858e+00	-1.029145e+02
1.790000e-06	-2.304828e-07	-1.481884e-09	-1.632532e+00	-1.012566e+02
1.800000e-06	-1.845368e-07	-1.450599e-09	-1.307092e+00	-9.954596e+01
1.810000e-06	-1.386077e-07	-1.416765e-09	-9.817716e-01	-9.778057e+01
1.820000e-06	-9.265491e-08	-1.388479e-09	-6.562836e-01	-9.595846e+01
1.830000e-06	-4.673565e-08	-1.362970e-09	-3.310331e-01	-9.407780e+01
1.840000e-06	-8.268492e-10	-1.336102e-09	-5.856652e-03	-9.213694e+01
1.850000e-06	4.508524e-08	-1.309367e-09	3.193430e-01	-9.013446e+01
1.860000e-06	9.100428e-08	-1.282886e-09	6.445920e-01	-8.806915e+01
1.870000e-06	1.369878e-07	-1.252115e-09	9.702976e-01	-8.594005e+01
1.880000e-06	1.829634e-07	-1.215296e-09	1.295948e+00	-8.374649e+01
1.890000e-06	2.288508e-07	-1.175130e-09	1.620972e+00	-8.148804e+01
1.900000e-06	2.747176e-07	-1.137805e-09	1.945851e+00	-7.916457e+01
1.910000e-06	3.206013e-07	-1.101542e-09	2.270849e+00	-7.677626e+01
1.920000e-06	3.664559e-07	-1.063450e-09	2.595642e+00	-7.432352e+01
1.930000e-06	4.122541e-07	-1.028049e-09	2.920035e+00	-7.180710e+01
1.940000e-06	4.580378e-07	-9.955136e-10	3.244326e+00	-6.922796e+01
1.950000e-06	5.038372e-07	-9.625610e-10	3.568727e+00	-6.658736e+01
1.960000e-06	5.495893e-07	-9.222328e-10	3.892793e+00	-6.388675e+01
1.970000e-06	5.953209e-07	-8.760654e-10	4.216715e+00	-6.112785e+01
1.980000e-06	6.410326e-07	-8.318703e-10	4.540495e+00	-5.831251e+01
1.990000e-06	6.866908e-07	-7.883078e-10	4.863896e+00	-5.544280e+01
2.000000e-06	7.323354e-07	-7.432585e-10	5.187201e+00	-5.252089e+01
2.010000e-06	7.779548e-07	-6.958131e-10	5.510328e+00	-4.954910e+01
2.020000e-06	8.234885e-07	-6.503448e-10	5.832848e+00	-4.652982e+01
2.030000e-06	8.688882e-07	-6.101512e-10	6.154418e+00	-4.346550e+01
2.040000e-06	9.142325e-07	-5.670511e-10	6.475596e+00	-4.035863e+01
2.050000e-06	9.595346e-07	-5.196222e-10	6.796476e+00	-3.721174e+01
2.060000e-06	1.004751e-06	-4.736346e-10	7.116748e+00	-3.402733e+01
2.070000e-06	1.049917e-06	-4.319264e-10	7.436662e+00	-3.080791e+01
2.080000e-06	1.095033e-06	-3.861623e-10	7.756224e+00	-2.755594e+01
2.090000e-06	1.140045e-06	-3.336440e-10	8.075050e+00	-2.427384e+01
2.100000e-06	1.184882e-06	-2.805239e-10	8.392633e+00	-2.096401e+01
2.110000e-06	1.229508e-06	-2.297944e-10	8.708724e+00	-1.762877e+01
2.120000e-06	1.274025e-06	-1.778842e-10	9.024039e+00	-1.427043e+01
2.130000e-06	1.318483e-06	-1.240814e-10	9.338939e+00	-1.089122e+01
2.140000e-06	1.362836e-06	-7.426296e-11	9.653099e+00	-7.493370e+00
2.150000e-06	1.407168e-06	-2.983191e-11	9.967109e+00	-4.079078e+00
2.160000e-06	1.451463e-06	1.457051e-11	1.028085e+01	-6.505364e-01
2.170000e-06	1.495656e-06	6.482966e-11	1.059388e+01	2.790058e+00
2.180000e-06	1.539778e-06	1.212476e-10	1.090640e+01	6.240481e+00
2.190000e-06	1.583900e-06	1.772049e-10	1.121892e+01	9.698472e+00
2.200000e-06	1.628025e-06	2.307081e-10	1.153146e+01	1.316171e+01
2.210000e-06	1.672037e-06	2.830361e-10	1.184320e+01	1.662780e+01
2.220000e-06	1.715978e-06	3.335719e-10	1.215444e+01	2.009427e+01
2.230000e-06	1.759857e-06	3.835483e-10	1.246524e+01	2.355852e+01
2.240000e-06	1.803677e-06	4.324468e-10	1.277562e+01	2.701789e+01
2.250000e-06	1.847447e-06	4.788662e-10	1.308564e+01	3.046955e+01
2.260000e-06	1.891130e-06	5.255332e-10	1.339505e+01	3.391059e+01
2.270000e-06	1.934734e-06	5.747945e-10	1.370390e+01	3.733796e+01
2.280000e-06	1.978172e-06	6.245444e-10	1.401158e+01	4.074850e+01
2.290000e-06	2.021358e-06	6.748805e-10	1.431747e+01	4.413895e+01
2.300000e-06	2.064227e-06	7.258277e-10	1.462112e+01	4.750596e+01
2.310000e-06	2.106851e-06	7.751244e-10	1.492303e+01	5.084610e+01
2.320000e-06	2.149371e-06	8.204930e-10	1.522420e+01	5.415589e+01
2.330000e-06	2.191598e-06	8.631330e-10	1.552330e+01	5.743181e+01
2.340000e-06	2.233415e-06	9.045749e-10	1.581949e+01	6.067036e+01
2.350000e-06	2.274954e-06	9.490865e-10	1.611372e+01	6.386806e+01
2.360000e-06	2.316295e-06	9.965633e-10	1.640654e+01	6.702148e+01
2.370000e-06	2.357390e-06	1.044244e-09	1.669762e+01	7.012730e+01
2.380000e-06	2.398253e-06	1.091142e-09	1.698706e+01	7.318232e+01
2.390000e-06	2.438874e-06	1.136702e-09	1.727478e+01	7.618353e+01
2.400000e-06	2.479239e-06	1.176867e-09	1.756069e+01	7.912807e+01
2.410000e-06	2.519411e-06	1.211766e-09	1.784523e+01	8.201335e+01
2.420000e-06	2.559453e-06	1.247001e-09	1.812885e+01	8.483701e+01
2.430000e-06	2.599427e-06	1.286785e-09	1.841199e+01	8.759698e+01
2.440000e-06	2.639372e-06	1.330413e-09	1.869493e+01	9.029151e+01
2.450000e-06	2.679240e-06	1.369469e-09	1.897731e+01	9.291915e+01
2.460000e-06	2.718909e-06	1.404360e-09	1.925829e+01	9.547879e+01
2.470000e-06	2.758373e-06	1.437954e-09	1.953782e+01	9.796967e+01
2.480000e-06	2.797719e-06	1.470153e-09	1.981651e+01	1.003914e+02
2.490000e-06	2.836898e-06	1.501791e-09	2.009402e+01	1.027438e+02
2.500000e-06	2.875757e-06	1.534362e-09	2.036926e+01	1.050272e+02
2.510000e-06	2.914368e-06	1.572829e-09	2.064274e+01	1.072421e+02
2.520000e-06	2.952739e-06	1.610968e-09	2.091453e+01	1.093895e+02
2.530000e-06	2.990905e-06	1.640366e-09	2.118487e+01	1.114704e+02
2.540000e-06	3.028941e-06	1.662736e-09	2.145428e+01	1.134863e+02
2.550000e-06	3.066833e-06	1.685097e-09	2.172267e+01	1.154387e+02
2.560000e-06	3.104541e-06	1.710402e-09	2.198976e+01	1.173295e+02
2.570000e-06	3.142073e-06	1.735991e-09	2.225561e+01	1.191605e+02
2.580000e-06	3.179448e-06	1.762787e-09	2.252033e+01	1.209338e+02
2.590000e-06	3.216531e-06	1.792509e-09	2.278300e+01	1.226516e+02
2.600000e-06	3.253301e-06	1.824203e-09	2.304345e+01	1.243159e+02
2.610000e-06	3.289817e-06	1.852275e-09	2.330209e+01	1.259288e+02
2.620000e-06	3.326088e-06	1.874834e-09	2.355900e+01	1.274925e+02
2.630000e-06	3.362232e-06	1.894994e-09	2.381501e+01	1.290090e+02
2.640000e-06	3.398291e-06	1.913814e-09	2.407042e+01	1.304801e+02
2.650000e-06	3.434255e-06	1.931928e-09	2.432516e+01	1.319077e+02
2.660000e-06	3.470097e-06	1.951011e-09	2.457903e+01	1.332933e+02
2.670000e-06	3.505781e-06	1.973805e-09	2.483178e+01	1.346385e+02
2.680000e-06	3.541281e-06	1.998239e-09	2.508323e+01	1.359446e+02
2.690000e-06	3.576466e-06	2.019431e-09	2.533245e+01	1.372125e+02
2.700000e-06	3.611197e-06	2.036815e-09	2.557845e+01	1.384434e+02
2.710000e-06	3.645461e-06	2.051047e-09	2.582115e+01	1.396378e+02
2.720000e-06	3.679218e-06	2.064744e-09	2.606025e+01	1.407964e+02
2.730000e-06	3.712540e-06	2.080091e-09	2.629627e+01	1.419196e+02
2.740000e-06	3.745473e-06	2.095089e-09	2.652954e+01	1.430078e+02
2.750000e-06	3.777997e-06	2.112270e-09	2.675991e+01	1.440610e+02
2.760000e-06	3.810251e-06	2.132936e-09	2.698838e+01	1.450794e+02
2.770000e-06	3.842375e-06	2.151917e-09	2.721591e+01	1.460631e+02
2.780000e-06	3.874417e-06	2.165949e-09	2.744286e+01	1.470119e+02
2.790000e-06	3.906269e-06	2.177819e-09	2.766848e+01	1.479260e+02
2.800000e-06	3.937912e-06	2.189673e-09	2.789261e+01	1.488052e+02
2.810000e-06	3.969404e-06	2.200858e-09	2.811567e+01	1.496498e+02
2.820000e-06	4.000590e-06	2.209889e-09	2.833656e+01	1.504597e+02
2.830000e-06	4.031479e-06	2.218465e-09	2.855535e+01	1.512353e+02
2.840000e-06	4.062107e-06	2.228967e-09	2.877229e+01	1.519769e+02
2.850000e-06	4.092403e-06	2.239770e-09	2.898688e+01	1.526849e+02
2.860000e-06	4.122424e-06	2.252578e-09	2.919952e+01	1.533601e+02
2.870000e-06	4.152225e-06	2.264496e-09	2.941061e+01	1.540031e+02
2.880000e-06	4.181719e-06	2.272943e-09	2.961952e+01	1.546149e+02
2.890000e-06	4.210849e-06	2.278995e-09	2.982584e+01	1.551966e+02
2.900000e-06	4.239741e-06	2.284481e-09	3.003049e+01	1.557493e+02
