# Temperatura_=_-0.96
# Concentracion g/m^3_=_4090.0
# C_Vs_to_Am_M_A/Vsm_=_65563218390.804596
# pendiente_HvsI_1/m_=_3716.3
# ordenada_HvsI_A/m_=_1297.0
# frecuencia_Hz_=_135075.01245759407

Tiempo_(s)	Campo_(V.s)	Magnetizacion_(V.s)	Campo_(kA/m)	Magnetizacion_(A/m)
0.000000e+00	-5.390655e-06	-2.670551e-09	-3.839759e+01	-1.702133e+02
1.000000e-08	-5.390899e-06	-2.674468e-09	-3.839933e+01	-1.702056e+02
2.000000e-08	-5.390895e-06	-2.676664e-09	-3.839930e+01	-1.702000e+02
3.000000e-08	-5.390599e-06	-2.676118e-09	-3.839719e+01	-1.701983e+02
4.000000e-08	-5.389994e-06	-2.672518e-09	-3.839288e+01	-1.702018e+02
5.000000e-08	-5.388956e-06	-2.668666e-09	-3.838549e+01	-1.702121e+02
6.000000e-08	-5.387309e-06	-2.672455e-09	-3.837375e+01	-1.702307e+02
7.000000e-08	-5.385024e-06	-2.692678e-09	-3.835748e+01	-1.702590e+02
8.000000e-08	-5.382095e-06	-2.686755e-09	-3.833661e+01	-1.702984e+02
9.000000e-08	-5.378599e-06	-2.624055e-09	-3.831171e+01	-1.703500e+02
1.000000e-07	-5.374724e-06	-2.608959e-09	-3.828411e+01	-1.704147e+02
1.100000e-07	-5.370571e-06	-2.713735e-09	-3.825453e+01	-1.704935e+02
1.200000e-07	-5.366155e-06	-2.740976e-09	-3.822307e+01	-1.705869e+02
1.300000e-07	-5.361448e-06	-2.623167e-09	-3.818955e+01	-1.706952e+02
1.400000e-07	-5.356425e-06	-2.562909e-09	-3.815377e+01	-1.708187e+02
1.500000e-07	-5.351078e-06	-2.704143e-09	-3.811568e+01	-1.709571e+02
1.600000e-07	-5.345344e-06	-2.758876e-09	-3.807484e+01	-1.711101e+02
1.700000e-07	-5.339158e-06	-2.609438e-09	-3.803078e+01	-1.712770e+02
1.800000e-07	-5.332545e-06	-2.543272e-09	-3.798367e+01	-1.714569e+02
1.900000e-07	-5.325565e-06	-2.698417e-09	-3.793395e+01	-1.716488e+02
2.000000e-07	-5.318237e-06	-2.759769e-09	-3.788176e+01	-1.718511e+02
2.100000e-07	-5.310648e-06	-2.654429e-09	-3.782770e+01	-1.720624e+02
2.200000e-07	-5.302870e-06	-2.647902e-09	-3.777230e+01	-1.722809e+02
2.300000e-07	-5.294834e-06	-2.754091e-09	-3.771506e+01	-1.725047e+02
2.400000e-07	-5.286447e-06	-2.725256e-09	-3.765532e+01	-1.727317e+02
2.500000e-07	-5.277583e-06	-2.633682e-09	-3.759218e+01	-1.729598e+02
2.600000e-07	-5.268133e-06	-2.705006e-09	-3.752487e+01	-1.731869e+02
2.700000e-07	-5.258101e-06	-2.783841e-09	-3.745341e+01	-1.734107e+02
2.800000e-07	-5.247525e-06	-2.707560e-09	-3.737807e+01	-1.736290e+02
2.900000e-07	-5.236430e-06	-2.671246e-09	-3.729905e+01	-1.738397e+02
3.000000e-07	-5.224930e-06	-2.780615e-09	-3.721713e+01	-1.740407e+02
3.100000e-07	-5.213031e-06	-2.763981e-09	-3.713238e+01	-1.742300e+02
3.200000e-07	-5.200745e-06	-2.645939e-09	-3.704486e+01	-1.744058e+02
3.300000e-07	-5.188004e-06	-2.660231e-09	-3.695411e+01	-1.745666e+02
3.400000e-07	-5.174802e-06	-2.746830e-09	-3.686007e+01	-1.747107e+02
3.500000e-07	-5.161241e-06	-2.697437e-09	-3.676347e+01	-1.748370e+02
3.600000e-07	-5.147327e-06	-2.668083e-09	-3.666436e+01	-1.749445e+02
3.700000e-07	-5.133101e-06	-2.721624e-09	-3.656303e+01	-1.750322e+02
3.800000e-07	-5.118440e-06	-2.732489e-09	-3.645860e+01	-1.750998e+02
3.900000e-07	-5.103154e-06	-2.690607e-09	-3.634972e+01	-1.751468e+02
4.000000e-07	-5.087245e-06	-2.710914e-09	-3.623640e+01	-1.751732e+02
4.100000e-07	-5.070740e-06	-2.693012e-09	-3.611884e+01	-1.751790e+02
4.200000e-07	-5.053919e-06	-2.636765e-09	-3.599902e+01	-1.751647e+02
4.300000e-07	-5.036950e-06	-2.662225e-09	-3.587815e+01	-1.751309e+02
4.400000e-07	-5.019636e-06	-2.711979e-09	-3.575482e+01	-1.750781e+02
4.500000e-07	-5.002016e-06	-2.669165e-09	-3.562932e+01	-1.750075e+02
4.600000e-07	-4.984179e-06	-2.652051e-09	-3.550227e+01	-1.749198e+02
4.700000e-07	-4.965934e-06	-2.706180e-09	-3.537231e+01	-1.748164e+02
4.800000e-07	-4.947218e-06	-2.706856e-09	-3.523899e+01	-1.746985e+02
4.900000e-07	-4.928098e-06	-2.652311e-09	-3.510280e+01	-1.745672e+02
5.000000e-07	-4.908660e-06	-2.637278e-09	-3.496434e+01	-1.744240e+02
5.100000e-07	-4.888950e-06	-2.650275e-09	-3.482395e+01	-1.742701e+02
5.200000e-07	-4.868977e-06	-2.656054e-09	-3.468168e+01	-1.741070e+02
5.300000e-07	-4.848824e-06	-2.667608e-09	-3.453813e+01	-1.739357e+02
5.400000e-07	-4.828419e-06	-2.663211e-09	-3.439279e+01	-1.737576e+02
5.500000e-07	-4.807645e-06	-2.655790e-09	-3.424481e+01	-1.735738e+02
5.600000e-07	-4.786537e-06	-2.668375e-09	-3.409446e+01	-1.733853e+02
5.700000e-07	-4.765093e-06	-2.669635e-09	-3.394172e+01	-1.731931e+02
5.800000e-07	-4.743302e-06	-2.629314e-09	-3.378650e+01	-1.729979e+02
5.900000e-07	-4.721197e-06	-2.611057e-09	-3.362905e+01	-1.728005e+02
6.000000e-07	-4.698812e-06	-2.628012e-09	-3.346960e+01	-1.726015e+02
6.100000e-07	-4.676151e-06	-2.642670e-09	-3.330819e+01	-1.724014e+02
6.200000e-07	-4.653101e-06	-2.629719e-09	-3.314400e+01	-1.722004e+02
6.300000e-07	-4.629706e-06	-2.617647e-09	-3.297736e+01	-1.719988e+02
6.400000e-07	-4.606026e-06	-2.616605e-09	-3.280869e+01	-1.717968e+02
6.500000e-07	-4.582115e-06	-2.624563e-09	-3.263837e+01	-1.715944e+02
6.600000e-07	-4.557995e-06	-2.611477e-09	-3.246656e+01	-1.713915e+02
6.700000e-07	-4.533620e-06	-2.590923e-09	-3.229294e+01	-1.711881e+02
6.800000e-07	-4.508898e-06	-2.587553e-09	-3.211684e+01	-1.709839e+02
6.900000e-07	-4.483759e-06	-2.603875e-09	-3.193778e+01	-1.707788e+02
7.000000e-07	-4.458139e-06	-2.603420e-09	-3.175529e+01	-1.705726e+02
7.100000e-07	-4.431952e-06	-2.587059e-09	-3.156876e+01	-1.703649e+02
7.200000e-07	-4.405298e-06	-2.574548e-09	-3.137890e+01	-1.701555e+02
7.300000e-07	-4.378361e-06	-2.578985e-09	-3.118703e+01	-1.699441e+02
7.400000e-07	-4.351141e-06	-2.577626e-09	-3.099314e+01	-1.697306e+02
7.500000e-07	-4.323608e-06	-2.561928e-09	-3.079702e+01	-1.695146e+02
7.600000e-07	-4.295826e-06	-2.548846e-09	-3.059913e+01	-1.692960e+02
7.700000e-07	-4.267794e-06	-2.554154e-09	-3.039946e+01	-1.690746e+02
7.800000e-07	-4.239543e-06	-2.562594e-09	-3.019823e+01	-1.688502e+02
7.900000e-07	-4.211054e-06	-2.557421e-09	-2.999530e+01	-1.686229e+02
8.000000e-07	-4.182269e-06	-2.543454e-09	-2.979027e+01	-1.683924e+02
8.100000e-07	-4.153140e-06	-2.535343e-09	-2.958278e+01	-1.681588e+02
8.200000e-07	-4.123703e-06	-2.536116e-09	-2.937310e+01	-1.679220e+02
8.300000e-07	-4.093993e-06	-2.532970e-09	-2.916148e+01	-1.676821e+02
8.400000e-07	-4.063923e-06	-2.525908e-09	-2.894729e+01	-1.674391e+02
8.500000e-07	-4.033570e-06	-2.521984e-09	-2.873108e+01	-1.671929e+02
8.600000e-07	-4.002973e-06	-2.525961e-09	-2.851314e+01	-1.669437e+02
8.700000e-07	-3.972184e-06	-2.524126e-09	-2.829384e+01	-1.666914e+02
8.800000e-07	-3.941188e-06	-2.512557e-09	-2.807304e+01	-1.664360e+02
8.900000e-07	-3.909865e-06	-2.499195e-09	-2.784994e+01	-1.661776e+02
9.000000e-07	-3.878326e-06	-2.499177e-09	-2.762528e+01	-1.659160e+02
9.100000e-07	-3.846621e-06	-2.502768e-09	-2.739945e+01	-1.656513e+02
9.200000e-07	-3.814669e-06	-2.500507e-09	-2.717185e+01	-1.653833e+02
9.300000e-07	-3.782529e-06	-2.492487e-09	-2.694292e+01	-1.651120e+02
9.400000e-07	-3.750228e-06	-2.492458e-09	-2.671284e+01	-1.648371e+02
9.500000e-07	-3.717694e-06	-2.493786e-09	-2.648110e+01	-1.645584e+02
9.600000e-07	-3.684863e-06	-2.487985e-09	-2.624725e+01	-1.642759e+02
9.700000e-07	-3.651687e-06	-2.476687e-09	-2.601094e+01	-1.639892e+02
9.800000e-07	-3.618111e-06	-2.473711e-09	-2.577178e+01	-1.636981e+02
9.900000e-07	-3.583931e-06	-2.475415e-09	-2.552831e+01	-1.634023e+02
1.000000e-06	-3.549279e-06	-2.474122e-09	-2.528148e+01	-1.631016e+02
1.010000e-06	-3.514311e-06	-2.467220e-09	-2.503241e+01	-1.627958e+02
1.020000e-06	-3.479074e-06	-2.463080e-09	-2.478141e+01	-1.624846e+02
1.030000e-06	-3.443628e-06	-2.460851e-09	-2.452893e+01	-1.621678e+02
1.040000e-06	-3.407935e-06	-2.455708e-09	-2.427469e+01	-1.618453e+02
1.050000e-06	-3.372041e-06	-2.444566e-09	-2.401902e+01	-1.615168e+02
1.060000e-06	-3.336025e-06	-2.434536e-09	-2.376247e+01	-1.611823e+02
1.070000e-06	-3.299887e-06	-2.430791e-09	-2.350507e+01	-1.608418e+02
1.080000e-06	-3.263541e-06	-2.427937e-09	-2.324617e+01	-1.604952e+02
1.090000e-06	-3.226955e-06	-2.420746e-09	-2.298557e+01	-1.601426e+02
1.100000e-06	-3.190199e-06	-2.414102e-09	-2.272376e+01	-1.597840e+02
1.110000e-06	-3.153179e-06	-2.410273e-09	-2.246007e+01	-1.594198e+02
1.120000e-06	-3.115774e-06	-2.403315e-09	-2.219363e+01	-1.590500e+02
1.130000e-06	-3.078220e-06	-2.393505e-09	-2.192613e+01	-1.586749e+02
1.140000e-06	-3.040547e-06	-2.383235e-09	-2.165779e+01	-1.582949e+02
1.150000e-06	-3.002672e-06	-2.377069e-09	-2.138801e+01	-1.579101e+02
1.160000e-06	-2.964669e-06	-2.372828e-09	-2.111731e+01	-1.575209e+02
1.170000e-06	-2.926435e-06	-2.366830e-09	-2.084497e+01	-1.571277e+02
1.180000e-06	-2.887893e-06	-2.358309e-09	-2.057043e+01	-1.567307e+02
1.190000e-06	-2.849174e-06	-2.351220e-09	-2.029464e+01	-1.563303e+02
1.200000e-06	-2.810263e-06	-2.344704e-09	-2.001748e+01	-1.559267e+02
1.210000e-06	-2.771115e-06	-2.335795e-09	-1.973863e+01	-1.555201e+02
1.220000e-06	-2.731838e-06	-2.324671e-09	-1.945886e+01	-1.551106e+02
1.230000e-06	-2.692440e-06	-2.317448e-09	-1.917823e+01	-1.546983e+02
1.240000e-06	-2.652853e-06	-2.311768e-09	-1.889625e+01	-1.542832e+02
1.250000e-06	-2.613093e-06	-2.305128e-09	-1.861304e+01	-1.538652e+02
1.260000e-06	-2.573259e-06	-2.296169e-09	-1.832930e+01	-1.534440e+02
1.270000e-06	-2.533333e-06	-2.287321e-09	-1.804491e+01	-1.530193e+02
1.280000e-06	-2.493317e-06	-2.278710e-09	-1.775987e+01	-1.525907e+02
1.290000e-06	-2.453177e-06	-2.271733e-09	-1.747396e+01	-1.521577e+02
1.300000e-06	-2.412851e-06	-2.263089e-09	-1.718672e+01	-1.517195e+02
1.310000e-06	-2.372356e-06	-2.254708e-09	-1.689827e+01	-1.512755e+02
1.320000e-06	-2.331791e-06	-2.247977e-09	-1.660933e+01	-1.508248e+02
1.330000e-06	-2.291013e-06	-2.238500e-09	-1.631886e+01	-1.503664e+02
1.340000e-06	-2.249925e-06	-2.225555e-09	-1.602620e+01	-1.498994e+02
1.350000e-06	-2.208500e-06	-2.214719e-09	-1.573112e+01	-1.494227e+02
1.360000e-06	-2.166799e-06	-2.206754e-09	-1.543409e+01	-1.489351e+02
1.370000e-06	-2.124927e-06	-2.200824e-09	-1.513584e+01	-1.484357e+02
1.380000e-06	-2.082824e-06	-2.194855e-09	-1.483594e+01	-1.479232e+02
1.390000e-06	-2.040612e-06	-2.189261e-09	-1.453526e+01	-1.473964e+02
1.400000e-06	-1.998043e-06	-2.183813e-09	-1.423205e+01	-1.468545e+02
1.410000e-06	-1.955009e-06	-2.175418e-09	-1.392552e+01	-1.462962e+02
1.420000e-06	-1.911826e-06	-2.159236e-09	-1.361792e+01	-1.457206e+02
1.430000e-06	-1.868560e-06	-2.138765e-09	-1.330974e+01	-1.451269e+02
1.440000e-06	-1.825177e-06	-2.122405e-09	-1.300072e+01	-1.445142e+02
1.450000e-06	-1.781698e-06	-2.112411e-09	-1.269102e+01	-1.438819e+02
1.460000e-06	-1.738073e-06	-2.109072e-09	-1.238028e+01	-1.432293e+02
1.470000e-06	-1.694311e-06	-2.105637e-09	-1.206856e+01	-1.425560e+02
1.480000e-06	-1.650481e-06	-2.098237e-09	-1.175636e+01	-1.418617e+02
1.490000e-06	-1.606568e-06	-2.086933e-09	-1.144357e+01	-1.411462e+02
1.500000e-06	-1.562585e-06	-2.072729e-09	-1.113028e+01	-1.404093e+02
1.510000e-06	-1.518530e-06	-2.053906e-09	-1.081648e+01	-1.396510e+02
1.520000e-06	-1.474427e-06	-2.032376e-09	-1.050233e+01	-1.388715e+02
1.530000e-06	-1.430280e-06	-2.012948e-09	-1.018787e+01	-1.380710e+02
1.540000e-06	-1.386071e-06	-2.000347e-09	-9.872969e+00	-1.372496e+02
1.550000e-06	-1.341813e-06	-1.994196e-09	-9.557720e+00	-1.364076e+02
1.560000e-06	-1.297428e-06	-1.991230e-09	-9.241570e+00	-1.355454e+02
1.570000e-06	-1.252987e-06	-1.989391e-09	-8.925018e+00	-1.346633e+02
1.580000e-06	-1.208521e-06	-1.984416e-09	-8.608286e+00	-1.337614e+02
1.590000e-06	-1.163917e-06	-1.972229e-09	-8.290574e+00	-1.328401e+02
1.600000e-06	-1.119267e-06	-1.952776e-09	-7.972526e+00	-1.318995e+02
1.610000e-06	-1.074532e-06	-1.928512e-09	-7.653882e+00	-1.309396e+02
1.620000e-06	-1.029691e-06	-1.907023e-09	-7.334479e+00	-1.299603e+02
1.630000e-06	-9.847369e-07	-1.890510e-09	-7.014272e+00	-1.289613e+02
1.640000e-06	-9.396546e-07	-1.878465e-09	-6.693152e+00	-1.279424e+02
1.650000e-06	-8.945540e-07	-1.869485e-09	-6.371900e+00	-1.269028e+02
1.660000e-06	-8.494776e-07	-1.863995e-09	-6.050822e+00	-1.258419e+02
1.670000e-06	-8.042895e-07	-1.858837e-09	-5.728947e+00	-1.247587e+02
1.680000e-06	-7.589449e-07	-1.846151e-09	-5.405958e+00	-1.236519e+02
1.690000e-06	-7.135647e-07	-1.820918e-09	-5.082715e+00	-1.225203e+02
1.700000e-06	-6.681759e-07	-1.789965e-09	-4.759411e+00	-1.213622e+02
1.710000e-06	-6.227595e-07	-1.763407e-09	-4.435911e+00	-1.201760e+02
1.720000e-06	-5.772706e-07	-1.742345e-09	-4.111893e+00	-1.189595e+02
1.730000e-06	-5.317183e-07	-1.723354e-09	-3.787425e+00	-1.177108e+02
1.740000e-06	-4.861715e-07	-1.707811e-09	-3.462996e+00	-1.164277e+02
1.750000e-06	-4.405880e-07	-1.696961e-09	-3.138304e+00	-1.151077e+02
1.760000e-06	-3.949235e-07	-1.685697e-09	-2.813037e+00	-1.137484e+02
1.770000e-06	-3.491806e-07	-1.666365e-09	-2.487210e+00	-1.123474e+02
1.780000e-06	-3.034130e-07	-1.638272e-09	-2.161208e+00	-1.109021e+02
1.790000e-06	-2.576292e-07	-1.608458e-09	-1.835091e+00	-1.094101e+02
1.800000e-06	-2.118294e-07	-1.578716e-09	-1.508859e+00	-1.078689e+02
1.810000e-06	-1.660773e-07	-1.550187e-09	-1.182967e+00	-1.062760e+02
1.820000e-06	-1.202761e-07	-1.525101e-09	-8.567260e-01	-1.046292e+02
1.830000e-06	-7.447352e-08	-1.503785e-09	-5.304742e-01	-1.029264e+02
1.840000e-06	-2.869917e-08	-1.484266e-09	-2.044239e-01	-1.011656e+02
1.850000e-06	1.713177e-08	-1.462948e-09	1.220295e-01	-9.934493e+01
1.860000e-06	6.302350e-08	-1.434284e-09	4.489159e-01	-9.746289e+01
1.870000e-06	1.088805e-07	-1.399763e-09	7.755547e-01	-9.551812e+01
1.880000e-06	1.546359e-07	-1.364209e-09	1.101470e+00	-9.350953e+01
1.890000e-06	2.003729e-07	-1.327554e-09	1.427255e+00	-9.143628e+01
1.900000e-06	2.461043e-07	-1.290650e-09	1.752999e+00	-8.929781e+01
1.910000e-06	2.918266e-07	-1.256879e-09	2.078678e+00	-8.709381e+01
1.920000e-06	3.375311e-07	-1.224771e-09	2.404231e+00	-8.482426e+01
1.930000e-06	3.831819e-07	-1.190874e-09	2.729402e+00	-8.248939e+01
1.940000e-06	4.288198e-07	-1.154061e-09	3.054480e+00	-8.008968e+01
1.950000e-06	4.743910e-07	-1.118158e-09	3.379083e+00	-7.762586e+01
1.960000e-06	5.198798e-07	-1.084814e-09	3.703099e+00	-7.509886e+01
1.970000e-06	5.654220e-07	-1.048653e-09	4.027496e+00	-7.250984e+01
1.980000e-06	6.109759e-07	-1.006258e-09	4.351976e+00	-6.986013e+01
1.990000e-06	6.564383e-07	-9.612041e-10	4.675805e+00	-6.715122e+01
2.000000e-06	7.018658e-07	-9.165407e-10	4.999384e+00	-6.438474e+01
2.010000e-06	7.472984e-07	-8.733660e-10	5.323000e+00	-6.156243e+01
2.020000e-06	7.926433e-07	-8.299158e-10	5.645991e+00	-5.868613e+01
2.030000e-06	8.378589e-07	-7.855771e-10	5.968062e+00	-5.575775e+01
2.040000e-06	8.829893e-07	-7.433979e-10	6.289525e+00	-5.277924e+01
2.050000e-06	9.280312e-07	-7.026219e-10	6.610358e+00	-4.975259e+01
2.060000e-06	9.729559e-07	-6.591741e-10	6.930357e+00	-4.667980e+01
2.070000e-06	1.017779e-06	-6.102926e-10	7.249634e+00	-4.356289e+01
2.080000e-06	1.062557e-06	-5.605279e-10	7.568584e+00	-4.040385e+01
2.090000e-06	1.107244e-06	-5.126371e-10	7.886892e+00	-3.720468e+01
2.100000e-06	1.151834e-06	-4.672688e-10	8.204506e+00	-3.396736e+01
2.110000e-06	1.196335e-06	-4.219818e-10	8.521486e+00	-3.069384e+01
2.120000e-06	1.240761e-06	-3.741493e-10	8.837929e+00	-2.738608e+01
2.130000e-06	1.285141e-06	-3.248297e-10	9.154046e+00	-2.404603e+01
2.140000e-06	1.329388e-06	-2.718468e-10	9.469221e+00	-2.067566e+01
2.150000e-06	1.373532e-06	-2.156733e-10	9.783655e+00	-1.727695e+01
2.160000e-06	1.417652e-06	-1.605868e-10	1.009792e+01	-1.385190e+01
2.170000e-06	1.461749e-06	-1.094588e-10	1.041203e+01	-1.040260e+01
2.180000e-06	1.505788e-06	-5.963661e-11	1.072571e+01	-6.931163e+00
2.190000e-06	1.549784e-06	-9.264565e-12	1.103910e+01	-3.439822e+00
2.200000e-06	1.593731e-06	4.017706e-11	1.135213e+01	6.910585e-02
2.210000e-06	1.637624e-06	8.870367e-11	1.166478e+01	3.593186e+00
2.220000e-06	1.681510e-06	1.402010e-10	1.197738e+01	7.129854e+00
2.230000e-06	1.725357e-06	1.959348e-10	1.228971e+01	1.067640e+01
2.240000e-06	1.769100e-06	2.532522e-10	1.260129e+01	1.422997e+01
2.250000e-06	1.812729e-06	3.076578e-10	1.291205e+01	1.778755e+01
2.260000e-06	1.856303e-06	3.595015e-10	1.322243e+01	2.134597e+01
2.270000e-06	1.899750e-06	4.116336e-10	1.353190e+01	2.490190e+01
2.280000e-06	1.942939e-06	4.622025e-10	1.383954e+01	2.845188e+01
2.290000e-06	1.985867e-06	5.089697e-10	1.414531e+01	3.199227e+01
2.300000e-06	2.028582e-06	5.558968e-10	1.444957e+01	3.551936e+01
2.310000e-06	2.071044e-06	6.076862e-10	1.475203e+01	3.902929e+01
2.320000e-06	2.113230e-06	6.628877e-10	1.505252e+01	4.251814e+01
2.330000e-06	2.155158e-06	7.171323e-10	1.535117e+01	4.598192e+01
2.340000e-06	2.196705e-06	7.689291e-10	1.564711e+01	4.941662e+01
2.350000e-06	2.237907e-06	8.210619e-10	1.594059e+01	5.281823e+01
2.360000e-06	2.278907e-06	8.751457e-10	1.623263e+01	5.618279e+01
2.370000e-06	2.319686e-06	9.249579e-10	1.652310e+01	5.950639e+01
2.380000e-06	2.360231e-06	9.668235e-10	1.681190e+01	6.278526e+01
2.390000e-06	2.400617e-06	1.007267e-09	1.709957e+01	6.601574e+01
2.400000e-06	2.440869e-06	1.050119e-09	1.738629e+01	6.919438e+01
2.410000e-06	2.480974e-06	1.094399e-09	1.767196e+01	7.231793e+01
2.420000e-06	2.520962e-06	1.138761e-09	1.795679e+01	7.538339e+01
2.430000e-06	2.560871e-06	1.185374e-09	1.824106e+01	7.838804e+01
2.440000e-06	2.600766e-06	1.235396e-09	1.852523e+01	8.132944e+01
2.450000e-06	2.640618e-06	1.284296e-09	1.880910e+01	8.420549e+01
2.460000e-06	2.680320e-06	1.325706e-09	1.909189e+01	8.701442e+01
2.470000e-06	2.719769e-06	1.360202e-09	1.937289e+01	8.975482e+01
2.480000e-06	2.758998e-06	1.392642e-09	1.965232e+01	9.242561e+01
2.490000e-06	2.798060e-06	1.426109e-09	1.993056e+01	9.502610e+01
2.500000e-06	2.836910e-06	1.459918e-09	2.020729e+01	9.755592e+01
2.510000e-06	2.875531e-06	1.496222e-09	2.048238e+01	1.000151e+02
2.520000e-06	2.913924e-06	1.538812e-09	2.075585e+01	1.024038e+02
2.530000e-06	2.952079e-06	1.582615e-09	2.102764e+01	1.047229e+02
2.540000e-06	2.990009e-06	1.617698e-09	2.129781e+01	1.069731e+02
2.550000e-06	3.027779e-06	1.645158e-09	2.156684e+01	1.091557e+02
2.560000e-06	3.065403e-06	1.673128e-09	2.183484e+01	1.112721e+02
2.570000e-06	3.102855e-06	1.702623e-09	2.210161e+01	1.133238e+02
2.580000e-06	3.140114e-06	1.729862e-09	2.236701e+01	1.153126e+02
2.590000e-06	3.177163e-06	1.755844e-09	2.263090e+01	1.172403e+02
2.600000e-06	3.213969e-06	1.785572e-09	2.289308e+01	1.191091e+02
2.610000e-06	3.250452e-06	1.819129e-09	2.315294e+01	1.209208e+02
2.620000e-06	3.286688e-06	1.849999e-09	2.341105e+01	1.226774e+02
2.630000e-06	3.322823e-06	1.874727e-09	2.366844e+01	1.243811e+02
2.640000e-06	3.358882e-06	1.897548e-09	2.392529e+01	1.260338e+02
2.650000e-06	3.394844e-06	1.921758e-09	2.418145e+01	1.276374e+02
2.660000e-06	3.430629e-06	1.944293e-09	2.443634e+01	1.291935e+02
2.670000e-06	3.466190e-06	1.963308e-09	2.468964e+01	1.307040e+02
2.680000e-06	3.501539e-06	1.982468e-09	2.494143e+01	1.321704e+02
2.690000e-06	3.536594e-06	2.005106e-09	2.519113e+01	1.335940e+02
2.700000e-06	3.571257e-06	2.027507e-09	2.543804e+01	1.349760e+02
2.710000e-06	3.605386e-06	2.044128e-09	2.568113e+01	1.363175e+02
2.720000e-06	3.639061e-06	2.059310e-09	2.592100e+01	1.376194e+02
2.730000e-06	3.672449e-06	2.079822e-09	2.615883e+01	1.388826e+02
2.740000e-06	3.705403e-06	2.103102e-09	2.639355e+01	1.401076e+02
2.750000e-06	3.737928e-06	2.121681e-09	2.662523e+01	1.412949e+02
2.760000e-06	3.770208e-06	2.135808e-09	2.685516e+01	1.424449e+02
2.770000e-06	3.802349e-06	2.150568e-09	2.708410e+01	1.435579e+02
2.780000e-06	3.834336e-06	2.167666e-09	2.731194e+01	1.446343e+02
2.790000e-06	3.866177e-06	2.182149e-09	2.753874e+01	1.456742e+02
2.800000e-06	3.897893e-06	2.192690e-09	2.776466e+01	1.466777e+02
2.810000e-06	3.929382e-06	2.206183e-09	2.798895e+01	1.476452e+02
2.820000e-06	3.960555e-06	2.224355e-09	2.821100e+01	1.485768e+02
2.830000e-06	3.991394e-06	2.238953e-09	2.843066e+01	1.494728e+02
2.840000e-06	4.021839e-06	2.245102e-09	2.864752e+01	1.503336e+02
2.850000e-06	4.051970e-06	2.252080e-09	2.886215e+01	1.511596e+02
2.860000e-06	4.081943e-06	2.265378e-09	2.907565e+01	1.519513e+02
2.870000e-06	4.111723e-06	2.280581e-09	2.928777e+01	1.527094e+02
2.880000e-06	4.141270e-06	2.291733e-09	2.949823e+01	1.534346e+02
2.890000e-06	4.170515e-06	2.297808e-09	2.970654e+01	1.541279e+02
2.900000e-06	4.199395e-06	2.304184e-09	2.991226e+01	1.547902e+02
