# Temperatura_=_19.71
# Concentracion g/m^3_=_4090.0
# C_Vs_to_Am_M_A/Vsm_=_65563218390.804596
# pendiente_HvsI_1/m_=_3716.3
# ordenada_HvsI_A/m_=_1297.0
# frecuencia_Hz_=_135077.99429637153

Tiempo_(s)	Campo_(V.s)	Magnetizacion_(V.s)	Campo_(kA/m)	Magnetizacion_(A/m)
0.000000e+00	-5.399505e-06	-2.681042e-09	-3.839029e+01	-1.745194e+02
1.000000e-08	-5.399556e-06	-2.679784e-09	-3.839066e+01	-1.744715e+02
2.000000e-08	-5.399337e-06	-2.679061e-09	-3.838910e+01	-1.744229e+02
3.000000e-08	-5.398805e-06	-2.678480e-09	-3.838531e+01	-1.743754e+02
4.000000e-08	-5.397741e-06	-2.677135e-09	-3.837775e+01	-1.743308e+02
5.000000e-08	-5.396172e-06	-2.676706e-09	-3.836660e+01	-1.742912e+02
6.000000e-08	-5.394100e-06	-2.693256e-09	-3.835186e+01	-1.742584e+02
7.000000e-08	-5.391419e-06	-2.722723e-09	-3.833280e+01	-1.742342e+02
8.000000e-08	-5.388202e-06	-2.683828e-09	-3.830993e+01	-1.742205e+02
9.000000e-08	-5.384492e-06	-2.573659e-09	-3.828355e+01	-1.742188e+02
1.000000e-07	-5.380367e-06	-2.605009e-09	-3.825422e+01	-1.742307e+02
1.100000e-07	-5.376027e-06	-2.767500e-09	-3.822337e+01	-1.742572e+02
1.200000e-07	-5.371480e-06	-2.733385e-09	-3.819103e+01	-1.742995e+02
1.300000e-07	-5.366601e-06	-2.565658e-09	-3.815635e+01	-1.743582e+02
1.400000e-07	-5.361410e-06	-2.571984e-09	-3.811944e+01	-1.744337e+02
1.500000e-07	-5.355940e-06	-2.797900e-09	-3.808055e+01	-1.745261e+02
1.600000e-07	-5.349960e-06	-2.788828e-09	-3.803803e+01	-1.746353e+02
1.700000e-07	-5.343452e-06	-2.558862e-09	-3.799176e+01	-1.747608e+02
1.800000e-07	-5.336635e-06	-2.575139e-09	-3.794329e+01	-1.749016e+02
1.900000e-07	-5.329525e-06	-2.782957e-09	-3.789273e+01	-1.750567e+02
2.000000e-07	-5.322036e-06	-2.765022e-09	-3.783949e+01	-1.752246e+02
2.100000e-07	-5.314269e-06	-2.609786e-09	-3.778426e+01	-1.754036e+02
2.200000e-07	-5.306354e-06	-2.707040e-09	-3.772799e+01	-1.755918e+02
2.300000e-07	-5.298195e-06	-2.839539e-09	-3.766998e+01	-1.757871e+02
2.400000e-07	-5.289503e-06	-2.731242e-09	-3.760818e+01	-1.759871e+02
2.500000e-07	-5.280190e-06	-2.646698e-09	-3.754197e+01	-1.761893e+02
2.600000e-07	-5.270356e-06	-2.799371e-09	-3.747205e+01	-1.763913e+02
2.700000e-07	-5.259906e-06	-2.822326e-09	-3.739775e+01	-1.765904e+02
2.800000e-07	-5.248890e-06	-2.674399e-09	-3.731942e+01	-1.767840e+02
2.900000e-07	-5.237454e-06	-2.712234e-09	-3.723812e+01	-1.769696e+02
3.000000e-07	-5.225630e-06	-2.869127e-09	-3.715405e+01	-1.771447e+02
3.100000e-07	-5.213359e-06	-2.780663e-09	-3.706680e+01	-1.773069e+02
3.200000e-07	-5.200760e-06	-2.653387e-09	-3.697722e+01	-1.774540e+02
3.300000e-07	-5.187833e-06	-2.749181e-09	-3.688531e+01	-1.775841e+02
3.400000e-07	-5.174506e-06	-2.820257e-09	-3.679056e+01	-1.776953e+02
3.500000e-07	-5.160848e-06	-2.730306e-09	-3.669345e+01	-1.777862e+02
3.600000e-07	-5.146786e-06	-2.728709e-09	-3.659347e+01	-1.778554e+02
3.700000e-07	-5.132128e-06	-2.781664e-09	-3.648925e+01	-1.779021e+02
3.800000e-07	-5.116888e-06	-2.742742e-09	-3.638090e+01	-1.779256e+02
3.900000e-07	-5.101144e-06	-2.730680e-09	-3.626895e+01	-1.779254e+02
4.000000e-07	-5.084900e-06	-2.775547e-09	-3.615346e+01	-1.779016e+02
4.100000e-07	-5.068295e-06	-2.716108e-09	-3.603540e+01	-1.778542e+02
4.200000e-07	-5.051454e-06	-2.669020e-09	-3.591566e+01	-1.777838e+02
4.300000e-07	-5.034319e-06	-2.759428e-09	-3.579383e+01	-1.776911e+02
4.400000e-07	-5.016805e-06	-2.775849e-09	-3.566931e+01	-1.775771e+02
4.500000e-07	-4.998932e-06	-2.685413e-09	-3.554224e+01	-1.774429e+02
4.600000e-07	-4.980729e-06	-2.686961e-09	-3.541281e+01	-1.772898e+02
4.700000e-07	-4.962110e-06	-2.755131e-09	-3.528043e+01	-1.771193e+02
4.800000e-07	-4.943052e-06	-2.733373e-09	-3.514492e+01	-1.769331e+02
4.900000e-07	-4.923685e-06	-2.692725e-09	-3.500723e+01	-1.767327e+02
5.000000e-07	-4.904055e-06	-2.689675e-09	-3.486766e+01	-1.765199e+02
5.100000e-07	-4.884187e-06	-2.704680e-09	-3.472640e+01	-1.762963e+02
5.200000e-07	-4.864156e-06	-2.724309e-09	-3.458398e+01	-1.760636e+02
5.300000e-07	-4.843934e-06	-2.725166e-09	-3.444020e+01	-1.758235e+02
5.400000e-07	-4.823388e-06	-2.677321e-09	-3.429412e+01	-1.755774e+02
5.500000e-07	-4.802421e-06	-2.675324e-09	-3.414504e+01	-1.753267e+02
5.600000e-07	-4.781120e-06	-2.715037e-09	-3.399360e+01	-1.750729e+02
5.700000e-07	-4.759547e-06	-2.703241e-09	-3.384021e+01	-1.748169e+02
5.800000e-07	-4.737651e-06	-2.654522e-09	-3.368453e+01	-1.745598e+02
5.900000e-07	-4.715376e-06	-2.657323e-09	-3.352616e+01	-1.743024e+02
6.000000e-07	-4.692685e-06	-2.682936e-09	-3.336483e+01	-1.740454e+02
6.100000e-07	-4.669731e-06	-2.687957e-09	-3.320162e+01	-1.737891e+02
6.200000e-07	-4.646395e-06	-2.663610e-09	-3.303570e+01	-1.735340e+02
6.300000e-07	-4.622733e-06	-2.634963e-09	-3.286747e+01	-1.732801e+02
6.400000e-07	-4.599003e-06	-2.640518e-09	-3.269875e+01	-1.730275e+02
6.500000e-07	-4.575142e-06	-2.664585e-09	-3.252910e+01	-1.727760e+02
6.600000e-07	-4.550966e-06	-2.646097e-09	-3.235721e+01	-1.725254e+02
6.700000e-07	-4.526393e-06	-2.611615e-09	-3.218250e+01	-1.722753e+02
6.800000e-07	-4.501355e-06	-2.618900e-09	-3.200448e+01	-1.720252e+02
6.900000e-07	-4.475856e-06	-2.640449e-09	-3.182318e+01	-1.717747e+02
7.000000e-07	-4.449914e-06	-2.630043e-09	-3.163873e+01	-1.715231e+02
7.100000e-07	-4.423407e-06	-2.602460e-09	-3.145027e+01	-1.712700e+02
7.200000e-07	-4.396389e-06	-2.594966e-09	-3.125817e+01	-1.710148e+02
7.300000e-07	-4.369012e-06	-2.611856e-09	-3.106353e+01	-1.707568e+02
7.400000e-07	-4.341385e-06	-2.620299e-09	-3.086709e+01	-1.704955e+02
7.500000e-07	-4.313561e-06	-2.595492e-09	-3.066926e+01	-1.702305e+02
7.600000e-07	-4.285539e-06	-2.576484e-09	-3.047003e+01	-1.699612e+02
7.700000e-07	-4.257360e-06	-2.587011e-09	-3.026968e+01	-1.696872e+02
7.800000e-07	-4.228905e-06	-2.597012e-09	-3.006736e+01	-1.694083e+02
7.900000e-07	-4.200110e-06	-2.576382e-09	-2.986264e+01	-1.691242e+02
8.000000e-07	-4.171058e-06	-2.557228e-09	-2.965608e+01	-1.688346e+02
8.100000e-07	-4.141690e-06	-2.559799e-09	-2.944727e+01	-1.685394e+02
8.200000e-07	-4.111987e-06	-2.572590e-09	-2.923608e+01	-1.682386e+02
8.300000e-07	-4.081958e-06	-2.565624e-09	-2.902258e+01	-1.679321e+02
8.400000e-07	-4.051651e-06	-2.544260e-09	-2.880710e+01	-1.676199e+02
8.500000e-07	-4.021113e-06	-2.534030e-09	-2.858997e+01	-1.673022e+02
8.600000e-07	-3.990364e-06	-2.541923e-09	-2.837135e+01	-1.669790e+02
8.700000e-07	-3.959349e-06	-2.538355e-09	-2.815083e+01	-1.666505e+02
8.800000e-07	-3.928049e-06	-2.518903e-09	-2.792829e+01	-1.663167e+02
8.900000e-07	-3.896585e-06	-2.506225e-09	-2.770458e+01	-1.659778e+02
9.000000e-07	-3.864955e-06	-2.513316e-09	-2.747970e+01	-1.656339e+02
9.100000e-07	-3.833072e-06	-2.516921e-09	-2.725301e+01	-1.652850e+02
9.200000e-07	-3.801004e-06	-2.504805e-09	-2.702501e+01	-1.649314e+02
9.300000e-07	-3.768733e-06	-2.490803e-09	-2.679556e+01	-1.645729e+02
9.400000e-07	-3.736202e-06	-2.491867e-09	-2.656426e+01	-1.642096e+02
9.500000e-07	-3.703386e-06	-2.493775e-09	-2.633095e+01	-1.638414e+02
9.600000e-07	-3.670133e-06	-2.481608e-09	-2.609452e+01	-1.634683e+02
9.700000e-07	-3.636381e-06	-2.467267e-09	-2.585454e+01	-1.630901e+02
9.800000e-07	-3.602194e-06	-2.465102e-09	-2.561148e+01	-1.627066e+02
9.900000e-07	-3.567580e-06	-2.467205e-09	-2.536537e+01	-1.623178e+02
1.000000e-06	-3.532604e-06	-2.459290e-09	-2.511669e+01	-1.619233e+02
1.010000e-06	-3.497364e-06	-2.447380e-09	-2.486614e+01	-1.615229e+02
1.020000e-06	-3.461850e-06	-2.441525e-09	-2.461363e+01	-1.611165e+02
1.030000e-06	-3.426154e-06	-2.439781e-09	-2.435983e+01	-1.607037e+02
1.040000e-06	-3.390330e-06	-2.432463e-09	-2.410513e+01	-1.602842e+02
1.050000e-06	-3.354332e-06	-2.419089e-09	-2.384918e+01	-1.598580e+02
1.060000e-06	-3.318152e-06	-2.408395e-09	-2.359195e+01	-1.594248e+02
1.070000e-06	-3.281873e-06	-2.405952e-09	-2.333400e+01	-1.589844e+02
1.080000e-06	-3.245378e-06	-2.398826e-09	-2.307452e+01	-1.585367e+02
1.090000e-06	-3.208504e-06	-2.385165e-09	-2.281235e+01	-1.580816e+02
1.100000e-06	-3.171464e-06	-2.374559e-09	-2.254900e+01	-1.576191e+02
1.110000e-06	-3.134255e-06	-2.372364e-09	-2.228444e+01	-1.571491e+02
1.120000e-06	-3.096726e-06	-2.368944e-09	-2.201761e+01	-1.566717e+02
1.130000e-06	-3.058990e-06	-2.361264e-09	-2.174931e+01	-1.561871e+02
1.140000e-06	-3.021112e-06	-2.351081e-09	-2.148000e+01	-1.556953e+02
1.150000e-06	-2.983073e-06	-2.345076e-09	-2.120954e+01	-1.551965e+02
1.160000e-06	-2.944768e-06	-2.337093e-09	-2.093720e+01	-1.546908e+02
1.170000e-06	-2.906210e-06	-2.322137e-09	-2.066305e+01	-1.541785e+02
1.180000e-06	-2.867398e-06	-2.306215e-09	-2.038710e+01	-1.536599e+02
1.190000e-06	-2.828378e-06	-2.298375e-09	-2.010967e+01	-1.531350e+02
1.200000e-06	-2.789305e-06	-2.293708e-09	-1.983186e+01	-1.526040e+02
1.210000e-06	-2.750054e-06	-2.283862e-09	-1.955279e+01	-1.520671e+02
1.220000e-06	-2.710561e-06	-2.269779e-09	-1.927199e+01	-1.515245e+02
1.230000e-06	-2.670879e-06	-2.261089e-09	-1.898986e+01	-1.509760e+02
1.240000e-06	-2.631081e-06	-2.255920e-09	-1.870689e+01	-1.504218e+02
1.250000e-06	-2.591265e-06	-2.246503e-09	-1.842380e+01	-1.498616e+02
1.260000e-06	-2.551388e-06	-2.234177e-09	-1.814028e+01	-1.492953e+02
1.270000e-06	-2.511354e-06	-2.222337e-09	-1.785564e+01	-1.487226e+02
1.280000e-06	-2.471204e-06	-2.212048e-09	-1.757017e+01	-1.481430e+02
1.290000e-06	-2.430860e-06	-2.201621e-09	-1.728333e+01	-1.475562e+02
1.300000e-06	-2.390288e-06	-2.190126e-09	-1.699486e+01	-1.469615e+02
1.310000e-06	-2.349591e-06	-2.179563e-09	-1.670551e+01	-1.463582e+02
1.320000e-06	-2.308728e-06	-2.171057e-09	-1.641498e+01	-1.457456e+02
1.330000e-06	-2.267695e-06	-2.160286e-09	-1.612324e+01	-1.451228e+02
1.340000e-06	-2.226304e-06	-2.148128e-09	-1.582894e+01	-1.444888e+02
1.350000e-06	-2.184535e-06	-2.136337e-09	-1.553197e+01	-1.438427e+02
1.360000e-06	-2.142592e-06	-2.125200e-09	-1.523375e+01	-1.431835e+02
1.370000e-06	-2.100325e-06	-2.114695e-09	-1.493324e+01	-1.425101e+02
1.380000e-06	-2.057671e-06	-2.102201e-09	-1.462997e+01	-1.418214e+02
1.390000e-06	-2.014807e-06	-2.088068e-09	-1.432520e+01	-1.411164e+02
1.400000e-06	-1.971780e-06	-2.076141e-09	-1.401929e+01	-1.403941e+02
1.410000e-06	-1.928512e-06	-2.063520e-09	-1.371165e+01	-1.396533e+02
1.420000e-06	-1.885113e-06	-2.049652e-09	-1.340309e+01	-1.388933e+02
1.430000e-06	-1.841630e-06	-2.036511e-09	-1.309393e+01	-1.381132e+02
1.440000e-06	-1.797999e-06	-2.025833e-09	-1.278371e+01	-1.373120e+02
1.450000e-06	-1.754275e-06	-2.014282e-09	-1.247283e+01	-1.364893e+02
1.460000e-06	-1.710504e-06	-1.999810e-09	-1.216162e+01	-1.356442e+02
1.470000e-06	-1.666656e-06	-1.983029e-09	-1.184986e+01	-1.347765e+02
1.480000e-06	-1.622724e-06	-1.967239e-09	-1.153751e+01	-1.338856e+02
1.490000e-06	-1.578760e-06	-1.951745e-09	-1.122493e+01	-1.329712e+02
1.500000e-06	-1.534714e-06	-1.934260e-09	-1.091176e+01	-1.320333e+02
1.510000e-06	-1.490570e-06	-1.915426e-09	-1.059790e+01	-1.310716e+02
1.520000e-06	-1.446380e-06	-1.900539e-09	-1.028371e+01	-1.300861e+02
1.530000e-06	-1.402162e-06	-1.890957e-09	-9.969322e+00	-1.290768e+02
1.540000e-06	-1.357902e-06	-1.880061e-09	-9.654633e+00	-1.280438e+02
1.550000e-06	-1.313511e-06	-1.862226e-09	-9.339018e+00	-1.269871e+02
1.560000e-06	-1.269029e-06	-1.843332e-09	-9.022755e+00	-1.259068e+02
1.570000e-06	-1.224494e-06	-1.829205e-09	-8.706108e+00	-1.248029e+02
1.580000e-06	-1.179830e-06	-1.813988e-09	-8.388553e+00	-1.236753e+02
1.590000e-06	-1.135061e-06	-1.795419e-09	-8.070241e+00	-1.225239e+02
1.600000e-06	-1.090201e-06	-1.779288e-09	-7.751293e+00	-1.213485e+02
1.610000e-06	-1.045279e-06	-1.767443e-09	-7.431899e+00	-1.201486e+02
1.620000e-06	-1.000329e-06	-1.752455e-09	-7.112303e+00	-1.189239e+02
1.630000e-06	-9.552955e-07	-1.730393e-09	-6.792118e+00	-1.176735e+02
1.640000e-06	-9.101499e-07	-1.707265e-09	-6.471134e+00	-1.163966e+02
1.650000e-06	-8.649318e-07	-1.688955e-09	-6.149635e+00	-1.150921e+02
1.660000e-06	-8.196392e-07	-1.671306e-09	-5.827606e+00	-1.137587e+02
1.670000e-06	-7.742380e-07	-1.650499e-09	-5.504805e+00	-1.123949e+02
1.680000e-06	-7.287519e-07	-1.627621e-09	-5.181400e+00	-1.109990e+02
1.690000e-06	-6.832511e-07	-1.606143e-09	-4.857892e+00	-1.095691e+02
1.700000e-06	-6.377503e-07	-1.585445e-09	-4.534383e+00	-1.081029e+02
1.710000e-06	-5.921969e-07	-1.561838e-09	-4.210499e+00	-1.065984e+02
1.720000e-06	-5.466393e-07	-1.535643e-09	-3.886586e+00	-1.050530e+02
1.730000e-06	-5.010606e-07	-1.511217e-09	-3.562523e+00	-1.034643e+02
1.740000e-06	-4.553818e-07	-1.488483e-09	-3.237749e+00	-1.018295e+02
1.750000e-06	-4.096585e-07	-1.463319e-09	-2.912658e+00	-1.001460e+02
1.760000e-06	-3.638943e-07	-1.436115e-09	-2.587276e+00	-9.841097e+01
1.770000e-06	-3.180134e-07	-1.410610e-09	-2.261064e+00	-9.662184e+01
1.780000e-06	-2.720693e-07	-1.388808e-09	-1.934403e+00	-9.477592e+01
1.790000e-06	-2.262172e-07	-1.362828e-09	-1.608396e+00	-9.287070e+01
1.800000e-06	-1.804576e-07	-1.327504e-09	-1.283047e+00	-9.090378e+01
1.810000e-06	-1.346695e-07	-1.292846e-09	-9.574952e-01	-8.887297e+01
1.820000e-06	-8.884933e-08	-1.263879e-09	-6.317156e-01	-8.677631e+01
1.830000e-06	-4.305380e-08	-1.234882e-09	-3.061110e-01	-8.461208e+01
1.840000e-06	2.766674e-09	-1.201361e-09	1.967095e-02	-8.237890e+01
1.850000e-06	4.855425e-08	-1.166273e-09	3.452190e-01	-8.007569e+01
1.860000e-06	9.429657e-08	-1.133626e-09	6.704453e-01	-7.770172e+01
1.870000e-06	1.400706e-07	-1.098698e-09	9.958968e-01	-7.525665e+01
1.880000e-06	1.858478e-07	-1.056556e-09	1.321371e+00	-7.274053e+01
1.890000e-06	2.316294e-07	-1.011701e-09	1.646877e+00	-7.015378e+01
1.900000e-06	2.773510e-07	-9.712600e-10	1.971956e+00	-6.749726e+01
1.910000e-06	3.230364e-07	-9.340952e-10	2.296778e+00	-6.477218e+01
1.920000e-06	3.687487e-07	-8.945655e-10	2.621791e+00	-6.198016e+01
1.930000e-06	4.144853e-07	-8.532884e-10	2.946976e+00	-5.912319e+01
1.940000e-06	4.602123e-07	-8.118449e-10	3.272094e+00	-5.620361e+01
1.950000e-06	5.058620e-07	-7.705314e-10	3.596661e+00	-5.322405e+01
1.960000e-06	5.514669e-07	-7.247911e-10	3.920911e+00	-5.018748e+01
1.970000e-06	5.970637e-07	-6.724157e-10	4.245102e+00	-4.709708e+01
1.980000e-06	6.425788e-07	-6.200637e-10	4.568713e+00	-4.395627e+01
1.990000e-06	6.879884e-07	-5.737028e-10	4.891573e+00	-4.076866e+01
2.000000e-06	7.333811e-07	-5.298028e-10	5.214314e+00	-3.753798e+01
2.010000e-06	7.787166e-07	-4.845571e-10	5.536648e+00	-3.426806e+01
2.020000e-06	8.240176e-07	-4.368533e-10	5.858736e+00	-3.096278e+01
2.030000e-06	8.693129e-07	-3.904422e-10	6.180784e+00	-2.762605e+01
2.040000e-06	9.144767e-07	-3.427538e-10	6.501897e+00	-2.426174e+01
2.050000e-06	9.595108e-07	-2.898697e-10	6.822089e+00	-2.087367e+01
2.060000e-06	1.004470e-06	-2.350344e-10	7.141745e+00	-1.746558e+01
2.070000e-06	1.049411e-06	-1.817324e-10	7.461277e+00	-1.404106e+01
2.080000e-06	1.094302e-06	-1.329460e-10	7.780448e+00	-1.060359e+01
2.090000e-06	1.139081e-06	-8.349330e-11	8.098824e+00	-7.156483e+00
2.100000e-06	1.183774e-06	-3.410133e-11	8.416595e+00	-3.702864e+00
2.110000e-06	1.228420e-06	1.532798e-11	8.734021e+00	-2.456894e-01
2.120000e-06	1.273017e-06	6.411574e-11	9.051107e+00	3.212274e+00
2.130000e-06	1.317476e-06	1.165152e-10	9.367209e+00	6.668440e+00
2.140000e-06	1.361788e-06	1.733623e-10	9.682267e+00	1.012040e+01
2.150000e-06	1.406038e-06	2.289632e-10	9.996880e+00	1.356592e+01
2.160000e-06	1.450263e-06	2.801086e-10	1.031132e+01	1.700289e+01
2.170000e-06	1.494441e-06	3.307327e-10	1.062542e+01	2.042936e+01
2.180000e-06	1.538539e-06	3.830410e-10	1.093896e+01	2.384348e+01
2.190000e-06	1.582526e-06	4.332794e-10	1.125170e+01	2.724348e+01
2.200000e-06	1.626450e-06	4.791549e-10	1.156400e+01	3.062768e+01
2.210000e-06	1.670344e-06	5.258835e-10	1.187609e+01	3.399442e+01
2.220000e-06	1.714188e-06	5.756665e-10	1.218782e+01	3.734206e+01
2.230000e-06	1.757937e-06	6.285505e-10	1.249887e+01	4.066896e+01
2.240000e-06	1.801524e-06	6.805806e-10	1.280877e+01	4.397345e+01
2.250000e-06	1.845009e-06	7.308402e-10	1.311795e+01	4.725381e+01
2.260000e-06	1.888412e-06	7.806069e-10	1.342655e+01	5.050828e+01
2.270000e-06	1.931663e-06	8.278301e-10	1.373405e+01	5.373502e+01
2.280000e-06	1.974805e-06	8.709603e-10	1.404080e+01	5.693210e+01
2.290000e-06	2.017792e-06	9.092631e-10	1.434643e+01	6.009753e+01
2.300000e-06	2.060457e-06	9.492037e-10	1.464978e+01	6.322922e+01
2.310000e-06	2.102811e-06	9.916748e-10	1.495091e+01	6.632503e+01
2.320000e-06	2.144911e-06	1.035755e-09	1.525024e+01	6.938275e+01
2.330000e-06	2.186806e-06	1.080720e-09	1.554811e+01	7.240010e+01
2.340000e-06	2.228443e-06	1.129097e-09	1.584415e+01	7.537479e+01
2.350000e-06	2.269779e-06	1.179606e-09	1.613805e+01	7.830454e+01
2.360000e-06	2.310839e-06	1.226459e-09	1.642998e+01	8.118704e+01
2.370000e-06	2.351563e-06	1.262480e-09	1.671953e+01	8.402006e+01
2.380000e-06	2.392072e-06	1.291448e-09	1.700755e+01	8.680142e+01
2.390000e-06	2.432468e-06	1.321070e-09	1.729476e+01	8.952905e+01
2.400000e-06	2.472767e-06	1.352446e-09	1.758129e+01	9.220102e+01
2.410000e-06	2.512979e-06	1.385622e-09	1.786719e+01	9.481552e+01
2.420000e-06	2.553016e-06	1.425097e-09	1.815185e+01	9.737097e+01
2.430000e-06	2.592919e-06	1.472052e-09	1.843556e+01	9.986598e+01
2.440000e-06	2.632759e-06	1.519198e-09	1.871882e+01	1.022994e+02
2.450000e-06	2.672473e-06	1.555953e-09	1.900119e+01	1.046702e+02
2.460000e-06	2.711982e-06	1.583761e-09	1.928210e+01	1.069779e+02
2.470000e-06	2.751327e-06	1.607410e-09	1.956184e+01	1.092221e+02
2.480000e-06	2.790553e-06	1.630596e-09	1.984073e+01	1.114026e+02
2.490000e-06	2.829592e-06	1.656104e-09	2.011830e+01	1.135197e+02
2.500000e-06	2.868425e-06	1.685927e-09	2.039440e+01	1.155738e+02
2.510000e-06	2.907017e-06	1.721094e-09	2.066879e+01	1.175656e+02
2.520000e-06	2.945358e-06	1.757862e-09	2.094139e+01	1.194962e+02
2.530000e-06	2.983568e-06	1.789445e-09	2.121306e+01	1.213666e+02
2.540000e-06	3.021566e-06	1.813685e-09	2.148323e+01	1.231784e+02
2.550000e-06	3.059297e-06	1.833964e-09	2.175149e+01	1.249332e+02
2.560000e-06	3.096816e-06	1.854357e-09	2.201826e+01	1.266326e+02
2.570000e-06	3.134115e-06	1.875231e-09	2.228345e+01	1.282786e+02
2.580000e-06	3.171204e-06	1.895106e-09	2.254715e+01	1.298730e+02
2.590000e-06	3.208047e-06	1.916112e-09	2.280910e+01	1.314181e+02
2.600000e-06	3.244637e-06	1.939437e-09	2.306925e+01	1.329156e+02
2.610000e-06	3.281026e-06	1.962036e-09	2.332798e+01	1.343678e+02
2.620000e-06	3.317318e-06	1.982237e-09	2.358602e+01	1.357764e+02
2.630000e-06	3.353485e-06	2.005413e-09	2.384316e+01	1.371435e+02
2.640000e-06	3.389480e-06	2.028676e-09	2.409908e+01	1.384708e+02
2.650000e-06	3.425354e-06	2.046783e-09	2.435415e+01	1.397600e+02
2.660000e-06	3.461042e-06	2.060086e-09	2.460789e+01	1.410125e+02
2.670000e-06	3.496520e-06	2.075233e-09	2.486014e+01	1.422297e+02
2.680000e-06	3.531739e-06	2.093132e-09	2.511054e+01	1.434127e+02
2.690000e-06	3.566665e-06	2.111708e-09	2.535886e+01	1.445626e+02
2.700000e-06	3.601212e-06	2.127144e-09	2.560449e+01	1.456802e+02
2.710000e-06	3.635324e-06	2.142525e-09	2.584703e+01	1.467662e+02
2.720000e-06	3.669049e-06	2.161670e-09	2.608681e+01	1.478209e+02
2.730000e-06	3.702338e-06	2.178599e-09	2.632349e+01	1.488447e+02
2.740000e-06	3.735190e-06	2.191793e-09	2.655707e+01	1.498378e+02
2.750000e-06	3.767698e-06	2.204549e-09	2.678820e+01	1.508003e+02
2.760000e-06	3.799979e-06	2.219978e-09	2.701772e+01	1.517322e+02
2.770000e-06	3.832079e-06	2.234711e-09	2.724595e+01	1.526334e+02
2.780000e-06	3.864009e-06	2.247107e-09	2.747297e+01	1.535037e+02
2.790000e-06	3.895720e-06	2.260443e-09	2.769843e+01	1.543432e+02
2.800000e-06	3.927204e-06	2.275867e-09	2.792228e+01	1.551517e+02
2.810000e-06	3.958516e-06	2.291149e-09	2.814491e+01	1.559291e+02
2.820000e-06	3.989629e-06	2.300593e-09	2.836612e+01	1.566756e+02
2.830000e-06	4.020452e-06	2.304145e-09	2.858527e+01	1.573911e+02
2.840000e-06	4.050951e-06	2.309225e-09	2.880212e+01	1.580761e+02
2.850000e-06	4.081162e-06	2.317430e-09	2.901692e+01	1.587308e+02
2.860000e-06	4.111111e-06	2.327886e-09	2.922985e+01	1.593558e+02
2.870000e-06	4.140738e-06	2.338592e-09	2.944050e+01	1.599518e+02
2.880000e-06	4.170082e-06	2.348731e-09	2.964914e+01	1.605196e+02
2.890000e-06	4.199156e-06	2.356866e-09	2.985585e+01	1.610602e+02
2.900000e-06	4.227898e-06	2.364123e-09	3.006020e+01	1.615748e+02
