# Temperatura_=_-1.12
# Concentracion g/m^3_=_4090.0
# C_Vs_to_Am_M_A/Vsm_=_65563218390.804596
# pendiente_HvsI_1/m_=_3716.3
# ordenada_HvsI_A/m_=_1297.0
# frecuencia_Hz_=_135072.60838407476

Tiempo_(s)	Campo_(V.s)	Magnetizacion_(V.s)	Campo_(kA/m)	Magnetizacion_(A/m)
0.000000e+00	-5.400725e-06	-2.588371e-09	-3.839484e+01	-1.667592e+02
1.000000e-08	-5.400821e-06	-2.588875e-09	-3.839552e+01	-1.667641e+02
2.000000e-08	-5.400711e-06	-2.590817e-09	-3.839474e+01	-1.667724e+02
3.000000e-08	-5.400308e-06	-2.596221e-09	-3.839187e+01	-1.667853e+02
4.000000e-08	-5.399531e-06	-2.600524e-09	-3.838635e+01	-1.668036e+02
5.000000e-08	-5.398310e-06	-2.599682e-09	-3.837766e+01	-1.668283e+02
6.000000e-08	-5.396394e-06	-2.600438e-09	-3.836405e+01	-1.668603e+02
7.000000e-08	-5.393770e-06	-2.597098e-09	-3.834539e+01	-1.669004e+02
8.000000e-08	-5.390554e-06	-2.576256e-09	-3.832253e+01	-1.669492e+02
9.000000e-08	-5.386795e-06	-2.566197e-09	-3.829580e+01	-1.670072e+02
1.000000e-07	-5.382614e-06	-2.602174e-09	-3.826608e+01	-1.670749e+02
1.100000e-07	-5.378246e-06	-2.606269e-09	-3.823503e+01	-1.671526e+02
1.200000e-07	-5.373813e-06	-2.593632e-09	-3.820351e+01	-1.672404e+02
1.300000e-07	-5.369181e-06	-2.533562e-09	-3.817058e+01	-1.673382e+02
1.400000e-07	-5.364136e-06	-2.598476e-09	-3.813472e+01	-1.674459e+02
1.500000e-07	-5.358622e-06	-2.617491e-09	-3.809552e+01	-1.675630e+02
1.600000e-07	-5.352751e-06	-2.588721e-09	-3.805378e+01	-1.676891e+02
1.700000e-07	-5.346518e-06	-2.542733e-09	-3.800946e+01	-1.678234e+02
1.800000e-07	-5.339827e-06	-2.570066e-09	-3.796190e+01	-1.679651e+02
1.900000e-07	-5.332620e-06	-2.629714e-09	-3.791066e+01	-1.681133e+02
2.000000e-07	-5.325182e-06	-2.579814e-09	-3.785778e+01	-1.682669e+02
2.100000e-07	-5.317620e-06	-2.565195e-09	-3.780403e+01	-1.684246e+02
2.200000e-07	-5.309819e-06	-2.580666e-09	-3.774857e+01	-1.685853e+02
2.300000e-07	-5.301777e-06	-2.634435e-09	-3.769140e+01	-1.687474e+02
2.400000e-07	-5.293363e-06	-2.591457e-09	-3.763158e+01	-1.689098e+02
2.500000e-07	-5.284319e-06	-2.604877e-09	-3.756728e+01	-1.690709e+02
2.600000e-07	-5.274473e-06	-2.625490e-09	-3.749729e+01	-1.692293e+02
2.700000e-07	-5.264143e-06	-2.642708e-09	-3.742385e+01	-1.693836e+02
2.800000e-07	-5.253295e-06	-2.592262e-09	-3.734673e+01	-1.695324e+02
2.900000e-07	-5.241839e-06	-2.606233e-09	-3.726529e+01	-1.696745e+02
3.000000e-07	-5.230038e-06	-2.612208e-09	-3.718139e+01	-1.698085e+02
3.100000e-07	-5.217923e-06	-2.599585e-09	-3.709526e+01	-1.699333e+02
3.200000e-07	-5.205377e-06	-2.582139e-09	-3.700607e+01	-1.700478e+02
3.300000e-07	-5.192448e-06	-2.610095e-09	-3.691415e+01	-1.701512e+02
3.400000e-07	-5.179088e-06	-2.615765e-09	-3.681918e+01	-1.702425e+02
3.500000e-07	-5.165351e-06	-2.604172e-09	-3.672151e+01	-1.703211e+02
3.600000e-07	-5.151363e-06	-2.602350e-09	-3.662207e+01	-1.703865e+02
3.700000e-07	-5.137042e-06	-2.609480e-09	-3.652026e+01	-1.704382e+02
3.800000e-07	-5.122131e-06	-2.591612e-09	-3.641425e+01	-1.704761e+02
3.900000e-07	-5.106615e-06	-2.582106e-09	-3.630395e+01	-1.704998e+02
4.000000e-07	-5.090565e-06	-2.586913e-09	-3.618985e+01	-1.705096e+02
4.100000e-07	-5.073908e-06	-2.584732e-09	-3.607143e+01	-1.705054e+02
4.200000e-07	-5.056931e-06	-2.587647e-09	-3.595073e+01	-1.704876e+02
4.300000e-07	-5.039756e-06	-2.594874e-09	-3.582863e+01	-1.704564e+02
4.400000e-07	-5.022357e-06	-2.604268e-09	-3.570494e+01	-1.704124e+02
4.500000e-07	-5.004692e-06	-2.578234e-09	-3.557936e+01	-1.703561e+02
4.600000e-07	-4.986740e-06	-2.576983e-09	-3.545174e+01	-1.702881e+02
4.700000e-07	-4.968423e-06	-2.573078e-09	-3.532152e+01	-1.702090e+02
4.800000e-07	-4.949592e-06	-2.576983e-09	-3.518764e+01	-1.701196e+02
4.900000e-07	-4.930358e-06	-2.554284e-09	-3.505091e+01	-1.700206e+02
5.000000e-07	-4.910812e-06	-2.568873e-09	-3.491195e+01	-1.699128e+02
5.100000e-07	-4.890962e-06	-2.572384e-09	-3.477083e+01	-1.697969e+02
5.200000e-07	-4.870903e-06	-2.582263e-09	-3.462822e+01	-1.696737e+02
5.300000e-07	-4.850692e-06	-2.568304e-09	-3.448454e+01	-1.695440e+02
5.400000e-07	-4.830217e-06	-2.574549e-09	-3.433898e+01	-1.694085e+02
5.500000e-07	-4.809297e-06	-2.561286e-09	-3.419026e+01	-1.692678e+02
5.600000e-07	-4.787902e-06	-2.564192e-09	-3.403816e+01	-1.691227e+02
5.700000e-07	-4.766227e-06	-2.553972e-09	-3.388406e+01	-1.689738e+02
5.800000e-07	-4.744368e-06	-2.549797e-09	-3.372866e+01	-1.688217e+02
5.900000e-07	-4.722180e-06	-2.535556e-09	-3.357093e+01	-1.686668e+02
6.000000e-07	-4.699677e-06	-2.545361e-09	-3.341095e+01	-1.685097e+02
6.100000e-07	-4.676840e-06	-2.546923e-09	-3.324859e+01	-1.683508e+02
6.200000e-07	-4.653600e-06	-2.543410e-09	-3.308337e+01	-1.681906e+02
6.300000e-07	-4.630015e-06	-2.535161e-09	-3.291571e+01	-1.680292e+02
6.400000e-07	-4.606242e-06	-2.537510e-09	-3.274670e+01	-1.678670e+02
6.500000e-07	-4.582312e-06	-2.530879e-09	-3.257658e+01	-1.677043e+02
6.600000e-07	-4.558135e-06	-2.520483e-09	-3.240469e+01	-1.675413e+02
6.700000e-07	-4.533636e-06	-2.511332e-09	-3.223053e+01	-1.673781e+02
6.800000e-07	-4.508740e-06	-2.507482e-09	-3.205353e+01	-1.672149e+02
6.900000e-07	-4.483319e-06	-2.511381e-09	-3.187281e+01	-1.670517e+02
7.000000e-07	-4.457358e-06	-2.510896e-09	-3.168825e+01	-1.668887e+02
7.100000e-07	-4.430905e-06	-2.509622e-09	-3.150019e+01	-1.667257e+02
7.200000e-07	-4.403977e-06	-2.502814e-09	-3.130876e+01	-1.665629e+02
7.300000e-07	-4.376673e-06	-2.503676e-09	-3.111465e+01	-1.664003e+02
7.400000e-07	-4.349084e-06	-2.490939e-09	-3.091851e+01	-1.662376e+02
7.500000e-07	-4.321266e-06	-2.481796e-09	-3.072075e+01	-1.660750e+02
7.600000e-07	-4.293199e-06	-2.473318e-09	-3.052121e+01	-1.659122e+02
7.700000e-07	-4.264966e-06	-2.482405e-09	-3.032050e+01	-1.657491e+02
7.800000e-07	-4.236572e-06	-2.484015e-09	-3.011864e+01	-1.655856e+02
7.900000e-07	-4.207830e-06	-2.487303e-09	-2.991430e+01	-1.654214e+02
8.000000e-07	-4.178706e-06	-2.477315e-09	-2.970726e+01	-1.652563e+02
8.100000e-07	-4.149300e-06	-2.472496e-09	-2.949821e+01	-1.650901e+02
8.200000e-07	-4.119681e-06	-2.462413e-09	-2.928764e+01	-1.649225e+02
8.300000e-07	-4.089763e-06	-2.459379e-09	-2.907495e+01	-1.647531e+02
8.400000e-07	-4.059467e-06	-2.453148e-09	-2.885956e+01	-1.645817e+02
8.500000e-07	-4.028896e-06	-2.457112e-09	-2.864223e+01	-1.644079e+02
8.600000e-07	-3.998152e-06	-2.456113e-09	-2.842366e+01	-1.642313e+02
8.700000e-07	-3.967238e-06	-2.457097e-09	-2.820389e+01	-1.640516e+02
8.800000e-07	-3.936085e-06	-2.446512e-09	-2.798242e+01	-1.638682e+02
8.900000e-07	-3.904683e-06	-2.436602e-09	-2.775917e+01	-1.636809e+02
9.000000e-07	-3.873066e-06	-2.426295e-09	-2.753441e+01	-1.634892e+02
9.100000e-07	-3.841261e-06	-2.424529e-09	-2.730830e+01	-1.632927e+02
9.200000e-07	-3.809288e-06	-2.424687e-09	-2.708099e+01	-1.630911e+02
9.300000e-07	-3.777117e-06	-2.428887e-09	-2.685228e+01	-1.628839e+02
9.400000e-07	-3.744652e-06	-2.432191e-09	-2.662148e+01	-1.626708e+02
9.500000e-07	-3.711892e-06	-2.431244e-09	-2.638859e+01	-1.624515e+02
9.600000e-07	-3.678851e-06	-2.423842e-09	-2.615369e+01	-1.622258e+02
9.700000e-07	-3.645426e-06	-2.414939e-09	-2.591606e+01	-1.619935e+02
9.800000e-07	-3.611472e-06	-2.408632e-09	-2.567468e+01	-1.617543e+02
9.900000e-07	-3.576962e-06	-2.402543e-09	-2.542934e+01	-1.615082e+02
1.000000e-06	-3.542018e-06	-2.401825e-09	-2.518091e+01	-1.612551e+02
1.010000e-06	-3.506822e-06	-2.404908e-09	-2.493070e+01	-1.609951e+02
1.020000e-06	-3.471436e-06	-2.410261e-09	-2.467914e+01	-1.607282e+02
1.030000e-06	-3.435824e-06	-2.406183e-09	-2.442596e+01	-1.604546e+02
1.040000e-06	-3.400062e-06	-2.400374e-09	-2.417172e+01	-1.601746e+02
1.050000e-06	-3.364174e-06	-2.390105e-09	-2.391659e+01	-1.598883e+02
1.060000e-06	-3.328104e-06	-2.382999e-09	-2.366016e+01	-1.595962e+02
1.070000e-06	-3.291805e-06	-2.373279e-09	-2.340210e+01	-1.592986e+02
1.080000e-06	-3.255329e-06	-2.367140e-09	-2.314279e+01	-1.589959e+02
1.090000e-06	-3.218665e-06	-2.362750e-09	-2.288213e+01	-1.586886e+02
1.100000e-06	-3.181693e-06	-2.364473e-09	-2.261929e+01	-1.583771e+02
1.110000e-06	-3.144426e-06	-2.359283e-09	-2.235435e+01	-1.580620e+02
1.120000e-06	-3.106923e-06	-2.352884e-09	-2.208774e+01	-1.577437e+02
1.130000e-06	-3.069228e-06	-2.347199e-09	-2.181976e+01	-1.574226e+02
1.140000e-06	-3.031366e-06	-2.346001e-09	-2.155059e+01	-1.570991e+02
1.150000e-06	-2.993331e-06	-2.338891e-09	-2.128019e+01	-1.567736e+02
1.160000e-06	-2.955187e-06	-2.329872e-09	-2.100902e+01	-1.564464e+02
1.170000e-06	-2.916810e-06	-2.318715e-09	-2.073618e+01	-1.561178e+02
1.180000e-06	-2.878077e-06	-2.312657e-09	-2.046083e+01	-1.557878e+02
1.190000e-06	-2.839119e-06	-2.308278e-09	-2.018386e+01	-1.554565e+02
1.200000e-06	-2.799973e-06	-2.304592e-09	-1.990557e+01	-1.551238e+02
1.210000e-06	-2.760655e-06	-2.296913e-09	-1.962605e+01	-1.547896e+02
1.220000e-06	-2.721261e-06	-2.290303e-09	-1.934599e+01	-1.544535e+02
1.230000e-06	-2.681662e-06	-2.285548e-09	-1.906447e+01	-1.541153e+02
1.240000e-06	-2.641844e-06	-2.279338e-09	-1.878140e+01	-1.537742e+02
1.250000e-06	-2.602000e-06	-2.267995e-09	-1.849814e+01	-1.534297e+02
1.260000e-06	-2.562104e-06	-2.258098e-09	-1.821451e+01	-1.530811e+02
1.270000e-06	-2.522071e-06	-2.253324e-09	-1.792991e+01	-1.527274e+02
1.280000e-06	-2.481906e-06	-2.248269e-09	-1.764437e+01	-1.523678e+02
1.290000e-06	-2.441672e-06	-2.240943e-09	-1.735833e+01	-1.520012e+02
1.300000e-06	-2.401298e-06	-2.230982e-09	-1.707131e+01	-1.516266e+02
1.310000e-06	-2.360631e-06	-2.226384e-09	-1.678220e+01	-1.512428e+02
1.320000e-06	-2.319720e-06	-2.222203e-09	-1.649135e+01	-1.508487e+02
1.330000e-06	-2.278611e-06	-2.214991e-09	-1.619910e+01	-1.504431e+02
1.340000e-06	-2.237220e-06	-2.205347e-09	-1.590484e+01	-1.500248e+02
1.350000e-06	-2.195483e-06	-2.198867e-09	-1.560813e+01	-1.495928e+02
1.360000e-06	-2.153330e-06	-2.191595e-09	-1.530846e+01	-1.491459e+02
1.370000e-06	-2.110880e-06	-2.183415e-09	-1.500667e+01	-1.486831e+02
1.380000e-06	-2.068343e-06	-2.172290e-09	-1.470427e+01	-1.482035e+02
1.390000e-06	-2.025580e-06	-2.162330e-09	-1.440025e+01	-1.477063e+02
1.400000e-06	-1.982585e-06	-2.155115e-09	-1.409460e+01	-1.471908e+02
1.410000e-06	-1.939501e-06	-2.150085e-09	-1.378830e+01	-1.466562e+02
1.420000e-06	-1.896237e-06	-2.138100e-09	-1.348073e+01	-1.461022e+02
1.430000e-06	-1.852744e-06	-2.124165e-09	-1.317153e+01	-1.455283e+02
1.440000e-06	-1.809115e-06	-2.111715e-09	-1.286136e+01	-1.449345e+02
1.450000e-06	-1.765417e-06	-2.104467e-09	-1.255070e+01	-1.443204e+02
1.460000e-06	-1.721614e-06	-2.095580e-09	-1.223930e+01	-1.436863e+02
1.470000e-06	-1.677743e-06	-2.082987e-09	-1.192741e+01	-1.430323e+02
1.480000e-06	-1.633802e-06	-2.070290e-09	-1.161503e+01	-1.423585e+02
1.490000e-06	-1.589802e-06	-2.060521e-09	-1.130222e+01	-1.416655e+02
1.500000e-06	-1.545739e-06	-2.050505e-09	-1.098897e+01	-1.409534e+02
1.510000e-06	-1.501628e-06	-2.035972e-09	-1.067537e+01	-1.402230e+02
1.520000e-06	-1.457508e-06	-2.017641e-09	-1.036172e+01	-1.394745e+02
1.530000e-06	-1.413324e-06	-2.003404e-09	-1.004761e+01	-1.387086e+02
1.540000e-06	-1.369088e-06	-1.996330e-09	-9.733121e+00	-1.379257e+02
1.550000e-06	-1.324816e-06	-1.992689e-09	-9.418385e+00	-1.371262e+02
1.560000e-06	-1.280423e-06	-1.987560e-09	-9.102781e+00	-1.363105e+02
1.570000e-06	-1.235901e-06	-1.980162e-09	-8.786267e+00	-1.354790e+02
1.580000e-06	-1.191298e-06	-1.971453e-09	-8.469175e+00	-1.346316e+02
1.590000e-06	-1.146600e-06	-1.957159e-09	-8.151409e+00	-1.337685e+02
1.600000e-06	-1.101763e-06	-1.937182e-09	-7.832650e+00	-1.328895e+02
1.610000e-06	-1.056808e-06	-1.916900e-09	-7.513063e+00	-1.319942e+02
1.620000e-06	-1.011779e-06	-1.902401e-09	-7.192937e+00	-1.310823e+02
1.630000e-06	-9.666880e-07	-1.892268e-09	-6.872379e+00	-1.301528e+02
1.640000e-06	-9.215212e-07	-1.883061e-09	-6.551279e+00	-1.292050e+02
1.650000e-06	-8.762914e-07	-1.873607e-09	-6.229731e+00	-1.282377e+02
1.660000e-06	-8.310451e-07	-1.863654e-09	-5.908066e+00	-1.272495e+02
1.670000e-06	-7.857492e-07	-1.849702e-09	-5.586048e+00	-1.262390e+02
1.680000e-06	-7.403431e-07	-1.831510e-09	-5.263247e+00	-1.252044e+02
1.690000e-06	-6.947655e-07	-1.808170e-09	-4.939227e+00	-1.241437e+02
1.700000e-06	-6.491313e-07	-1.786150e-09	-4.614804e+00	-1.230550e+02
1.710000e-06	-6.035751e-07	-1.768017e-09	-4.290936e+00	-1.219359e+02
1.720000e-06	-5.580179e-07	-1.753534e-09	-3.967061e+00	-1.207842e+02
1.730000e-06	-5.123120e-07	-1.738544e-09	-3.642128e+00	-1.195975e+02
1.740000e-06	-4.665105e-07	-1.723397e-09	-3.316517e+00	-1.183731e+02
1.750000e-06	-4.208129e-07	-1.706639e-09	-2.991643e+00	-1.171087e+02
1.760000e-06	-3.751734e-07	-1.688843e-09	-2.667183e+00	-1.158016e+02
1.770000e-06	-3.293795e-07	-1.666711e-09	-2.341625e+00	-1.144494e+02
1.780000e-06	-2.833855e-07	-1.642856e-09	-2.014644e+00	-1.130496e+02
1.790000e-06	-2.373877e-07	-1.620755e-09	-1.687637e+00	-1.115998e+02
1.800000e-06	-1.915099e-07	-1.600407e-09	-1.361482e+00	-1.100976e+02
1.810000e-06	-1.457061e-07	-1.578848e-09	-1.035854e+00	-1.085411e+02
1.820000e-06	-9.991855e-08	-1.553828e-09	-7.103410e-01	-1.069282e+02
1.830000e-06	-5.413462e-08	-1.527027e-09	-3.848539e-01	-1.052571e+02
1.840000e-06	-8.282117e-09	-1.500635e-09	-5.887923e-02	-1.035262e+02
1.850000e-06	3.761880e-08	-1.473732e-09	2.674396e-01	-1.017340e+02
1.860000e-06	8.343452e-08	-1.445433e-09	5.931527e-01	-9.987935e+01
1.870000e-06	1.292395e-07	-1.416587e-09	9.187895e-01	-9.796132e+01
1.880000e-06	1.750808e-07	-1.386346e-09	1.244685e+00	-9.597913e+01
1.890000e-06	2.208750e-07	-1.354222e-09	1.570245e+00	-9.393225e+01
1.900000e-06	2.666112e-07	-1.317427e-09	1.895392e+00	-9.182036e+01
1.910000e-06	3.123511e-07	-1.279023e-09	2.220567e+00	-8.964336e+01
1.920000e-06	3.581208e-07	-1.242040e-09	2.545953e+00	-8.740134e+01
1.930000e-06	4.038541e-07	-1.209539e-09	2.871080e+00	-8.509458e+01
1.940000e-06	4.495892e-07	-1.177902e-09	3.196220e+00	-8.272353e+01
1.950000e-06	4.952754e-07	-1.145957e-09	3.521012e+00	-8.028880e+01
1.960000e-06	5.408447e-07	-1.112525e-09	3.844973e+00	-7.779111e+01
1.970000e-06	5.863307e-07	-1.076157e-09	4.168342e+00	-7.523132e+01
1.980000e-06	6.317341e-07	-1.032640e-09	4.491124e+00	-7.261041e+01
1.990000e-06	6.771307e-07	-9.837160e-10	4.813858e+00	-6.992941e+01
2.000000e-06	7.225393e-07	-9.385874e-10	5.136677e+00	-6.718943e+01
2.010000e-06	7.679066e-07	-9.006123e-10	5.459202e+00	-6.439165e+01
2.020000e-06	8.132338e-07	-8.637038e-10	5.781442e+00	-6.153729e+01
2.030000e-06	8.585145e-07	-8.229357e-10	6.103351e+00	-5.862758e+01
2.040000e-06	9.037089e-07	-7.770134e-10	6.424647e+00	-5.566383e+01
2.050000e-06	9.488286e-07	-7.290802e-10	6.745413e+00	-5.264733e+01
2.060000e-06	9.938651e-07	-6.800205e-10	7.065586e+00	-4.957942e+01
2.070000e-06	1.038843e-06	-6.304203e-10	7.385341e+00	-4.646146e+01
2.080000e-06	1.083757e-06	-5.827446e-10	7.704646e+00	-4.329485e+01
2.090000e-06	1.128525e-06	-5.407694e-10	8.022912e+00	-4.008104e+01
2.100000e-06	1.173194e-06	-5.025496e-10	8.340473e+00	-3.682152e+01
2.110000e-06	1.217783e-06	-4.570311e-10	8.657466e+00	-3.351786e+01
2.120000e-06	1.262248e-06	-4.029359e-10	8.973575e+00	-3.017172e+01
2.130000e-06	1.306568e-06	-3.453054e-10	9.288654e+00	-2.678485e+01
2.140000e-06	1.350816e-06	-2.896384e-10	9.603225e+00	-2.335912e+01
2.150000e-06	1.395067e-06	-2.368954e-10	9.917811e+00	-1.989654e+01
2.160000e-06	1.439330e-06	-1.874255e-10	1.023248e+01	-1.639926e+01
2.170000e-06	1.483550e-06	-1.413131e-10	1.054686e+01	-1.286963e+01
2.180000e-06	1.527620e-06	-9.532676e-11	1.086015e+01	-9.310149e+00
2.190000e-06	1.571592e-06	-4.478079e-11	1.117276e+01	-5.723544e+00
2.200000e-06	1.615545e-06	1.240558e-11	1.148524e+01	-2.112732e+00
2.210000e-06	1.659446e-06	7.274259e-11	1.179733e+01	1.519148e+00
2.220000e-06	1.703275e-06	1.304473e-10	1.210892e+01	5.168741e+00
2.230000e-06	1.747024e-06	1.851063e-10	1.241995e+01	8.832475e+00
2.240000e-06	1.790662e-06	2.388920e-10	1.273018e+01	1.250656e+01
2.250000e-06	1.834227e-06	2.914546e-10	1.303988e+01	1.618701e+01
2.260000e-06	1.877716e-06	3.407117e-10	1.334906e+01	1.986965e+01
2.270000e-06	1.920963e-06	3.901940e-10	1.365651e+01	2.355011e+01
2.280000e-06	1.964020e-06	4.434230e-10	1.396261e+01	2.722389e+01
2.290000e-06	2.006999e-06	5.024595e-10	1.426816e+01	3.088637e+01
2.300000e-06	2.049798e-06	5.629117e-10	1.457242e+01	3.453283e+01
2.310000e-06	2.092408e-06	6.198793e-10	1.487535e+01	3.815847e+01
2.320000e-06	2.134692e-06	6.713836e-10	1.517595e+01	4.175848e+01
2.330000e-06	2.176655e-06	7.164637e-10	1.547428e+01	4.532808e+01
2.340000e-06	2.218366e-06	7.600354e-10	1.577081e+01	4.886250e+01
2.350000e-06	2.259790e-06	8.078347e-10	1.606530e+01	5.235711e+01
2.360000e-06	2.300881e-06	8.606684e-10	1.635743e+01	5.580738e+01
2.370000e-06	2.341689e-06	9.126774e-10	1.664754e+01	5.920897e+01
2.380000e-06	2.382253e-06	9.619335e-10	1.693592e+01	6.255774e+01
2.390000e-06	2.422572e-06	1.009445e-09	1.722255e+01	6.584982e+01
2.400000e-06	2.462755e-06	1.054028e-09	1.750822e+01	6.908159e+01
2.410000e-06	2.502858e-06	1.094375e-09	1.779332e+01	7.224979e+01
2.420000e-06	2.542861e-06	1.134107e-09	1.807771e+01	7.535145e+01
2.430000e-06	2.582736e-06	1.177144e-09	1.836119e+01	7.838399e+01
2.440000e-06	2.622525e-06	1.224734e-09	1.864406e+01	8.134522e+01
2.450000e-06	2.662191e-06	1.270781e-09	1.892605e+01	8.423332e+01
2.460000e-06	2.701747e-06	1.312466e-09	1.920726e+01	8.704688e+01
2.470000e-06	2.741250e-06	1.351510e-09	1.948809e+01	8.978489e+01
2.480000e-06	2.780643e-06	1.389279e-09	1.976815e+01	9.244673e+01
2.490000e-06	2.819760e-06	1.423819e-09	2.004624e+01	9.503216e+01
2.500000e-06	2.858611e-06	1.456191e-09	2.032244e+01	9.754134e+01
2.510000e-06	2.897245e-06	1.490555e-09	2.059709e+01	9.997475e+01
2.520000e-06	2.935620e-06	1.526717e-09	2.086991e+01	1.023332e+02
2.530000e-06	2.973794e-06	1.562613e-09	2.114130e+01	1.046178e+02
2.540000e-06	3.011802e-06	1.594969e-09	2.141150e+01	1.068300e+02
2.550000e-06	3.049564e-06	1.625443e-09	2.167996e+01	1.089714e+02
2.560000e-06	3.087149e-06	1.656007e-09	2.194716e+01	1.110438e+02
2.570000e-06	3.124609e-06	1.683598e-09	2.221347e+01	1.130491e+02
2.580000e-06	3.161784e-06	1.706549e-09	2.247776e+01	1.149895e+02
2.590000e-06	3.198694e-06	1.728481e-09	2.274016e+01	1.168672e+02
2.600000e-06	3.235400e-06	1.753025e-09	2.300111e+01	1.186843e+02
2.610000e-06	3.271878e-06	1.780150e-09	2.326044e+01	1.204432e+02
2.620000e-06	3.308143e-06	1.808815e-09	2.351825e+01	1.221460e+02
2.630000e-06	3.344234e-06	1.837152e-09	2.377483e+01	1.237950e+02
2.640000e-06	3.380198e-06	1.862494e-09	2.403050e+01	1.253922e+02
2.650000e-06	3.416067e-06	1.882873e-09	2.428550e+01	1.269395e+02
2.660000e-06	3.451739e-06	1.899485e-09	2.453911e+01	1.284390e+02
2.670000e-06	3.487161e-06	1.918026e-09	2.479093e+01	1.298922e+02
2.680000e-06	3.522419e-06	1.938140e-09	2.504158e+01	1.313008e+02
2.690000e-06	3.557447e-06	1.958041e-09	2.529060e+01	1.326663e+02
2.700000e-06	3.592114e-06	1.977967e-09	2.553706e+01	1.339898e+02
2.710000e-06	3.626369e-06	1.997950e-09	2.578058e+01	1.352726e+02
2.720000e-06	3.660168e-06	2.017177e-09	2.602087e+01	1.365155e+02
2.730000e-06	3.693539e-06	2.034317e-09	2.625811e+01	1.377195e+02
2.740000e-06	3.726459e-06	2.048892e-09	2.649215e+01	1.388852e+02
2.750000e-06	3.758999e-06	2.063534e-09	2.672347e+01	1.400132e+02
2.760000e-06	3.791286e-06	2.079620e-09	2.695301e+01	1.411041e+02
2.770000e-06	3.823397e-06	2.097788e-09	2.718130e+01	1.421583e+02
2.780000e-06	3.855372e-06	2.116642e-09	2.740861e+01	1.431761e+02
2.790000e-06	3.887161e-06	2.133300e-09	2.763461e+01	1.441580e+02
2.800000e-06	3.918742e-06	2.148139e-09	2.785912e+01	1.451043e+02
2.810000e-06	3.950071e-06	2.161896e-09	2.808185e+01	1.460153e+02
2.820000e-06	3.981167e-06	2.172359e-09	2.830291e+01	1.468914e+02
2.830000e-06	4.012022e-06	2.179379e-09	2.852227e+01	1.477331e+02
2.840000e-06	4.042507e-06	2.186708e-09	2.873899e+01	1.485409e+02
2.850000e-06	4.072601e-06	2.195838e-09	2.895294e+01	1.493153e+02
2.860000e-06	4.102453e-06	2.208854e-09	2.916516e+01	1.500570e+02
2.870000e-06	4.132114e-06	2.225921e-09	2.937602e+01	1.507667e+02
2.880000e-06	4.161561e-06	2.238988e-09	2.958537e+01	1.514452e+02
2.890000e-06	4.190729e-06	2.243203e-09	2.979273e+01	1.520936e+02
2.900000e-06	4.219579e-06	2.245268e-09	2.999783e+01	1.527127e+02
