# Temperatura_=_16.0
# Concentracion g/m^3_=_4090.0
# C_Vs_to_Am_M_A/Vsm_=_65563218390.804596
# pendiente_HvsI_1/m_=_3716.3
# ordenada_HvsI_A/m_=_1297.0
# frecuencia_Hz_=_135077.81768194956

Tiempo_(s)	Campo_(V.s)	Magnetizacion_(V.s)	Campo_(kA/m)	Magnetizacion_(A/m)
0.000000e+00	-5.441836e-06	-2.691500e-09	-3.838306e+01	-1.750446e+02
1.000000e-08	-5.442007e-06	-2.694605e-09	-3.838427e+01	-1.750191e+02
2.000000e-08	-5.442002e-06	-2.694435e-09	-3.838423e+01	-1.749877e+02
3.000000e-08	-5.441628e-06	-2.692014e-09	-3.838159e+01	-1.749516e+02
4.000000e-08	-5.440783e-06	-2.688332e-09	-3.837564e+01	-1.749117e+02
5.000000e-08	-5.439474e-06	-2.686468e-09	-3.836640e+01	-1.748694e+02
6.000000e-08	-5.437526e-06	-2.696313e-09	-3.835266e+01	-1.748259e+02
7.000000e-08	-5.434919e-06	-2.708540e-09	-3.833427e+01	-1.747825e+02
8.000000e-08	-5.431775e-06	-2.673587e-09	-3.831210e+01	-1.747407e+02
9.000000e-08	-5.428148e-06	-2.619083e-09	-3.828651e+01	-1.747019e+02
1.000000e-07	-5.424120e-06	-2.661564e-09	-3.825811e+01	-1.746673e+02
1.100000e-07	-5.419818e-06	-2.759233e-09	-3.822776e+01	-1.746383e+02
1.200000e-07	-5.415326e-06	-2.714804e-09	-3.819608e+01	-1.746160e+02
1.300000e-07	-5.410597e-06	-2.583784e-09	-3.816272e+01	-1.746015e+02
1.400000e-07	-5.405483e-06	-2.623270e-09	-3.812665e+01	-1.745958e+02
1.500000e-07	-5.399908e-06	-2.760510e-09	-3.808733e+01	-1.745996e+02
1.600000e-07	-5.393950e-06	-2.723832e-09	-3.804531e+01	-1.746135e+02
1.700000e-07	-5.387603e-06	-2.547893e-09	-3.800054e+01	-1.746379e+02
1.800000e-07	-5.380865e-06	-2.554206e-09	-3.795301e+01	-1.746729e+02
1.900000e-07	-5.373796e-06	-2.718626e-09	-3.790315e+01	-1.747184e+02
2.000000e-07	-5.366407e-06	-2.684949e-09	-3.785104e+01	-1.747741e+02
2.100000e-07	-5.358762e-06	-2.581767e-09	-3.779712e+01	-1.748396e+02
2.200000e-07	-5.350844e-06	-2.613443e-09	-3.774127e+01	-1.749140e+02
2.300000e-07	-5.342570e-06	-2.717069e-09	-3.768291e+01	-1.749965e+02
2.400000e-07	-5.333821e-06	-2.638370e-09	-3.762120e+01	-1.750858e+02
2.500000e-07	-5.324628e-06	-2.599026e-09	-3.755636e+01	-1.751806e+02
2.600000e-07	-5.314843e-06	-2.694576e-09	-3.748734e+01	-1.752795e+02
2.700000e-07	-5.304442e-06	-2.726694e-09	-3.741397e+01	-1.753808e+02
2.800000e-07	-5.293633e-06	-2.636419e-09	-3.733774e+01	-1.754827e+02
2.900000e-07	-5.282342e-06	-2.672547e-09	-3.725810e+01	-1.755834e+02
3.000000e-07	-5.270586e-06	-2.764911e-09	-3.717518e+01	-1.756812e+02
3.100000e-07	-5.258424e-06	-2.700715e-09	-3.708940e+01	-1.757741e+02
3.200000e-07	-5.245808e-06	-2.629222e-09	-3.700041e+01	-1.758602e+02
3.300000e-07	-5.232785e-06	-2.693428e-09	-3.690856e+01	-1.759377e+02
3.400000e-07	-5.219414e-06	-2.747633e-09	-3.681424e+01	-1.760049e+02
3.500000e-07	-5.205716e-06	-2.681846e-09	-3.671763e+01	-1.760601e+02
3.600000e-07	-5.191649e-06	-2.683144e-09	-3.661841e+01	-1.761019e+02
3.700000e-07	-5.177177e-06	-2.714348e-09	-3.651633e+01	-1.761288e+02
3.800000e-07	-5.162176e-06	-2.697915e-09	-3.641053e+01	-1.761398e+02
3.900000e-07	-5.146507e-06	-2.673641e-09	-3.630001e+01	-1.761337e+02
4.000000e-07	-5.130323e-06	-2.695702e-09	-3.618586e+01	-1.761098e+02
4.100000e-07	-5.113748e-06	-2.667522e-09	-3.606895e+01	-1.760675e+02
4.200000e-07	-5.096785e-06	-2.651018e-09	-3.594930e+01	-1.760064e+02
4.300000e-07	-5.079493e-06	-2.695039e-09	-3.582733e+01	-1.759264e+02
4.400000e-07	-5.061969e-06	-2.713252e-09	-3.570373e+01	-1.758276e+02
4.500000e-07	-5.044185e-06	-2.653368e-09	-3.557830e+01	-1.757103e+02
4.600000e-07	-5.026027e-06	-2.651576e-09	-3.545023e+01	-1.755748e+02
4.700000e-07	-5.007356e-06	-2.676787e-09	-3.531853e+01	-1.754219e+02
4.800000e-07	-4.988191e-06	-2.665999e-09	-3.518335e+01	-1.752524e+02
4.900000e-07	-4.968699e-06	-2.630350e-09	-3.504587e+01	-1.750673e+02
5.000000e-07	-4.949004e-06	-2.645069e-09	-3.490695e+01	-1.748676e+02
5.100000e-07	-4.929164e-06	-2.665964e-09	-3.476701e+01	-1.746546e+02
5.200000e-07	-4.909164e-06	-2.679978e-09	-3.462595e+01	-1.744295e+02
5.300000e-07	-4.888915e-06	-2.665549e-09	-3.448313e+01	-1.741937e+02
5.400000e-07	-4.868266e-06	-2.641006e-09	-3.433749e+01	-1.739485e+02
5.500000e-07	-4.847233e-06	-2.628124e-09	-3.418913e+01	-1.736954e+02
5.600000e-07	-4.825876e-06	-2.642066e-09	-3.403849e+01	-1.734357e+02
5.700000e-07	-4.804182e-06	-2.632747e-09	-3.388548e+01	-1.731707e+02
5.800000e-07	-4.782214e-06	-2.613491e-09	-3.373053e+01	-1.729016e+02
5.900000e-07	-4.759939e-06	-2.618915e-09	-3.357342e+01	-1.726297e+02
6.000000e-07	-4.737328e-06	-2.641887e-09	-3.341393e+01	-1.723560e+02
6.100000e-07	-4.714375e-06	-2.640971e-09	-3.325204e+01	-1.720815e+02
6.200000e-07	-4.691022e-06	-2.611621e-09	-3.308732e+01	-1.718070e+02
6.300000e-07	-4.667376e-06	-2.585150e-09	-3.292054e+01	-1.715334e+02
6.400000e-07	-4.643599e-06	-2.578707e-09	-3.275283e+01	-1.712611e+02
6.500000e-07	-4.619599e-06	-2.586301e-09	-3.258355e+01	-1.709907e+02
6.600000e-07	-4.595257e-06	-2.579209e-09	-3.241186e+01	-1.707224e+02
6.700000e-07	-4.570558e-06	-2.575874e-09	-3.223765e+01	-1.704565e+02
6.800000e-07	-4.545385e-06	-2.586914e-09	-3.206010e+01	-1.701930e+02
6.900000e-07	-4.519682e-06	-2.599751e-09	-3.187880e+01	-1.699318e+02
7.000000e-07	-4.493484e-06	-2.579919e-09	-3.169403e+01	-1.696729e+02
7.100000e-07	-4.466769e-06	-2.553288e-09	-3.150559e+01	-1.694158e+02
7.200000e-07	-4.439571e-06	-2.537693e-09	-3.131375e+01	-1.691602e+02
7.300000e-07	-4.412018e-06	-2.545636e-09	-3.111942e+01	-1.689056e+02
7.400000e-07	-4.384256e-06	-2.545913e-09	-3.092360e+01	-1.686517e+02
7.500000e-07	-4.356403e-06	-2.541712e-09	-3.072715e+01	-1.683977e+02
7.600000e-07	-4.328363e-06	-2.537625e-09	-3.052937e+01	-1.681432e+02
7.700000e-07	-4.300067e-06	-2.550146e-09	-3.032979e+01	-1.678874e+02
7.800000e-07	-4.271501e-06	-2.546040e-09	-3.012830e+01	-1.676297e+02
7.900000e-07	-4.242613e-06	-2.525999e-09	-2.992455e+01	-1.673695e+02
8.000000e-07	-4.213513e-06	-2.502658e-09	-2.971930e+01	-1.671062e+02
8.100000e-07	-4.184139e-06	-2.499769e-09	-2.951211e+01	-1.668392e+02
8.200000e-07	-4.154380e-06	-2.506067e-09	-2.930221e+01	-1.665679e+02
8.300000e-07	-4.124327e-06	-2.509781e-09	-2.909023e+01	-1.662918e+02
8.400000e-07	-4.093965e-06	-2.502775e-09	-2.887609e+01	-1.660105e+02
8.500000e-07	-4.063161e-06	-2.500772e-09	-2.865881e+01	-1.657234e+02
8.600000e-07	-4.032092e-06	-2.501860e-09	-2.843967e+01	-1.654302e+02
8.700000e-07	-4.000924e-06	-2.493251e-09	-2.821983e+01	-1.651306e+02
8.800000e-07	-3.969571e-06	-2.469016e-09	-2.799869e+01	-1.648244e+02
8.900000e-07	-3.937909e-06	-2.452188e-09	-2.777537e+01	-1.645113e+02
9.000000e-07	-3.906016e-06	-2.455986e-09	-2.755042e+01	-1.641912e+02
9.100000e-07	-3.874011e-06	-2.465404e-09	-2.732468e+01	-1.638640e+02
9.200000e-07	-3.841857e-06	-2.464968e-09	-2.709789e+01	-1.635297e+02
9.300000e-07	-3.809514e-06	-2.458873e-09	-2.686976e+01	-1.631882e+02
9.400000e-07	-3.776847e-06	-2.460608e-09	-2.663934e+01	-1.628397e+02
9.500000e-07	-3.743770e-06	-2.456752e-09	-2.640604e+01	-1.624842e+02
9.600000e-07	-3.710295e-06	-2.440843e-09	-2.616993e+01	-1.621219e+02
9.700000e-07	-3.676320e-06	-2.419985e-09	-2.593030e+01	-1.617529e+02
9.800000e-07	-3.641937e-06	-2.413254e-09	-2.568778e+01	-1.613773e+02
9.900000e-07	-3.607124e-06	-2.414588e-09	-2.544223e+01	-1.609955e+02
1.000000e-06	-3.571808e-06	-2.415530e-09	-2.519314e+01	-1.606076e+02
1.010000e-06	-3.536262e-06	-2.410615e-09	-2.494242e+01	-1.602138e+02
1.020000e-06	-3.500610e-06	-2.407469e-09	-2.469096e+01	-1.598144e+02
1.030000e-06	-3.464842e-06	-2.402832e-09	-2.443868e+01	-1.594097e+02
1.040000e-06	-3.428923e-06	-2.395799e-09	-2.418532e+01	-1.589998e+02
1.050000e-06	-3.392869e-06	-2.380043e-09	-2.393102e+01	-1.585849e+02
1.060000e-06	-3.356636e-06	-2.368015e-09	-2.367546e+01	-1.581654e+02
1.070000e-06	-3.320189e-06	-2.361872e-09	-2.341838e+01	-1.577414e+02
1.080000e-06	-3.283435e-06	-2.359383e-09	-2.315915e+01	-1.573131e+02
1.090000e-06	-3.246365e-06	-2.352063e-09	-2.289768e+01	-1.568807e+02
1.100000e-06	-3.209062e-06	-2.345247e-09	-2.263457e+01	-1.564442e+02
1.110000e-06	-3.171501e-06	-2.339915e-09	-2.236964e+01	-1.560039e+02
1.120000e-06	-3.133756e-06	-2.336499e-09	-2.210341e+01	-1.555598e+02
1.130000e-06	-3.095852e-06	-2.330173e-09	-2.183607e+01	-1.551119e+02
1.140000e-06	-3.057643e-06	-2.321217e-09	-2.156656e+01	-1.546603e+02
1.150000e-06	-3.019245e-06	-2.310738e-09	-2.129573e+01	-1.542048e+02
1.160000e-06	-2.980753e-06	-2.302140e-09	-2.102423e+01	-1.537456e+02
1.170000e-06	-2.942120e-06	-2.289799e-09	-2.075174e+01	-1.532823e+02
1.180000e-06	-2.903312e-06	-2.275781e-09	-2.047802e+01	-1.528149e+02
1.190000e-06	-2.864225e-06	-2.267151e-09	-2.020233e+01	-1.523431e+02
1.200000e-06	-2.824860e-06	-2.264728e-09	-1.992467e+01	-1.518666e+02
1.210000e-06	-2.785306e-06	-2.260359e-09	-1.964568e+01	-1.513850e+02
1.220000e-06	-2.745672e-06	-2.251123e-09	-1.936613e+01	-1.508981e+02
1.230000e-06	-2.705964e-06	-2.242845e-09	-1.908606e+01	-1.504052e+02
1.240000e-06	-2.666134e-06	-2.234186e-09	-1.880512e+01	-1.499059e+02
1.250000e-06	-2.626165e-06	-2.223921e-09	-1.852321e+01	-1.493997e+02
1.260000e-06	-2.586122e-06	-2.210998e-09	-1.824077e+01	-1.488859e+02
1.270000e-06	-2.545983e-06	-2.199916e-09	-1.795766e+01	-1.483638e+02
1.280000e-06	-2.505623e-06	-2.192794e-09	-1.767299e+01	-1.478328e+02
1.290000e-06	-2.465027e-06	-2.189004e-09	-1.738665e+01	-1.472921e+02
1.300000e-06	-2.424275e-06	-2.179866e-09	-1.709921e+01	-1.467408e+02
1.310000e-06	-2.383314e-06	-2.169741e-09	-1.681030e+01	-1.461783e+02
1.320000e-06	-2.341985e-06	-2.159606e-09	-1.651879e+01	-1.456036e+02
1.330000e-06	-2.300304e-06	-2.149162e-09	-1.622480e+01	-1.450160e+02
1.340000e-06	-2.258329e-06	-2.134343e-09	-1.592874e+01	-1.444146e+02
1.350000e-06	-2.216114e-06	-2.120492e-09	-1.563098e+01	-1.437986e+02
1.360000e-06	-2.173660e-06	-2.109308e-09	-1.533154e+01	-1.431673e+02
1.370000e-06	-2.130941e-06	-2.102884e-09	-1.503023e+01	-1.425197e+02
1.380000e-06	-2.087919e-06	-2.093562e-09	-1.472678e+01	-1.418553e+02
1.390000e-06	-2.044629e-06	-2.077227e-09	-1.442144e+01	-1.411734e+02
1.400000e-06	-2.001264e-06	-2.062655e-09	-1.411557e+01	-1.404732e+02
1.410000e-06	-1.957864e-06	-2.054779e-09	-1.380946e+01	-1.397543e+02
1.420000e-06	-1.914302e-06	-2.047812e-09	-1.350220e+01	-1.390161e+02
1.430000e-06	-1.870605e-06	-2.034558e-09	-1.319399e+01	-1.382583e+02
1.440000e-06	-1.826844e-06	-2.020088e-09	-1.288533e+01	-1.374804e+02
1.450000e-06	-1.782996e-06	-2.007538e-09	-1.257606e+01	-1.366822e+02
1.460000e-06	-1.739099e-06	-1.994688e-09	-1.226644e+01	-1.358635e+02
1.470000e-06	-1.695171e-06	-1.977981e-09	-1.195660e+01	-1.350241e+02
1.480000e-06	-1.651153e-06	-1.961000e-09	-1.164613e+01	-1.341639e+02
1.490000e-06	-1.607040e-06	-1.951041e-09	-1.133498e+01	-1.332829e+02
1.500000e-06	-1.562825e-06	-1.946860e-09	-1.102312e+01	-1.323811e+02
1.510000e-06	-1.518499e-06	-1.935976e-09	-1.071048e+01	-1.314586e+02
1.520000e-06	-1.474101e-06	-1.915433e-09	-1.039732e+01	-1.305152e+02
1.530000e-06	-1.429563e-06	-1.894930e-09	-1.008318e+01	-1.295512e+02
1.540000e-06	-1.384912e-06	-1.880579e-09	-9.768239e+00	-1.285665e+02
1.550000e-06	-1.340115e-06	-1.868542e-09	-9.452275e+00	-1.275611e+02
1.560000e-06	-1.295196e-06	-1.853771e-09	-9.135441e+00	-1.265349e+02
1.570000e-06	-1.250262e-06	-1.840949e-09	-8.818511e+00	-1.254878e+02
1.580000e-06	-1.205199e-06	-1.831386e-09	-8.500668e+00	-1.244196e+02
1.590000e-06	-1.159991e-06	-1.819021e-09	-8.181799e+00	-1.233298e+02
1.600000e-06	-1.114650e-06	-1.800254e-09	-7.861997e+00	-1.222181e+02
1.610000e-06	-1.069179e-06	-1.776630e-09	-7.541272e+00	-1.210839e+02
1.620000e-06	-1.023726e-06	-1.755027e-09	-7.220675e+00	-1.199262e+02
1.630000e-06	-9.782968e-07	-1.738099e-09	-6.900250e+00	-1.187444e+02
1.640000e-06	-9.327315e-07	-1.722633e-09	-6.578863e+00	-1.175371e+02
1.650000e-06	-8.871032e-07	-1.708961e-09	-6.257031e+00	-1.163032e+02
1.660000e-06	-8.414998e-07	-1.696608e-09	-5.935376e+00	-1.150412e+02
1.670000e-06	-7.958057e-07	-1.681635e-09	-5.613080e+00	-1.137495e+02
1.680000e-06	-7.500117e-07	-1.660520e-09	-5.290080e+00	-1.124263e+02
1.690000e-06	-7.041387e-07	-1.632322e-09	-4.966522e+00	-1.110696e+02
1.700000e-06	-6.582069e-07	-1.605564e-09	-4.642550e+00	-1.096773e+02
1.710000e-06	-6.122922e-07	-1.582480e-09	-4.318699e+00	-1.082471e+02
1.720000e-06	-5.663584e-07	-1.559414e-09	-3.994713e+00	-1.067768e+02
1.730000e-06	-5.203331e-07	-1.539809e-09	-3.670081e+00	-1.052638e+02
1.740000e-06	-4.742995e-07	-1.521409e-09	-3.345390e+00	-1.037057e+02
1.750000e-06	-4.282892e-07	-1.503164e-09	-3.020865e+00	-1.020999e+02
1.760000e-06	-3.822056e-07	-1.479368e-09	-2.695822e+00	-1.004439e+02
1.770000e-06	-3.361079e-07	-1.448111e-09	-2.370680e+00	-9.873518e+01
1.780000e-06	-2.900664e-07	-1.416626e-09	-2.045934e+00	-9.697122e+01
1.790000e-06	-2.440317e-07	-1.387044e-09	-1.721236e+00	-9.514969e+01
1.800000e-06	-1.979581e-07	-1.357202e-09	-1.396264e+00	-9.326836e+01
1.810000e-06	-1.518603e-07	-1.327475e-09	-1.071121e+00	-9.132514e+01
1.820000e-06	-1.057375e-07	-1.301660e-09	-7.458015e-01	-8.931813e+01
1.830000e-06	-5.964926e-08	-1.277619e-09	-4.207259e-01	-8.724568e+01
1.840000e-06	-1.359779e-08	-1.249345e-09	-9.590973e-02	-8.510635e+01
1.850000e-06	3.250651e-08	-1.214058e-09	2.292791e-01	-8.289900e+01
1.860000e-06	7.860197e-08	-1.173135e-09	5.544056e-01	-8.062275e+01
1.870000e-06	1.246466e-07	-1.132444e-09	8.791733e-01	-7.827706e+01
1.880000e-06	1.706906e-07	-1.092581e-09	1.203937e+00	-7.586169e+01
1.890000e-06	2.167396e-07	-1.051991e-09	1.528736e+00	-7.337673e+01
1.900000e-06	2.627839e-07	-1.014849e-09	1.853502e+00	-7.082261e+01
1.910000e-06	3.088387e-07	-9.815428e-10	2.178341e+00	-6.820009e+01
1.920000e-06	3.548780e-07	-9.461299e-10	2.503072e+00	-6.551026e+01
1.930000e-06	4.008491e-07	-9.040107e-10	2.827321e+00	-6.275453e+01
1.940000e-06	4.468438e-07	-8.569375e-10	3.151737e+00	-5.993462e+01
1.950000e-06	4.928922e-07	-8.099562e-10	3.476531e+00	-5.705252e+01
1.960000e-06	5.388386e-07	-7.649976e-10	3.800606e+00	-5.411050e+01
1.970000e-06	5.847652e-07	-7.184258e-10	4.124542e+00	-5.111110e+01
1.980000e-06	6.307230e-07	-6.694596e-10	4.448697e+00	-4.805704e+01
1.990000e-06	6.765920e-07	-6.219108e-10	4.772226e+00	-4.495125e+01
2.000000e-06	7.223752e-07	-5.790159e-10	5.095150e+00	-4.179683e+01
2.010000e-06	7.680939e-07	-5.356888e-10	5.417619e+00	-3.859699e+01
2.020000e-06	8.137988e-07	-4.871041e-10	5.739991e+00	-3.535507e+01
2.030000e-06	8.594646e-07	-4.353958e-10	6.062087e+00	-3.207446e+01
2.040000e-06	9.050766e-07	-3.849482e-10	6.383804e+00	-2.875861e+01
2.050000e-06	9.506196e-07	-3.344096e-10	6.705033e+00	-2.541097e+01
2.060000e-06	9.960612e-07	-2.825213e-10	7.025548e+00	-2.203499e+01
2.070000e-06	1.041422e-06	-2.296650e-10	7.345490e+00	-1.863409e+01
2.080000e-06	1.086710e-06	-1.800413e-10	7.664926e+00	-1.521162e+01
2.090000e-06	1.131957e-06	-1.321815e-10	7.984068e+00	-1.177087e+01
2.100000e-06	1.177119e-06	-8.505398e-11	8.302605e+00	-8.315061e+00
2.110000e-06	1.222130e-06	-3.415487e-11	8.620086e+00	-4.847295e+00
2.120000e-06	1.267039e-06	1.858136e-11	8.936841e+00	-1.370582e+00
2.130000e-06	1.311883e-06	6.872026e-11	9.253140e+00	2.112173e+00
2.140000e-06	1.356573e-06	1.198012e-10	9.568359e+00	5.598173e+00
2.150000e-06	1.401104e-06	1.723519e-10	9.882447e+00	9.084725e+00
2.160000e-06	1.445559e-06	2.261050e-10	1.019601e+01	1.256923e+01
2.170000e-06	1.489980e-06	2.785829e-10	1.050932e+01	1.604919e+01
2.180000e-06	1.534319e-06	3.325783e-10	1.082206e+01	1.952217e+01
2.190000e-06	1.578539e-06	3.874920e-10	1.113395e+01	2.298581e+01
2.200000e-06	1.622644e-06	4.387508e-10	1.144505e+01	2.643782e+01
2.210000e-06	1.666682e-06	4.843146e-10	1.175566e+01	2.987593e+01
2.220000e-06	1.710662e-06	5.302281e-10	1.206586e+01	3.329792e+01
2.230000e-06	1.754549e-06	5.782755e-10	1.237541e+01	3.670158e+01
2.240000e-06	1.798362e-06	6.265745e-10	1.268444e+01	4.008469e+01
2.250000e-06	1.842131e-06	6.769325e-10	1.299316e+01	4.344505e+01
2.260000e-06	1.885824e-06	7.305779e-10	1.330134e+01	4.678043e+01
2.270000e-06	1.929449e-06	7.835540e-10	1.360904e+01	5.008859e+01
2.280000e-06	1.973038e-06	8.310522e-10	1.391649e+01	5.336726e+01
2.290000e-06	2.016560e-06	8.717148e-10	1.422346e+01	5.661414e+01
2.300000e-06	2.059904e-06	9.115724e-10	1.452918e+01	5.982693e+01
2.310000e-06	2.103075e-06	9.531461e-10	1.483368e+01	6.300329e+01
2.320000e-06	2.146049e-06	9.985066e-10	1.513679e+01	6.614089e+01
2.330000e-06	2.188670e-06	1.045960e-09	1.543741e+01	6.923738e+01
2.340000e-06	2.231055e-06	1.093332e-09	1.573637e+01	7.229044e+01
2.350000e-06	2.273252e-06	1.140719e-09	1.603400e+01	7.529779e+01
2.360000e-06	2.315178e-06	1.186985e-09	1.632971e+01	7.825717e+01
2.370000e-06	2.356744e-06	1.226116e-09	1.662289e+01	8.116642e+01
2.380000e-06	2.397873e-06	1.257988e-09	1.691299e+01	8.402344e+01
2.390000e-06	2.438762e-06	1.289562e-09	1.720139e+01	8.682627e+01
2.400000e-06	2.479475e-06	1.324659e-09	1.748856e+01	8.957306e+01
2.410000e-06	2.519957e-06	1.364071e-09	1.777408e+01	9.226213e+01
2.420000e-06	2.560235e-06	1.404618e-09	1.805818e+01	9.489196e+01
2.430000e-06	2.600374e-06	1.446532e-09	1.834129e+01	9.746122e+01
2.440000e-06	2.640369e-06	1.488958e-09	1.862339e+01	9.996880e+01
2.450000e-06	2.680242e-06	1.526156e-09	1.890463e+01	1.024138e+02
2.460000e-06	2.720046e-06	1.556282e-09	1.918538e+01	1.047956e+02
2.470000e-06	2.759726e-06	1.584008e-09	1.946526e+01	1.071138e+02
2.480000e-06	2.799288e-06	1.611651e-09	1.974430e+01	1.093681e+02
2.490000e-06	2.838676e-06	1.641822e-09	2.002212e+01	1.115588e+02
2.500000e-06	2.877852e-06	1.674612e-09	2.029844e+01	1.136861e+02
2.510000e-06	2.916752e-06	1.709921e-09	2.057281e+01	1.157505e+02
2.520000e-06	2.955433e-06	1.744888e-09	2.084564e+01	1.177530e+02
2.530000e-06	2.994043e-06	1.774582e-09	2.111797e+01	1.196944e+02
2.540000e-06	3.032416e-06	1.796979e-09	2.138863e+01	1.215761e+02
2.550000e-06	3.070509e-06	1.818623e-09	2.165731e+01	1.233994e+02
2.560000e-06	3.108415e-06	1.844486e-09	2.192467e+01	1.251659e+02
2.570000e-06	3.146110e-06	1.869673e-09	2.219055e+01	1.268772e+02
2.580000e-06	3.183586e-06	1.890855e-09	2.245488e+01	1.285351e+02
2.590000e-06	3.220779e-06	1.914404e-09	2.271722e+01	1.301415e+02
2.600000e-06	3.257702e-06	1.941105e-09	2.297765e+01	1.316982e+02
2.610000e-06	3.294485e-06	1.965562e-09	2.323709e+01	1.332073e+02
2.620000e-06	3.331180e-06	1.987001e-09	2.349591e+01	1.346704e+02
2.630000e-06	3.367598e-06	2.009125e-09	2.375278e+01	1.360897e+02
2.640000e-06	3.403728e-06	2.033302e-09	2.400762e+01	1.374667e+02
2.650000e-06	3.439733e-06	2.055136e-09	2.426157e+01	1.388033e+02
2.660000e-06	3.475628e-06	2.072627e-09	2.451475e+01	1.401010e+02
2.670000e-06	3.511358e-06	2.090553e-09	2.476677e+01	1.413613e+02
2.680000e-06	3.546831e-06	2.108759e-09	2.501697e+01	1.425856e+02
2.690000e-06	3.582093e-06	2.126576e-09	2.526568e+01	1.437751e+02
2.700000e-06	3.617216e-06	2.140866e-09	2.551342e+01	1.449307e+02
2.710000e-06	3.652024e-06	2.154986e-09	2.575893e+01	1.460535e+02
2.720000e-06	3.686322e-06	2.173215e-09	2.600085e+01	1.471440e+02
2.730000e-06	3.720223e-06	2.192524e-09	2.623996e+01	1.482030e+02
2.740000e-06	3.753753e-06	2.208831e-09	2.647646e+01	1.492309e+02
2.750000e-06	3.786793e-06	2.221593e-09	2.670950e+01	1.502281e+02
2.760000e-06	3.819301e-06	2.235771e-09	2.693879e+01	1.511947e+02
2.770000e-06	3.851541e-06	2.251961e-09	2.716619e+01	1.521309e+02
2.780000e-06	3.883636e-06	2.265551e-09	2.739256e+01	1.530368e+02
2.790000e-06	3.915532e-06	2.276392e-09	2.761754e+01	1.539125e+02
2.800000e-06	3.947282e-06	2.288833e-09	2.784148e+01	1.547579e+02
2.810000e-06	3.978875e-06	2.303080e-09	2.806431e+01	1.555731e+02
2.820000e-06	4.010271e-06	2.313607e-09	2.828576e+01	1.563582e+02
2.830000e-06	4.041340e-06	2.319120e-09	2.850490e+01	1.571131e+02
2.840000e-06	4.072074e-06	2.323647e-09	2.872168e+01	1.578381e+02
2.850000e-06	4.102574e-06	2.331417e-09	2.893680e+01	1.585333e+02
2.860000e-06	4.132802e-06	2.343624e-09	2.915001e+01	1.591992e+02
2.870000e-06	4.162711e-06	2.354006e-09	2.936097e+01	1.598362e+02
2.880000e-06	4.192352e-06	2.362241e-09	2.957004e+01	1.604448e+02
2.890000e-06	4.221733e-06	2.369183e-09	2.977727e+01	1.610257e+02
2.900000e-06	4.250858e-06	2.374342e-09	2.998270e+01	1.615797e+02
