# Temperatura_=_-11.99
# Concentracion g/m^3_=_1620.0
# C_Vs_to_Am_M_A/Vsm_=_65563218390.804596
# pendiente_HvsI_1/m_=_3716.3
# ordenada_HvsI_A/m_=_1297.0
# frecuencia_Hz_=_135102.6711364351

Tiempo_(s)	Campo_(V.s)	Magnetizacion_(V.s)	Campo_(kA/m)	Magnetizacion_(A/m)
0.000000e+00	-5.512560e-06	-1.308195e-09	-3.837440e+01	-8.437095e+01
1.000000e-08	-5.512823e-06	-1.305618e-09	-3.837624e+01	-8.431865e+01
2.000000e-08	-5.512854e-06	-1.306587e-09	-3.837645e+01	-8.426803e+01
3.000000e-08	-5.512562e-06	-1.308448e-09	-3.837442e+01	-8.421897e+01
4.000000e-08	-5.511783e-06	-1.310708e-09	-3.836899e+01	-8.417132e+01
5.000000e-08	-5.510435e-06	-1.312942e-09	-3.835961e+01	-8.412485e+01
6.000000e-08	-5.508544e-06	-1.311188e-09	-3.834645e+01	-8.407933e+01
7.000000e-08	-5.506075e-06	-1.304228e-09	-3.832926e+01	-8.403446e+01
8.000000e-08	-5.503041e-06	-1.319104e-09	-3.830814e+01	-8.398992e+01
9.000000e-08	-5.499565e-06	-1.321814e-09	-3.828394e+01	-8.394537e+01
1.000000e-07	-5.495661e-06	-1.296398e-09	-3.825676e+01	-8.390047e+01
1.100000e-07	-5.491370e-06	-1.273746e-09	-3.822690e+01	-8.385486e+01
1.200000e-07	-5.486809e-06	-1.314026e-09	-3.819515e+01	-8.380817e+01
1.300000e-07	-5.481951e-06	-1.291487e-09	-3.816133e+01	-8.376006e+01
1.400000e-07	-5.476762e-06	-1.299233e-09	-3.812521e+01	-8.371021e+01
1.500000e-07	-5.471177e-06	-1.270024e-09	-3.808632e+01	-8.365829e+01
1.600000e-07	-5.465285e-06	-1.339794e-09	-3.804531e+01	-8.360404e+01
1.700000e-07	-5.458972e-06	-1.316729e-09	-3.800136e+01	-8.354721e+01
1.800000e-07	-5.452147e-06	-1.281191e-09	-3.795385e+01	-8.348759e+01
1.900000e-07	-5.444937e-06	-1.268064e-09	-3.790366e+01	-8.342502e+01
2.000000e-07	-5.437424e-06	-1.296189e-09	-3.785136e+01	-8.335937e+01
2.100000e-07	-5.429643e-06	-1.302552e-09	-3.779720e+01	-8.329058e+01
2.200000e-07	-5.421652e-06	-1.271614e-09	-3.774157e+01	-8.321862e+01
2.300000e-07	-5.413428e-06	-1.287999e-09	-3.768432e+01	-8.314351e+01
2.400000e-07	-5.404722e-06	-1.303884e-09	-3.762372e+01	-8.306532e+01
2.500000e-07	-5.395301e-06	-1.325355e-09	-3.755813e+01	-8.298417e+01
2.600000e-07	-5.385230e-06	-1.288216e-09	-3.748803e+01	-8.290021e+01
2.700000e-07	-5.374719e-06	-1.301343e-09	-3.741486e+01	-8.281363e+01
2.800000e-07	-5.363655e-06	-1.277992e-09	-3.733784e+01	-8.272467e+01
2.900000e-07	-5.352030e-06	-1.303719e-09	-3.725691e+01	-8.263359e+01
3.000000e-07	-5.340150e-06	-1.274512e-09	-3.717421e+01	-8.254067e+01
3.100000e-07	-5.327993e-06	-1.288604e-09	-3.708958e+01	-8.244622e+01
3.200000e-07	-5.315312e-06	-1.262753e-09	-3.700131e+01	-8.235055e+01
3.300000e-07	-5.302149e-06	-1.290934e-09	-3.690968e+01	-8.225400e+01
3.400000e-07	-5.288664e-06	-1.268965e-09	-3.681580e+01	-8.215688e+01
3.500000e-07	-5.274761e-06	-1.274023e-09	-3.671902e+01	-8.205953e+01
3.600000e-07	-5.260291e-06	-1.271487e-09	-3.661829e+01	-8.196226e+01
3.700000e-07	-5.245457e-06	-1.289780e-09	-3.651503e+01	-8.186537e+01
3.800000e-07	-5.230195e-06	-1.257006e-09	-3.640879e+01	-8.176914e+01
3.900000e-07	-5.214383e-06	-1.267019e-09	-3.629872e+01	-8.167383e+01
4.000000e-07	-5.198087e-06	-1.282081e-09	-3.618527e+01	-8.157965e+01
4.100000e-07	-5.181409e-06	-1.251721e-09	-3.606917e+01	-8.148680e+01
4.200000e-07	-5.164419e-06	-1.229985e-09	-3.595090e+01	-8.139543e+01
4.300000e-07	-5.147122e-06	-1.275100e-09	-3.583049e+01	-8.130567e+01
4.400000e-07	-5.129529e-06	-1.283993e-09	-3.570802e+01	-8.121757e+01
4.500000e-07	-5.111619e-06	-1.228374e-09	-3.558335e+01	-8.113117e+01
4.600000e-07	-5.093286e-06	-1.256648e-09	-3.545573e+01	-8.104646e+01
4.700000e-07	-5.074452e-06	-1.285925e-09	-3.532462e+01	-8.096338e+01
4.800000e-07	-5.055263e-06	-1.245235e-09	-3.519103e+01	-8.088184e+01
4.900000e-07	-5.035824e-06	-1.220002e-09	-3.505571e+01	-8.080169e+01
5.000000e-07	-5.016156e-06	-1.273804e-09	-3.491880e+01	-8.072276e+01
5.100000e-07	-4.996247e-06	-1.233964e-09	-3.478021e+01	-8.064483e+01
5.200000e-07	-4.976052e-06	-1.199142e-09	-3.463963e+01	-8.056765e+01
5.300000e-07	-4.955518e-06	-1.237161e-09	-3.449669e+01	-8.049095e+01
5.400000e-07	-4.934695e-06	-1.256792e-09	-3.435173e+01	-8.041441e+01
5.500000e-07	-4.913539e-06	-1.199702e-09	-3.420446e+01	-8.033773e+01
5.600000e-07	-4.891987e-06	-1.233549e-09	-3.405443e+01	-8.026054e+01
5.700000e-07	-4.870043e-06	-1.255725e-09	-3.390167e+01	-8.018251e+01
5.800000e-07	-4.847793e-06	-1.214960e-09	-3.374679e+01	-8.010325e+01
5.900000e-07	-4.825273e-06	-1.200796e-09	-3.359001e+01	-8.002242e+01
6.000000e-07	-4.802455e-06	-1.241360e-09	-3.343117e+01	-7.993965e+01
6.100000e-07	-4.779264e-06	-1.201556e-09	-3.326974e+01	-7.985457e+01
6.200000e-07	-4.755735e-06	-1.183549e-09	-3.310594e+01	-7.976686e+01
6.300000e-07	-4.731977e-06	-1.215965e-09	-3.294055e+01	-7.967619e+01
6.400000e-07	-4.707983e-06	-1.217996e-09	-3.277353e+01	-7.958224e+01
6.500000e-07	-4.683597e-06	-1.190654e-09	-3.260377e+01	-7.948475e+01
6.600000e-07	-4.658702e-06	-1.216127e-09	-3.243047e+01	-7.938346e+01
6.700000e-07	-4.633401e-06	-1.215161e-09	-3.225435e+01	-7.927815e+01
6.800000e-07	-4.607631e-06	-1.183996e-09	-3.207495e+01	-7.916864e+01
6.900000e-07	-4.581347e-06	-1.184214e-09	-3.189198e+01	-7.905477e+01
7.000000e-07	-4.554594e-06	-1.192224e-09	-3.170574e+01	-7.893645e+01
7.100000e-07	-4.527448e-06	-1.170829e-09	-3.151677e+01	-7.881359e+01
7.200000e-07	-4.500063e-06	-1.169937e-09	-3.132614e+01	-7.868616e+01
7.300000e-07	-4.472452e-06	-1.187956e-09	-3.113394e+01	-7.855417e+01
7.400000e-07	-4.444617e-06	-1.178646e-09	-3.094017e+01	-7.841767e+01
7.500000e-07	-4.416548e-06	-1.174359e-09	-3.074477e+01	-7.827673e+01
7.600000e-07	-4.388201e-06	-1.180430e-09	-3.054744e+01	-7.813147e+01
7.700000e-07	-4.359495e-06	-1.175086e-09	-3.034761e+01	-7.798204e+01
7.800000e-07	-4.330406e-06	-1.160050e-09	-3.014512e+01	-7.782861e+01
7.900000e-07	-4.301065e-06	-1.168063e-09	-2.994087e+01	-7.767140e+01
8.000000e-07	-4.271530e-06	-1.160974e-09	-2.973526e+01	-7.751064e+01
8.100000e-07	-4.241788e-06	-1.149905e-09	-2.952822e+01	-7.734657e+01
8.200000e-07	-4.211743e-06	-1.146311e-09	-2.931907e+01	-7.717945e+01
8.300000e-07	-4.181305e-06	-1.154248e-09	-2.910719e+01	-7.700956e+01
8.400000e-07	-4.150547e-06	-1.144758e-09	-2.889307e+01	-7.683718e+01
8.500000e-07	-4.119590e-06	-1.152338e-09	-2.867756e+01	-7.666259e+01
8.600000e-07	-4.088439e-06	-1.160208e-09	-2.846072e+01	-7.648608e+01
8.700000e-07	-4.057022e-06	-1.156885e-09	-2.824201e+01	-7.630793e+01
8.800000e-07	-4.025396e-06	-1.141627e-09	-2.802186e+01	-7.612839e+01
8.900000e-07	-3.993602e-06	-1.140467e-09	-2.780053e+01	-7.594772e+01
9.000000e-07	-3.961587e-06	-1.129144e-09	-2.757767e+01	-7.576615e+01
9.100000e-07	-3.929277e-06	-1.120273e-09	-2.735275e+01	-7.558390e+01
9.200000e-07	-3.896727e-06	-1.118218e-09	-2.712616e+01	-7.540115e+01
9.300000e-07	-3.863839e-06	-1.122262e-09	-2.689722e+01	-7.521808e+01
9.400000e-07	-3.830409e-06	-1.116687e-09	-2.666450e+01	-7.503482e+01
9.500000e-07	-3.796451e-06	-1.118700e-09	-2.642811e+01	-7.485148e+01
9.600000e-07	-3.761993e-06	-1.121756e-09	-2.618824e+01	-7.466815e+01
9.700000e-07	-3.727160e-06	-1.115176e-09	-2.594576e+01	-7.448486e+01
9.800000e-07	-3.692072e-06	-1.104398e-09	-2.570150e+01	-7.430166e+01
9.900000e-07	-3.656755e-06	-1.101381e-09	-2.545565e+01	-7.411852e+01
1.000000e-06	-3.621229e-06	-1.096758e-09	-2.520834e+01	-7.393543e+01
1.010000e-06	-3.585553e-06	-1.086179e-09	-2.495999e+01	-7.375232e+01
1.020000e-06	-3.549683e-06	-1.083347e-09	-2.471029e+01	-7.356910e+01
1.030000e-06	-3.513666e-06	-1.081303e-09	-2.445957e+01	-7.338568e+01
1.040000e-06	-3.477484e-06	-1.077765e-09	-2.420769e+01	-7.320194e+01
1.050000e-06	-3.441120e-06	-1.077557e-09	-2.395456e+01	-7.301772e+01
1.060000e-06	-3.404606e-06	-1.082531e-09	-2.370037e+01	-7.283289e+01
1.070000e-06	-3.367711e-06	-1.076282e-09	-2.344354e+01	-7.264726e+01
1.080000e-06	-3.330433e-06	-1.069405e-09	-2.318404e+01	-7.246068e+01
1.090000e-06	-3.292954e-06	-1.063107e-09	-2.292314e+01	-7.227295e+01
1.100000e-06	-3.255256e-06	-1.057015e-09	-2.266071e+01	-7.208389e+01
1.110000e-06	-3.217289e-06	-1.045496e-09	-2.239641e+01	-7.189331e+01
1.120000e-06	-3.179090e-06	-1.039039e-09	-2.213049e+01	-7.170102e+01
1.130000e-06	-3.140713e-06	-1.032365e-09	-2.186334e+01	-7.150683e+01
1.140000e-06	-3.102127e-06	-1.031680e-09	-2.159474e+01	-7.131055e+01
1.150000e-06	-3.063319e-06	-1.035033e-09	-2.132458e+01	-7.111200e+01
1.160000e-06	-3.024316e-06	-1.042513e-09	-2.105308e+01	-7.091099e+01
1.170000e-06	-2.985142e-06	-1.040206e-09	-2.078037e+01	-7.070733e+01
1.180000e-06	-2.945816e-06	-1.033816e-09	-2.050661e+01	-7.050083e+01
1.190000e-06	-2.906316e-06	-1.024354e-09	-2.023164e+01	-7.029133e+01
1.200000e-06	-2.866715e-06	-1.013459e-09	-1.995597e+01	-7.007862e+01
1.210000e-06	-2.826975e-06	-1.000687e-09	-1.967933e+01	-6.986252e+01
1.220000e-06	-2.787025e-06	-9.964891e-10	-1.940122e+01	-6.964284e+01
1.230000e-06	-2.746968e-06	-9.951554e-10	-1.912238e+01	-6.941937e+01
1.240000e-06	-2.706796e-06	-9.941902e-10	-1.884273e+01	-6.919191e+01
1.250000e-06	-2.666379e-06	-9.937868e-10	-1.856138e+01	-6.896022e+01
1.260000e-06	-2.625736e-06	-9.943677e-10	-1.827845e+01	-6.872408e+01
1.270000e-06	-2.584907e-06	-9.906803e-10	-1.799423e+01	-6.848323e+01
1.280000e-06	-2.543777e-06	-9.815321e-10	-1.770791e+01	-6.823741e+01
1.290000e-06	-2.502277e-06	-9.738204e-10	-1.741902e+01	-6.798633e+01
1.300000e-06	-2.460429e-06	-9.674197e-10	-1.712770e+01	-6.772969e+01
1.310000e-06	-2.418336e-06	-9.613253e-10	-1.683468e+01	-6.746717e+01
1.320000e-06	-2.375994e-06	-9.548677e-10	-1.653993e+01	-6.719843e+01
1.330000e-06	-2.333345e-06	-9.511824e-10	-1.624304e+01	-6.692312e+01
1.340000e-06	-2.290404e-06	-9.479450e-10	-1.594411e+01	-6.664085e+01
1.350000e-06	-2.247212e-06	-9.472081e-10	-1.564345e+01	-6.635125e+01
1.360000e-06	-2.203926e-06	-9.481826e-10	-1.534211e+01	-6.605391e+01
1.370000e-06	-2.160513e-06	-9.472451e-10	-1.503991e+01	-6.574843e+01
1.380000e-06	-2.116945e-06	-9.420770e-10	-1.473662e+01	-6.543438e+01
1.390000e-06	-2.073322e-06	-9.352499e-10	-1.443295e+01	-6.511135e+01
1.400000e-06	-2.029619e-06	-9.242266e-10	-1.412872e+01	-6.477892e+01
1.410000e-06	-1.985792e-06	-9.133808e-10	-1.382363e+01	-6.443668e+01
1.420000e-06	-1.941888e-06	-9.015620e-10	-1.351800e+01	-6.408422e+01
1.430000e-06	-1.897937e-06	-8.936828e-10	-1.321205e+01	-6.372116e+01
1.440000e-06	-1.853876e-06	-8.896533e-10	-1.290533e+01	-6.334711e+01
1.450000e-06	-1.809724e-06	-8.899314e-10	-1.259798e+01	-6.296172e+01
1.460000e-06	-1.765487e-06	-8.911889e-10	-1.229003e+01	-6.256467e+01
1.470000e-06	-1.721079e-06	-8.899149e-10	-1.198089e+01	-6.215564e+01
1.480000e-06	-1.676494e-06	-8.829687e-10	-1.167052e+01	-6.173436e+01
1.490000e-06	-1.631771e-06	-8.740765e-10	-1.135920e+01	-6.130058e+01
1.500000e-06	-1.586932e-06	-8.607395e-10	-1.104706e+01	-6.085408e+01
1.510000e-06	-1.541987e-06	-8.449345e-10	-1.073418e+01	-6.039466e+01
1.520000e-06	-1.496935e-06	-8.320790e-10	-1.042057e+01	-5.992216e+01
1.530000e-06	-1.451757e-06	-8.238795e-10	-1.010607e+01	-5.943643e+01
1.540000e-06	-1.406486e-06	-8.187537e-10	-9.790924e+00	-5.893734e+01
1.550000e-06	-1.361175e-06	-8.161297e-10	-9.475502e+00	-5.842479e+01
1.560000e-06	-1.315753e-06	-8.106174e-10	-9.159305e+00	-5.789866e+01
1.570000e-06	-1.270239e-06	-8.004224e-10	-8.842477e+00	-5.735885e+01
1.580000e-06	-1.224698e-06	-7.884230e-10	-8.525447e+00	-5.680524e+01
1.590000e-06	-1.179036e-06	-7.751654e-10	-8.207583e+00	-5.623772e+01
1.600000e-06	-1.133230e-06	-7.612976e-10	-7.888719e+00	-5.565612e+01
1.610000e-06	-1.087322e-06	-7.486389e-10	-7.569139e+00	-5.506025e+01
1.620000e-06	-1.041370e-06	-7.385351e-10	-7.249254e+00	-5.444989e+01
1.630000e-06	-9.953704e-07	-7.292056e-10	-6.929040e+00	-5.382474e+01
1.640000e-06	-9.493090e-07	-7.227196e-10	-6.608394e+00	-5.318446e+01
1.650000e-06	-9.032047e-07	-7.173435e-10	-6.287450e+00	-5.252863e+01
1.660000e-06	-8.569948e-07	-7.107790e-10	-5.965770e+00	-5.185673e+01
1.670000e-06	-8.107033e-07	-7.013862e-10	-5.643522e+00	-5.116818e+01
1.680000e-06	-7.643833e-07	-6.898159e-10	-5.321077e+00	-5.046230e+01
1.690000e-06	-7.179693e-07	-6.769536e-10	-4.997976e+00	-4.973832e+01
1.700000e-06	-6.714721e-07	-6.630507e-10	-4.674297e+00	-4.899534e+01
1.710000e-06	-6.250264e-07	-6.465357e-10	-4.350976e+00	-4.823239e+01
1.720000e-06	-5.786150e-07	-6.295112e-10	-4.027894e+00	-4.744840e+01
1.730000e-06	-5.320960e-07	-6.141563e-10	-3.704063e+00	-4.664218e+01
1.740000e-06	-4.854186e-07	-6.034465e-10	-3.379128e+00	-4.581249e+01
1.750000e-06	-4.387022e-07	-5.937854e-10	-3.053924e+00	-4.495796e+01
1.760000e-06	-3.920586e-07	-5.825132e-10	-2.729225e+00	-4.407718e+01
1.770000e-06	-3.454403e-07	-5.692506e-10	-2.404702e+00	-4.316867e+01
1.780000e-06	-2.988497e-07	-5.550441e-10	-2.080372e+00	-4.223093e+01
1.790000e-06	-2.521868e-07	-5.379878e-10	-1.755540e+00	-4.126238e+01
1.800000e-06	-2.054792e-07	-5.195910e-10	-1.430396e+00	-4.026148e+01
1.810000e-06	-1.587312e-07	-5.015291e-10	-1.104971e+00	-3.922668e+01
1.820000e-06	-1.118696e-07	-4.826583e-10	-7.787543e-01	-3.815646e+01
1.830000e-06	-6.503215e-08	-4.649842e-10	-4.527062e-01	-3.704936e+01
1.840000e-06	-1.829556e-08	-4.503790e-10	-1.273603e-01	-3.590400e+01
1.850000e-06	2.841908e-08	-4.366959e-10	1.978328e-01	-3.471910e+01
1.860000e-06	7.515915e-08	-4.233373e-10	5.232030e-01	-3.349350e+01
1.870000e-06	1.218771e-07	-4.090572e-10	8.484190e-01	-3.222620e+01
1.880000e-06	1.685881e-07	-3.929946e-10	1.173587e+00	-3.091636e+01
1.890000e-06	2.153431e-07	-3.732152e-10	1.499061e+00	-2.956334e+01
1.900000e-06	2.621182e-07	-3.482224e-10	1.824675e+00	-2.816671e+01
1.910000e-06	3.087903e-07	-3.236079e-10	2.149572e+00	-2.672628e+01
1.920000e-06	3.553532e-07	-3.003179e-10	2.473708e+00	-2.524208e+01
1.930000e-06	4.019229e-07	-2.774456e-10	2.797893e+00	-2.371442e+01
1.940000e-06	4.484990e-07	-2.568586e-10	3.122121e+00	-2.214388e+01
1.950000e-06	4.950311e-07	-2.395812e-10	3.446044e+00	-2.053131e+01
1.960000e-06	5.415307e-07	-2.221584e-10	3.769740e+00	-1.887784e+01
1.970000e-06	5.880118e-07	-2.016015e-10	4.093308e+00	-1.718488e+01
1.980000e-06	6.344850e-07	-1.783303e-10	4.416820e+00	-1.545411e+01
1.990000e-06	6.809241e-07	-1.520594e-10	4.740094e+00	-1.368749e+01
2.000000e-06	7.273318e-07	-1.237255e-10	5.063151e+00	-1.188724e+01
2.010000e-06	7.736378e-07	-9.665388e-11	5.385500e+00	-1.005581e+01
2.020000e-06	8.198188e-07	-6.938806e-11	5.706978e+00	-8.195890e+00
2.030000e-06	8.659506e-07	-4.176486e-11	6.028114e+00	-6.310379e+00
2.040000e-06	9.120897e-07	-1.444524e-11	6.349300e+00	-4.402354e+00
2.050000e-06	9.581426e-07	1.173672e-11	6.669887e+00	-2.475056e+00
2.060000e-06	1.004122e-06	3.568659e-11	6.989962e+00	-5.318535e-01
2.070000e-06	1.050095e-06	5.875948e-11	7.309994e+00	1.423778e+00
2.080000e-06	1.095958e-06	8.523246e-11	7.629259e+00	3.388293e+00
2.090000e-06	1.141641e-06	1.148574e-10	7.947268e+00	5.358105e+00
2.100000e-06	1.187227e-06	1.457835e-10	8.264607e+00	7.329619e+00
2.110000e-06	1.232839e-06	1.767176e-10	8.582121e+00	9.299260e+00
2.120000e-06	1.278428e-06	2.067750e-10	8.899478e+00	1.126351e+01
2.130000e-06	1.323923e-06	2.355206e-10	9.216180e+00	1.321893e+01
2.140000e-06	1.369259e-06	2.614003e-10	9.531778e+00	1.516220e+01
2.150000e-06	1.414474e-06	2.831716e-10	9.846529e+00	1.709012e+01
2.160000e-06	1.459650e-06	3.030825e-10	1.016101e+01	1.899968e+01
2.170000e-06	1.504772e-06	3.238605e-10	1.047512e+01	2.088803e+01
2.180000e-06	1.549826e-06	3.483920e-10	1.078875e+01	2.275253e+01
2.190000e-06	1.594626e-06	3.764502e-10	1.110062e+01	2.459077e+01
2.200000e-06	1.639155e-06	4.062050e-10	1.141060e+01	2.640055e+01
2.210000e-06	1.683570e-06	4.388116e-10	1.171978e+01	2.817993e+01
2.220000e-06	1.727898e-06	4.699680e-10	1.202836e+01	2.992719e+01
2.230000e-06	1.772151e-06	4.939821e-10	1.233642e+01	3.164089e+01
2.240000e-06	1.816326e-06	5.095455e-10	1.264393e+01	3.331980e+01
2.250000e-06	1.860426e-06	5.195278e-10	1.295092e+01	3.496297e+01
2.260000e-06	1.904435e-06	5.299520e-10	1.325728e+01	3.656964e+01
2.270000e-06	1.948344e-06	5.478556e-10	1.356294e+01	3.813931e+01
2.280000e-06	1.992184e-06	5.730832e-10	1.386812e+01	3.967167e+01
2.290000e-06	2.036003e-06	6.001281e-10	1.417316e+01	4.116661e+01
2.300000e-06	2.079710e-06	6.253890e-10	1.447742e+01	4.262420e+01
2.310000e-06	2.123269e-06	6.491178e-10	1.478065e+01	4.404466e+01
2.320000e-06	2.166747e-06	6.700542e-10	1.508330e+01	4.542837e+01
2.330000e-06	2.210155e-06	6.849274e-10	1.538548e+01	4.677582e+01
2.340000e-06	2.253431e-06	6.964184e-10	1.568674e+01	4.808759e+01
2.350000e-06	2.296502e-06	7.107786e-10	1.598657e+01	4.936434e+01
2.360000e-06	2.339402e-06	7.284953e-10	1.628520e+01	5.060681e+01
2.370000e-06	2.382102e-06	7.473610e-10	1.658245e+01	5.181576e+01
2.380000e-06	2.424411e-06	7.664666e-10	1.687697e+01	5.299199e+01
2.390000e-06	2.466392e-06	7.845477e-10	1.716921e+01	5.413628e+01
2.400000e-06	2.508117e-06	8.009180e-10	1.745967e+01	5.524943e+01
2.410000e-06	2.549493e-06	8.161983e-10	1.774770e+01	5.633221e+01
2.420000e-06	2.590530e-06	8.313225e-10	1.803337e+01	5.738535e+01
2.430000e-06	2.631225e-06	8.476048e-10	1.831666e+01	5.840956e+01
2.440000e-06	2.671672e-06	8.633582e-10	1.859822e+01	5.940550e+01
2.450000e-06	2.711972e-06	8.782320e-10	1.887876e+01	6.037376e+01
2.460000e-06	2.752074e-06	8.914031e-10	1.915792e+01	6.131491e+01
2.470000e-06	2.791989e-06	9.020293e-10	1.943578e+01	6.222945e+01
2.480000e-06	2.831810e-06	9.121893e-10	1.971298e+01	6.311785e+01
2.490000e-06	2.871551e-06	9.224915e-10	1.998963e+01	6.398052e+01
2.500000e-06	2.911186e-06	9.344733e-10	2.026555e+01	6.481784e+01
2.510000e-06	2.950706e-06	9.490992e-10	2.054066e+01	6.563015e+01
2.520000e-06	2.990014e-06	9.658372e-10	2.081429e+01	6.641780e+01
2.530000e-06	3.028984e-06	9.787129e-10	2.108557e+01	6.718107e+01
2.540000e-06	3.067728e-06	9.908787e-10	2.135528e+01	6.792029e+01
2.550000e-06	3.106377e-06	1.001949e-09	2.162432e+01	6.863575e+01
2.560000e-06	3.144798e-06	1.007190e-09	2.189178e+01	6.932778e+01
2.570000e-06	3.182949e-06	1.009603e-09	2.215736e+01	6.999671e+01
2.580000e-06	3.220876e-06	1.013633e-09	2.242138e+01	7.064291e+01
2.590000e-06	3.258614e-06	1.020815e-09	2.268408e+01	7.126678e+01
2.600000e-06	3.296190e-06	1.032395e-09	2.294566e+01	7.186874e+01
2.610000e-06	3.333563e-06	1.047146e-09	2.320582e+01	7.244929e+01
2.620000e-06	3.370718e-06	1.063291e-09	2.346447e+01	7.300894e+01
2.630000e-06	3.407544e-06	1.077180e-09	2.372082e+01	7.354826e+01
2.640000e-06	3.444047e-06	1.086181e-09	2.397493e+01	7.406787e+01
2.650000e-06	3.480329e-06	1.092053e-09	2.422750e+01	7.456841e+01
2.660000e-06	3.516427e-06	1.095137e-09	2.447879e+01	7.505059e+01
2.670000e-06	3.552379e-06	1.097002e-09	2.472906e+01	7.551512e+01
2.680000e-06	3.588230e-06	1.098496e-09	2.497863e+01	7.596277e+01
2.690000e-06	3.623983e-06	1.102458e-09	2.522751e+01	7.639429e+01
2.700000e-06	3.659616e-06	1.110381e-09	2.547556e+01	7.681048e+01
2.710000e-06	3.695005e-06	1.118910e-09	2.572192e+01	7.721211e+01
2.720000e-06	3.730001e-06	1.126336e-09	2.596554e+01	7.759995e+01
2.730000e-06	3.764660e-06	1.133500e-09	2.620680e+01	7.797476e+01
2.740000e-06	3.799008e-06	1.138739e-09	2.644591e+01	7.833726e+01
2.750000e-06	3.832901e-06	1.140157e-09	2.668185e+01	7.868814e+01
2.760000e-06	3.866260e-06	1.139643e-09	2.691407e+01	7.902804e+01
2.770000e-06	3.899202e-06	1.141860e-09	2.714339e+01	7.935752e+01
2.780000e-06	3.931758e-06	1.146398e-09	2.737002e+01	7.967712e+01
2.790000e-06	3.963932e-06	1.152914e-09	2.759399e+01	7.998727e+01
2.800000e-06	3.995903e-06	1.160161e-09	2.781655e+01	8.028835e+01
2.810000e-06	4.027743e-06	1.167592e-09	2.803820e+01	8.058065e+01
2.820000e-06	4.059360e-06	1.173201e-09	2.825829e+01	8.086440e+01
2.830000e-06	4.090797e-06	1.176696e-09	2.847713e+01	8.113973e+01
2.840000e-06	4.122057e-06	1.178896e-09	2.869474e+01	8.140671e+01
2.850000e-06	4.152986e-06	1.181856e-09	2.891005e+01	8.166531e+01
2.860000e-06	4.183569e-06	1.185766e-09	2.912294e+01	8.191548e+01
2.870000e-06	4.213862e-06	1.191548e-09	2.933382e+01	8.215707e+01
2.880000e-06	4.243853e-06	1.194500e-09	2.954259e+01	8.238989e+01
2.890000e-06	4.273616e-06	1.194101e-09	2.974978e+01	8.261372e+01
2.900000e-06	4.303158e-06	1.195594e-09	2.995543e+01	8.282829e+01
