# Temperatura_=_-14.46
# Concentracion g/m^3_=_1620.0
# C_Vs_to_Am_M_A/Vsm_=_65563218390.804596
# pendiente_HvsI_1/m_=_3716.3
# ordenada_HvsI_A/m_=_1297.0
# frecuencia_Hz_=_135099.66023558332

Tiempo_(s)	Campo_(V.s)	Magnetizacion_(V.s)	Campo_(kA/m)	Magnetizacion_(A/m)
0.000000e+00	-5.510945e-06	-1.282186e-09	-3.837140e+01	-8.053229e+01
1.000000e-08	-5.511069e-06	-1.284249e-09	-3.837226e+01	-8.052017e+01
2.000000e-08	-5.510977e-06	-1.287061e-09	-3.837162e+01	-8.050858e+01
3.000000e-08	-5.510461e-06	-1.288225e-09	-3.836803e+01	-8.049706e+01
4.000000e-08	-5.509300e-06	-1.284551e-09	-3.835995e+01	-8.048518e+01
5.000000e-08	-5.507533e-06	-1.277705e-09	-3.834764e+01	-8.047248e+01
6.000000e-08	-5.505208e-06	-1.279332e-09	-3.833146e+01	-8.045857e+01
7.000000e-08	-5.502270e-06	-1.295645e-09	-3.831100e+01	-8.044305e+01
8.000000e-08	-5.498836e-06	-1.295873e-09	-3.828709e+01	-8.042559e+01
9.000000e-08	-5.494980e-06	-1.252426e-09	-3.826024e+01	-8.040590e+01
1.000000e-07	-5.490800e-06	-1.269563e-09	-3.823114e+01	-8.038373e+01
1.100000e-07	-5.486397e-06	-1.333514e-09	-3.820048e+01	-8.035893e+01
1.200000e-07	-5.481716e-06	-1.312399e-09	-3.816789e+01	-8.033137e+01
1.300000e-07	-5.476705e-06	-1.212900e-09	-3.813300e+01	-8.030102e+01
1.400000e-07	-5.471322e-06	-1.226000e-09	-3.809551e+01	-8.026791e+01
1.500000e-07	-5.465525e-06	-1.330009e-09	-3.805515e+01	-8.023213e+01
1.600000e-07	-5.459368e-06	-1.360984e-09	-3.801228e+01	-8.019385e+01
1.700000e-07	-5.452870e-06	-1.228682e-09	-3.796704e+01	-8.015330e+01
1.800000e-07	-5.445963e-06	-1.204510e-09	-3.791895e+01	-8.011077e+01
1.900000e-07	-5.438630e-06	-1.269758e-09	-3.786789e+01	-8.006657e+01
2.000000e-07	-5.431012e-06	-1.295317e-09	-3.781485e+01	-8.002111e+01
2.100000e-07	-5.423125e-06	-1.225091e-09	-3.775994e+01	-7.997478e+01
2.200000e-07	-5.414959e-06	-1.211762e-09	-3.770307e+01	-7.992802e+01
2.300000e-07	-5.406461e-06	-1.264327e-09	-3.764390e+01	-7.988130e+01
2.400000e-07	-5.397449e-06	-1.269781e-09	-3.758116e+01	-7.983506e+01
2.500000e-07	-5.387767e-06	-1.222571e-09	-3.751375e+01	-7.978976e+01
2.600000e-07	-5.377469e-06	-1.200208e-09	-3.744204e+01	-7.974583e+01
2.700000e-07	-5.366591e-06	-1.238361e-09	-3.736630e+01	-7.970367e+01
2.800000e-07	-5.355211e-06	-1.245508e-09	-3.728706e+01	-7.966366e+01
2.900000e-07	-5.343515e-06	-1.237981e-09	-3.720563e+01	-7.962611e+01
3.000000e-07	-5.331451e-06	-1.214935e-09	-3.712163e+01	-7.959130e+01
3.100000e-07	-5.318947e-06	-1.244521e-09	-3.703457e+01	-7.955942e+01
3.200000e-07	-5.306013e-06	-1.245584e-09	-3.694451e+01	-7.953062e+01
3.300000e-07	-5.292679e-06	-1.232917e-09	-3.685167e+01	-7.950497e+01
3.400000e-07	-5.278975e-06	-1.197870e-09	-3.675625e+01	-7.948246e+01
3.500000e-07	-5.264854e-06	-1.239186e-09	-3.665793e+01	-7.946300e+01
3.600000e-07	-5.250205e-06	-1.249800e-09	-3.655593e+01	-7.944645e+01
3.700000e-07	-5.235064e-06	-1.222487e-09	-3.645051e+01	-7.943258e+01
3.800000e-07	-5.219413e-06	-1.217644e-09	-3.634154e+01	-7.942110e+01
3.900000e-07	-5.203304e-06	-1.259385e-09	-3.622937e+01	-7.941163e+01
4.000000e-07	-5.186728e-06	-1.214977e-09	-3.611396e+01	-7.940378e+01
4.100000e-07	-5.169777e-06	-1.185314e-09	-3.599593e+01	-7.939707e+01
4.200000e-07	-5.152628e-06	-1.253253e-09	-3.587653e+01	-7.939100e+01
4.300000e-07	-5.135257e-06	-1.263068e-09	-3.575557e+01	-7.938504e+01
4.400000e-07	-5.117504e-06	-1.177359e-09	-3.563197e+01	-7.937862e+01
4.500000e-07	-5.099294e-06	-1.208187e-09	-3.550518e+01	-7.937119e+01
4.600000e-07	-5.080698e-06	-1.275534e-09	-3.537569e+01	-7.936217e+01
4.700000e-07	-5.061722e-06	-1.199211e-09	-3.524357e+01	-7.935102e+01
4.800000e-07	-5.042395e-06	-1.164896e-09	-3.510900e+01	-7.933720e+01
4.900000e-07	-5.022828e-06	-1.245723e-09	-3.497276e+01	-7.932021e+01
5.000000e-07	-5.003067e-06	-1.220235e-09	-3.483516e+01	-7.929959e+01
5.100000e-07	-4.983006e-06	-1.149695e-09	-3.469549e+01	-7.927494e+01
5.200000e-07	-4.962672e-06	-1.226008e-09	-3.455391e+01	-7.924590e+01
5.300000e-07	-4.942035e-06	-1.246761e-09	-3.441022e+01	-7.921219e+01
5.400000e-07	-4.920979e-06	-1.156958e-09	-3.426361e+01	-7.917357e+01
5.500000e-07	-4.899520e-06	-1.180724e-09	-3.411419e+01	-7.912990e+01
5.600000e-07	-4.877693e-06	-1.254161e-09	-3.396222e+01	-7.908110e+01
5.700000e-07	-4.855557e-06	-1.182139e-09	-3.380809e+01	-7.902715e+01
5.800000e-07	-4.833078e-06	-1.161039e-09	-3.365157e+01	-7.896813e+01
5.900000e-07	-4.810267e-06	-1.233454e-09	-3.349275e+01	-7.890416e+01
6.000000e-07	-4.787177e-06	-1.207649e-09	-3.333197e+01	-7.883544e+01
6.100000e-07	-4.763780e-06	-1.146808e-09	-3.316907e+01	-7.876221e+01
6.200000e-07	-4.740137e-06	-1.201666e-09	-3.300445e+01	-7.868478e+01
6.300000e-07	-4.716275e-06	-1.211271e-09	-3.283831e+01	-7.860349e+01
6.400000e-07	-4.692078e-06	-1.161759e-09	-3.266982e+01	-7.851873e+01
6.500000e-07	-4.667413e-06	-1.184090e-09	-3.249809e+01	-7.843090e+01
6.600000e-07	-4.642409e-06	-1.215714e-09	-3.232399e+01	-7.834042e+01
6.700000e-07	-4.617010e-06	-1.171241e-09	-3.214715e+01	-7.824771e+01
6.800000e-07	-4.591012e-06	-1.170976e-09	-3.196613e+01	-7.815320e+01
6.900000e-07	-4.564517e-06	-1.200293e-09	-3.178165e+01	-7.805730e+01
7.000000e-07	-4.537530e-06	-1.175642e-09	-3.159375e+01	-7.796039e+01
7.100000e-07	-4.510121e-06	-1.156158e-09	-3.140290e+01	-7.786282e+01
7.200000e-07	-4.482498e-06	-1.186942e-09	-3.121057e+01	-7.776492e+01
7.300000e-07	-4.454727e-06	-1.187768e-09	-3.101721e+01	-7.766694e+01
7.400000e-07	-4.426813e-06	-1.168043e-09	-3.082285e+01	-7.756911e+01
7.500000e-07	-4.398719e-06	-1.178020e-09	-3.062724e+01	-7.747159e+01
7.600000e-07	-4.370295e-06	-1.182320e-09	-3.042933e+01	-7.737448e+01
7.700000e-07	-4.341471e-06	-1.162808e-09	-3.022863e+01	-7.727782e+01
7.800000e-07	-4.312352e-06	-1.160499e-09	-3.002588e+01	-7.718159e+01
7.900000e-07	-4.282923e-06	-1.166583e-09	-2.982098e+01	-7.708572e+01
8.000000e-07	-4.253150e-06	-1.154186e-09	-2.961368e+01	-7.699006e+01
8.100000e-07	-4.223118e-06	-1.155722e-09	-2.940457e+01	-7.689444e+01
8.200000e-07	-4.192852e-06	-1.164733e-09	-2.919383e+01	-7.679862e+01
8.300000e-07	-4.162253e-06	-1.157139e-09	-2.898078e+01	-7.670231e+01
8.400000e-07	-4.131337e-06	-1.148426e-09	-2.876552e+01	-7.660520e+01
8.500000e-07	-4.100222e-06	-1.159601e-09	-2.854887e+01	-7.650696e+01
8.600000e-07	-4.068908e-06	-1.156438e-09	-2.833084e+01	-7.640723e+01
8.700000e-07	-4.037346e-06	-1.145529e-09	-2.811108e+01	-7.630563e+01
8.800000e-07	-4.005609e-06	-1.145954e-09	-2.789010e+01	-7.620179e+01
8.900000e-07	-3.973717e-06	-1.145241e-09	-2.766805e+01	-7.609535e+01
9.000000e-07	-3.941553e-06	-1.131568e-09	-2.744410e+01	-7.598597e+01
9.100000e-07	-3.909100e-06	-1.133717e-09	-2.721813e+01	-7.587331e+01
9.200000e-07	-3.876266e-06	-1.138637e-09	-2.698952e+01	-7.575708e+01
9.300000e-07	-3.843026e-06	-1.131631e-09	-2.675808e+01	-7.563704e+01
9.400000e-07	-3.809370e-06	-1.126571e-09	-2.652374e+01	-7.551296e+01
9.500000e-07	-3.775255e-06	-1.133445e-09	-2.628621e+01	-7.538469e+01
9.600000e-07	-3.740660e-06	-1.124800e-09	-2.604533e+01	-7.525212e+01
9.700000e-07	-3.705649e-06	-1.113113e-09	-2.580156e+01	-7.511518e+01
9.800000e-07	-3.670391e-06	-1.115284e-09	-2.555606e+01	-7.497389e+01
9.900000e-07	-3.634920e-06	-1.116232e-09	-2.530908e+01	-7.482829e+01
1.000000e-06	-3.599339e-06	-1.105555e-09	-2.506134e+01	-7.467848e+01
1.010000e-06	-3.563598e-06	-1.102721e-09	-2.481249e+01	-7.452463e+01
1.020000e-06	-3.527621e-06	-1.105086e-09	-2.456199e+01	-7.436694e+01
1.030000e-06	-3.491554e-06	-1.098480e-09	-2.431086e+01	-7.420564e+01
1.040000e-06	-3.455348e-06	-1.094663e-09	-2.405877e+01	-7.404102e+01
1.050000e-06	-3.418860e-06	-1.097606e-09	-2.380471e+01	-7.387336e+01
1.060000e-06	-3.382082e-06	-1.091553e-09	-2.354863e+01	-7.370299e+01
1.070000e-06	-3.345025e-06	-1.078751e-09	-2.329061e+01	-7.353025e+01
1.080000e-06	-3.307698e-06	-1.075116e-09	-2.303072e+01	-7.335544e+01
1.090000e-06	-3.270082e-06	-1.073412e-09	-2.276880e+01	-7.317890e+01
1.100000e-06	-3.232241e-06	-1.066265e-09	-2.250533e+01	-7.300093e+01
1.110000e-06	-3.194232e-06	-1.062966e-09	-2.224068e+01	-7.282179e+01
1.120000e-06	-3.156009e-06	-1.061532e-09	-2.197454e+01	-7.264172e+01
1.130000e-06	-3.117517e-06	-1.052251e-09	-2.170653e+01	-7.246093e+01
1.140000e-06	-3.078844e-06	-1.049395e-09	-2.143726e+01	-7.227955e+01
1.150000e-06	-3.040013e-06	-1.054081e-09	-2.116689e+01	-7.209766e+01
1.160000e-06	-3.000945e-06	-1.054020e-09	-2.089487e+01	-7.191529e+01
1.170000e-06	-2.961684e-06	-1.046599e-09	-2.062150e+01	-7.173240e+01
1.180000e-06	-2.922274e-06	-1.043730e-09	-2.034710e+01	-7.154887e+01
1.190000e-06	-2.882713e-06	-1.039989e-09	-2.007165e+01	-7.136452e+01
1.200000e-06	-2.843000e-06	-1.032538e-09	-1.979513e+01	-7.117909e+01
1.210000e-06	-2.803157e-06	-1.027711e-09	-1.951772e+01	-7.099225e+01
1.220000e-06	-2.763244e-06	-1.025897e-09	-1.923981e+01	-7.080362e+01
1.230000e-06	-2.723206e-06	-1.019973e-09	-1.896104e+01	-7.061274e+01
1.240000e-06	-2.682900e-06	-1.014545e-09	-1.868040e+01	-7.041909e+01
1.250000e-06	-2.642376e-06	-1.012101e-09	-1.839824e+01	-7.022211e+01
1.260000e-06	-2.601579e-06	-1.012268e-09	-1.811418e+01	-7.002118e+01
1.270000e-06	-2.560520e-06	-1.007367e-09	-1.782829e+01	-6.981566e+01
1.280000e-06	-2.519177e-06	-1.001814e-09	-1.754043e+01	-6.960488e+01
1.290000e-06	-2.477537e-06	-9.950093e-10	-1.725050e+01	-6.938813e+01
1.300000e-06	-2.435701e-06	-9.873912e-10	-1.695921e+01	-6.916473e+01
1.310000e-06	-2.393603e-06	-9.802385e-10	-1.666609e+01	-6.893397e+01
1.320000e-06	-2.351276e-06	-9.753224e-10	-1.637137e+01	-6.869516e+01
1.330000e-06	-2.308705e-06	-9.732827e-10	-1.607497e+01	-6.844765e+01
1.340000e-06	-2.265767e-06	-9.736094e-10	-1.577600e+01	-6.819079e+01
1.350000e-06	-2.222537e-06	-9.754183e-10	-1.547500e+01	-6.792401e+01
1.360000e-06	-2.179159e-06	-9.735700e-10	-1.517296e+01	-6.764674e+01
1.370000e-06	-2.135632e-06	-9.657528e-10	-1.486990e+01	-6.735850e+01
1.380000e-06	-2.092045e-06	-9.560567e-10	-1.456641e+01	-6.705887e+01
1.390000e-06	-2.048422e-06	-9.463891e-10	-1.426267e+01	-6.674747e+01
1.400000e-06	-2.004704e-06	-9.356661e-10	-1.395828e+01	-6.642403e+01
1.410000e-06	-1.960865e-06	-9.301447e-10	-1.365304e+01	-6.608832e+01
1.420000e-06	-1.916927e-06	-9.289788e-10	-1.334711e+01	-6.574019e+01
1.430000e-06	-1.872923e-06	-9.296015e-10	-1.304072e+01	-6.537956e+01
1.440000e-06	-1.828833e-06	-9.263680e-10	-1.273373e+01	-6.500642e+01
1.450000e-06	-1.784650e-06	-9.199328e-10	-1.242609e+01	-6.462083e+01
1.460000e-06	-1.740357e-06	-9.113712e-10	-1.211769e+01	-6.422290e+01
1.470000e-06	-1.695936e-06	-9.024763e-10	-1.180840e+01	-6.381280e+01
1.480000e-06	-1.651394e-06	-8.940975e-10	-1.149826e+01	-6.339074e+01
1.490000e-06	-1.606681e-06	-8.868712e-10	-1.118694e+01	-6.295695e+01
1.500000e-06	-1.561749e-06	-8.787243e-10	-1.087408e+01	-6.251171e+01
1.510000e-06	-1.516695e-06	-8.717287e-10	-1.056039e+01	-6.205530e+01
1.520000e-06	-1.471575e-06	-8.640587e-10	-1.024623e+01	-6.158799e+01
1.530000e-06	-1.426423e-06	-8.548874e-10	-9.931847e+00	-6.111006e+01
1.540000e-06	-1.381193e-06	-8.448339e-10	-9.616919e+00	-6.062174e+01
1.550000e-06	-1.335773e-06	-8.356604e-10	-9.300668e+00	-6.012324e+01
1.560000e-06	-1.290278e-06	-8.235904e-10	-8.983898e+00	-5.961472e+01
1.570000e-06	-1.244726e-06	-8.113028e-10	-8.666731e+00	-5.909625e+01
1.580000e-06	-1.199138e-06	-8.033351e-10	-8.349312e+00	-5.856786e+01
1.590000e-06	-1.153479e-06	-7.966921e-10	-8.031397e+00	-5.802948e+01
1.600000e-06	-1.107676e-06	-7.871395e-10	-7.712488e+00	-5.748093e+01
1.610000e-06	-1.061782e-06	-7.764673e-10	-7.392938e+00	-5.692194e+01
1.620000e-06	-1.015826e-06	-7.673701e-10	-7.072955e+00	-5.635212e+01
1.630000e-06	-9.697681e-07	-7.594828e-10	-6.752265e+00	-5.577097e+01
1.640000e-06	-9.236682e-07	-7.518034e-10	-6.431282e+00	-5.517785e+01
1.650000e-06	-8.775764e-07	-7.426398e-10	-6.110356e+00	-5.457201e+01
1.660000e-06	-8.313863e-07	-7.329542e-10	-5.788745e+00	-5.395255e+01
1.670000e-06	-7.851554e-07	-7.219717e-10	-5.466851e+00	-5.331848e+01
1.680000e-06	-7.389139e-07	-7.105481e-10	-5.144882e+00	-5.266865e+01
1.690000e-06	-6.925165e-07	-6.999527e-10	-4.821828e+00	-5.200181e+01
1.700000e-06	-6.459468e-07	-6.882963e-10	-4.497574e+00	-5.131660e+01
1.710000e-06	-5.994256e-07	-6.728751e-10	-4.173658e+00	-5.061156e+01
1.720000e-06	-5.529335e-07	-6.564865e-10	-3.849945e+00	-4.988514e+01
1.730000e-06	-5.064391e-07	-6.423414e-10	-3.526215e+00	-4.913570e+01
1.740000e-06	-4.599119e-07	-6.304926e-10	-3.202258e+00	-4.836156e+01
1.750000e-06	-4.132305e-07	-6.191337e-10	-2.877226e+00	-4.756097e+01
1.760000e-06	-3.665473e-07	-6.075121e-10	-2.552182e+00	-4.673217e+01
1.770000e-06	-3.198563e-07	-5.938217e-10	-2.227083e+00	-4.587339e+01
1.780000e-06	-2.731933e-07	-5.797547e-10	-1.902180e+00	-4.498285e+01
1.790000e-06	-2.265706e-07	-5.663184e-10	-1.577557e+00	-4.405882e+01
1.800000e-06	-1.798416e-07	-5.524603e-10	-1.252194e+00	-4.309963e+01
1.810000e-06	-1.331404e-07	-5.371349e-10	-9.270248e-01	-4.210365e+01
1.820000e-06	-8.648527e-08	-5.218252e-10	-6.021764e-01	-4.106938e+01
1.830000e-06	-3.978444e-08	-5.073710e-10	-2.770096e-01	-3.999541e+01
1.840000e-06	6.946082e-09	-4.936621e-10	4.836392e-02	-3.888048e+01
1.850000e-06	5.374680e-08	-4.800752e-10	3.742262e-01	-3.772346e+01
1.860000e-06	1.006140e-07	-4.657265e-10	7.005511e-01	-3.652344e+01
1.870000e-06	1.474467e-07	-4.496808e-10	1.026636e+00	-3.527964e+01
1.880000e-06	1.941725e-07	-4.313336e-10	1.351977e+00	-3.399155e+01
1.890000e-06	2.408385e-07	-4.101391e-10	1.676901e+00	-3.265882e+01
1.900000e-06	2.875243e-07	-3.885481e-10	2.001963e+00	-3.128136e+01
1.910000e-06	3.342037e-07	-3.679932e-10	2.326981e+00	-2.985933e+01
1.920000e-06	3.808296e-07	-3.484802e-10	2.651626e+00	-2.839312e+01
1.930000e-06	4.274205e-07	-3.297091e-10	2.976027e+00	-2.688336e+01
1.940000e-06	4.739663e-07	-3.110739e-10	3.300115e+00	-2.533096e+01
1.950000e-06	5.205179e-07	-2.919400e-10	3.624242e+00	-2.373707e+01
1.960000e-06	5.670331e-07	-2.713481e-10	3.948117e+00	-2.210310e+01
1.970000e-06	6.134961e-07	-2.496212e-10	4.271628e+00	-2.043068e+01
1.980000e-06	6.598745e-07	-2.261093e-10	4.594549e+00	-1.872169e+01
1.990000e-06	7.061565e-07	-2.002869e-10	4.916800e+00	-1.697825e+01
2.000000e-06	7.523863e-07	-1.738876e-10	5.238687e+00	-1.520268e+01
2.010000e-06	7.985683e-07	-1.488555e-10	5.560242e+00	-1.339747e+01
2.020000e-06	8.447961e-07	-1.228482e-10	5.882115e+00	-1.156533e+01
2.030000e-06	8.910057e-07	-9.620262e-11	6.203861e+00	-9.709105e+00
2.040000e-06	9.371294e-07	-7.063073e-11	6.525009e+00	-7.831784e+00
2.050000e-06	9.831977e-07	-4.670314e-11	6.845772e+00	-5.936470e+00
2.060000e-06	1.029156e-06	-2.304824e-11	7.165769e+00	-4.026359e+00
2.070000e-06	1.075014e-06	1.776346e-12	7.485064e+00	-2.104715e+00
2.080000e-06	1.120796e-06	2.772329e-11	7.803837e+00	-1.748444e-01
2.090000e-06	1.166516e-06	5.542049e-11	8.122172e+00	1.759930e+00
2.100000e-06	1.212210e-06	8.420709e-11	8.440328e+00	3.696290e+00
2.110000e-06	1.257777e-06	1.117156e-10	8.757602e+00	5.630951e+00
2.120000e-06	1.303182e-06	1.371158e-10	9.073747e+00	7.560684e+00
2.130000e-06	1.348460e-06	1.625528e-10	9.389004e+00	9.482338e+00
2.140000e-06	1.393714e-06	1.866176e-10	9.704098e+00	1.139286e+01
2.150000e-06	1.438868e-06	2.085738e-10	1.001850e+01	1.328932e+01
2.160000e-06	1.483878e-06	2.314923e-10	1.033189e+01	1.516894e+01
2.170000e-06	1.528843e-06	2.560486e-10	1.064497e+01	1.702906e+01
2.180000e-06	1.573679e-06	2.829937e-10	1.095715e+01	1.886723e+01
2.190000e-06	1.618323e-06	3.098426e-10	1.126800e+01	2.068115e+01
2.200000e-06	1.662858e-06	3.363317e-10	1.157808e+01	2.246875e+01
2.210000e-06	1.707261e-06	3.611504e-10	1.188725e+01	2.422812e+01
2.220000e-06	1.751517e-06	3.861557e-10	1.219540e+01	2.595757e+01
2.230000e-06	1.795673e-06	4.098689e-10	1.250285e+01	2.765563e+01
2.240000e-06	1.839711e-06	4.314381e-10	1.280947e+01	2.932102e+01
2.250000e-06	1.883691e-06	4.509836e-10	1.311569e+01	3.095266e+01
2.260000e-06	1.927582e-06	4.696536e-10	1.342130e+01	3.254970e+01
2.270000e-06	1.971343e-06	4.893639e-10	1.372599e+01	3.411145e+01
2.280000e-06	2.015047e-06	5.093505e-10	1.403029e+01	3.563743e+01
2.290000e-06	2.058736e-06	5.308026e-10	1.433449e+01	3.712734e+01
2.300000e-06	2.102381e-06	5.530671e-10	1.463838e+01	3.858103e+01
2.310000e-06	2.145927e-06	5.745697e-10	1.494158e+01	3.999851e+01
2.320000e-06	2.189390e-06	5.938578e-10	1.524420e+01	4.137993e+01
2.330000e-06	2.232761e-06	6.132200e-10	1.554618e+01	4.272556e+01
2.340000e-06	2.275910e-06	6.291816e-10	1.584662e+01	4.403580e+01
2.350000e-06	2.318800e-06	6.457540e-10	1.614525e+01	4.531112e+01
2.360000e-06	2.361438e-06	6.625729e-10	1.644213e+01	4.655210e+01
2.370000e-06	2.403781e-06	6.794746e-10	1.673696e+01	4.775934e+01
2.380000e-06	2.445820e-06	6.976845e-10	1.702966e+01	4.893355e+01
2.390000e-06	2.487633e-06	7.159458e-10	1.732079e+01	5.007544e+01
2.400000e-06	2.529216e-06	7.359711e-10	1.761033e+01	5.118574e+01
2.410000e-06	2.570542e-06	7.549782e-10	1.789807e+01	5.226523e+01
2.420000e-06	2.611500e-06	7.706483e-10	1.818325e+01	5.331465e+01
2.430000e-06	2.652118e-06	7.849251e-10	1.846607e+01	5.433477e+01
2.440000e-06	2.692515e-06	7.970307e-10	1.874735e+01	5.532632e+01
2.450000e-06	2.732669e-06	8.075721e-10	1.902692e+01	5.629002e+01
2.460000e-06	2.772643e-06	8.186632e-10	1.930525e+01	5.722656e+01
2.470000e-06	2.812481e-06	8.311673e-10	1.958264e+01	5.813659e+01
2.480000e-06	2.852211e-06	8.453776e-10	1.985927e+01	5.902074e+01
2.490000e-06	2.891872e-06	8.592069e-10	2.013542e+01	5.987961e+01
2.500000e-06	2.931410e-06	8.702390e-10	2.041071e+01	6.071373e+01
2.510000e-06	2.970797e-06	8.809028e-10	2.068495e+01	6.152365e+01
2.520000e-06	3.009994e-06	8.901678e-10	2.095787e+01	6.230982e+01
2.530000e-06	3.048874e-06	9.011027e-10	2.122859e+01	6.307273e+01
2.540000e-06	3.087453e-06	9.132624e-10	2.149720e+01	6.381278e+01
2.550000e-06	3.125796e-06	9.226723e-10	2.176417e+01	6.453039e+01
2.560000e-06	3.163944e-06	9.308204e-10	2.202979e+01	6.522594e+01
2.570000e-06	3.201972e-06	9.373339e-10	2.229457e+01	6.589980e+01
2.580000e-06	3.239919e-06	9.436439e-10	2.255878e+01	6.655233e+01
2.590000e-06	3.277610e-06	9.500354e-10	2.282122e+01	6.718388e+01
2.600000e-06	3.314998e-06	9.588088e-10	2.308154e+01	6.779480e+01
2.610000e-06	3.352166e-06	9.709437e-10	2.334034e+01	6.838544e+01
2.620000e-06	3.389108e-06	9.846075e-10	2.359755e+01	6.895616e+01
2.630000e-06	3.425747e-06	9.957626e-10	2.385266e+01	6.950731e+01
2.640000e-06	3.462100e-06	1.002015e-09	2.410578e+01	7.003928e+01
2.650000e-06	3.498274e-06	1.004768e-09	2.435765e+01	7.055243e+01
2.660000e-06	3.534269e-06	1.006942e-09	2.460828e+01	7.104716e+01
2.670000e-06	3.570145e-06	1.009843e-09	2.485808e+01	7.152389e+01
2.680000e-06	3.605916e-06	1.015705e-09	2.510714e+01	7.198301e+01
2.690000e-06	3.641503e-06	1.024854e-09	2.535492e+01	7.242496e+01
2.700000e-06	3.676920e-06	1.035363e-09	2.560152e+01	7.285018e+01
2.710000e-06	3.712151e-06	1.043228e-09	2.584682e+01	7.325911e+01
2.720000e-06	3.747048e-06	1.047958e-09	2.608981e+01	7.365218e+01
2.730000e-06	3.781617e-06	1.049938e-09	2.633050e+01	7.402986e+01
2.740000e-06	3.815736e-06	1.050626e-09	2.656806e+01	7.439258e+01
2.750000e-06	3.849270e-06	1.051623e-09	2.680155e+01	7.474080e+01
2.760000e-06	3.882299e-06	1.055462e-09	2.703152e+01	7.507495e+01
2.770000e-06	3.914909e-06	1.061838e-09	2.725858e+01	7.539546e+01
2.780000e-06	3.947268e-06	1.069154e-09	2.748389e+01	7.570274e+01
2.790000e-06	3.979451e-06	1.076527e-09	2.770797e+01	7.599721e+01
2.800000e-06	4.011376e-06	1.082253e-09	2.793026e+01	7.627926e+01
2.810000e-06	4.043021e-06	1.085198e-09	2.815060e+01	7.654925e+01
2.820000e-06	4.074481e-06	1.087329e-09	2.836965e+01	7.680756e+01
2.830000e-06	4.105738e-06	1.088928e-09	2.858728e+01	7.705451e+01
2.840000e-06	4.136773e-06	1.090262e-09	2.880337e+01	7.729044e+01
2.850000e-06	4.167552e-06	1.093396e-09	2.901768e+01	7.751566e+01
2.860000e-06	4.198019e-06	1.100055e-09	2.922981e+01	7.773046e+01
2.870000e-06	4.228172e-06	1.107504e-09	2.943976e+01	7.793514e+01
2.880000e-06	4.258028e-06	1.112463e-09	2.964764e+01	7.812996e+01
2.890000e-06	4.287585e-06	1.115512e-09	2.985343e+01	7.831521e+01
2.900000e-06	4.316834e-06	1.116994e-09	3.005709e+01	7.849114e+01
