# Temperatura_=_1.78
# Concentracion g/m^3_=_1620.0
# C_Vs_to_Am_M_A/Vsm_=_65563218390.804596
# pendiente_HvsI_1/m_=_3716.3
# ordenada_HvsI_A/m_=_1297.0
# frecuencia_Hz_=_135109.1135823153

Tiempo_(s)	Campo_(V.s)	Magnetizacion_(V.s)	Campo_(kA/m)	Magnetizacion_(A/m)
0.000000e+00	-5.532190e-06	-1.486521e-09	-3.837314e+01	-9.770837e+01
1.000000e-08	-5.532459e-06	-1.480938e-09	-3.837500e+01	-9.764082e+01
2.000000e-08	-5.532515e-06	-1.480649e-09	-3.837539e+01	-9.757077e+01
3.000000e-08	-5.532236e-06	-1.483407e-09	-3.837346e+01	-9.749828e+01
4.000000e-08	-5.531501e-06	-1.483854e-09	-3.836836e+01	-9.742341e+01
5.000000e-08	-5.530179e-06	-1.479661e-09	-3.835919e+01	-9.734624e+01
6.000000e-08	-5.528177e-06	-1.470221e-09	-3.834531e+01	-9.726689e+01
7.000000e-08	-5.525539e-06	-1.464253e-09	-3.832701e+01	-9.718547e+01
8.000000e-08	-5.522380e-06	-1.474715e-09	-3.830510e+01	-9.710212e+01
9.000000e-08	-5.518812e-06	-1.490819e-09	-3.828034e+01	-9.701699e+01
1.000000e-07	-5.514864e-06	-1.499773e-09	-3.825296e+01	-9.693025e+01
1.100000e-07	-5.510544e-06	-1.502602e-09	-3.822300e+01	-9.684207e+01
1.200000e-07	-5.505979e-06	-1.493813e-09	-3.819133e+01	-9.675262e+01
1.300000e-07	-5.501205e-06	-1.438676e-09	-3.815821e+01	-9.666209e+01
1.400000e-07	-5.496132e-06	-1.435207e-09	-3.812303e+01	-9.657064e+01
1.500000e-07	-5.490645e-06	-1.468763e-09	-3.808497e+01	-9.647845e+01
1.600000e-07	-5.484732e-06	-1.503792e-09	-3.804396e+01	-9.638568e+01
1.700000e-07	-5.478427e-06	-1.474970e-09	-3.800022e+01	-9.629246e+01
1.800000e-07	-5.471725e-06	-1.412773e-09	-3.795374e+01	-9.619893e+01
1.900000e-07	-5.464682e-06	-1.449685e-09	-3.790488e+01	-9.610519e+01
2.000000e-07	-5.457250e-06	-1.462097e-09	-3.785333e+01	-9.601132e+01
2.100000e-07	-5.449555e-06	-1.455137e-09	-3.779995e+01	-9.591737e+01
2.200000e-07	-5.441653e-06	-1.405389e-09	-3.774515e+01	-9.582337e+01
2.300000e-07	-5.433469e-06	-1.450484e-09	-3.768838e+01	-9.572931e+01
2.400000e-07	-5.424856e-06	-1.469362e-09	-3.762863e+01	-9.563515e+01
2.500000e-07	-5.415672e-06	-1.456207e-09	-3.756493e+01	-9.554082e+01
2.600000e-07	-5.405833e-06	-1.409362e-09	-3.749669e+01	-9.544622e+01
2.700000e-07	-5.395295e-06	-1.429154e-09	-3.742359e+01	-9.535122e+01
2.800000e-07	-5.384249e-06	-1.448194e-09	-3.734697e+01	-9.525565e+01
2.900000e-07	-5.372866e-06	-1.445197e-09	-3.726801e+01	-9.515935e+01
3.000000e-07	-5.361033e-06	-1.431000e-09	-3.718594e+01	-9.506210e+01
3.100000e-07	-5.348706e-06	-1.432800e-09	-3.710043e+01	-9.496368e+01
3.200000e-07	-5.335978e-06	-1.442534e-09	-3.701215e+01	-9.486385e+01
3.300000e-07	-5.322896e-06	-1.417137e-09	-3.692141e+01	-9.476236e+01
3.400000e-07	-5.309443e-06	-1.402823e-09	-3.682809e+01	-9.465896e+01
3.500000e-07	-5.295588e-06	-1.401893e-09	-3.673199e+01	-9.455341e+01
3.600000e-07	-5.281291e-06	-1.436550e-09	-3.663282e+01	-9.444544e+01
3.700000e-07	-5.266550e-06	-1.424895e-09	-3.653057e+01	-9.433483e+01
3.800000e-07	-5.251417e-06	-1.417325e-09	-3.642560e+01	-9.422134e+01
3.900000e-07	-5.235747e-06	-1.418150e-09	-3.631691e+01	-9.410478e+01
4.000000e-07	-5.219515e-06	-1.423936e-09	-3.620432e+01	-9.398496e+01
4.100000e-07	-5.202833e-06	-1.379222e-09	-3.608861e+01	-9.386172e+01
4.200000e-07	-5.185799e-06	-1.386878e-09	-3.597046e+01	-9.373495e+01
4.300000e-07	-5.168529e-06	-1.413529e-09	-3.585067e+01	-9.360453e+01
4.400000e-07	-5.150981e-06	-1.404795e-09	-3.572894e+01	-9.347042e+01
4.500000e-07	-5.133017e-06	-1.371143e-09	-3.560434e+01	-9.333257e+01
4.600000e-07	-5.114562e-06	-1.415203e-09	-3.547633e+01	-9.319100e+01
4.700000e-07	-5.095721e-06	-1.413673e-09	-3.534565e+01	-9.304575e+01
4.800000e-07	-5.076615e-06	-1.366476e-09	-3.521312e+01	-9.289689e+01
4.900000e-07	-5.057150e-06	-1.367851e-09	-3.507810e+01	-9.274452e+01
5.000000e-07	-5.037386e-06	-1.407230e-09	-3.494101e+01	-9.258877e+01
5.100000e-07	-5.017451e-06	-1.364407e-09	-3.480274e+01	-9.242980e+01
5.200000e-07	-4.997248e-06	-1.353526e-09	-3.466260e+01	-9.226779e+01
5.300000e-07	-4.976725e-06	-1.397877e-09	-3.452025e+01	-9.210293e+01
5.400000e-07	-4.955864e-06	-1.389637e-09	-3.437555e+01	-9.193542e+01
5.500000e-07	-4.934575e-06	-1.352278e-09	-3.422788e+01	-9.176548e+01
5.600000e-07	-4.912960e-06	-1.386670e-09	-3.407795e+01	-9.159333e+01
5.700000e-07	-4.891063e-06	-1.392724e-09	-3.392607e+01	-9.141919e+01
5.800000e-07	-4.868758e-06	-1.346354e-09	-3.377135e+01	-9.124325e+01
5.900000e-07	-4.846017e-06	-1.357284e-09	-3.361361e+01	-9.106571e+01
6.000000e-07	-4.823017e-06	-1.385952e-09	-3.345407e+01	-9.088676e+01
6.100000e-07	-4.799786e-06	-1.353916e-09	-3.329294e+01	-9.070656e+01
6.200000e-07	-4.776234e-06	-1.339293e-09	-3.312958e+01	-9.052524e+01
6.300000e-07	-4.752488e-06	-1.367539e-09	-3.296486e+01	-9.034290e+01
6.400000e-07	-4.728501e-06	-1.350907e-09	-3.279848e+01	-9.015964e+01
6.500000e-07	-4.704123e-06	-1.333917e-09	-3.262939e+01	-8.997549e+01
6.600000e-07	-4.679385e-06	-1.349461e-09	-3.245780e+01	-8.979047e+01
6.700000e-07	-4.654191e-06	-1.351268e-09	-3.228304e+01	-8.960456e+01
6.800000e-07	-4.628399e-06	-1.325049e-09	-3.210414e+01	-8.941772e+01
6.900000e-07	-4.602094e-06	-1.332830e-09	-3.192168e+01	-8.922985e+01
7.000000e-07	-4.575354e-06	-1.331761e-09	-3.173620e+01	-8.904086e+01
7.100000e-07	-4.548249e-06	-1.321680e-09	-3.154819e+01	-8.885058e+01
7.200000e-07	-4.520853e-06	-1.321513e-09	-3.135817e+01	-8.865887e+01
7.300000e-07	-4.493196e-06	-1.333164e-09	-3.116633e+01	-8.846551e+01
7.400000e-07	-4.465318e-06	-1.320924e-09	-3.097295e+01	-8.827031e+01
7.500000e-07	-4.437187e-06	-1.314330e-09	-3.077783e+01	-8.807305e+01
7.600000e-07	-4.408804e-06	-1.308151e-09	-3.058096e+01	-8.787347e+01
7.700000e-07	-4.380195e-06	-1.303481e-09	-3.038251e+01	-8.767134e+01
7.800000e-07	-4.351297e-06	-1.295053e-09	-3.018206e+01	-8.746640e+01
7.900000e-07	-4.322061e-06	-1.298095e-09	-2.997927e+01	-8.725842e+01
8.000000e-07	-4.292420e-06	-1.295268e-09	-2.977368e+01	-8.704716e+01
8.100000e-07	-4.262418e-06	-1.290621e-09	-2.956558e+01	-8.683238e+01
8.200000e-07	-4.232130e-06	-1.283196e-09	-2.935548e+01	-8.661387e+01
8.300000e-07	-4.201623e-06	-1.276011e-09	-2.914388e+01	-8.639142e+01
8.400000e-07	-4.170912e-06	-1.267024e-09	-2.893086e+01	-8.616487e+01
8.500000e-07	-4.139960e-06	-1.267377e-09	-2.871616e+01	-8.593404e+01
8.600000e-07	-4.108723e-06	-1.272513e-09	-2.849949e+01	-8.569882e+01
8.700000e-07	-4.077187e-06	-1.271792e-09	-2.828075e+01	-8.545909e+01
8.800000e-07	-4.045472e-06	-1.265843e-09	-2.806076e+01	-8.521477e+01
8.900000e-07	-4.013610e-06	-1.260436e-09	-2.783976e+01	-8.496582e+01
9.000000e-07	-3.981507e-06	-1.251590e-09	-2.761708e+01	-8.471220e+01
9.100000e-07	-3.949082e-06	-1.239593e-09	-2.739217e+01	-8.445394e+01
9.200000e-07	-3.916249e-06	-1.235738e-09	-2.716442e+01	-8.419104e+01
9.300000e-07	-3.882960e-06	-1.230875e-09	-2.693352e+01	-8.392358e+01
9.400000e-07	-3.849301e-06	-1.227507e-09	-2.670005e+01	-8.365163e+01
9.500000e-07	-3.815244e-06	-1.225641e-09	-2.646382e+01	-8.337528e+01
9.600000e-07	-3.780780e-06	-1.225641e-09	-2.622477e+01	-8.309465e+01
9.700000e-07	-3.745871e-06	-1.214802e-09	-2.598263e+01	-8.280988e+01
9.800000e-07	-3.710628e-06	-1.207102e-09	-2.573817e+01	-8.252110e+01
9.900000e-07	-3.675247e-06	-1.202265e-09	-2.549275e+01	-8.222847e+01
1.000000e-06	-3.639673e-06	-1.201069e-09	-2.524600e+01	-8.193215e+01
1.010000e-06	-3.603937e-06	-1.194288e-09	-2.499813e+01	-8.163229e+01
1.020000e-06	-3.568069e-06	-1.191807e-09	-2.474934e+01	-8.132906e+01
1.030000e-06	-3.531988e-06	-1.186637e-09	-2.449907e+01	-8.102260e+01
1.040000e-06	-3.495667e-06	-1.181220e-09	-2.424713e+01	-8.071307e+01
1.050000e-06	-3.459091e-06	-1.175960e-09	-2.399342e+01	-8.040060e+01
1.060000e-06	-3.422250e-06	-1.173264e-09	-2.373788e+01	-8.008532e+01
1.070000e-06	-3.385172e-06	-1.164814e-09	-2.348070e+01	-7.976734e+01
1.080000e-06	-3.347854e-06	-1.157843e-09	-2.322185e+01	-7.944673e+01
1.090000e-06	-3.310301e-06	-1.152360e-09	-2.296137e+01	-7.912359e+01
1.100000e-06	-3.272482e-06	-1.147648e-09	-2.269904e+01	-7.879796e+01
1.110000e-06	-3.234431e-06	-1.140500e-09	-2.243511e+01	-7.846986e+01
1.120000e-06	-3.196197e-06	-1.134361e-09	-2.216990e+01	-7.813931e+01
1.130000e-06	-3.157727e-06	-1.126228e-09	-2.190306e+01	-7.780628e+01
1.140000e-06	-3.119025e-06	-1.118585e-09	-2.163461e+01	-7.747074e+01
1.150000e-06	-3.080115e-06	-1.115673e-09	-2.136472e+01	-7.713261e+01
1.160000e-06	-3.041025e-06	-1.115595e-09	-2.109358e+01	-7.679180e+01
1.170000e-06	-3.001755e-06	-1.112513e-09	-2.082119e+01	-7.644819e+01
1.180000e-06	-2.962294e-06	-1.106723e-09	-2.054747e+01	-7.610165e+01
1.190000e-06	-2.922724e-06	-1.102647e-09	-2.027300e+01	-7.575201e+01
1.200000e-06	-2.883054e-06	-1.095745e-09	-1.999784e+01	-7.539909e+01
1.210000e-06	-2.843185e-06	-1.086491e-09	-1.972129e+01	-7.504267e+01
1.220000e-06	-2.803148e-06	-1.076801e-09	-1.944358e+01	-7.468254e+01
1.230000e-06	-2.763016e-06	-1.070848e-09	-1.916521e+01	-7.431846e+01
1.240000e-06	-2.722689e-06	-1.062862e-09	-1.888549e+01	-7.395015e+01
1.250000e-06	-2.682081e-06	-1.056467e-09	-1.860382e+01	-7.357736e+01
1.260000e-06	-2.641251e-06	-1.051950e-09	-1.832061e+01	-7.319978e+01
1.270000e-06	-2.600178e-06	-1.048203e-09	-1.803572e+01	-7.281713e+01
1.280000e-06	-2.558853e-06	-1.042447e-09	-1.774907e+01	-7.242910e+01
1.290000e-06	-2.517306e-06	-1.038570e-09	-1.746089e+01	-7.203536e+01
1.300000e-06	-2.475462e-06	-1.033761e-09	-1.717064e+01	-7.163562e+01
1.310000e-06	-2.433255e-06	-1.024643e-09	-1.687788e+01	-7.122953e+01
1.320000e-06	-2.390687e-06	-1.014101e-09	-1.658261e+01	-7.081678e+01
1.330000e-06	-2.347873e-06	-1.006393e-09	-1.628564e+01	-7.039705e+01
1.340000e-06	-2.304897e-06	-9.992087e-10	-1.598754e+01	-6.997002e+01
1.350000e-06	-2.261741e-06	-9.953102e-10	-1.568820e+01	-6.953537e+01
1.360000e-06	-2.218417e-06	-9.939604e-10	-1.538769e+01	-6.909280e+01
1.370000e-06	-2.174920e-06	-9.925030e-10	-1.508598e+01	-6.864200e+01
1.380000e-06	-2.131267e-06	-9.852408e-10	-1.478319e+01	-6.818268e+01
1.390000e-06	-2.087504e-06	-9.738437e-10	-1.447964e+01	-6.771456e+01
1.400000e-06	-2.043636e-06	-9.601938e-10	-1.417535e+01	-6.723736e+01
1.410000e-06	-1.999722e-06	-9.464763e-10	-1.387074e+01	-6.675083e+01
1.420000e-06	-1.955757e-06	-9.351266e-10	-1.356579e+01	-6.625470e+01
1.430000e-06	-1.911708e-06	-9.285157e-10	-1.326025e+01	-6.574873e+01
1.440000e-06	-1.867590e-06	-9.225979e-10	-1.295423e+01	-6.523270e+01
1.450000e-06	-1.823322e-06	-9.165348e-10	-1.264717e+01	-6.470637e+01
1.460000e-06	-1.778891e-06	-9.099193e-10	-1.233899e+01	-6.416952e+01
1.470000e-06	-1.734303e-06	-9.007050e-10	-1.202971e+01	-6.362193e+01
1.480000e-06	-1.689547e-06	-8.883733e-10	-1.171927e+01	-6.306337e+01
1.490000e-06	-1.644668e-06	-8.770334e-10	-1.140797e+01	-6.249363e+01
1.500000e-06	-1.599687e-06	-8.652471e-10	-1.109597e+01	-6.191248e+01
1.510000e-06	-1.554616e-06	-8.508760e-10	-1.078335e+01	-6.131966e+01
1.520000e-06	-1.509444e-06	-8.382437e-10	-1.047002e+01	-6.071492e+01
1.530000e-06	-1.464165e-06	-8.290550e-10	-1.015595e+01	-6.009798e+01
1.540000e-06	-1.418751e-06	-8.222403e-10	-9.840938e+00	-5.946852e+01
1.550000e-06	-1.373219e-06	-8.147365e-10	-9.525113e+00	-5.882621e+01
1.560000e-06	-1.327624e-06	-8.042265e-10	-9.208850e+00	-5.817066e+01
1.570000e-06	-1.281945e-06	-7.898156e-10	-8.892001e+00	-5.750146e+01
1.580000e-06	-1.236118e-06	-7.759818e-10	-8.574133e+00	-5.681812e+01
1.590000e-06	-1.190195e-06	-7.631511e-10	-8.255596e+00	-5.612012e+01
1.600000e-06	-1.144297e-06	-7.515048e-10	-7.937233e+00	-5.540687e+01
1.610000e-06	-1.098383e-06	-7.392648e-10	-7.618756e+00	-5.467772e+01
1.620000e-06	-1.052340e-06	-7.279977e-10	-7.299383e+00	-5.393196e+01
1.630000e-06	-1.006202e-06	-7.160107e-10	-6.979354e+00	-5.316880e+01
1.640000e-06	-9.600398e-07	-7.023554e-10	-6.659160e+00	-5.238739e+01
1.650000e-06	-9.138294e-07	-6.896185e-10	-6.338629e+00	-5.158679e+01
1.660000e-06	-8.675064e-07	-6.785875e-10	-6.017317e+00	-5.076600e+01
1.670000e-06	-8.210493e-07	-6.668486e-10	-5.695076e+00	-4.992396e+01
1.680000e-06	-7.744829e-07	-6.542660e-10	-5.372075e+00	-4.905953e+01
1.690000e-06	-7.279217e-07	-6.402866e-10	-5.049111e+00	-4.817151e+01
1.700000e-06	-6.813451e-07	-6.244208e-10	-4.726040e+00	-4.725866e+01
1.710000e-06	-6.346754e-07	-6.045558e-10	-4.402323e+00	-4.631967e+01
1.720000e-06	-5.879504e-07	-5.827523e-10	-4.078223e+00	-4.535319e+01
1.730000e-06	-5.412171e-07	-5.633006e-10	-3.754065e+00	-4.435787e+01
1.740000e-06	-4.945362e-07	-5.471437e-10	-3.430270e+00	-4.333233e+01
1.750000e-06	-4.477818e-07	-5.333283e-10	-3.105966e+00	-4.227516e+01
1.760000e-06	-4.008406e-07	-5.190518e-10	-2.780366e+00	-4.118501e+01
1.770000e-06	-3.538751e-07	-5.013215e-10	-2.454597e+00	-4.006052e+01
1.780000e-06	-3.070049e-07	-4.835688e-10	-2.129490e+00	-3.890038e+01
1.790000e-06	-2.600510e-07	-4.670923e-10	-1.803802e+00	-3.770335e+01
1.800000e-06	-2.130370e-07	-4.524957e-10	-1.477696e+00	-3.646827e+01
1.810000e-06	-1.661278e-07	-4.392570e-10	-1.152319e+00	-3.519406e+01
1.820000e-06	-1.191855e-07	-4.229070e-10	-8.267111e-01	-3.387976e+01
1.830000e-06	-7.220184e-08	-4.043234e-10	-5.008164e-01	-3.252456e+01
1.840000e-06	-2.522220e-08	-3.838772e-10	-1.749497e-01	-3.112776e+01
1.850000e-06	2.167052e-08	-3.639580e-10	1.503141e-01	-2.968885e+01
1.860000e-06	6.853017e-08	-3.442693e-10	4.753484e-01	-2.820750e+01
1.870000e-06	1.154199e-07	-3.250741e-10	8.005915e-01	-2.668356e+01
1.880000e-06	1.623023e-07	-3.052573e-10	1.125784e+00	-2.511709e+01
1.890000e-06	2.092546e-07	-2.842296e-10	1.451461e+00	-2.350837e+01
1.900000e-06	2.561822e-07	-2.613561e-10	1.776966e+00	-2.185790e+01
1.910000e-06	3.030494e-07	-2.372189e-10	2.102053e+00	-2.016639e+01
1.920000e-06	3.498606e-07	-2.117555e-10	2.426752e+00	-1.843481e+01
1.930000e-06	3.966682e-07	-1.871765e-10	2.751425e+00	-1.666436e+01
1.940000e-06	4.434885e-07	-1.624894e-10	3.076186e+00	-1.485646e+01
1.950000e-06	4.902316e-07	-1.368584e-10	3.400412e+00	-1.301276e+01
1.960000e-06	5.369501e-07	-1.124933e-10	3.724467e+00	-1.113515e+01
1.970000e-06	5.836449e-07	-8.762370e-11	4.048359e+00	-9.225707e+00
1.980000e-06	6.302152e-07	-6.132163e-11	4.371386e+00	-7.286732e+00
1.990000e-06	6.767178e-07	-3.403641e-11	4.693944e+00	-5.320701e+00
2.000000e-06	7.231793e-07	-4.367717e-12	5.016216e+00	-3.330266e+00
2.010000e-06	7.696608e-07	2.460327e-11	5.338627e+00	-1.318232e+00
2.020000e-06	8.161449e-07	5.340046e-11	5.661057e+00	7.124650e-01
2.030000e-06	8.624717e-07	8.391889e-11	5.982395e+00	2.758774e+00
2.040000e-06	9.086601e-07	1.144440e-10	6.302774e+00	4.817557e+00
2.050000e-06	9.548176e-07	1.441636e-10	6.622937e+00	6.885609e+00
2.060000e-06	1.000949e-06	1.712607e-10	6.942920e+00	8.959685e+00
2.070000e-06	1.047008e-06	1.967051e-10	7.262399e+00	1.103652e+01
2.080000e-06	1.093003e-06	2.216323e-10	7.581438e+00	1.311287e+01
2.090000e-06	1.138919e-06	2.487963e-10	7.899928e+00	1.518550e+01
2.100000e-06	1.184773e-06	2.780891e-10	8.217986e+00	1.725125e+01
2.110000e-06	1.230529e-06	3.085987e-10	8.535363e+00	1.930704e+01
2.120000e-06	1.276161e-06	3.386939e-10	8.851885e+00	2.134987e+01
2.130000e-06	1.321739e-06	3.695242e-10	9.168027e+00	2.337688e+01
2.140000e-06	1.367243e-06	4.000646e-10	9.483657e+00	2.538535e+01
2.150000e-06	1.412643e-06	4.265931e-10	9.798571e+00	2.737268e+01
2.160000e-06	1.457950e-06	4.499928e-10	1.011284e+01	2.933648e+01
2.170000e-06	1.503182e-06	4.728807e-10	1.042658e+01	3.127451e+01
2.180000e-06	1.548307e-06	4.974405e-10	1.073958e+01	3.318474e+01
2.190000e-06	1.593276e-06	5.252766e-10	1.105150e+01	3.506531e+01
2.200000e-06	1.638150e-06	5.541359e-10	1.136276e+01	3.691459e+01
2.210000e-06	1.682948e-06	5.828415e-10	1.167349e+01	3.873112e+01
2.220000e-06	1.727610e-06	6.104747e-10	1.198329e+01	4.051365e+01
2.230000e-06	1.772056e-06	6.354668e-10	1.229158e+01	4.226115e+01
2.240000e-06	1.816327e-06	6.568929e-10	1.259866e+01	4.397276e+01
2.250000e-06	1.860456e-06	6.750935e-10	1.290475e+01	4.564780e+01
2.260000e-06	1.904470e-06	6.933135e-10	1.321005e+01	4.728579e+01
2.270000e-06	1.948439e-06	7.138764e-10	1.351503e+01	4.888641e+01
2.280000e-06	1.992334e-06	7.361334e-10	1.381950e+01	5.044947e+01
2.290000e-06	2.036124e-06	7.591155e-10	1.412324e+01	5.197497e+01
2.300000e-06	2.079834e-06	7.828212e-10	1.442643e+01	5.346299e+01
2.310000e-06	2.123525e-06	8.054708e-10	1.472949e+01	5.491377e+01
2.320000e-06	2.167165e-06	8.245939e-10	1.503219e+01	5.632763e+01
2.330000e-06	2.210692e-06	8.388577e-10	1.533410e+01	5.770498e+01
2.340000e-06	2.254139e-06	8.506451e-10	1.563547e+01	5.904631e+01
2.350000e-06	2.297433e-06	8.652292e-10	1.593577e+01	6.035215e+01
2.360000e-06	2.340498e-06	8.827049e-10	1.623449e+01	6.162311e+01
2.370000e-06	2.383430e-06	9.013233e-10	1.653228e+01	6.285983e+01
2.380000e-06	2.426154e-06	9.209132e-10	1.682862e+01	6.406294e+01
2.390000e-06	2.468478e-06	9.388378e-10	1.712220e+01	6.523314e+01
2.400000e-06	2.510352e-06	9.539290e-10	1.741265e+01	6.637110e+01
2.410000e-06	2.551989e-06	9.676678e-10	1.770146e+01	6.747751e+01
2.420000e-06	2.593460e-06	9.803721e-10	1.798911e+01	6.855302e+01
2.430000e-06	2.634573e-06	9.928556e-10	1.827429e+01	6.959832e+01
2.440000e-06	2.675319e-06	1.008245e-09	1.855692e+01	7.061405e+01
2.450000e-06	2.715809e-06	1.026351e-09	1.883777e+01	7.160084e+01
2.460000e-06	2.756063e-06	1.044727e-09	1.911698e+01	7.255931e+01
2.470000e-06	2.796136e-06	1.059822e-09	1.939495e+01	7.349005e+01
2.480000e-06	2.836154e-06	1.070238e-09	1.967252e+01	7.439364e+01
2.490000e-06	2.876055e-06	1.076302e-09	1.994929e+01	7.527065e+01
2.500000e-06	2.915810e-06	1.080484e-09	2.022505e+01	7.612162e+01
2.510000e-06	2.955440e-06	1.090114e-09	2.049993e+01	7.694709e+01
2.520000e-06	2.994940e-06	1.104776e-09	2.077391e+01	7.774758e+01
2.530000e-06	3.034271e-06	1.120275e-09	2.104673e+01	7.852363e+01
2.540000e-06	3.073383e-06	1.135145e-09	2.131802e+01	7.927574e+01
2.550000e-06	3.112245e-06	1.146095e-09	2.158758e+01	8.000443e+01
2.560000e-06	3.150800e-06	1.151513e-09	2.185502e+01	8.071022e+01
2.570000e-06	3.189169e-06	1.153249e-09	2.212115e+01	8.139363e+01
2.580000e-06	3.227336e-06	1.155866e-09	2.238589e+01	8.205520e+01
2.590000e-06	3.265231e-06	1.161326e-09	2.264875e+01	8.269544e+01
2.600000e-06	3.302947e-06	1.172352e-09	2.291036e+01	8.331491e+01
2.610000e-06	3.340525e-06	1.187988e-09	2.317101e+01	8.391414e+01
2.620000e-06	3.377868e-06	1.202361e-09	2.343004e+01	8.449370e+01
2.630000e-06	3.414930e-06	1.212260e-09	2.368711e+01	8.505414e+01
2.640000e-06	3.451790e-06	1.218726e-09	2.394278e+01	8.559601e+01
2.650000e-06	3.488390e-06	1.223720e-09	2.419665e+01	8.611989e+01
2.660000e-06	3.524698e-06	1.228541e-09	2.444850e+01	8.662633e+01
2.670000e-06	3.560797e-06	1.233351e-09	2.469889e+01	8.711588e+01
2.680000e-06	3.596720e-06	1.238341e-09	2.494807e+01	8.758909e+01
2.690000e-06	3.632464e-06	1.246273e-09	2.519600e+01	8.804649e+01
2.700000e-06	3.668092e-06	1.256126e-09	2.544313e+01	8.848860e+01
2.710000e-06	3.703609e-06	1.262853e-09	2.568948e+01	8.891593e+01
2.720000e-06	3.738865e-06	1.265508e-09	2.593403e+01	8.932895e+01
2.730000e-06	3.773764e-06	1.267610e-09	2.617610e+01	8.972812e+01
2.740000e-06	3.808256e-06	1.270863e-09	2.641535e+01	9.011386e+01
2.750000e-06	3.842352e-06	1.276104e-09	2.665186e+01	9.048658e+01
2.760000e-06	3.876063e-06	1.282697e-09	2.688568e+01	9.084666e+01
2.770000e-06	3.909287e-06	1.291343e-09	2.711614e+01	9.119442e+01
2.780000e-06	3.942049e-06	1.300280e-09	2.734339e+01	9.153018e+01
2.790000e-06	3.974325e-06	1.307692e-09	2.756726e+01	9.185422e+01
2.800000e-06	4.006264e-06	1.314405e-09	2.778880e+01	9.216680e+01
2.810000e-06	4.038112e-06	1.318638e-09	2.800971e+01	9.246814e+01
2.820000e-06	4.069873e-06	1.320566e-09	2.823001e+01	9.275845e+01
2.830000e-06	4.101507e-06	1.324555e-09	2.844944e+01	9.303790e+01
2.840000e-06	4.132942e-06	1.331126e-09	2.866748e+01	9.330668e+01
2.850000e-06	4.164114e-06	1.337037e-09	2.888370e+01	9.356492e+01
2.860000e-06	4.194975e-06	1.342350e-09	2.909776e+01	9.381278e+01
2.870000e-06	4.225572e-06	1.349078e-09	2.930999e+01	9.405039e+01
2.880000e-06	4.255823e-06	1.354975e-09	2.951983e+01	9.427790e+01
2.890000e-06	4.285656e-06	1.357459e-09	2.972676e+01	9.449546e+01
2.900000e-06	4.315240e-06	1.360140e-09	2.993197e+01	9.470321e+01
