# Temperatura_=_3.35
# Concentracion g/m^3_=_1620.0
# C_Vs_to_Am_M_A/Vsm_=_65563218390.804596
# pendiente_HvsI_1/m_=_3716.3
# ordenada_HvsI_A/m_=_1297.0
# frecuencia_Hz_=_135106.29113646856

Tiempo_(s)	Campo_(V.s)	Magnetizacion_(V.s)	Campo_(kA/m)	Magnetizacion_(A/m)
0.000000e+00	-5.524843e-06	-1.533199e-09	-3.836672e+01	-1.006077e+02
1.000000e-08	-5.525055e-06	-1.531149e-09	-3.836820e+01	-1.005392e+02
2.000000e-08	-5.525083e-06	-1.532259e-09	-3.836839e+01	-1.004672e+02
3.000000e-08	-5.524788e-06	-1.535121e-09	-3.836634e+01	-1.003917e+02
4.000000e-08	-5.523982e-06	-1.537252e-09	-3.836074e+01	-1.003130e+02
5.000000e-08	-5.522622e-06	-1.536666e-09	-3.835130e+01	-1.002316e+02
6.000000e-08	-5.520724e-06	-1.529355e-09	-3.833812e+01	-1.001476e+02
7.000000e-08	-5.518234e-06	-1.522362e-09	-3.832083e+01	-1.000616e+02
8.000000e-08	-5.515116e-06	-1.531149e-09	-3.829917e+01	-9.997408e+01
9.000000e-08	-5.511539e-06	-1.555999e-09	-3.827434e+01	-9.988541e+01
1.000000e-07	-5.507549e-06	-1.583522e-09	-3.824663e+01	-9.979614e+01
1.100000e-07	-5.503068e-06	-1.569145e-09	-3.821551e+01	-9.970677e+01
1.200000e-07	-5.498332e-06	-1.506565e-09	-3.818262e+01	-9.961780e+01
1.300000e-07	-5.493566e-06	-1.477028e-09	-3.814953e+01	-9.952969e+01
1.400000e-07	-5.488483e-06	-1.518866e-09	-3.811423e+01	-9.944290e+01
1.500000e-07	-5.482896e-06	-1.568429e-09	-3.807543e+01	-9.935782e+01
1.600000e-07	-5.477002e-06	-1.550980e-09	-3.803450e+01	-9.927481e+01
1.700000e-07	-5.470729e-06	-1.530066e-09	-3.799094e+01	-9.919415e+01
1.800000e-07	-5.463933e-06	-1.535011e-09	-3.794374e+01	-9.911604e+01
1.900000e-07	-5.456727e-06	-1.545445e-09	-3.789370e+01	-9.904063e+01
2.000000e-07	-5.449240e-06	-1.497130e-09	-3.784171e+01	-9.896796e+01
2.100000e-07	-5.441558e-06	-1.465458e-09	-3.778836e+01	-9.889799e+01
2.200000e-07	-5.433622e-06	-1.468643e-09	-3.773325e+01	-9.883060e+01
2.300000e-07	-5.425399e-06	-1.514811e-09	-3.767614e+01	-9.876557e+01
2.400000e-07	-5.416777e-06	-1.529991e-09	-3.761627e+01	-9.870259e+01
2.500000e-07	-5.407532e-06	-1.505348e-09	-3.755207e+01	-9.864128e+01
2.600000e-07	-5.397480e-06	-1.485910e-09	-3.748226e+01	-9.858118e+01
2.700000e-07	-5.386744e-06	-1.495903e-09	-3.740771e+01	-9.852175e+01
2.800000e-07	-5.375589e-06	-1.501988e-09	-3.733024e+01	-9.846239e+01
2.900000e-07	-5.364031e-06	-1.493973e-09	-3.724998e+01	-9.840247e+01
3.000000e-07	-5.352130e-06	-1.504935e-09	-3.716734e+01	-9.834131e+01
3.100000e-07	-5.339884e-06	-1.519476e-09	-3.708230e+01	-9.827819e+01
3.200000e-07	-5.327182e-06	-1.524360e-09	-3.699409e+01	-9.821240e+01
3.300000e-07	-5.313989e-06	-1.498291e-09	-3.690247e+01	-9.814323e+01
3.400000e-07	-5.300456e-06	-1.496184e-09	-3.680849e+01	-9.806997e+01
3.500000e-07	-5.286601e-06	-1.499826e-09	-3.671228e+01	-9.799194e+01
3.600000e-07	-5.272349e-06	-1.505788e-09	-3.661331e+01	-9.790852e+01
3.700000e-07	-5.257681e-06	-1.495133e-09	-3.651144e+01	-9.781912e+01
3.800000e-07	-5.242480e-06	-1.509546e-09	-3.640588e+01	-9.772321e+01
3.900000e-07	-5.226761e-06	-1.510346e-09	-3.629672e+01	-9.762035e+01
4.000000e-07	-5.210559e-06	-1.490637e-09	-3.618421e+01	-9.751017e+01
4.100000e-07	-5.193939e-06	-1.466915e-09	-3.606880e+01	-9.739239e+01
4.200000e-07	-5.177007e-06	-1.473687e-09	-3.595121e+01	-9.726682e+01
4.300000e-07	-5.159775e-06	-1.469850e-09	-3.583154e+01	-9.713335e+01
4.400000e-07	-5.142271e-06	-1.462808e-09	-3.570999e+01	-9.699197e+01
4.500000e-07	-5.124394e-06	-1.471292e-09	-3.558584e+01	-9.684277e+01
4.600000e-07	-5.106015e-06	-1.484248e-09	-3.545822e+01	-9.668593e+01
4.700000e-07	-5.087123e-06	-1.461993e-09	-3.532702e+01	-9.652170e+01
4.800000e-07	-5.067887e-06	-1.448322e-09	-3.519344e+01	-9.635043e+01
4.900000e-07	-5.048439e-06	-1.459987e-09	-3.505838e+01	-9.617251e+01
5.000000e-07	-5.028779e-06	-1.457551e-09	-3.492186e+01	-9.598842e+01
5.100000e-07	-5.008923e-06	-1.434237e-09	-3.478397e+01	-9.579868e+01
5.200000e-07	-4.988722e-06	-1.434703e-09	-3.464368e+01	-9.560386e+01
5.300000e-07	-4.968087e-06	-1.444773e-09	-3.450039e+01	-9.540455e+01
5.400000e-07	-4.947136e-06	-1.437953e-09	-3.435490e+01	-9.520135e+01
5.500000e-07	-4.925868e-06	-1.439447e-09	-3.420720e+01	-9.499490e+01
5.600000e-07	-4.904285e-06	-1.445399e-09	-3.405732e+01	-9.478581e+01
5.700000e-07	-4.882431e-06	-1.431910e-09	-3.390555e+01	-9.457468e+01
5.800000e-07	-4.860204e-06	-1.421640e-09	-3.375120e+01	-9.436208e+01
5.900000e-07	-4.837554e-06	-1.436520e-09	-3.359392e+01	-9.414856e+01
6.000000e-07	-4.814553e-06	-1.432747e-09	-3.343419e+01	-9.393462e+01
6.100000e-07	-4.791314e-06	-1.414639e-09	-3.327280e+01	-9.372072e+01
6.200000e-07	-4.767861e-06	-1.412440e-09	-3.310994e+01	-9.350724e+01
6.300000e-07	-4.744137e-06	-1.415988e-09	-3.294519e+01	-9.329452e+01
6.400000e-07	-4.720137e-06	-1.403421e-09	-3.277852e+01	-9.308283e+01
6.500000e-07	-4.695793e-06	-1.410561e-09	-3.260947e+01	-9.287238e+01
6.600000e-07	-4.671035e-06	-1.425172e-09	-3.243754e+01	-9.266330e+01
6.700000e-07	-4.645861e-06	-1.421926e-09	-3.226272e+01	-9.245568e+01
6.800000e-07	-4.620152e-06	-1.411393e-09	-3.208419e+01	-9.224952e+01
6.900000e-07	-4.593870e-06	-1.412855e-09	-3.190167e+01	-9.204477e+01
7.000000e-07	-4.567066e-06	-1.398100e-09	-3.171554e+01	-9.184133e+01
7.100000e-07	-4.539829e-06	-1.384614e-09	-3.152639e+01	-9.163904e+01
7.200000e-07	-4.512354e-06	-1.387449e-09	-3.133559e+01	-9.143769e+01
7.300000e-07	-4.484727e-06	-1.393544e-09	-3.114374e+01	-9.123704e+01
7.400000e-07	-4.456872e-06	-1.391302e-09	-3.095030e+01	-9.103680e+01
7.500000e-07	-4.428783e-06	-1.397537e-09	-3.075524e+01	-9.083666e+01
7.600000e-07	-4.400466e-06	-1.395405e-09	-3.055860e+01	-9.063630e+01
7.700000e-07	-4.371872e-06	-1.379748e-09	-3.036003e+01	-9.043536e+01
7.800000e-07	-4.342991e-06	-1.367577e-09	-3.015947e+01	-9.023348e+01
7.900000e-07	-4.313805e-06	-1.363654e-09	-2.995679e+01	-9.003030e+01
8.000000e-07	-4.284276e-06	-1.357487e-09	-2.975173e+01	-8.982544e+01
8.100000e-07	-4.254404e-06	-1.355203e-09	-2.954428e+01	-8.961855e+01
8.200000e-07	-4.224198e-06	-1.356359e-09	-2.933452e+01	-8.940926e+01
8.300000e-07	-4.193718e-06	-1.352514e-09	-2.912286e+01	-8.919723e+01
8.400000e-07	-4.162945e-06	-1.347171e-09	-2.890916e+01	-8.898212e+01
8.500000e-07	-4.131905e-06	-1.348142e-09	-2.869361e+01	-8.876361e+01
8.600000e-07	-4.100652e-06	-1.348322e-09	-2.847657e+01	-8.854138e+01
8.700000e-07	-4.069110e-06	-1.341194e-09	-2.825753e+01	-8.831516e+01
8.800000e-07	-4.037402e-06	-1.334703e-09	-2.803734e+01	-8.808464e+01
8.900000e-07	-4.005632e-06	-1.326429e-09	-2.781671e+01	-8.784959e+01
9.000000e-07	-3.973697e-06	-1.317978e-09	-2.759495e+01	-8.760973e+01
9.100000e-07	-3.941393e-06	-1.311918e-09	-2.737062e+01	-8.736485e+01
9.200000e-07	-3.908663e-06	-1.310061e-09	-2.714332e+01	-8.711472e+01
9.300000e-07	-3.875578e-06	-1.304891e-09	-2.691357e+01	-8.685912e+01
9.400000e-07	-3.842097e-06	-1.303043e-09	-2.668106e+01	-8.659787e+01
9.500000e-07	-3.808168e-06	-1.300166e-09	-2.644545e+01	-8.633077e+01
9.600000e-07	-3.773744e-06	-1.292842e-09	-2.620639e+01	-8.605765e+01
9.700000e-07	-3.738841e-06	-1.281311e-09	-2.596401e+01	-8.577835e+01
9.800000e-07	-3.703586e-06	-1.273432e-09	-2.571919e+01	-8.549272e+01
9.900000e-07	-3.668103e-06	-1.265254e-09	-2.547277e+01	-8.520061e+01
1.000000e-06	-3.632460e-06	-1.259743e-09	-2.522526e+01	-8.490192e+01
1.010000e-06	-3.596686e-06	-1.254847e-09	-2.497683e+01	-8.459652e+01
1.020000e-06	-3.560813e-06	-1.251974e-09	-2.472772e+01	-8.428433e+01
1.030000e-06	-3.524847e-06	-1.245272e-09	-2.447795e+01	-8.396529e+01
1.040000e-06	-3.488709e-06	-1.237512e-09	-2.422699e+01	-8.363935e+01
1.050000e-06	-3.452296e-06	-1.228272e-09	-2.397412e+01	-8.330647e+01
1.060000e-06	-3.415600e-06	-1.219315e-09	-2.371930e+01	-8.296668e+01
1.070000e-06	-3.378571e-06	-1.211341e-09	-2.346215e+01	-8.262000e+01
1.080000e-06	-3.341245e-06	-1.206812e-09	-2.320295e+01	-8.226649e+01
1.090000e-06	-3.303693e-06	-1.203601e-09	-2.294217e+01	-8.190624e+01
1.100000e-06	-3.265909e-06	-1.198980e-09	-2.267978e+01	-8.153937e+01
1.110000e-06	-3.227941e-06	-1.191705e-09	-2.241612e+01	-8.116605e+01
1.120000e-06	-3.189774e-06	-1.179636e-09	-2.215107e+01	-8.078646e+01
1.130000e-06	-3.151385e-06	-1.165729e-09	-2.188448e+01	-8.040081e+01
1.140000e-06	-3.112783e-06	-1.156488e-09	-2.161641e+01	-8.000933e+01
1.150000e-06	-3.073985e-06	-1.155039e-09	-2.134698e+01	-7.961230e+01
1.160000e-06	-3.034909e-06	-1.154317e-09	-2.107563e+01	-7.920999e+01
1.170000e-06	-2.995642e-06	-1.152624e-09	-2.080294e+01	-7.880271e+01
1.180000e-06	-2.956265e-06	-1.148792e-09	-2.052949e+01	-7.839075e+01
1.190000e-06	-2.916709e-06	-1.143053e-09	-2.025479e+01	-7.797443e+01
1.200000e-06	-2.876994e-06	-1.132663e-09	-1.997900e+01	-7.755406e+01
1.210000e-06	-2.837098e-06	-1.121181e-09	-1.970195e+01	-7.712991e+01
1.220000e-06	-2.797095e-06	-1.110722e-09	-1.942415e+01	-7.670228e+01
1.230000e-06	-2.756974e-06	-1.102713e-09	-1.914553e+01	-7.627140e+01
1.240000e-06	-2.716652e-06	-1.095043e-09	-1.886552e+01	-7.583750e+01
1.250000e-06	-2.676208e-06	-1.090954e-09	-1.858466e+01	-7.540074e+01
1.260000e-06	-2.635479e-06	-1.087797e-09	-1.830183e+01	-7.496126e+01
1.270000e-06	-2.594502e-06	-1.082599e-09	-1.801726e+01	-7.451913e+01
1.280000e-06	-2.553361e-06	-1.074279e-09	-1.773156e+01	-7.407436e+01
1.290000e-06	-2.511835e-06	-1.065999e-09	-1.744319e+01	-7.362691e+01
1.300000e-06	-2.469947e-06	-1.056872e-09	-1.715230e+01	-7.317665e+01
1.310000e-06	-2.427835e-06	-1.046022e-09	-1.685986e+01	-7.272342e+01
1.320000e-06	-2.385426e-06	-1.033015e-09	-1.656536e+01	-7.226695e+01
1.330000e-06	-2.342665e-06	-1.021110e-09	-1.626841e+01	-7.180692e+01
1.340000e-06	-2.299610e-06	-1.012040e-09	-1.596941e+01	-7.134294e+01
1.350000e-06	-2.256349e-06	-1.009258e-09	-1.566899e+01	-7.087456e+01
1.360000e-06	-2.212954e-06	-1.011724e-09	-1.536764e+01	-7.040127e+01
1.370000e-06	-2.169396e-06	-1.012937e-09	-1.506515e+01	-6.992250e+01
1.380000e-06	-2.125761e-06	-1.007481e-09	-1.476213e+01	-6.943763e+01
1.390000e-06	-2.082083e-06	-9.945143e-10	-1.445882e+01	-6.894602e+01
1.400000e-06	-2.038303e-06	-9.784472e-10	-1.415479e+01	-6.844698e+01
1.410000e-06	-1.994464e-06	-9.636085e-10	-1.385036e+01	-6.793981e+01
1.420000e-06	-1.950587e-06	-9.525136e-10	-1.354566e+01	-6.742379e+01
1.430000e-06	-1.906553e-06	-9.446895e-10	-1.323987e+01	-6.689820e+01
1.440000e-06	-1.862408e-06	-9.399695e-10	-1.293330e+01	-6.636232e+01
1.450000e-06	-1.818204e-06	-9.346354e-10	-1.262634e+01	-6.581547e+01
1.460000e-06	-1.773849e-06	-9.268748e-10	-1.231832e+01	-6.525696e+01
1.470000e-06	-1.729318e-06	-9.169897e-10	-1.200908e+01	-6.468615e+01
1.480000e-06	-1.684679e-06	-9.052034e-10	-1.169909e+01	-6.410245e+01
1.490000e-06	-1.639903e-06	-8.915913e-10	-1.138815e+01	-6.350528e+01
1.500000e-06	-1.594938e-06	-8.757709e-10	-1.107589e+01	-6.289412e+01
1.510000e-06	-1.549901e-06	-8.595948e-10	-1.076314e+01	-6.226851e+01
1.520000e-06	-1.504805e-06	-8.472366e-10	-1.044997e+01	-6.162802e+01
1.530000e-06	-1.459623e-06	-8.361612e-10	-1.013621e+01	-6.097227e+01
1.540000e-06	-1.414289e-06	-8.238309e-10	-9.821392e+00	-6.030091e+01
1.550000e-06	-1.368838e-06	-8.127083e-10	-9.505762e+00	-5.961365e+01
1.560000e-06	-1.323340e-06	-8.014700e-10	-9.189800e+00	-5.891021e+01
1.570000e-06	-1.277758e-06	-7.866677e-10	-8.873264e+00	-5.819033e+01
1.580000e-06	-1.232105e-06	-7.730863e-10	-8.556230e+00	-5.745376e+01
1.590000e-06	-1.186386e-06	-7.604405e-10	-8.238737e+00	-5.670025e+01
1.600000e-06	-1.140562e-06	-7.441413e-10	-7.920523e+00	-5.592955e+01
1.610000e-06	-1.094600e-06	-7.276545e-10	-7.601338e+00	-5.514135e+01
1.620000e-06	-1.048543e-06	-7.150049e-10	-7.281500e+00	-5.433534e+01
1.630000e-06	-1.002404e-06	-7.036272e-10	-6.961093e+00	-5.351114e+01
1.640000e-06	-9.561771e-07	-6.926807e-10	-6.640077e+00	-5.266831e+01
1.650000e-06	-9.098842e-07	-6.817303e-10	-6.318601e+00	-5.180633e+01
1.660000e-06	-8.635969e-07	-6.709639e-10	-5.997163e+00	-5.092461e+01
1.670000e-06	-8.172736e-07	-6.585588e-10	-5.675476e+00	-5.002247e+01
1.680000e-06	-7.708537e-07	-6.441406e-10	-5.353117e+00	-4.909912e+01
1.690000e-06	-7.243557e-07	-6.290444e-10	-5.030216e+00	-4.815368e+01
1.700000e-06	-6.778414e-07	-6.131661e-10	-4.707202e+00	-4.718517e+01
1.710000e-06	-6.312845e-07	-5.929918e-10	-4.383892e+00	-4.619250e+01
1.720000e-06	-5.847525e-07	-5.711841e-10	-4.060756e+00	-4.517450e+01
1.730000e-06	-5.383124e-07	-5.521664e-10	-3.738257e+00	-4.412991e+01
1.740000e-06	-4.917361e-07	-5.348377e-10	-3.414812e+00	-4.305737e+01
1.750000e-06	-4.450291e-07	-5.189061e-10	-3.090460e+00	-4.195549e+01
1.760000e-06	-3.982997e-07	-5.027346e-10	-2.765953e+00	-4.082281e+01
1.770000e-06	-3.514302e-07	-4.880221e-10	-2.440472e+00	-3.965785e+01
1.780000e-06	-3.044346e-07	-4.745769e-10	-2.114116e+00	-3.845911e+01
1.790000e-06	-2.575958e-07	-4.608541e-10	-1.788848e+00	-3.722511e+01
1.800000e-06	-2.108854e-07	-4.443019e-10	-1.464473e+00	-3.595441e+01
1.810000e-06	-1.640776e-07	-4.252902e-10	-1.139420e+00	-3.464565e+01
1.820000e-06	-1.172112e-07	-4.045858e-10	-8.139613e-01	-3.329752e+01
1.830000e-06	-7.027791e-08	-3.836221e-10	-4.880380e-01	-3.190888e+01
1.840000e-06	-2.326967e-08	-3.640721e-10	-1.615939e-01	-3.047869e+01
1.850000e-06	2.362868e-08	-3.463786e-10	1.640870e-01	-2.900611e+01
1.860000e-06	7.048564e-08	-3.298217e-10	4.894805e-01	-2.749049e+01
1.870000e-06	1.174808e-07	-3.134706e-10	8.158340e-01	-2.593139e+01
1.880000e-06	1.645073e-07	-2.963700e-10	1.142405e+00	-2.432862e+01
1.890000e-06	2.114131e-07	-2.749623e-10	1.468137e+00	-2.268224e+01
1.900000e-06	2.582662e-07	-2.475481e-10	1.793504e+00	-2.099260e+01
1.910000e-06	3.051053e-07	-2.191214e-10	2.118773e+00	-1.926031e+01
1.920000e-06	3.518838e-07	-1.918297e-10	2.443622e+00	-1.748631e+01
1.930000e-06	3.986533e-07	-1.660351e-10	2.768409e+00	-1.567179e+01
1.940000e-06	4.454248e-07	-1.430327e-10	3.093208e+00	-1.381829e+01
1.950000e-06	4.921765e-07	-1.201320e-10	3.417871e+00	-1.192759e+01
1.960000e-06	5.389153e-07	-9.794950e-11	3.742444e+00	-1.000180e+01
1.970000e-06	5.855884e-07	-7.648922e-11	4.066560e+00	-8.043270e+00
1.980000e-06	6.321538e-07	-5.323611e-11	4.389929e+00	-6.054620e+00
1.990000e-06	6.785699e-07	-2.671140e-11	4.712261e+00	-4.038699e+00
2.000000e-06	7.248890e-07	2.938648e-12	5.033920e+00	-1.998565e+00
2.010000e-06	7.712220e-07	3.338956e-11	5.355674e+00	6.253926e-02
2.020000e-06	8.175777e-07	6.393711e-11	5.677587e+00	2.141219e+00
2.030000e-06	8.639725e-07	9.413482e-11	5.999771e+00	4.233960e+00
2.040000e-06	9.102521e-07	1.220055e-10	6.321155e+00	6.337158e+00
2.050000e-06	9.563544e-07	1.479955e-10	6.641308e+00	8.447159e+00
2.060000e-06	1.002398e-06	1.729497e-10	6.961053e+00	1.056029e+01
2.070000e-06	1.048352e-06	1.985842e-10	7.280173e+00	1.267289e+01
2.080000e-06	1.094211e-06	2.267694e-10	7.598637e+00	1.478136e+01
2.090000e-06	1.140068e-06	2.573904e-10	7.917090e+00	1.688218e+01
2.100000e-06	1.185882e-06	2.880158e-10	8.235237e+00	1.897194e+01
2.110000e-06	1.231594e-06	3.182331e-10	8.552682e+00	2.104739e+01
2.120000e-06	1.277278e-06	3.480627e-10	8.869932e+00	2.310543e+01
2.130000e-06	1.322874e-06	3.775237e-10	9.186568e+00	2.514318e+01
2.140000e-06	1.368320e-06	4.049966e-10	9.502164e+00	2.715794e+01
2.150000e-06	1.413676e-06	4.287567e-10	9.817135e+00	2.914728e+01
2.160000e-06	1.458918e-06	4.507647e-10	1.013131e+01	3.110897e+01
2.170000e-06	1.504067e-06	4.727808e-10	1.044484e+01	3.304107e+01
2.180000e-06	1.549090e-06	4.990149e-10	1.075750e+01	3.494185e+01
2.190000e-06	1.593980e-06	5.298203e-10	1.106924e+01	3.680987e+01
2.200000e-06	1.638784e-06	5.608400e-10	1.138037e+01	3.864393e+01
2.210000e-06	1.683441e-06	5.912191e-10	1.169049e+01	4.044305e+01
2.220000e-06	1.727941e-06	6.197382e-10	1.199951e+01	4.220652e+01
2.230000e-06	1.772312e-06	6.437028e-10	1.230764e+01	4.393382e+01
2.240000e-06	1.816542e-06	6.622190e-10	1.261479e+01	4.562464e+01
2.250000e-06	1.860655e-06	6.791174e-10	1.292113e+01	4.727886e+01
2.260000e-06	1.904692e-06	6.986229e-10	1.322695e+01	4.889652e+01
2.270000e-06	1.948681e-06	7.209863e-10	1.353242e+01	5.047780e+01
2.280000e-06	1.992600e-06	7.440301e-10	1.383742e+01	5.202300e+01
2.290000e-06	2.036468e-06	7.670969e-10	1.414205e+01	5.353254e+01
2.300000e-06	2.080287e-06	7.910562e-10	1.444635e+01	5.500689e+01
2.310000e-06	2.124022e-06	8.131270e-10	1.475006e+01	5.644658e+01
2.320000e-06	2.167680e-06	8.313966e-10	1.505324e+01	5.785220e+01
2.330000e-06	2.211273e-06	8.473752e-10	1.535597e+01	5.922434e+01
2.340000e-06	2.254747e-06	8.629061e-10	1.565786e+01	6.056359e+01
2.350000e-06	2.297993e-06	8.797673e-10	1.595818e+01	6.187053e+01
2.360000e-06	2.341095e-06	8.977850e-10	1.625750e+01	6.314574e+01
2.370000e-06	2.383969e-06	9.163651e-10	1.655524e+01	6.438973e+01
2.380000e-06	2.426401e-06	9.344882e-10	1.684990e+01	6.560298e+01
2.390000e-06	2.468502e-06	9.506104e-10	1.714226e+01	6.678595e+01
2.400000e-06	2.510345e-06	9.647419e-10	1.743284e+01	6.793902e+01
2.410000e-06	2.551861e-06	9.774073e-10	1.772115e+01	6.906253e+01
2.420000e-06	2.593101e-06	9.897428e-10	1.800753e+01	7.015681e+01
2.430000e-06	2.633999e-06	1.003188e-09	1.829154e+01	7.122210e+01
2.440000e-06	2.674573e-06	1.019262e-09	1.857331e+01	7.225865e+01
2.450000e-06	2.714980e-06	1.035671e-09	1.885391e+01	7.326667e+01
2.460000e-06	2.755215e-06	1.050450e-09	1.913331e+01	7.424635e+01
2.470000e-06	2.795271e-06	1.062776e-09	1.941148e+01	7.519788e+01
2.480000e-06	2.835153e-06	1.072973e-09	1.968844e+01	7.612147e+01
2.490000e-06	2.874888e-06	1.082455e-09	1.996437e+01	7.701732e+01
2.500000e-06	2.914495e-06	1.091284e-09	2.023942e+01	7.788567e+01
2.510000e-06	2.953950e-06	1.102168e-09	2.051341e+01	7.872679e+01
2.520000e-06	2.993369e-06	1.115212e-09	2.078715e+01	7.954101e+01
2.530000e-06	3.032652e-06	1.128115e-09	2.105995e+01	8.032869e+01
2.540000e-06	3.071651e-06	1.141667e-09	2.133077e+01	8.109024e+01
2.550000e-06	3.110470e-06	1.153925e-09	2.160035e+01	8.182617e+01
2.560000e-06	3.149046e-06	1.161237e-09	2.186824e+01	8.253701e+01
2.570000e-06	3.187334e-06	1.165942e-09	2.213413e+01	8.322336e+01
2.580000e-06	3.225477e-06	1.171773e-09	2.239901e+01	8.388591e+01
2.590000e-06	3.263483e-06	1.177904e-09	2.266293e+01	8.452537e+01
2.600000e-06	3.301220e-06	1.186600e-09	2.292500e+01	8.514253e+01
2.610000e-06	3.338681e-06	1.199789e-09	2.318514e+01	8.573821e+01
2.620000e-06	3.375928e-06	1.213995e-09	2.344379e+01	8.631326e+01
2.630000e-06	3.412937e-06	1.225613e-09	2.370080e+01	8.686859e+01
2.640000e-06	3.449658e-06	1.234713e-09	2.395580e+01	8.740509e+01
2.650000e-06	3.486093e-06	1.242028e-09	2.420883e+01	8.792368e+01
2.660000e-06	3.522287e-06	1.244008e-09	2.446017e+01	8.842527e+01
2.670000e-06	3.558293e-06	1.244628e-09	2.471021e+01	8.891074e+01
2.680000e-06	3.594151e-06	1.249108e-09	2.495922e+01	8.938097e+01
2.690000e-06	3.629917e-06	1.257549e-09	2.520760e+01	8.983676e+01
2.700000e-06	3.665586e-06	1.268627e-09	2.545530e+01	9.027889e+01
2.710000e-06	3.701069e-06	1.277939e-09	2.570170e+01	9.070808e+01
2.720000e-06	3.736261e-06	1.284529e-09	2.594609e+01	9.112498e+01
2.730000e-06	3.771164e-06	1.289977e-09	2.618847e+01	9.153016e+01
2.740000e-06	3.805706e-06	1.295404e-09	2.642834e+01	9.192412e+01
2.750000e-06	3.839707e-06	1.300621e-09	2.666447e+01	9.230730e+01
2.760000e-06	3.873213e-06	1.304848e-09	2.689714e+01	9.268002e+01
2.770000e-06	3.906262e-06	1.311627e-09	2.712665e+01	9.304257e+01
2.780000e-06	3.938879e-06	1.319471e-09	2.735316e+01	9.339512e+01
2.790000e-06	3.971145e-06	1.327905e-09	2.757722e+01	9.373780e+01
2.800000e-06	4.003171e-06	1.336511e-09	2.779962e+01	9.407068e+01
2.810000e-06	4.035038e-06	1.341543e-09	2.802092e+01	9.439375e+01
2.820000e-06	4.066706e-06	1.344199e-09	2.824084e+01	9.470697e+01
2.830000e-06	4.098244e-06	1.347472e-09	2.845985e+01	9.501027e+01
2.840000e-06	4.129671e-06	1.354883e-09	2.867809e+01	9.530355e+01
2.850000e-06	4.160864e-06	1.360741e-09	2.889471e+01	9.558670e+01
2.860000e-06	4.191686e-06	1.366521e-09	2.910875e+01	9.585960e+01
2.870000e-06	4.222112e-06	1.373791e-09	2.932004e+01	9.612215e+01
2.880000e-06	4.252248e-06	1.379085e-09	2.952931e+01	9.637428e+01
2.890000e-06	4.282113e-06	1.381935e-09	2.973671e+01	9.661593e+01
2.900000e-06	4.311673e-06	1.384723e-09	2.994198e+01	9.684710e+01
