# Temperatura_=_7.51
# Concentracion g/m^3_=_1620.0
# C_Vs_to_Am_M_A/Vsm_=_65563218390.804596
# pendiente_HvsI_1/m_=_3716.3
# ordenada_HvsI_A/m_=_1297.0
# frecuencia_Hz_=_135109.1079445774

Tiempo_(s)	Campo_(V.s)	Magnetizacion_(V.s)	Campo_(kA/m)	Magnetizacion_(A/m)
0.000000e+00	-5.524904e-06	-1.602032e-09	-3.837323e+01	-1.041201e+02
1.000000e-08	-5.525040e-06	-1.601607e-09	-3.837417e+01	-1.040656e+02
2.000000e-08	-5.524773e-06	-1.605261e-09	-3.837232e+01	-1.040107e+02
3.000000e-08	-5.524094e-06	-1.609574e-09	-3.836760e+01	-1.039556e+02
4.000000e-08	-5.522942e-06	-1.610900e-09	-3.835960e+01	-1.039003e+02
5.000000e-08	-5.521154e-06	-1.604878e-09	-3.834718e+01	-1.038450e+02
6.000000e-08	-5.518749e-06	-1.601579e-09	-3.833047e+01	-1.037895e+02
7.000000e-08	-5.515839e-06	-1.614400e-09	-3.831027e+01	-1.037339e+02
8.000000e-08	-5.512428e-06	-1.610137e-09	-3.828658e+01	-1.036779e+02
9.000000e-08	-5.508568e-06	-1.582418e-09	-3.825977e+01	-1.036215e+02
1.000000e-07	-5.504347e-06	-1.612411e-09	-3.823045e+01	-1.035644e+02
1.100000e-07	-5.499892e-06	-1.668873e-09	-3.819951e+01	-1.035063e+02
1.200000e-07	-5.495194e-06	-1.597277e-09	-3.816687e+01	-1.034470e+02
1.300000e-07	-5.490183e-06	-1.512682e-09	-3.813207e+01	-1.033861e+02
1.400000e-07	-5.484839e-06	-1.536970e-09	-3.809495e+01	-1.033233e+02
1.500000e-07	-5.479130e-06	-1.641813e-09	-3.805530e+01	-1.032582e+02
1.600000e-07	-5.473065e-06	-1.629958e-09	-3.801318e+01	-1.031904e+02
1.700000e-07	-5.466551e-06	-1.518464e-09	-3.796794e+01	-1.031195e+02
1.800000e-07	-5.459581e-06	-1.550246e-09	-3.791953e+01	-1.030451e+02
1.900000e-07	-5.452255e-06	-1.642707e-09	-3.786865e+01	-1.029669e+02
2.000000e-07	-5.444689e-06	-1.654387e-09	-3.781609e+01	-1.028845e+02
2.100000e-07	-5.436926e-06	-1.556151e-09	-3.776218e+01	-1.027975e+02
2.200000e-07	-5.428860e-06	-1.548139e-09	-3.770615e+01	-1.027057e+02
2.300000e-07	-5.420327e-06	-1.604124e-09	-3.764689e+01	-1.026088e+02
2.400000e-07	-5.411278e-06	-1.616123e-09	-3.758404e+01	-1.025065e+02
2.500000e-07	-5.401632e-06	-1.558084e-09	-3.751704e+01	-1.023987e+02
2.600000e-07	-5.391305e-06	-1.549528e-09	-3.744532e+01	-1.022853e+02
2.700000e-07	-5.380398e-06	-1.571856e-09	-3.736956e+01	-1.021661e+02
2.800000e-07	-5.369035e-06	-1.567317e-09	-3.729064e+01	-1.020413e+02
2.900000e-07	-5.357314e-06	-1.533875e-09	-3.720923e+01	-1.019108e+02
3.000000e-07	-5.345193e-06	-1.529847e-09	-3.712505e+01	-1.017747e+02
3.100000e-07	-5.332631e-06	-1.556591e-09	-3.703779e+01	-1.016331e+02
3.200000e-07	-5.319610e-06	-1.555277e-09	-3.694736e+01	-1.014864e+02
3.300000e-07	-5.306235e-06	-1.523331e-09	-3.685446e+01	-1.013346e+02
3.400000e-07	-5.292457e-06	-1.511659e-09	-3.675877e+01	-1.011781e+02
3.500000e-07	-5.278232e-06	-1.554502e-09	-3.665996e+01	-1.010172e+02
3.600000e-07	-5.263557e-06	-1.546282e-09	-3.655804e+01	-1.008523e+02
3.700000e-07	-5.248326e-06	-1.504499e-09	-3.645225e+01	-1.006836e+02
3.800000e-07	-5.232620e-06	-1.525435e-09	-3.634317e+01	-1.005117e+02
3.900000e-07	-5.216476e-06	-1.566656e-09	-3.623104e+01	-1.003368e+02
4.000000e-07	-5.199929e-06	-1.504678e-09	-3.611611e+01	-1.001594e+02
4.100000e-07	-5.182996e-06	-1.488238e-09	-3.599850e+01	-9.997975e+01
4.200000e-07	-5.165727e-06	-1.561926e-09	-3.587856e+01	-9.979835e+01
4.300000e-07	-5.148178e-06	-1.548499e-09	-3.575668e+01	-9.961550e+01
4.400000e-07	-5.130304e-06	-1.461096e-09	-3.563254e+01	-9.943150e+01
4.500000e-07	-5.112022e-06	-1.523995e-09	-3.550555e+01	-9.924664e+01
4.600000e-07	-5.093354e-06	-1.575264e-09	-3.537590e+01	-9.906118e+01
4.700000e-07	-5.074339e-06	-1.483746e-09	-3.524383e+01	-9.887532e+01
4.800000e-07	-5.054968e-06	-1.467049e-09	-3.510929e+01	-9.868923e+01
4.900000e-07	-5.035364e-06	-1.552789e-09	-3.497313e+01	-9.850304e+01
5.000000e-07	-5.015581e-06	-1.495824e-09	-3.483573e+01	-9.831681e+01
5.100000e-07	-4.995531e-06	-1.435875e-09	-3.469646e+01	-9.813058e+01
5.200000e-07	-4.975126e-06	-1.517472e-09	-3.455475e+01	-9.794434e+01
5.300000e-07	-4.954355e-06	-1.518521e-09	-3.441048e+01	-9.775804e+01
5.400000e-07	-4.933228e-06	-1.431697e-09	-3.426374e+01	-9.757158e+01
5.500000e-07	-4.911739e-06	-1.488226e-09	-3.411449e+01	-9.738484e+01
5.600000e-07	-4.889907e-06	-1.538910e-09	-3.396286e+01	-9.719766e+01
5.700000e-07	-4.867684e-06	-1.449421e-09	-3.380851e+01	-9.700984e+01
5.800000e-07	-4.845108e-06	-1.441775e-09	-3.365170e+01	-9.682120e+01
5.900000e-07	-4.822261e-06	-1.509856e-09	-3.349302e+01	-9.663149e+01
6.000000e-07	-4.799136e-06	-1.460869e-09	-3.333241e+01	-9.644048e+01
6.100000e-07	-4.775732e-06	-1.416367e-09	-3.316985e+01	-9.624793e+01
6.200000e-07	-4.752078e-06	-1.471415e-09	-3.300556e+01	-9.605360e+01
6.300000e-07	-4.728232e-06	-1.462461e-09	-3.283994e+01	-9.585724e+01
6.400000e-07	-4.704071e-06	-1.417519e-09	-3.267213e+01	-9.565862e+01
6.500000e-07	-4.679423e-06	-1.447445e-09	-3.250094e+01	-9.545752e+01
6.600000e-07	-4.654246e-06	-1.463995e-09	-3.232607e+01	-9.525373e+01
6.700000e-07	-4.628546e-06	-1.423007e-09	-3.214757e+01	-9.504708e+01
6.800000e-07	-4.602297e-06	-1.428609e-09	-3.196526e+01	-9.483737e+01
6.900000e-07	-4.575640e-06	-1.441824e-09	-3.178011e+01	-9.462448e+01
7.000000e-07	-4.548670e-06	-1.416811e-09	-3.159279e+01	-9.440828e+01
7.100000e-07	-4.521342e-06	-1.409610e-09	-3.140299e+01	-9.418865e+01
7.200000e-07	-4.493743e-06	-1.428509e-09	-3.121130e+01	-9.396553e+01
7.300000e-07	-4.465986e-06	-1.416941e-09	-3.101851e+01	-9.373884e+01
7.400000e-07	-4.438063e-06	-1.406840e-09	-3.082457e+01	-9.350854e+01
7.500000e-07	-4.409905e-06	-1.412117e-09	-3.062900e+01	-9.327459e+01
7.600000e-07	-4.381460e-06	-1.406987e-09	-3.043144e+01	-9.303700e+01
7.700000e-07	-4.352664e-06	-1.391534e-09	-3.023143e+01	-9.279573e+01
7.800000e-07	-4.323470e-06	-1.390883e-09	-3.002867e+01	-9.255081e+01
7.900000e-07	-4.293919e-06	-1.385033e-09	-2.982342e+01	-9.230222e+01
8.000000e-07	-4.264096e-06	-1.374112e-09	-2.961629e+01	-9.204997e+01
8.100000e-07	-4.234082e-06	-1.372909e-09	-2.940782e+01	-9.179406e+01
8.200000e-07	-4.203759e-06	-1.372154e-09	-2.919722e+01	-9.153449e+01
8.300000e-07	-4.173061e-06	-1.360486e-09	-2.898400e+01	-9.127124e+01
8.400000e-07	-4.142075e-06	-1.358488e-09	-2.876879e+01	-9.100431e+01
8.500000e-07	-4.110867e-06	-1.365172e-09	-2.855203e+01	-9.073364e+01
8.600000e-07	-4.079488e-06	-1.359475e-09	-2.833409e+01	-9.045921e+01
8.700000e-07	-4.047880e-06	-1.349552e-09	-2.811455e+01	-9.018096e+01
8.800000e-07	-4.016097e-06	-1.346731e-09	-2.789381e+01	-8.989882e+01
8.900000e-07	-3.984167e-06	-1.335257e-09	-2.767204e+01	-8.961272e+01
9.000000e-07	-3.951957e-06	-1.320220e-09	-2.744832e+01	-8.932259e+01
9.100000e-07	-3.919374e-06	-1.321241e-09	-2.722202e+01	-8.902833e+01
9.200000e-07	-3.886405e-06	-1.320113e-09	-2.699303e+01	-8.872985e+01
9.300000e-07	-3.852942e-06	-1.311032e-09	-2.676062e+01	-8.842705e+01
9.400000e-07	-3.818975e-06	-1.309969e-09	-2.652469e+01	-8.811986e+01
9.500000e-07	-3.784617e-06	-1.313105e-09	-2.628606e+01	-8.780818e+01
9.600000e-07	-3.749877e-06	-1.299606e-09	-2.604477e+01	-8.749194e+01
9.700000e-07	-3.714709e-06	-1.287854e-09	-2.580051e+01	-8.717108e+01
9.800000e-07	-3.679263e-06	-1.285517e-09	-2.555433e+01	-8.684555e+01
9.900000e-07	-3.643695e-06	-1.279883e-09	-2.530729e+01	-8.651532e+01
1.000000e-06	-3.608042e-06	-1.269541e-09	-2.505966e+01	-8.618038e+01
1.010000e-06	-3.572303e-06	-1.269399e-09	-2.481144e+01	-8.584075e+01
1.020000e-06	-3.536389e-06	-1.266499e-09	-2.456199e+01	-8.549646e+01
1.030000e-06	-3.500245e-06	-1.255818e-09	-2.431096e+01	-8.514758e+01
1.040000e-06	-3.463834e-06	-1.252140e-09	-2.405806e+01	-8.479419e+01
1.050000e-06	-3.427123e-06	-1.251683e-09	-2.380308e+01	-8.443639e+01
1.060000e-06	-3.390139e-06	-1.240534e-09	-2.354621e+01	-8.407432e+01
1.070000e-06	-3.352861e-06	-1.229455e-09	-2.328730e+01	-8.370812e+01
1.080000e-06	-3.315362e-06	-1.223362e-09	-2.302685e+01	-8.333796e+01
1.090000e-06	-3.277712e-06	-1.214457e-09	-2.276535e+01	-8.296401e+01
1.100000e-06	-3.239864e-06	-1.201038e-09	-2.250248e+01	-8.258644e+01
1.110000e-06	-3.201818e-06	-1.193508e-09	-2.223823e+01	-8.220543e+01
1.120000e-06	-3.163542e-06	-1.185858e-09	-2.197239e+01	-8.182117e+01
1.130000e-06	-3.124989e-06	-1.176184e-09	-2.170461e+01	-8.143381e+01
1.140000e-06	-3.086237e-06	-1.171685e-09	-2.143547e+01	-8.104349e+01
1.150000e-06	-3.047333e-06	-1.172859e-09	-2.116525e+01	-8.065035e+01
1.160000e-06	-3.008222e-06	-1.169807e-09	-2.089361e+01	-8.025447e+01
1.170000e-06	-2.968932e-06	-1.161829e-09	-2.062072e+01	-7.985590e+01
1.180000e-06	-2.929507e-06	-1.154553e-09	-2.034689e+01	-7.945468e+01
1.190000e-06	-2.889909e-06	-1.144791e-09	-2.007187e+01	-7.905075e+01
1.200000e-06	-2.850128e-06	-1.133603e-09	-1.979556e+01	-7.864405e+01
1.210000e-06	-2.810281e-06	-1.125293e-09	-1.951881e+01	-7.823444e+01
1.220000e-06	-2.770405e-06	-1.120008e-09	-1.924185e+01	-7.782172e+01
1.230000e-06	-2.730290e-06	-1.113340e-09	-1.896323e+01	-7.740567e+01
1.240000e-06	-2.689870e-06	-1.106394e-09	-1.868249e+01	-7.698597e+01
1.250000e-06	-2.649230e-06	-1.099506e-09	-1.840023e+01	-7.656226e+01
1.260000e-06	-2.608359e-06	-1.092220e-09	-1.811636e+01	-7.613415e+01
1.270000e-06	-2.567177e-06	-1.083484e-09	-1.783033e+01	-7.570115e+01
1.280000e-06	-2.525577e-06	-1.074857e-09	-1.754140e+01	-7.526279e+01
1.290000e-06	-2.483691e-06	-1.065831e-09	-1.725048e+01	-7.481850e+01
1.300000e-06	-2.441558e-06	-1.055113e-09	-1.695784e+01	-7.436771e+01
1.310000e-06	-2.399082e-06	-1.044711e-09	-1.666283e+01	-7.390983e+01
1.320000e-06	-2.356291e-06	-1.037230e-09	-1.636562e+01	-7.344423e+01
1.330000e-06	-2.313248e-06	-1.029702e-09	-1.606667e+01	-7.297029e+01
1.340000e-06	-2.270065e-06	-1.024372e-09	-1.576674e+01	-7.248738e+01
1.350000e-06	-2.226785e-06	-1.020467e-09	-1.546614e+01	-7.199489e+01
1.360000e-06	-2.183373e-06	-1.015821e-09	-1.516462e+01	-7.149221e+01
1.370000e-06	-2.139841e-06	-1.007484e-09	-1.486227e+01	-7.097879e+01
1.380000e-06	-2.096221e-06	-9.966073e-10	-1.455931e+01	-7.045407e+01
1.390000e-06	-2.052524e-06	-9.829028e-10	-1.425581e+01	-6.991756e+01
1.400000e-06	-2.008775e-06	-9.672766e-10	-1.395195e+01	-6.936883e+01
1.410000e-06	-1.964971e-06	-9.523237e-10	-1.364771e+01	-6.880747e+01
1.420000e-06	-1.921077e-06	-9.421040e-10	-1.334284e+01	-6.823314e+01
1.430000e-06	-1.877028e-06	-9.360795e-10	-1.303690e+01	-6.764558e+01
1.440000e-06	-1.832847e-06	-9.317511e-10	-1.273004e+01	-6.704457e+01
1.450000e-06	-1.788501e-06	-9.280380e-10	-1.242204e+01	-6.642994e+01
1.460000e-06	-1.744048e-06	-9.216412e-10	-1.211329e+01	-6.580159e+01
1.470000e-06	-1.699523e-06	-9.091782e-10	-1.180404e+01	-6.515947e+01
1.480000e-06	-1.654832e-06	-8.948448e-10	-1.149364e+01	-6.450358e+01
1.490000e-06	-1.610034e-06	-8.806148e-10	-1.118249e+01	-6.383396e+01
1.500000e-06	-1.565063e-06	-8.639989e-10	-1.087015e+01	-6.315067e+01
1.510000e-06	-1.519946e-06	-8.485210e-10	-1.055679e+01	-6.245378e+01
1.520000e-06	-1.474695e-06	-8.376858e-10	-1.024250e+01	-6.174341e+01
1.530000e-06	-1.429322e-06	-8.306178e-10	-9.927359e+00	-6.101963e+01
1.540000e-06	-1.383922e-06	-8.251201e-10	-9.612031e+00	-6.028251e+01
1.550000e-06	-1.338440e-06	-8.173599e-10	-9.296136e+00	-5.953210e+01
1.560000e-06	-1.292849e-06	-8.039016e-10	-8.979482e+00	-5.876840e+01
1.570000e-06	-1.247206e-06	-7.864748e-10	-8.662469e+00	-5.799134e+01
1.580000e-06	-1.201453e-06	-7.694792e-10	-8.344691e+00	-5.720080e+01
1.590000e-06	-1.155583e-06	-7.532206e-10	-8.026106e+00	-5.639656e+01
1.600000e-06	-1.109709e-06	-7.383740e-10	-7.707485e+00	-5.557833e+01
1.610000e-06	-1.063783e-06	-7.266860e-10	-7.388507e+00	-5.474570e+01
1.620000e-06	-1.017781e-06	-7.145890e-10	-7.068997e+00	-5.389814e+01
1.630000e-06	-9.716763e-07	-7.025915e-10	-6.748779e+00	-5.303502e+01
1.640000e-06	-9.255351e-07	-6.920738e-10	-6.428305e+00	-5.215559e+01
1.650000e-06	-8.793330e-07	-6.818871e-10	-6.107408e+00	-5.125896e+01
1.660000e-06	-8.329599e-07	-6.694340e-10	-5.785324e+00	-5.034414e+01
1.670000e-06	-7.865692e-07	-6.541093e-10	-5.463117e+00	-4.941000e+01
1.680000e-06	-7.402091e-07	-6.367562e-10	-5.141123e+00	-4.845530e+01
1.690000e-06	-6.937730e-07	-6.201375e-10	-4.818601e+00	-4.747869e+01
1.700000e-06	-6.472334e-07	-6.020884e-10	-4.495360e+00	-4.647873e+01
1.710000e-06	-6.006786e-07	-5.819822e-10	-4.172014e+00	-4.545389e+01
1.720000e-06	-5.540623e-07	-5.632590e-10	-3.848240e+00	-4.440257e+01
1.730000e-06	-5.073865e-07	-5.475462e-10	-3.524054e+00	-4.332312e+01
1.740000e-06	-4.606653e-07	-5.333232e-10	-3.199551e+00	-4.221385e+01
1.750000e-06	-4.138883e-07	-5.193316e-10	-2.874662e+00	-4.107308e+01
1.760000e-06	-3.670834e-07	-5.028075e-10	-2.549578e+00	-3.989910e+01
1.770000e-06	-3.201723e-07	-4.839714e-10	-2.223757e+00	-3.869026e+01
1.780000e-06	-2.732740e-07	-4.646981e-10	-1.898025e+00	-3.744495e+01
1.790000e-06	-2.263965e-07	-4.459042e-10	-1.572437e+00	-3.616165e+01
1.800000e-06	-1.795475e-07	-4.282820e-10	-1.247047e+00	-3.483894e+01
1.810000e-06	-1.326805e-07	-4.100694e-10	-9.215324e-01	-3.347551e+01
1.820000e-06	-8.569578e-08	-3.914695e-10	-5.952001e-01	-3.207023e+01
1.830000e-06	-3.878503e-08	-3.726235e-10	-2.693814e-01	-3.062212e+01
1.840000e-06	8.010789e-09	-3.527357e-10	5.563895e-02	-2.913038e+01
1.850000e-06	5.483701e-08	-3.331522e-10	3.808705e-01	-2.759445e+01
1.860000e-06	1.017279e-07	-3.146939e-10	7.065513e-01	-2.601397e+01
1.870000e-06	1.485577e-07	-2.943230e-10	1.031808e+00	-2.438883e+01
1.880000e-06	1.953734e-07	-2.712950e-10	1.356966e+00	-2.271916e+01
1.890000e-06	2.422223e-07	-2.457860e-10	1.682355e+00	-2.100538e+01
1.900000e-06	2.889751e-07	-2.191282e-10	2.007077e+00	-1.924813e+01
1.910000e-06	3.356831e-07	-1.918730e-10	2.331487e+00	-1.744837e+01
1.920000e-06	3.824108e-07	-1.648259e-10	2.656035e+00	-1.560727e+01
1.930000e-06	4.291299e-07	-1.395055e-10	2.980522e+00	-1.372633e+01
1.940000e-06	4.757759e-07	-1.163181e-10	3.304502e+00	-1.180725e+01
1.950000e-06	5.223573e-07	-9.292102e-11	3.628033e+00	-9.852023e+00
1.960000e-06	5.689412e-07	-6.741790e-11	3.951582e+00	-7.862856e+00
1.970000e-06	6.154403e-07	-3.960097e-11	4.274542e+00	-5.842187e+00
1.980000e-06	6.619061e-07	-1.066469e-11	4.597269e+00	-3.792663e+00
1.990000e-06	7.083850e-07	1.970054e-11	4.920089e+00	-1.717116e+00
2.000000e-06	7.547821e-07	5.155474e-11	5.242340e+00	3.814548e-01
2.010000e-06	8.011105e-07	8.361385e-11	5.564114e+00	2.499906e+00
2.020000e-06	8.473877e-07	1.163275e-10	5.885532e+00	4.634974e+00
2.030000e-06	8.936007e-07	1.477983e-10	6.206505e+00	6.783300e+00
2.040000e-06	9.397442e-07	1.764289e-10	6.526995e+00	8.941455e+00
2.050000e-06	9.857959e-07	2.026394e-10	6.846847e+00	1.110597e+01
2.060000e-06	1.031808e-06	2.285462e-10	7.166422e+00	1.327334e+01
2.070000e-06	1.077781e-06	2.564257e-10	7.485726e+00	1.544010e+01
2.080000e-06	1.123646e-06	2.847804e-10	7.804286e+00	1.760280e+01
2.090000e-06	1.169394e-06	3.138559e-10	8.122025e+00	1.975803e+01
2.100000e-06	1.215048e-06	3.451295e-10	8.439116e+00	2.190249e+01
2.110000e-06	1.260618e-06	3.766830e-10	8.755622e+00	2.403296e+01
2.120000e-06	1.306115e-06	4.071032e-10	9.071621e+00	2.614635e+01
2.130000e-06	1.351538e-06	4.361824e-10	9.387109e+00	2.823971e+01
2.140000e-06	1.396896e-06	4.614112e-10	9.702145e+00	3.031024e+01
2.150000e-06	1.442180e-06	4.835729e-10	1.001667e+01	3.235531e+01
2.160000e-06	1.487377e-06	5.051510e-10	1.033058e+01	3.437247e+01
2.170000e-06	1.532529e-06	5.285728e-10	1.064418e+01	3.635947e+01
2.180000e-06	1.577531e-06	5.568261e-10	1.095674e+01	3.831426e+01
2.190000e-06	1.622314e-06	5.877107e-10	1.126778e+01	4.023497e+01
2.200000e-06	1.666990e-06	6.184437e-10	1.157808e+01	4.211996e+01
2.210000e-06	1.711664e-06	6.480294e-10	1.188837e+01	4.396778e+01
2.220000e-06	1.756218e-06	6.745573e-10	1.219781e+01	4.577722e+01
2.230000e-06	1.800505e-06	6.962343e-10	1.250541e+01	4.754724e+01
2.240000e-06	1.844666e-06	7.147976e-10	1.281213e+01	4.927701e+01
2.250000e-06	1.888707e-06	7.308552e-10	1.311802e+01	5.096590e+01
2.260000e-06	1.932647e-06	7.501006e-10	1.342320e+01	5.261346e+01
2.270000e-06	1.976519e-06	7.725508e-10	1.372792e+01	5.421942e+01
2.280000e-06	2.020303e-06	7.954843e-10	1.403202e+01	5.578368e+01
2.290000e-06	2.064053e-06	8.193152e-10	1.433588e+01	5.730629e+01
2.300000e-06	2.107749e-06	8.433944e-10	1.463937e+01	5.878746e+01
2.310000e-06	2.151330e-06	8.669421e-10	1.494207e+01	6.022751e+01
2.320000e-06	2.194769e-06	8.867075e-10	1.524377e+01	6.162690e+01
2.330000e-06	2.238117e-06	9.023154e-10	1.554484e+01	6.298621e+01
2.340000e-06	2.281348e-06	9.156552e-10	1.584510e+01	6.430608e+01
2.350000e-06	2.324423e-06	9.301970e-10	1.614428e+01	6.558726e+01
2.360000e-06	2.367303e-06	9.455407e-10	1.644210e+01	6.683058e+01
2.370000e-06	2.410012e-06	9.619183e-10	1.673874e+01	6.803690e+01
2.380000e-06	2.452425e-06	9.785814e-10	1.703332e+01	6.920716e+01
2.390000e-06	2.494441e-06	9.941218e-10	1.732514e+01	7.034232e+01
2.400000e-06	2.536139e-06	1.009336e-09	1.761475e+01	7.144337e+01
2.410000e-06	2.577516e-06	1.024689e-09	1.790214e+01	7.251132e+01
2.420000e-06	2.618588e-06	1.039168e-09	1.818741e+01	7.354719e+01
2.430000e-06	2.659422e-06	1.053327e-09	1.847102e+01	7.455201e+01
2.440000e-06	2.700007e-06	1.066732e-09	1.875290e+01	7.552678e+01
2.450000e-06	2.740269e-06	1.079453e-09	1.903254e+01	7.647252e+01
2.460000e-06	2.780299e-06	1.090659e-09	1.931057e+01	7.739021e+01
2.470000e-06	2.820226e-06	1.102146e-09	1.958788e+01	7.828081e+01
2.480000e-06	2.860058e-06	1.114482e-09	1.986453e+01	7.914526e+01
2.490000e-06	2.899736e-06	1.126599e-09	2.014012e+01	7.998446e+01
2.500000e-06	2.939257e-06	1.139299e-09	2.041461e+01	8.079929e+01
2.510000e-06	2.978650e-06	1.154283e-09	2.068821e+01	8.159057e+01
2.520000e-06	3.017851e-06	1.167178e-09	2.096049e+01	8.235912e+01
2.530000e-06	3.056852e-06	1.178523e-09	2.123137e+01	8.310569e+01
2.540000e-06	3.095653e-06	1.188852e-09	2.150086e+01	8.383101e+01
2.550000e-06	3.134237e-06	1.195347e-09	2.176884e+01	8.453576e+01
2.560000e-06	3.172583e-06	1.200247e-09	2.203518e+01	8.522059e+01
2.570000e-06	3.210676e-06	1.206629e-09	2.229976e+01	8.588611e+01
2.580000e-06	3.248534e-06	1.216127e-09	2.256270e+01	8.653291e+01
2.590000e-06	3.286220e-06	1.226777e-09	2.282444e+01	8.716151e+01
2.600000e-06	3.323722e-06	1.240323e-09	2.308492e+01	8.777243e+01
2.610000e-06	3.360934e-06	1.254468e-09	2.334337e+01	8.836616e+01
2.620000e-06	3.397886e-06	1.266761e-09	2.360002e+01	8.894315e+01
2.630000e-06	3.434635e-06	1.275199e-09	2.385526e+01	8.950382e+01
2.640000e-06	3.471188e-06	1.282285e-09	2.410914e+01	9.004857e+01
2.650000e-06	3.507439e-06	1.287927e-09	2.436092e+01	9.057780e+01
2.660000e-06	3.543430e-06	1.293608e-09	2.461090e+01	9.109187e+01
2.670000e-06	3.579289e-06	1.300842e-09	2.485995e+01	9.159112e+01
2.680000e-06	3.614988e-06	1.308874e-09	2.510790e+01	9.207589e+01
2.690000e-06	3.650525e-06	1.317696e-09	2.535473e+01	9.254650e+01
2.700000e-06	3.685901e-06	1.326189e-09	2.560043e+01	9.300327e+01
2.710000e-06	3.721128e-06	1.332623e-09	2.584510e+01	9.344651e+01
2.720000e-06	3.756146e-06	1.338345e-09	2.608832e+01	9.387650e+01
2.730000e-06	3.790855e-06	1.343922e-09	2.632939e+01	9.429354e+01
2.740000e-06	3.825162e-06	1.350086e-09	2.656767e+01	9.469792e+01
2.750000e-06	3.859005e-06	1.354552e-09	2.680272e+01	9.508993e+01
2.760000e-06	3.892409e-06	1.358189e-09	2.703473e+01	9.546984e+01
2.770000e-06	3.925422e-06	1.363445e-09	2.726402e+01	9.583794e+01
2.780000e-06	3.958021e-06	1.369461e-09	2.749044e+01	9.619451e+01
2.790000e-06	3.990197e-06	1.376623e-09	2.771392e+01	9.653981e+01
2.800000e-06	4.022106e-06	1.384311e-09	2.793554e+01	9.687414e+01
2.810000e-06	4.053784e-06	1.390460e-09	2.815556e+01	9.719775e+01
2.820000e-06	4.085250e-06	1.394892e-09	2.837411e+01	9.751092e+01
2.830000e-06	4.116615e-06	1.398958e-09	2.859196e+01	9.781391e+01
2.840000e-06	4.147793e-06	1.401662e-09	2.880850e+01	9.810699e+01
2.850000e-06	4.178688e-06	1.404387e-09	2.902308e+01	9.839040e+01
2.860000e-06	4.209305e-06	1.408299e-09	2.923573e+01	9.866440e+01
2.870000e-06	4.239606e-06	1.412981e-09	2.944619e+01	9.892924e+01
2.880000e-06	4.269610e-06	1.416595e-09	2.965458e+01	9.918514e+01
2.890000e-06	4.299314e-06	1.420925e-09	2.986089e+01	9.943234e+01
2.900000e-06	4.328667e-06	1.427075e-09	3.006476e+01	9.967105e+01
