# Temperatura_=_-14.6
# Concentracion g/m^3_=_1620.0
# C_Vs_to_Am_M_A/Vsm_=_65563218390.804596
# pendiente_HvsI_1/m_=_3716.3
# ordenada_HvsI_A/m_=_1297.0
# frecuencia_Hz_=_135096.43091025896

Tiempo_(s)	Campo_(V.s)	Magnetizacion_(V.s)	Campo_(kA/m)	Magnetizacion_(A/m)
0.000000e+00	-5.528317e-06	-1.270480e-09	-3.836971e+01	-8.155180e+01
1.000000e-08	-5.528495e-06	-1.269778e-09	-3.837095e+01	-8.153802e+01
2.000000e-08	-5.528377e-06	-1.273730e-09	-3.837013e+01	-8.151899e+01
3.000000e-08	-5.527931e-06	-1.275922e-09	-3.836704e+01	-8.149433e+01
4.000000e-08	-5.527050e-06	-1.274598e-09	-3.836092e+01	-8.146372e+01
5.000000e-08	-5.525585e-06	-1.269775e-09	-3.835075e+01	-8.142696e+01
6.000000e-08	-5.523503e-06	-1.254499e-09	-3.833631e+01	-8.138393e+01
7.000000e-08	-5.520855e-06	-1.241284e-09	-3.831792e+01	-8.133461e+01
8.000000e-08	-5.517652e-06	-1.261588e-09	-3.829569e+01	-8.127909e+01
9.000000e-08	-5.513993e-06	-1.310062e-09	-3.827030e+01	-8.121758e+01
1.000000e-07	-5.509833e-06	-1.329617e-09	-3.824143e+01	-8.115035e+01
1.100000e-07	-5.505307e-06	-1.251750e-09	-3.821001e+01	-8.107780e+01
1.200000e-07	-5.500635e-06	-1.229937e-09	-3.817759e+01	-8.100041e+01
1.300000e-07	-5.495723e-06	-1.218703e-09	-3.814349e+01	-8.091874e+01
1.400000e-07	-5.490425e-06	-1.282431e-09	-3.810672e+01	-8.083340e+01
1.500000e-07	-5.484727e-06	-1.259668e-09	-3.806717e+01	-8.074509e+01
1.600000e-07	-5.478795e-06	-1.253348e-09	-3.802600e+01	-8.065454e+01
1.700000e-07	-5.472452e-06	-1.261432e-09	-3.798198e+01	-8.056250e+01
1.800000e-07	-5.465503e-06	-1.236665e-09	-3.793375e+01	-8.046976e+01
1.900000e-07	-5.458151e-06	-1.235032e-09	-3.788272e+01	-8.037708e+01
2.000000e-07	-5.450611e-06	-1.201023e-09	-3.783039e+01	-8.028525e+01
2.100000e-07	-5.442917e-06	-1.234732e-09	-3.777699e+01	-8.019499e+01
2.200000e-07	-5.434954e-06	-1.213323e-09	-3.772172e+01	-8.010701e+01
2.300000e-07	-5.426626e-06	-1.241846e-09	-3.766392e+01	-8.002194e+01
2.400000e-07	-5.417822e-06	-1.213138e-09	-3.760281e+01	-7.994036e+01
2.500000e-07	-5.408377e-06	-1.214953e-09	-3.753726e+01	-7.986276e+01
2.600000e-07	-5.398195e-06	-1.171252e-09	-3.746660e+01	-7.978956e+01
2.700000e-07	-5.387391e-06	-1.207437e-09	-3.739160e+01	-7.972108e+01
2.800000e-07	-5.376091e-06	-1.208756e-09	-3.731318e+01	-7.965754e+01
2.900000e-07	-5.364389e-06	-1.219594e-09	-3.723196e+01	-7.959905e+01
3.000000e-07	-5.352367e-06	-1.203787e-09	-3.714852e+01	-7.954564e+01
3.100000e-07	-5.340051e-06	-1.221377e-09	-3.706304e+01	-7.949722e+01
3.200000e-07	-5.327217e-06	-1.204133e-09	-3.697396e+01	-7.945361e+01
3.300000e-07	-5.313929e-06	-1.181155e-09	-3.688174e+01	-7.941453e+01
3.400000e-07	-5.300355e-06	-1.183690e-09	-3.678753e+01	-7.937962e+01
3.500000e-07	-5.286389e-06	-1.196307e-09	-3.669060e+01	-7.934844e+01
3.600000e-07	-5.271828e-06	-1.201509e-09	-3.658954e+01	-7.932049e+01
3.700000e-07	-5.256829e-06	-1.208916e-09	-3.648543e+01	-7.929520e+01
3.800000e-07	-5.241463e-06	-1.216844e-09	-3.637878e+01	-7.927196e+01
3.900000e-07	-5.225398e-06	-1.193768e-09	-3.626728e+01	-7.925013e+01
4.000000e-07	-5.208868e-06	-1.194401e-09	-3.615256e+01	-7.922906e+01
4.100000e-07	-5.192103e-06	-1.192486e-09	-3.603620e+01	-7.920808e+01
4.200000e-07	-5.175012e-06	-1.194265e-09	-3.591757e+01	-7.918652e+01
4.300000e-07	-5.157546e-06	-1.181825e-09	-3.579635e+01	-7.916377e+01
4.400000e-07	-5.139778e-06	-1.214416e-09	-3.567303e+01	-7.913922e+01
4.500000e-07	-5.121658e-06	-1.198598e-09	-3.554727e+01	-7.911231e+01
4.600000e-07	-5.103138e-06	-1.196601e-09	-3.541873e+01	-7.908254e+01
4.700000e-07	-5.084296e-06	-1.186480e-09	-3.528795e+01	-7.904947e+01
4.800000e-07	-5.065111e-06	-1.201247e-09	-3.515480e+01	-7.901273e+01
4.900000e-07	-5.045514e-06	-1.175159e-09	-3.501878e+01	-7.897204e+01
5.000000e-07	-5.025663e-06	-1.191755e-09	-3.488101e+01	-7.892718e+01
5.100000e-07	-5.005696e-06	-1.179580e-09	-3.474242e+01	-7.887802e+01
5.200000e-07	-4.985457e-06	-1.179111e-09	-3.460195e+01	-7.882451e+01
5.300000e-07	-4.964810e-06	-1.182258e-09	-3.445865e+01	-7.876669e+01
5.400000e-07	-4.943775e-06	-1.205320e-09	-3.431266e+01	-7.870467e+01
5.500000e-07	-4.922337e-06	-1.176245e-09	-3.416386e+01	-7.863862e+01
5.600000e-07	-4.900509e-06	-1.175580e-09	-3.401236e+01	-7.856880e+01
5.700000e-07	-4.878427e-06	-1.184237e-09	-3.385910e+01	-7.849551e+01
5.800000e-07	-4.856083e-06	-1.179540e-09	-3.370402e+01	-7.841911e+01
5.900000e-07	-4.833266e-06	-1.164354e-09	-3.354566e+01	-7.833999e+01
6.000000e-07	-4.810064e-06	-1.183446e-09	-3.338463e+01	-7.825858e+01
6.100000e-07	-4.786706e-06	-1.174137e-09	-3.322250e+01	-7.817531e+01
6.200000e-07	-4.763132e-06	-1.153953e-09	-3.305889e+01	-7.809065e+01
6.300000e-07	-4.739281e-06	-1.160967e-09	-3.289335e+01	-7.800502e+01
6.400000e-07	-4.715204e-06	-1.167395e-09	-3.272624e+01	-7.791887e+01
6.500000e-07	-4.690723e-06	-1.157935e-09	-3.255633e+01	-7.783260e+01
6.600000e-07	-4.665765e-06	-1.160795e-09	-3.238310e+01	-7.774658e+01
6.700000e-07	-4.640344e-06	-1.172864e-09	-3.220667e+01	-7.766114e+01
6.800000e-07	-4.614357e-06	-1.156957e-09	-3.202630e+01	-7.757657e+01
6.900000e-07	-4.587766e-06	-1.153633e-09	-3.184175e+01	-7.749307e+01
7.000000e-07	-4.560760e-06	-1.152862e-09	-3.165431e+01	-7.741081e+01
7.100000e-07	-4.533479e-06	-1.151067e-09	-3.146496e+01	-7.732989e+01
7.200000e-07	-4.505892e-06	-1.143726e-09	-3.127349e+01	-7.725033e+01
7.300000e-07	-4.478182e-06	-1.160069e-09	-3.108117e+01	-7.717210e+01
7.400000e-07	-4.450297e-06	-1.154669e-09	-3.088763e+01	-7.709509e+01
7.500000e-07	-4.422166e-06	-1.147093e-09	-3.069239e+01	-7.701913e+01
7.600000e-07	-4.393770e-06	-1.139229e-09	-3.049531e+01	-7.694399e+01
7.700000e-07	-4.365066e-06	-1.144766e-09	-3.029608e+01	-7.686938e+01
7.800000e-07	-4.336073e-06	-1.130329e-09	-3.009485e+01	-7.679497e+01
7.900000e-07	-4.306772e-06	-1.134313e-09	-2.989149e+01	-7.672038e+01
8.000000e-07	-4.277173e-06	-1.136557e-09	-2.968605e+01	-7.664520e+01
8.100000e-07	-4.247207e-06	-1.138567e-09	-2.947807e+01	-7.656900e+01
8.200000e-07	-4.216913e-06	-1.126946e-09	-2.926781e+01	-7.649132e+01
8.300000e-07	-4.186385e-06	-1.129791e-09	-2.905593e+01	-7.641170e+01
8.400000e-07	-4.155539e-06	-1.124760e-09	-2.884184e+01	-7.632968e+01
8.500000e-07	-4.124410e-06	-1.125422e-09	-2.862579e+01	-7.624482e+01
8.600000e-07	-4.093040e-06	-1.128004e-09	-2.840806e+01	-7.615668e+01
8.700000e-07	-4.061514e-06	-1.130460e-09	-2.818925e+01	-7.606486e+01
8.800000e-07	-4.029859e-06	-1.122293e-09	-2.796955e+01	-7.596900e+01
8.900000e-07	-3.997960e-06	-1.118948e-09	-2.774816e+01	-7.586877e+01
9.000000e-07	-3.965822e-06	-1.113601e-09	-2.752510e+01	-7.576390e+01
9.100000e-07	-3.933432e-06	-1.107148e-09	-2.730029e+01	-7.565416e+01
9.200000e-07	-3.900655e-06	-1.104816e-09	-2.707280e+01	-7.553938e+01
9.300000e-07	-3.867421e-06	-1.107895e-09	-2.684214e+01	-7.541945e+01
9.400000e-07	-3.833735e-06	-1.110392e-09	-2.660834e+01	-7.529431e+01
9.500000e-07	-3.799615e-06	-1.109096e-09	-2.637152e+01	-7.516398e+01
9.600000e-07	-3.765055e-06	-1.109270e-09	-2.613166e+01	-7.502850e+01
9.700000e-07	-3.730007e-06	-1.102118e-09	-2.588840e+01	-7.488799e+01
9.800000e-07	-3.694690e-06	-1.095160e-09	-2.564328e+01	-7.474263e+01
9.900000e-07	-3.659225e-06	-1.089955e-09	-2.539713e+01	-7.459263e+01
1.000000e-06	-3.623586e-06	-1.091854e-09	-2.514978e+01	-7.443823e+01
1.010000e-06	-3.587833e-06	-1.086218e-09	-2.490164e+01	-7.427974e+01
1.020000e-06	-3.551970e-06	-1.087197e-09	-2.465272e+01	-7.411745e+01
1.030000e-06	-3.515973e-06	-1.084777e-09	-2.440289e+01	-7.395171e+01
1.040000e-06	-3.479723e-06	-1.082670e-09	-2.415129e+01	-7.378286e+01
1.050000e-06	-3.443096e-06	-1.076412e-09	-2.389708e+01	-7.361126e+01
1.060000e-06	-3.406137e-06	-1.077192e-09	-2.364056e+01	-7.343725e+01
1.070000e-06	-3.368930e-06	-1.072414e-09	-2.338232e+01	-7.326116e+01
1.080000e-06	-3.331449e-06	-1.070649e-09	-2.312218e+01	-7.308332e+01
1.090000e-06	-3.293772e-06	-1.067448e-09	-2.286068e+01	-7.290401e+01
1.100000e-06	-3.255968e-06	-1.068233e-09	-2.259830e+01	-7.272348e+01
1.110000e-06	-3.217993e-06	-1.061034e-09	-2.233473e+01	-7.254195e+01
1.120000e-06	-3.179749e-06	-1.053111e-09	-2.206929e+01	-7.235959e+01
1.130000e-06	-3.141201e-06	-1.044589e-09	-2.180175e+01	-7.217651e+01
1.140000e-06	-3.102448e-06	-1.043050e-09	-2.153278e+01	-7.199279e+01
1.150000e-06	-3.063522e-06	-1.043938e-09	-2.126261e+01	-7.180842e+01
1.160000e-06	-3.024451e-06	-1.047157e-09	-2.099144e+01	-7.162336e+01
1.170000e-06	-2.985175e-06	-1.046108e-09	-2.071884e+01	-7.143750e+01
1.180000e-06	-2.945685e-06	-1.042122e-09	-2.044476e+01	-7.125066e+01
1.190000e-06	-2.906055e-06	-1.036980e-09	-2.016970e+01	-7.106262e+01
1.200000e-06	-2.866306e-06	-1.030813e-09	-1.989382e+01	-7.087309e+01
1.210000e-06	-2.826425e-06	-1.023228e-09	-1.961702e+01	-7.068173e+01
1.220000e-06	-2.786422e-06	-1.018888e-09	-1.933938e+01	-7.048815e+01
1.230000e-06	-2.746286e-06	-1.017974e-09	-1.906081e+01	-7.029191e+01
1.240000e-06	-2.705884e-06	-1.013895e-09	-1.878040e+01	-7.009254e+01
1.250000e-06	-2.665234e-06	-1.011042e-09	-1.849827e+01	-6.988951e+01
1.260000e-06	-2.624350e-06	-1.009433e-09	-1.821451e+01	-6.968230e+01
1.270000e-06	-2.583160e-06	-1.007432e-09	-1.792863e+01	-6.947033e+01
1.280000e-06	-2.541794e-06	-9.994337e-10	-1.764152e+01	-6.925303e+01
1.290000e-06	-2.500274e-06	-9.933082e-10	-1.735335e+01	-6.902980e+01
1.300000e-06	-2.458430e-06	-9.863297e-10	-1.706293e+01	-6.880005e+01
1.310000e-06	-2.416209e-06	-9.803011e-10	-1.676989e+01	-6.856320e+01
1.320000e-06	-2.373590e-06	-9.749407e-10	-1.647409e+01	-6.831868e+01
1.330000e-06	-2.330652e-06	-9.721356e-10	-1.617607e+01	-6.806592e+01
1.340000e-06	-2.287547e-06	-9.688614e-10	-1.587690e+01	-6.780440e+01
1.350000e-06	-2.244266e-06	-9.681155e-10	-1.557650e+01	-6.753362e+01
1.360000e-06	-2.200748e-06	-9.666362e-10	-1.527446e+01	-6.725311e+01
1.370000e-06	-2.157087e-06	-9.649450e-10	-1.497143e+01	-6.696245e+01
1.380000e-06	-2.113413e-06	-9.583020e-10	-1.466831e+01	-6.666125e+01
1.390000e-06	-2.069664e-06	-9.498294e-10	-1.436466e+01	-6.634918e+01
1.400000e-06	-2.025850e-06	-9.392548e-10	-1.406057e+01	-6.602595e+01
1.410000e-06	-1.981996e-06	-9.303524e-10	-1.375620e+01	-6.569132e+01
1.420000e-06	-1.937979e-06	-9.222287e-10	-1.345070e+01	-6.534511e+01
1.430000e-06	-1.893840e-06	-9.161261e-10	-1.314434e+01	-6.498718e+01
1.440000e-06	-1.849635e-06	-9.103194e-10	-1.283753e+01	-6.461743e+01
1.450000e-06	-1.805334e-06	-9.064104e-10	-1.253006e+01	-6.423581e+01
1.460000e-06	-1.760912e-06	-9.017265e-10	-1.222174e+01	-6.384231e+01
1.470000e-06	-1.716315e-06	-8.965954e-10	-1.191222e+01	-6.343697e+01
1.480000e-06	-1.671636e-06	-8.896780e-10	-1.160212e+01	-6.301983e+01
1.490000e-06	-1.626849e-06	-8.816023e-10	-1.129127e+01	-6.259097e+01
1.500000e-06	-1.581799e-06	-8.706798e-10	-1.097860e+01	-6.215050e+01
1.510000e-06	-1.536612e-06	-8.574873e-10	-1.066498e+01	-6.169851e+01
1.520000e-06	-1.491323e-06	-8.470852e-10	-1.035064e+01	-6.123510e+01
1.530000e-06	-1.445970e-06	-8.384231e-10	-1.003587e+01	-6.076037e+01
1.540000e-06	-1.400537e-06	-8.310498e-10	-9.720538e+00	-6.027438e+01
1.550000e-06	-1.354982e-06	-8.249420e-10	-9.404358e+00	-5.977719e+01
1.560000e-06	-1.309391e-06	-8.180737e-10	-9.087931e+00	-5.926879e+01
1.570000e-06	-1.263747e-06	-8.077962e-10	-8.771137e+00	-5.874914e+01
1.580000e-06	-1.217985e-06	-7.971785e-10	-8.453523e+00	-5.821815e+01
1.590000e-06	-1.172095e-06	-7.877668e-10	-8.135017e+00	-5.767564e+01
1.600000e-06	-1.126105e-06	-7.771013e-10	-7.815822e+00	-5.712138e+01
1.610000e-06	-1.080043e-06	-7.644465e-10	-7.496126e+00	-5.655502e+01
1.620000e-06	-1.033918e-06	-7.543857e-10	-7.175987e+00	-5.597617e+01
1.630000e-06	-9.877728e-07	-7.453082e-10	-6.855714e+00	-5.538432e+01
1.640000e-06	-9.416109e-07	-7.384280e-10	-6.535324e+00	-5.477884e+01
1.650000e-06	-8.953690e-07	-7.314662e-10	-6.214379e+00	-5.415903e+01
1.660000e-06	-8.490217e-07	-7.248262e-10	-5.892702e+00	-5.352407e+01
1.670000e-06	-8.026131e-07	-7.153455e-10	-5.570599e+00	-5.287304e+01
1.680000e-06	-7.562039e-07	-7.040130e-10	-5.248492e+00	-5.220492e+01
1.690000e-06	-7.097555e-07	-6.932487e-10	-4.926113e+00	-5.151858e+01
1.700000e-06	-6.632604e-07	-6.813021e-10	-4.603411e+00	-5.081280e+01
1.710000e-06	-6.166538e-07	-6.656166e-10	-4.279933e+00	-5.008628e+01
1.720000e-06	-5.699569e-07	-6.506256e-10	-3.955830e+00	-4.933763e+01
1.730000e-06	-5.232438e-07	-6.362074e-10	-3.631615e+00	-4.856540e+01
1.740000e-06	-4.764706e-07	-6.243237e-10	-3.306981e+00	-4.776808e+01
1.750000e-06	-4.296263e-07	-6.149564e-10	-2.981855e+00	-4.694412e+01
1.760000e-06	-3.827603e-07	-6.035927e-10	-2.656578e+00	-4.609194e+01
1.770000e-06	-3.358492e-07	-5.894454e-10	-2.330988e+00	-4.520996e+01
1.780000e-06	-2.889103e-07	-5.742456e-10	-2.005204e+00	-4.429659e+01
1.790000e-06	-2.419898e-07	-5.607946e-10	-1.679549e+00	-4.335027e+01
1.800000e-06	-1.950623e-07	-5.482367e-10	-1.353845e+00	-4.236950e+01
1.810000e-06	-1.481206e-07	-5.347647e-10	-1.028043e+00	-4.135283e+01
1.820000e-06	-1.011959e-07	-5.202363e-10	-7.023581e-01	-4.029890e+01
1.830000e-06	-5.430896e-08	-5.042241e-10	-3.769356e-01	-3.920645e+01
1.840000e-06	-7.426610e-09	-4.869897e-10	-5.154496e-02	-3.807434e+01
1.850000e-06	3.947947e-08	-4.706309e-10	2.740103e-01	-3.690160e+01
1.860000e-06	8.640103e-08	-4.558098e-10	5.996731e-01	-3.568738e+01
1.870000e-06	1.333452e-07	-4.411941e-10	9.254925e-01	-3.443104e+01
1.880000e-06	1.802503e-07	-4.265760e-10	1.251042e+00	-3.313212e+01
1.890000e-06	2.271813e-07	-4.093523e-10	1.576770e+00	-3.179036e+01
1.900000e-06	2.741194e-07	-3.872795e-10	1.902547e+00	-3.040572e+01
1.910000e-06	3.209483e-07	-3.653052e-10	2.227566e+00	-2.897839e+01
1.920000e-06	3.677460e-07	-3.426207e-10	2.552370e+00	-2.750878e+01
1.930000e-06	4.145427e-07	-3.201882e-10	2.877166e+00	-2.599757e+01
1.940000e-06	4.613376e-07	-2.993462e-10	3.201950e+00	-2.444565e+01
1.950000e-06	5.080636e-07	-2.802957e-10	3.526255e+00	-2.285414e+01
1.960000e-06	5.546562e-07	-2.613574e-10	3.849635e+00	-2.122443e+01
1.970000e-06	6.011680e-07	-2.420799e-10	4.172453e+00	-1.955810e+01
1.980000e-06	6.476606e-07	-2.199552e-10	4.495139e+00	-1.785699e+01
1.990000e-06	6.941992e-07	-1.942122e-10	4.818143e+00	-1.612311e+01
2.000000e-06	7.407725e-07	-1.675690e-10	5.141389e+00	-1.435868e+01
2.010000e-06	7.873017e-07	-1.420456e-10	5.464329e+00	-1.256611e+01
2.020000e-06	8.336969e-07	-1.156646e-10	5.786338e+00	-1.074796e+01
2.030000e-06	8.799768e-07	-8.838111e-11	6.107548e+00	-8.906934e+00
2.040000e-06	9.262035e-07	-6.193374e-11	6.428388e+00	-7.045852e+00
2.050000e-06	9.724448e-07	-3.675644e-11	6.749329e+00	-5.167639e+00
2.060000e-06	1.018714e-06	-1.237147e-11	7.070465e+00	-3.275293e+00
2.070000e-06	1.064901e-06	1.288502e-11	7.391025e+00	-1.371866e+00
2.080000e-06	1.110883e-06	3.877070e-11	7.710173e+00	5.395639e-01
2.090000e-06	1.156649e-06	6.665820e-11	8.027813e+00	2.455911e+00
2.100000e-06	1.202322e-06	9.553398e-11	8.344810e+00	4.374109e+00
2.110000e-06	1.247964e-06	1.227528e-10	8.661594e+00	6.291133e+00
2.120000e-06	1.293490e-06	1.488395e-10	8.977566e+00	8.204017e+00
2.130000e-06	1.338869e-06	1.757117e-10	9.292522e+00	1.010988e+01
2.140000e-06	1.384164e-06	2.012338e-10	9.606899e+00	1.200593e+01
2.150000e-06	1.429369e-06	2.251961e-10	9.920649e+00	1.388952e+01
2.160000e-06	1.474534e-06	2.496291e-10	1.023412e+01	1.575809e+01
2.170000e-06	1.519660e-06	2.731666e-10	1.054732e+01	1.760926e+01
2.180000e-06	1.564685e-06	2.960496e-10	1.085982e+01	1.944079e+01
2.190000e-06	1.609685e-06	3.215378e-10	1.117215e+01	2.125061e+01
2.200000e-06	1.654650e-06	3.490092e-10	1.148422e+01	2.303679e+01
2.210000e-06	1.699447e-06	3.771502e-10	1.179514e+01	2.479761e+01
2.220000e-06	1.744053e-06	4.039918e-10	1.210474e+01	2.653148e+01
2.230000e-06	1.788509e-06	4.278753e-10	1.241329e+01	2.823703e+01
2.240000e-06	1.832792e-06	4.491899e-10	1.272063e+01	2.991301e+01
2.250000e-06	1.876934e-06	4.665023e-10	1.302701e+01	3.155837e+01
2.260000e-06	1.920977e-06	4.835039e-10	1.333269e+01	3.317219e+01
2.270000e-06	1.964965e-06	5.057228e-10	1.363799e+01	3.475372e+01
2.280000e-06	2.008856e-06	5.286306e-10	1.394262e+01	3.630234e+01
2.290000e-06	2.052612e-06	5.539414e-10	1.424632e+01	3.781757e+01
2.300000e-06	2.096297e-06	5.786547e-10	1.454951e+01	3.929903e+01
2.310000e-06	2.139910e-06	5.993616e-10	1.485221e+01	4.074648e+01
2.320000e-06	2.183442e-06	6.154821e-10	1.515435e+01	4.215975e+01
2.330000e-06	2.226888e-06	6.293357e-10	1.545589e+01	4.353879e+01
2.340000e-06	2.270253e-06	6.445609e-10	1.575687e+01	4.488359e+01
2.350000e-06	2.313499e-06	6.624719e-10	1.605702e+01	4.619424e+01
2.360000e-06	2.356542e-06	6.817894e-10	1.635576e+01	4.747088e+01
2.370000e-06	2.399317e-06	7.001341e-10	1.665264e+01	4.871369e+01
2.380000e-06	2.441710e-06	7.182390e-10	1.694688e+01	4.992289e+01
2.390000e-06	2.483714e-06	7.334619e-10	1.723841e+01	5.109875e+01
2.400000e-06	2.525446e-06	7.485064e-10	1.752806e+01	5.224156e+01
2.410000e-06	2.566939e-06	7.643230e-10	1.781604e+01	5.335164e+01
2.420000e-06	2.608078e-06	7.773137e-10	1.810157e+01	5.442932e+01
2.430000e-06	2.648876e-06	7.898524e-10	1.838473e+01	5.547497e+01
2.440000e-06	2.689403e-06	8.033158e-10	1.866601e+01	5.648896e+01
2.450000e-06	2.729723e-06	8.171478e-10	1.894586e+01	5.747169e+01
2.460000e-06	2.769905e-06	8.331240e-10	1.922474e+01	5.842356e+01
2.470000e-06	2.809948e-06	8.463339e-10	1.950266e+01	5.934500e+01
2.480000e-06	2.849866e-06	8.586977e-10	1.977972e+01	6.023647e+01
2.490000e-06	2.889625e-06	8.703590e-10	2.005567e+01	6.109844e+01
2.500000e-06	2.929290e-06	8.806995e-10	2.033097e+01	6.193140e+01
2.510000e-06	2.968851e-06	8.918488e-10	2.060554e+01	6.273587e+01
2.520000e-06	3.008194e-06	9.024787e-10	2.087860e+01	6.351240e+01
2.530000e-06	3.047300e-06	9.137509e-10	2.115002e+01	6.426157e+01
2.540000e-06	3.086138e-06	9.280198e-10	2.141958e+01	6.498399e+01
2.550000e-06	3.124805e-06	9.413352e-10	2.168795e+01	6.568029e+01
2.560000e-06	3.163276e-06	9.497524e-10	2.195497e+01	6.635114e+01
2.570000e-06	3.201451e-06	9.566335e-10	2.221992e+01	6.699724e+01
2.580000e-06	3.239442e-06	9.623528e-10	2.248360e+01	6.761931e+01
2.590000e-06	3.277238e-06	9.657999e-10	2.274593e+01	6.821810e+01
2.600000e-06	3.314807e-06	9.722268e-10	2.300668e+01	6.879437e+01
2.610000e-06	3.352235e-06	9.823769e-10	2.326645e+01	6.934892e+01
2.620000e-06	3.389432e-06	9.956377e-10	2.352462e+01	6.988256e+01
2.630000e-06	3.426318e-06	1.006537e-09	2.378063e+01	7.039607e+01
2.640000e-06	3.462935e-06	1.014169e-09	2.403477e+01	7.089029e+01
2.650000e-06	3.499268e-06	1.019914e-09	2.428695e+01	7.136601e+01
2.660000e-06	3.535393e-06	1.022647e-09	2.453767e+01	7.182402e+01
2.670000e-06	3.571336e-06	1.023876e-09	2.478714e+01	7.226511e+01
2.680000e-06	3.607149e-06	1.025581e-09	2.503570e+01	7.269003e+01
2.690000e-06	3.642814e-06	1.032380e-09	2.528323e+01	7.309950e+01
2.700000e-06	3.678331e-06	1.041574e-09	2.552974e+01	7.349421e+01
2.710000e-06	3.713704e-06	1.048065e-09	2.577525e+01	7.387480e+01
2.720000e-06	3.748890e-06	1.052128e-09	2.601946e+01	7.424189e+01
2.730000e-06	3.783799e-06	1.055802e-09	2.626175e+01	7.459602e+01
2.740000e-06	3.818252e-06	1.060474e-09	2.650087e+01	7.493769e+01
2.750000e-06	3.852266e-06	1.065861e-09	2.673695e+01	7.526734e+01
2.760000e-06	3.885767e-06	1.073155e-09	2.696947e+01	7.558539e+01
2.770000e-06	3.918654e-06	1.081710e-09	2.719772e+01	7.589215e+01
2.780000e-06	3.951188e-06	1.088045e-09	2.742353e+01	7.618793e+01
2.790000e-06	3.983540e-06	1.092861e-09	2.764807e+01	7.647296e+01
2.800000e-06	4.015605e-06	1.096016e-09	2.787062e+01	7.674744e+01
2.810000e-06	4.047404e-06	1.098542e-09	2.809132e+01	7.701152e+01
2.820000e-06	4.079040e-06	1.100314e-09	2.831090e+01	7.726533e+01
2.830000e-06	4.110489e-06	1.105093e-09	2.852917e+01	7.750896e+01
2.840000e-06	4.141762e-06	1.111069e-09	2.874622e+01	7.774248e+01
2.850000e-06	4.172780e-06	1.115633e-09	2.896151e+01	7.796595e+01
2.860000e-06	4.203402e-06	1.121885e-09	2.917404e+01	7.817943e+01
2.870000e-06	4.233645e-06	1.126031e-09	2.938394e+01	7.838298e+01
2.880000e-06	4.263552e-06	1.127754e-09	2.959151e+01	7.857667e+01
2.890000e-06	4.293237e-06	1.126737e-09	2.979754e+01	7.876059e+01
2.900000e-06	4.322741e-06	1.126477e-09	3.000232e+01	7.893484e+01
