# Temperatura_=_5.33
# Concentracion g/m^3_=_1620.0
# C_Vs_to_Am_M_A/Vsm_=_65563218390.804596
# pendiente_HvsI_1/m_=_3716.3
# ordenada_HvsI_A/m_=_1297.0
# frecuencia_Hz_=_135108.14655599155

Tiempo_(s)	Campo_(V.s)	Magnetizacion_(V.s)	Campo_(kA/m)	Magnetizacion_(A/m)
0.000000e+00	-5.527160e-06	-1.533496e-09	-3.835723e+01	-1.001726e+02
1.000000e-08	-5.527239e-06	-1.535260e-09	-3.835778e+01	-1.001062e+02
2.000000e-08	-5.527084e-06	-1.536754e-09	-3.835670e+01	-1.000377e+02
3.000000e-08	-5.526506e-06	-1.538082e-09	-3.835269e+01	-9.996769e+01
4.000000e-08	-5.525345e-06	-1.535759e-09	-3.834463e+01	-9.989654e+01
5.000000e-08	-5.523653e-06	-1.526620e-09	-3.833289e+01	-9.982476e+01
6.000000e-08	-5.521402e-06	-1.517127e-09	-3.831727e+01	-9.975287e+01
7.000000e-08	-5.518583e-06	-1.537072e-09	-3.829771e+01	-9.968141e+01
8.000000e-08	-5.515243e-06	-1.568037e-09	-3.827452e+01	-9.961089e+01
9.000000e-08	-5.511396e-06	-1.550006e-09	-3.824783e+01	-9.954185e+01
1.000000e-07	-5.507110e-06	-1.524126e-09	-3.821808e+01	-9.947476e+01
1.100000e-07	-5.502553e-06	-1.548694e-09	-3.818646e+01	-9.941009e+01
1.200000e-07	-5.497786e-06	-1.551481e-09	-3.815338e+01	-9.934824e+01
1.300000e-07	-5.492702e-06	-1.504200e-09	-3.811810e+01	-9.928955e+01
1.400000e-07	-5.487276e-06	-1.489794e-09	-3.808044e+01	-9.923431e+01
1.500000e-07	-5.481518e-06	-1.544433e-09	-3.804048e+01	-9.918269e+01
1.600000e-07	-5.475371e-06	-1.574885e-09	-3.799783e+01	-9.913481e+01
1.700000e-07	-5.468825e-06	-1.512199e-09	-3.795239e+01	-9.909068e+01
1.800000e-07	-5.461911e-06	-1.481392e-09	-3.790441e+01	-9.905021e+01
1.900000e-07	-5.454665e-06	-1.527090e-09	-3.785413e+01	-9.901322e+01
2.000000e-07	-5.447088e-06	-1.537171e-09	-3.780155e+01	-9.897941e+01
2.100000e-07	-5.439252e-06	-1.508837e-09	-3.774717e+01	-9.894842e+01
2.200000e-07	-5.431184e-06	-1.497240e-09	-3.769118e+01	-9.891975e+01
2.300000e-07	-5.422782e-06	-1.552180e-09	-3.763287e+01	-9.889284e+01
2.400000e-07	-5.413808e-06	-1.553503e-09	-3.757059e+01	-9.886706e+01
2.500000e-07	-5.404063e-06	-1.518853e-09	-3.750296e+01	-9.884166e+01
2.600000e-07	-5.393647e-06	-1.495662e-09	-3.743068e+01	-9.881590e+01
2.700000e-07	-5.382698e-06	-1.515119e-09	-3.735470e+01	-9.878892e+01
2.800000e-07	-5.371287e-06	-1.524467e-09	-3.727550e+01	-9.875989e+01
2.900000e-07	-5.359550e-06	-1.514686e-09	-3.719405e+01	-9.872791e+01
3.000000e-07	-5.347516e-06	-1.500181e-09	-3.711054e+01	-9.869211e+01
3.100000e-07	-5.334974e-06	-1.502120e-09	-3.702350e+01	-9.865162e+01
3.200000e-07	-5.321930e-06	-1.512164e-09	-3.693298e+01	-9.860557e+01
3.300000e-07	-5.308562e-06	-1.495759e-09	-3.684021e+01	-9.855317e+01
3.400000e-07	-5.294880e-06	-1.479584e-09	-3.674526e+01	-9.849366e+01
3.500000e-07	-5.280816e-06	-1.496332e-09	-3.664765e+01	-9.842635e+01
3.600000e-07	-5.266306e-06	-1.518123e-09	-3.654696e+01	-9.835062e+01
3.700000e-07	-5.251211e-06	-1.484684e-09	-3.644220e+01	-9.826595e+01
3.800000e-07	-5.235493e-06	-1.479982e-09	-3.633313e+01	-9.817193e+01
3.900000e-07	-5.219347e-06	-1.509891e-09	-3.622108e+01	-9.806822e+01
4.000000e-07	-5.202882e-06	-1.484836e-09	-3.610681e+01	-9.795461e+01
4.100000e-07	-5.186052e-06	-1.439143e-09	-3.599002e+01	-9.783101e+01
4.200000e-07	-5.168855e-06	-1.492619e-09	-3.587067e+01	-9.769742e+01
4.300000e-07	-5.151348e-06	-1.518828e-09	-3.574918e+01	-9.755396e+01
4.400000e-07	-5.133542e-06	-1.456183e-09	-3.562561e+01	-9.740088e+01
4.500000e-07	-5.115264e-06	-1.457265e-09	-3.549876e+01	-9.723850e+01
4.600000e-07	-5.096497e-06	-1.520488e-09	-3.536852e+01	-9.706725e+01
4.700000e-07	-5.077411e-06	-1.461313e-09	-3.523607e+01	-9.688767e+01
4.800000e-07	-5.058036e-06	-1.415961e-09	-3.510161e+01	-9.670033e+01
4.900000e-07	-5.038457e-06	-1.478192e-09	-3.496574e+01	-9.650591e+01
5.000000e-07	-5.018674e-06	-1.475369e-09	-3.482845e+01	-9.630512e+01
5.100000e-07	-4.998589e-06	-1.401974e-09	-3.468907e+01	-9.609872e+01
5.200000e-07	-4.978150e-06	-1.450351e-09	-3.454722e+01	-9.588749e+01
5.300000e-07	-4.957336e-06	-1.486910e-09	-3.440278e+01	-9.567224e+01
5.400000e-07	-4.936150e-06	-1.414075e-09	-3.425576e+01	-9.545375e+01
5.500000e-07	-4.914636e-06	-1.412939e-09	-3.410645e+01	-9.523281e+01
5.600000e-07	-4.892843e-06	-1.477519e-09	-3.395521e+01	-9.501018e+01
5.700000e-07	-4.870649e-06	-1.429471e-09	-3.380119e+01	-9.478656e+01
5.800000e-07	-4.848093e-06	-1.390939e-09	-3.364465e+01	-9.456262e+01
5.900000e-07	-4.825274e-06	-1.446662e-09	-3.348630e+01	-9.433896e+01
6.000000e-07	-4.802197e-06	-1.434558e-09	-3.332615e+01	-9.411610e+01
6.100000e-07	-4.778841e-06	-1.376937e-09	-3.316407e+01	-9.389452e+01
6.200000e-07	-4.755211e-06	-1.408426e-09	-3.300008e+01	-9.367456e+01
6.300000e-07	-4.731279e-06	-1.428118e-09	-3.283400e+01	-9.345653e+01
6.400000e-07	-4.706981e-06	-1.383739e-09	-3.266537e+01	-9.324060e+01
6.500000e-07	-4.682341e-06	-1.396328e-09	-3.249437e+01	-9.302690e+01
6.600000e-07	-4.657161e-06	-1.422547e-09	-3.231963e+01	-9.281542e+01
6.700000e-07	-4.631424e-06	-1.386889e-09	-3.214102e+01	-9.260610e+01
6.800000e-07	-4.605322e-06	-1.370581e-09	-3.195988e+01	-9.239878e+01
6.900000e-07	-4.578753e-06	-1.394875e-09	-3.177550e+01	-9.219324e+01
7.000000e-07	-4.551769e-06	-1.375822e-09	-3.158824e+01	-9.198917e+01
7.100000e-07	-4.524481e-06	-1.362231e-09	-3.139887e+01	-9.178621e+01
7.200000e-07	-4.496918e-06	-1.385983e-09	-3.120758e+01	-9.158394e+01
7.300000e-07	-4.469183e-06	-1.389361e-09	-3.101511e+01	-9.138189e+01
7.400000e-07	-4.441245e-06	-1.368808e-09	-3.082122e+01	-9.117958e+01
7.500000e-07	-4.413032e-06	-1.374869e-09	-3.062543e+01	-9.097647e+01
7.600000e-07	-4.384572e-06	-1.373255e-09	-3.042793e+01	-9.077202e+01
7.700000e-07	-4.355732e-06	-1.356518e-09	-3.022778e+01	-9.056570e+01
7.800000e-07	-4.326465e-06	-1.355268e-09	-3.002468e+01	-9.035695e+01
7.900000e-07	-4.296967e-06	-1.362409e-09	-2.981997e+01	-9.014526e+01
8.000000e-07	-4.267212e-06	-1.349713e-09	-2.961348e+01	-8.993010e+01
8.100000e-07	-4.237168e-06	-1.347854e-09	-2.940498e+01	-8.971102e+01
8.200000e-07	-4.206868e-06	-1.353248e-09	-2.919470e+01	-8.948755e+01
8.300000e-07	-4.176187e-06	-1.342401e-09	-2.898179e+01	-8.925931e+01
8.400000e-07	-4.145131e-06	-1.331432e-09	-2.876626e+01	-8.902595e+01
8.500000e-07	-4.113889e-06	-1.339512e-09	-2.854945e+01	-8.878716e+01
8.600000e-07	-4.082465e-06	-1.336025e-09	-2.833138e+01	-8.854269e+01
8.700000e-07	-4.050844e-06	-1.321909e-09	-2.811193e+01	-8.829236e+01
8.800000e-07	-4.019113e-06	-1.320652e-09	-2.789172e+01	-8.803602e+01
8.900000e-07	-3.987214e-06	-1.317502e-09	-2.767035e+01	-8.777361e+01
9.000000e-07	-3.954994e-06	-1.303448e-09	-2.744675e+01	-8.750509e+01
9.100000e-07	-3.922390e-06	-1.300233e-09	-2.722049e+01	-8.723050e+01
9.200000e-07	-3.889378e-06	-1.304478e-09	-2.699139e+01	-8.694992e+01
9.300000e-07	-3.855820e-06	-1.294417e-09	-2.675851e+01	-8.666347e+01
9.400000e-07	-3.821784e-06	-1.286570e-09	-2.652231e+01	-8.637132e+01
9.500000e-07	-3.787346e-06	-1.287609e-09	-2.628331e+01	-8.607367e+01
9.600000e-07	-3.752467e-06	-1.277514e-09	-2.604126e+01	-8.577077e+01
9.700000e-07	-3.717264e-06	-1.259704e-09	-2.579696e+01	-8.546287e+01
9.800000e-07	-3.681897e-06	-1.257185e-09	-2.555153e+01	-8.515026e+01
9.900000e-07	-3.646397e-06	-1.256282e-09	-2.530516e+01	-8.483323e+01
1.000000e-06	-3.610719e-06	-1.247750e-09	-2.505757e+01	-8.451211e+01
1.010000e-06	-3.574869e-06	-1.242476e-09	-2.480877e+01	-8.418718e+01
1.020000e-06	-3.538889e-06	-1.242146e-09	-2.455908e+01	-8.385877e+01
1.030000e-06	-3.502757e-06	-1.231373e-09	-2.430833e+01	-8.352717e+01
1.040000e-06	-3.466362e-06	-1.222674e-09	-2.405576e+01	-8.319267e+01
1.050000e-06	-3.429703e-06	-1.220581e-09	-2.380135e+01	-8.285553e+01
1.060000e-06	-3.392780e-06	-1.214406e-09	-2.354512e+01	-8.251599e+01
1.070000e-06	-3.355503e-06	-1.203260e-09	-2.328643e+01	-8.217426e+01
1.080000e-06	-3.317913e-06	-1.199652e-09	-2.302556e+01	-8.183054e+01
1.090000e-06	-3.280145e-06	-1.193454e-09	-2.276346e+01	-8.148496e+01
1.100000e-06	-3.242261e-06	-1.180356e-09	-2.250055e+01	-8.113763e+01
1.110000e-06	-3.204158e-06	-1.170082e-09	-2.223612e+01	-8.078861e+01
1.120000e-06	-3.165793e-06	-1.164115e-09	-2.196988e+01	-8.043794e+01
1.130000e-06	-3.127184e-06	-1.154096e-09	-2.170194e+01	-8.008558e+01
1.140000e-06	-3.088323e-06	-1.149114e-09	-2.143226e+01	-7.973147e+01
1.150000e-06	-3.049307e-06	-1.151262e-09	-2.116150e+01	-7.937549e+01
1.160000e-06	-3.010060e-06	-1.147368e-09	-2.088913e+01	-7.901749e+01
1.170000e-06	-2.970583e-06	-1.138895e-09	-2.061517e+01	-7.865724e+01
1.180000e-06	-2.930996e-06	-1.132290e-09	-2.034044e+01	-7.829450e+01
1.190000e-06	-2.891337e-06	-1.126893e-09	-2.006522e+01	-7.792897e+01
1.200000e-06	-2.851568e-06	-1.118474e-09	-1.978923e+01	-7.756032e+01
1.210000e-06	-2.811650e-06	-1.111509e-09	-1.951221e+01	-7.718815e+01
1.220000e-06	-2.771591e-06	-1.106645e-09	-1.923421e+01	-7.681206e+01
1.230000e-06	-2.731344e-06	-1.097509e-09	-1.895490e+01	-7.643159e+01
1.240000e-06	-2.690952e-06	-1.089440e-09	-1.867459e+01	-7.604628e+01
1.250000e-06	-2.650397e-06	-1.085840e-09	-1.839315e+01	-7.565561e+01
1.260000e-06	-2.609505e-06	-1.082336e-09	-1.810937e+01	-7.525907e+01
1.270000e-06	-2.568251e-06	-1.076570e-09	-1.782308e+01	-7.485612e+01
1.280000e-06	-2.526675e-06	-1.068915e-09	-1.753455e+01	-7.444622e+01
1.290000e-06	-2.484798e-06	-1.059419e-09	-1.724393e+01	-7.402881e+01
1.300000e-06	-2.442697e-06	-1.046869e-09	-1.695176e+01	-7.360336e+01
1.310000e-06	-2.400331e-06	-1.035964e-09	-1.665775e+01	-7.316933e+01
1.320000e-06	-2.357618e-06	-1.027823e-09	-1.636133e+01	-7.272620e+01
1.330000e-06	-2.314600e-06	-1.022142e-09	-1.606280e+01	-7.227347e+01
1.340000e-06	-2.271346e-06	-1.016228e-09	-1.576262e+01	-7.181067e+01
1.350000e-06	-2.227932e-06	-1.012335e-09	-1.546134e+01	-7.133735e+01
1.360000e-06	-2.184432e-06	-1.006949e-09	-1.515946e+01	-7.085312e+01
1.370000e-06	-2.140856e-06	-9.970590e-10	-1.485705e+01	-7.035761e+01
1.380000e-06	-2.097197e-06	-9.858859e-10	-1.455407e+01	-6.985050e+01
1.390000e-06	-2.053465e-06	-9.739502e-10	-1.425058e+01	-6.933154e+01
1.400000e-06	-2.009688e-06	-9.604923e-10	-1.394678e+01	-6.880051e+01
1.410000e-06	-1.965845e-06	-9.480769e-10	-1.364252e+01	-6.825723e+01
1.420000e-06	-1.921946e-06	-9.388132e-10	-1.333786e+01	-6.770160e+01
1.430000e-06	-1.877997e-06	-9.325681e-10	-1.303287e+01	-6.713356e+01
1.440000e-06	-1.833897e-06	-9.265770e-10	-1.272682e+01	-6.655310e+01
1.450000e-06	-1.789588e-06	-9.206906e-10	-1.241933e+01	-6.596024e+01
1.460000e-06	-1.745123e-06	-9.124023e-10	-1.211075e+01	-6.535507e+01
1.470000e-06	-1.700484e-06	-9.008423e-10	-1.180097e+01	-6.473767e+01
1.480000e-06	-1.655695e-06	-8.882282e-10	-1.149014e+01	-6.410820e+01
1.490000e-06	-1.610757e-06	-8.772832e-10	-1.117829e+01	-6.346678e+01
1.500000e-06	-1.565664e-06	-8.651969e-10	-1.086535e+01	-6.281359e+01
1.510000e-06	-1.520499e-06	-8.531343e-10	-1.055191e+01	-6.214877e+01
1.520000e-06	-1.475242e-06	-8.436575e-10	-1.023784e+01	-6.147246e+01
1.530000e-06	-1.429875e-06	-8.348226e-10	-9.923005e+00	-6.078478e+01
1.540000e-06	-1.384339e-06	-8.266413e-10	-9.606997e+00	-6.008580e+01
1.550000e-06	-1.338670e-06	-8.174411e-10	-9.290066e+00	-5.937554e+01
1.560000e-06	-1.292965e-06	-8.051092e-10	-8.972882e+00	-5.865396e+01
1.570000e-06	-1.247206e-06	-7.901465e-10	-8.655322e+00	-5.792095e+01
1.580000e-06	-1.201418e-06	-7.768212e-10	-8.337565e+00	-5.717629e+01
1.590000e-06	-1.155601e-06	-7.644742e-10	-8.019607e+00	-5.641968e+01
1.600000e-06	-1.109687e-06	-7.502507e-10	-7.700977e+00	-5.565071e+01
1.610000e-06	-1.063671e-06	-7.366006e-10	-7.381633e+00	-5.486884e+01
1.620000e-06	-1.017576e-06	-7.247084e-10	-7.061745e+00	-5.407342e+01
1.630000e-06	-9.714454e-07	-7.131609e-10	-6.741609e+00	-5.326365e+01
1.640000e-06	-9.252229e-07	-7.021751e-10	-6.420836e+00	-5.243863e+01
1.650000e-06	-8.788490e-07	-6.917699e-10	-6.099011e+00	-5.159730e+01
1.660000e-06	-8.324137e-07	-6.794753e-10	-5.776761e+00	-5.073847e+01
1.670000e-06	-7.859485e-07	-6.643585e-10	-5.454303e+00	-4.986083e+01
1.680000e-06	-7.394730e-07	-6.487347e-10	-5.131774e+00	-4.896296e+01
1.690000e-06	-6.929556e-07	-6.326610e-10	-4.808953e+00	-4.804331e+01
1.700000e-06	-6.463714e-07	-6.145404e-10	-4.485669e+00	-4.710024e+01
1.710000e-06	-5.997131e-07	-5.944005e-10	-4.161872e+00	-4.613201e+01
1.720000e-06	-5.530723e-07	-5.756446e-10	-3.838195e+00	-4.513684e+01
1.730000e-06	-5.063939e-07	-5.603227e-10	-3.514258e+00	-4.411287e+01
1.740000e-06	-4.596392e-07	-5.479134e-10	-3.189791e+00	-4.305824e+01
1.750000e-06	-4.129599e-07	-5.340622e-10	-2.865847e+00	-4.197105e+01
1.760000e-06	-3.662880e-07	-5.170896e-10	-2.541955e+00	-4.084945e+01
1.770000e-06	-3.194991e-07	-4.983455e-10	-2.217251e+00	-3.969161e+01
1.780000e-06	-2.725713e-07	-4.796113e-10	-1.891582e+00	-3.849578e+01
1.790000e-06	-2.256680e-07	-4.621556e-10	-1.566084e+00	-3.726030e+01
1.800000e-06	-1.788613e-07	-4.436232e-10	-1.241257e+00	-3.598364e+01
1.810000e-06	-1.319892e-07	-4.251502e-10	-9.159746e-01	-3.466439e+01
1.820000e-06	-8.502571e-08	-4.080190e-10	-5.900590e-01	-3.330135e+01
1.830000e-06	-3.808259e-08	-3.893124e-10	-2.642845e-01	-3.189349e+01
1.840000e-06	8.786946e-09	-3.699849e-10	6.097940e-02	-3.043998e+01
1.850000e-06	5.564013e-08	-3.514870e-10	3.861298e-01	-2.894027e+01
1.860000e-06	1.025696e-07	-3.319913e-10	7.118097e-01	-2.739403e+01
1.870000e-06	1.495155e-07	-3.107113e-10	1.037603e+00	-2.580120e+01
1.880000e-06	1.963913e-07	-2.882717e-10	1.362911e+00	-2.416201e+01
1.890000e-06	2.432480e-07	-2.634821e-10	1.688086e+00	-2.247697e+01
1.900000e-06	2.901071e-07	-2.362825e-10	2.013277e+00	-2.074688e+01
1.910000e-06	3.369469e-07	-2.090130e-10	2.338335e+00	-1.897284e+01
1.920000e-06	3.837689e-07	-1.836729e-10	2.663269e+00	-1.715625e+01
1.930000e-06	4.305569e-07	-1.608976e-10	2.987966e+00	-1.529876e+01
1.940000e-06	4.772647e-07	-1.380861e-10	3.312108e+00	-1.340234e+01
1.950000e-06	5.239462e-07	-1.145266e-10	3.636067e+00	-1.146919e+01
1.960000e-06	5.705791e-07	-9.091640e-11	3.959688e+00	-9.501766e+00
1.970000e-06	6.171073e-07	-6.508586e-11	4.282583e+00	-7.502763e+00
1.980000e-06	6.636179e-07	-3.737262e-11	4.605357e+00	-5.475073e+00
1.990000e-06	7.101140e-07	-8.173177e-12	4.928029e+00	-3.421771e+00
2.000000e-06	7.565366e-07	1.993872e-11	5.250191e+00	-1.346088e+00
2.010000e-06	8.028569e-07	4.673319e-11	5.571643e+00	7.486122e-01
2.020000e-06	8.491418e-07	7.568132e-11	5.892850e+00	2.858870e+00
2.030000e-06	8.954332e-07	1.077705e-10	6.214102e+00	4.981155e+00
2.040000e-06	9.416622e-07	1.385020e-10	6.534920e+00	7.111895e+00
2.050000e-06	9.877334e-07	1.670720e-10	6.854644e+00	9.247508e+00
2.060000e-06	1.033668e-06	1.954906e-10	7.173418e+00	1.138443e+01
2.070000e-06	1.079543e-06	2.219401e-10	7.491783e+00	1.351915e+01
2.080000e-06	1.125369e-06	2.485100e-10	7.809802e+00	1.564822e+01
2.090000e-06	1.171096e-06	2.776035e-10	8.127136e+00	1.776831e+01
2.100000e-06	1.216798e-06	3.099830e-10	8.444300e+00	1.987619e+01
2.110000e-06	1.262487e-06	3.415646e-10	8.761372e+00	2.196879e+01
2.120000e-06	1.308054e-06	3.705908e-10	9.077593e+00	2.404320e+01
2.130000e-06	1.353449e-06	3.974877e-10	9.392628e+00	2.609669e+01
2.140000e-06	1.398771e-06	4.220387e-10	9.707154e+00	2.812671e+01
2.150000e-06	1.444090e-06	4.447560e-10	1.002165e+01	3.013092e+01
2.160000e-06	1.489276e-06	4.670691e-10	1.033523e+01	3.210719e+01
2.170000e-06	1.534358e-06	4.917915e-10	1.064809e+01	3.405360e+01
2.180000e-06	1.579441e-06	5.206943e-10	1.096096e+01	3.596844e+01
2.190000e-06	1.624415e-06	5.499427e-10	1.127307e+01	3.785021e+01
2.200000e-06	1.669169e-06	5.794258e-10	1.158365e+01	3.969764e+01
2.210000e-06	1.713736e-06	6.080735e-10	1.189294e+01	4.150964e+01
2.220000e-06	1.758156e-06	6.333217e-10	1.220120e+01	4.328532e+01
2.230000e-06	1.802468e-06	6.557445e-10	1.250872e+01	4.502397e+01
2.240000e-06	1.846663e-06	6.746823e-10	1.281542e+01	4.672506e+01
2.250000e-06	1.890771e-06	6.912978e-10	1.312152e+01	4.838823e+01
2.260000e-06	1.934754e-06	7.090987e-10	1.342675e+01	5.001325e+01
2.270000e-06	1.978636e-06	7.291718e-10	1.373128e+01	5.160004e+01
2.280000e-06	2.022447e-06	7.505095e-10	1.403532e+01	5.314861e+01
2.290000e-06	2.066133e-06	7.741012e-10	1.433849e+01	5.465912e+01
2.300000e-06	2.109754e-06	7.987886e-10	1.464121e+01	5.613178e+01
2.310000e-06	2.153351e-06	8.215178e-10	1.494376e+01	5.756691e+01
2.320000e-06	2.196927e-06	8.414694e-10	1.524617e+01	5.896488e+01
2.330000e-06	2.240405e-06	8.572077e-10	1.554790e+01	6.032612e+01
2.340000e-06	2.283718e-06	8.715106e-10	1.584848e+01	6.165110e+01
2.350000e-06	2.326842e-06	8.847792e-10	1.614775e+01	6.294034e+01
2.360000e-06	2.369675e-06	8.973528e-10	1.644501e+01	6.419436e+01
2.370000e-06	2.412235e-06	9.136374e-10	1.674036e+01	6.541374e+01
2.380000e-06	2.454541e-06	9.338048e-10	1.703395e+01	6.659904e+01
2.390000e-06	2.496556e-06	9.545307e-10	1.732553e+01	6.775085e+01
2.400000e-06	2.538329e-06	9.736652e-10	1.761542e+01	6.886978e+01
2.410000e-06	2.579756e-06	9.906063e-10	1.790292e+01	6.995643e+01
2.420000e-06	2.620834e-06	1.002756e-09	1.818799e+01	7.101141e+01
2.430000e-06	2.661653e-06	1.013975e-09	1.847126e+01	7.203534e+01
2.440000e-06	2.702242e-06	1.025535e-09	1.875294e+01	7.302885e+01
2.450000e-06	2.742580e-06	1.040345e-09	1.903288e+01	7.399257e+01
2.460000e-06	2.782679e-06	1.057063e-09	1.931115e+01	7.492715e+01
2.470000e-06	2.822620e-06	1.071774e-09	1.958833e+01	7.583324e+01
2.480000e-06	2.862446e-06	1.085978e-09	1.986472e+01	7.671151e+01
2.490000e-06	2.902146e-06	1.099793e-09	2.014023e+01	7.756264e+01
2.500000e-06	2.941748e-06	1.112409e-09	2.041506e+01	7.838733e+01
2.510000e-06	2.981258e-06	1.124112e-09	2.068925e+01	7.918628e+01
2.520000e-06	3.020551e-06	1.133816e-09	2.096193e+01	7.996021e+01
2.530000e-06	3.059584e-06	1.144829e-09	2.123281e+01	8.070987e+01
2.540000e-06	3.098372e-06	1.154881e-09	2.150199e+01	8.143599e+01
2.550000e-06	3.137005e-06	1.163690e-09	2.177010e+01	8.213933e+01
2.560000e-06	3.175433e-06	1.172009e-09	2.203678e+01	8.282066e+01
2.570000e-06	3.213610e-06	1.179374e-09	2.230172e+01	8.348072e+01
2.580000e-06	3.251564e-06	1.187090e-09	2.256511e+01	8.412029e+01
2.590000e-06	3.289290e-06	1.195201e-09	2.282692e+01	8.474011e+01
2.600000e-06	3.326803e-06	1.204695e-09	2.308725e+01	8.534093e+01
2.610000e-06	3.364050e-06	1.214450e-09	2.334574e+01	8.592348e+01
2.620000e-06	3.401072e-06	1.225840e-09	2.360266e+01	8.648847e+01
2.630000e-06	3.437943e-06	1.235886e-09	2.385854e+01	8.703656e+01
2.640000e-06	3.474581e-06	1.242598e-09	2.411280e+01	8.756842e+01
2.650000e-06	3.510905e-06	1.247567e-09	2.436488e+01	8.808465e+01
2.660000e-06	3.546964e-06	1.252343e-09	2.461512e+01	8.858583e+01
2.670000e-06	3.582830e-06	1.256450e-09	2.486402e+01	8.907248e+01
2.680000e-06	3.618530e-06	1.261116e-09	2.511177e+01	8.954510e+01
2.690000e-06	3.654098e-06	1.268565e-09	2.535860e+01	9.000413e+01
2.700000e-06	3.689548e-06	1.277503e-09	2.560462e+01	9.044995e+01
2.710000e-06	3.724830e-06	1.285446e-09	2.584947e+01	9.088291e+01
2.720000e-06	3.759937e-06	1.291835e-09	2.609310e+01	9.130332e+01
2.730000e-06	3.794748e-06	1.295677e-09	2.633469e+01	9.171142e+01
2.740000e-06	3.829042e-06	1.299722e-09	2.657268e+01	9.210744e+01
2.750000e-06	3.862814e-06	1.304505e-09	2.680704e+01	9.249156e+01
2.760000e-06	3.896122e-06	1.310750e-09	2.703820e+01	9.286392e+01
2.770000e-06	3.929006e-06	1.317918e-09	2.726640e+01	9.322464e+01
2.780000e-06	3.961521e-06	1.326036e-09	2.749205e+01	9.357384e+01
2.790000e-06	3.993754e-06	1.333954e-09	2.771574e+01	9.391160e+01
2.800000e-06	4.025779e-06	1.339398e-09	2.793799e+01	9.423801e+01
2.810000e-06	4.057566e-06	1.343343e-09	2.815858e+01	9.455315e+01
2.820000e-06	4.089153e-06	1.347846e-09	2.837779e+01	9.485711e+01
2.830000e-06	4.120577e-06	1.353690e-09	2.859586e+01	9.515001e+01
2.840000e-06	4.151799e-06	1.359673e-09	2.881254e+01	9.543196e+01
2.850000e-06	4.182700e-06	1.364952e-09	2.902698e+01	9.570312e+01
2.860000e-06	4.213206e-06	1.371496e-09	2.923869e+01	9.596367e+01
2.870000e-06	4.243369e-06	1.378923e-09	2.944801e+01	9.621381e+01
2.880000e-06	4.273266e-06	1.383889e-09	2.965549e+01	9.645381e+01
2.890000e-06	4.302930e-06	1.386576e-09	2.986135e+01	9.668393e+01
2.900000e-06	4.332364e-06	1.388936e-09	3.006562e+01	9.690451e+01
