# Temperatura_=_-37.45
# Concentracion g/m^3_=_1620.0
# C_Vs_to_Am_M_A/Vsm_=_65563218390.804596
# pendiente_HvsI_1/m_=_3716.3
# ordenada_HvsI_A/m_=_1297.0
# frecuencia_Hz_=_135089.24930255648

Tiempo_(s)	Campo_(V.s)	Magnetizacion_(V.s)	Campo_(kA/m)	Magnetizacion_(A/m)
0.000000e+00	-5.534346e-06	-1.243828e-09	-3.838186e+01	-7.918344e+01
1.000000e-08	-5.534619e-06	-1.242235e-09	-3.838375e+01	-7.921636e+01
2.000000e-08	-5.534616e-06	-1.242304e-09	-3.838373e+01	-7.924971e+01
3.000000e-08	-5.534236e-06	-1.243684e-09	-3.838109e+01	-7.928331e+01
4.000000e-08	-5.533349e-06	-1.246402e-09	-3.837494e+01	-7.931696e+01
5.000000e-08	-5.531928e-06	-1.244323e-09	-3.836508e+01	-7.935042e+01
6.000000e-08	-5.530044e-06	-1.234016e-09	-3.835202e+01	-7.938344e+01
7.000000e-08	-5.527520e-06	-1.224461e-09	-3.833452e+01	-7.941572e+01
8.000000e-08	-5.524463e-06	-1.251538e-09	-3.831332e+01	-7.944698e+01
9.000000e-08	-5.520926e-06	-1.291754e-09	-3.828879e+01	-7.947691e+01
1.000000e-07	-5.516851e-06	-1.275797e-09	-3.826053e+01	-7.950517e+01
1.100000e-07	-5.512531e-06	-1.222068e-09	-3.823056e+01	-7.953145e+01
1.200000e-07	-5.508069e-06	-1.220000e-09	-3.819962e+01	-7.955542e+01
1.300000e-07	-5.503338e-06	-1.240035e-09	-3.816681e+01	-7.957675e+01
1.400000e-07	-5.498221e-06	-1.235881e-09	-3.813132e+01	-7.959515e+01
1.500000e-07	-5.492686e-06	-1.203820e-09	-3.809293e+01	-7.961030e+01
1.600000e-07	-5.486778e-06	-1.235918e-09	-3.805196e+01	-7.962193e+01
1.700000e-07	-5.480480e-06	-1.265811e-09	-3.800829e+01	-7.962979e+01
1.800000e-07	-5.473741e-06	-1.237885e-09	-3.796154e+01	-7.963365e+01
1.900000e-07	-5.466604e-06	-1.209537e-09	-3.791205e+01	-7.963330e+01
2.000000e-07	-5.459236e-06	-1.226693e-09	-3.786095e+01	-7.962860e+01
2.100000e-07	-5.451656e-06	-1.238156e-09	-3.780838e+01	-7.961940e+01
2.200000e-07	-5.443799e-06	-1.214819e-09	-3.775389e+01	-7.960564e+01
2.300000e-07	-5.435676e-06	-1.209999e-09	-3.769756e+01	-7.958726e+01
2.400000e-07	-5.427173e-06	-1.232340e-09	-3.763859e+01	-7.956427e+01
2.500000e-07	-5.417906e-06	-1.234681e-09	-3.757432e+01	-7.953672e+01
2.600000e-07	-5.407919e-06	-1.205932e-09	-3.750505e+01	-7.950470e+01
2.700000e-07	-5.397424e-06	-1.185557e-09	-3.743227e+01	-7.946835e+01
2.800000e-07	-5.386382e-06	-1.189519e-09	-3.735569e+01	-7.942784e+01
2.900000e-07	-5.374957e-06	-1.206056e-09	-3.727646e+01	-7.938341e+01
3.000000e-07	-5.363179e-06	-1.197494e-09	-3.719477e+01	-7.933532e+01
3.100000e-07	-5.350967e-06	-1.185225e-09	-3.711008e+01	-7.928387e+01
3.200000e-07	-5.338290e-06	-1.176355e-09	-3.702217e+01	-7.922940e+01
3.300000e-07	-5.325169e-06	-1.193609e-09	-3.693117e+01	-7.917228e+01
3.400000e-07	-5.311671e-06	-1.183856e-09	-3.683756e+01	-7.911291e+01
3.500000e-07	-5.297766e-06	-1.170177e-09	-3.674112e+01	-7.905169e+01
3.600000e-07	-5.283463e-06	-1.189251e-09	-3.664193e+01	-7.898908e+01
3.700000e-07	-5.268728e-06	-1.217425e-09	-3.653974e+01	-7.892550e+01
3.800000e-07	-5.253433e-06	-1.188907e-09	-3.643367e+01	-7.886143e+01
3.900000e-07	-5.237498e-06	-1.179616e-09	-3.632315e+01	-7.879730e+01
4.000000e-07	-5.221137e-06	-1.213863e-09	-3.620968e+01	-7.873357e+01
4.100000e-07	-5.204494e-06	-1.202636e-09	-3.609426e+01	-7.867068e+01
4.200000e-07	-5.187440e-06	-1.163785e-09	-3.597599e+01	-7.860904e+01
4.300000e-07	-5.170088e-06	-1.205087e-09	-3.585565e+01	-7.854905e+01
4.400000e-07	-5.152427e-06	-1.238425e-09	-3.573317e+01	-7.849107e+01
4.500000e-07	-5.134401e-06	-1.185625e-09	-3.560815e+01	-7.843545e+01
4.600000e-07	-5.115991e-06	-1.177825e-09	-3.548048e+01	-7.838247e+01
4.700000e-07	-5.097150e-06	-1.226479e-09	-3.534981e+01	-7.833239e+01
4.800000e-07	-5.077892e-06	-1.197820e-09	-3.521625e+01	-7.828541e+01
4.900000e-07	-5.058390e-06	-1.157706e-09	-3.508100e+01	-7.824170e+01
5.000000e-07	-5.038745e-06	-1.203763e-09	-3.494476e+01	-7.820135e+01
5.100000e-07	-5.018875e-06	-1.203742e-09	-3.480695e+01	-7.816442e+01
5.200000e-07	-4.998715e-06	-1.149874e-09	-3.466714e+01	-7.813090e+01
5.300000e-07	-4.978201e-06	-1.183695e-09	-3.452488e+01	-7.810073e+01
5.400000e-07	-4.957274e-06	-1.224192e-09	-3.437974e+01	-7.807378e+01
5.500000e-07	-4.935961e-06	-1.173104e-09	-3.423193e+01	-7.804989e+01
5.600000e-07	-4.914367e-06	-1.171291e-09	-3.408217e+01	-7.802883e+01
5.700000e-07	-4.892498e-06	-1.219992e-09	-3.393051e+01	-7.801033e+01
5.800000e-07	-4.870376e-06	-1.188853e-09	-3.377708e+01	-7.799405e+01
5.900000e-07	-4.847891e-06	-1.152059e-09	-3.362115e+01	-7.797964e+01
6.000000e-07	-4.825092e-06	-1.190370e-09	-3.346303e+01	-7.796668e+01
6.100000e-07	-4.801960e-06	-1.185898e-09	-3.330260e+01	-7.795475e+01
6.200000e-07	-4.778396e-06	-1.149602e-09	-3.313918e+01	-7.794336e+01
6.300000e-07	-4.754645e-06	-1.176500e-09	-3.297446e+01	-7.793204e+01
6.400000e-07	-4.730707e-06	-1.199273e-09	-3.280845e+01	-7.792028e+01
6.500000e-07	-4.706351e-06	-1.167344e-09	-3.263953e+01	-7.790756e+01
6.600000e-07	-4.681589e-06	-1.171687e-09	-3.246780e+01	-7.789337e+01
6.700000e-07	-4.656362e-06	-1.193536e-09	-3.229285e+01	-7.787720e+01
6.800000e-07	-4.630539e-06	-1.169262e-09	-3.211377e+01	-7.785855e+01
6.900000e-07	-4.604177e-06	-1.154309e-09	-3.193094e+01	-7.783695e+01
7.000000e-07	-4.577439e-06	-1.174975e-09	-3.174550e+01	-7.781194e+01
7.100000e-07	-4.550357e-06	-1.168952e-09	-3.155768e+01	-7.778309e+01
7.200000e-07	-4.522875e-06	-1.156617e-09	-3.136709e+01	-7.775002e+01
7.300000e-07	-4.495186e-06	-1.174535e-09	-3.117506e+01	-7.771238e+01
7.400000e-07	-4.467373e-06	-1.179845e-09	-3.098217e+01	-7.766987e+01
7.500000e-07	-4.439291e-06	-1.159386e-09	-3.078742e+01	-7.762224e+01
7.600000e-07	-4.410889e-06	-1.157370e-09	-3.059044e+01	-7.756930e+01
7.700000e-07	-4.382191e-06	-1.164879e-09	-3.039142e+01	-7.751090e+01
7.800000e-07	-4.353279e-06	-1.149053e-09	-3.019091e+01	-7.744695e+01
7.900000e-07	-4.324076e-06	-1.146814e-09	-2.998837e+01	-7.737743e+01
8.000000e-07	-4.294537e-06	-1.163250e-09	-2.978352e+01	-7.730237e+01
8.100000e-07	-4.264744e-06	-1.160969e-09	-2.957690e+01	-7.722185e+01
8.200000e-07	-4.234609e-06	-1.153571e-09	-2.936790e+01	-7.713602e+01
8.300000e-07	-4.204095e-06	-1.158870e-09	-2.915629e+01	-7.704505e+01
8.400000e-07	-4.173299e-06	-1.153500e-09	-2.894271e+01	-7.694919e+01
8.500000e-07	-4.142202e-06	-1.138262e-09	-2.872704e+01	-7.684873e+01
8.600000e-07	-4.110792e-06	-1.141945e-09	-2.850921e+01	-7.674398e+01
8.700000e-07	-4.079176e-06	-1.147593e-09	-2.828994e+01	-7.663530e+01
8.800000e-07	-4.047439e-06	-1.140512e-09	-2.806984e+01	-7.652307e+01
8.900000e-07	-4.015615e-06	-1.142868e-09	-2.784913e+01	-7.640770e+01
9.000000e-07	-3.983598e-06	-1.148134e-09	-2.762709e+01	-7.628962e+01
9.100000e-07	-3.951216e-06	-1.139490e-09	-2.740252e+01	-7.616925e+01
9.200000e-07	-3.918524e-06	-1.128753e-09	-2.717579e+01	-7.604703e+01
9.300000e-07	-3.885501e-06	-1.127606e-09	-2.694676e+01	-7.592340e+01
9.400000e-07	-3.851931e-06	-1.120909e-09	-2.671395e+01	-7.579877e+01
9.500000e-07	-3.817827e-06	-1.118589e-09	-2.647743e+01	-7.567355e+01
9.600000e-07	-3.783290e-06	-1.127667e-09	-2.623791e+01	-7.554812e+01
9.700000e-07	-3.748389e-06	-1.131222e-09	-2.599587e+01	-7.542284e+01
9.800000e-07	-3.713177e-06	-1.126108e-09	-2.575166e+01	-7.529804e+01
9.900000e-07	-3.677786e-06	-1.126695e-09	-2.550622e+01	-7.517399e+01
1.000000e-06	-3.642240e-06	-1.127826e-09	-2.525970e+01	-7.505094e+01
1.010000e-06	-3.606475e-06	-1.116449e-09	-2.501167e+01	-7.492910e+01
1.020000e-06	-3.570616e-06	-1.105309e-09	-2.476297e+01	-7.480861e+01
1.030000e-06	-3.534648e-06	-1.103387e-09	-2.451353e+01	-7.468959e+01
1.040000e-06	-3.498404e-06	-1.102337e-09	-2.426217e+01	-7.457208e+01
1.050000e-06	-3.461816e-06	-1.107002e-09	-2.400842e+01	-7.445609e+01
1.060000e-06	-3.425033e-06	-1.116737e-09	-2.375333e+01	-7.434157e+01
1.070000e-06	-3.388030e-06	-1.117804e-09	-2.349670e+01	-7.422841e+01
1.080000e-06	-3.350684e-06	-1.106853e-09	-2.323770e+01	-7.411647e+01
1.090000e-06	-3.313104e-06	-1.096326e-09	-2.297707e+01	-7.400556e+01
1.100000e-06	-3.275298e-06	-1.086309e-09	-2.271488e+01	-7.389542e+01
1.110000e-06	-3.237249e-06	-1.074365e-09	-2.245100e+01	-7.378578e+01
1.120000e-06	-3.198931e-06	-1.069578e-09	-2.218526e+01	-7.367630e+01
1.130000e-06	-3.160464e-06	-1.073942e-09	-2.191848e+01	-7.356662e+01
1.140000e-06	-3.121887e-06	-1.080276e-09	-2.165094e+01	-7.345636e+01
1.150000e-06	-3.083083e-06	-1.087942e-09	-2.138183e+01	-7.334507e+01
1.160000e-06	-3.044091e-06	-1.094599e-09	-2.111141e+01	-7.323232e+01
1.170000e-06	-3.004852e-06	-1.089860e-09	-2.083928e+01	-7.311764e+01
1.180000e-06	-2.965358e-06	-1.076619e-09	-2.056538e+01	-7.300052e+01
1.190000e-06	-2.925744e-06	-1.067096e-09	-2.029065e+01	-7.288049e+01
1.200000e-06	-2.886105e-06	-1.063371e-09	-2.001574e+01	-7.275701e+01
1.210000e-06	-2.846295e-06	-1.060804e-09	-1.973966e+01	-7.262959e+01
1.220000e-06	-2.806289e-06	-1.063126e-09	-1.946221e+01	-7.249770e+01
1.230000e-06	-2.766176e-06	-1.066930e-09	-1.918401e+01	-7.236082e+01
1.240000e-06	-2.725864e-06	-1.064107e-09	-1.890444e+01	-7.221846e+01
1.250000e-06	-2.685289e-06	-1.055126e-09	-1.862304e+01	-7.207012e+01
1.260000e-06	-2.644379e-06	-1.045970e-09	-1.833932e+01	-7.191529e+01
1.270000e-06	-2.603147e-06	-1.038966e-09	-1.805337e+01	-7.175352e+01
1.280000e-06	-2.561651e-06	-1.031266e-09	-1.776559e+01	-7.158434e+01
1.290000e-06	-2.519970e-06	-1.026854e-09	-1.747652e+01	-7.140731e+01
1.300000e-06	-2.478145e-06	-1.026901e-09	-1.718646e+01	-7.122202e+01
1.310000e-06	-2.435952e-06	-1.023842e-09	-1.689384e+01	-7.102808e+01
1.320000e-06	-2.393377e-06	-1.018532e-09	-1.659858e+01	-7.082511e+01
1.330000e-06	-2.350534e-06	-1.013206e-09	-1.630145e+01	-7.061277e+01
1.340000e-06	-2.307386e-06	-1.006258e-09	-1.600220e+01	-7.039074e+01
1.350000e-06	-2.264090e-06	-9.990713e-10	-1.570194e+01	-7.015874e+01
1.360000e-06	-2.220704e-06	-9.943099e-10	-1.540105e+01	-6.991650e+01
1.370000e-06	-2.177151e-06	-9.924287e-10	-1.509900e+01	-6.966378e+01
1.380000e-06	-2.133529e-06	-9.903581e-10	-1.479647e+01	-6.940040e+01
1.390000e-06	-2.089840e-06	-9.873485e-10	-1.449348e+01	-6.912617e+01
1.400000e-06	-2.046081e-06	-9.798744e-10	-1.419000e+01	-6.884094e+01
1.410000e-06	-2.002316e-06	-9.697856e-10	-1.388648e+01	-6.854462e+01
1.420000e-06	-1.958390e-06	-9.618624e-10	-1.358184e+01	-6.823711e+01
1.430000e-06	-1.914323e-06	-9.560946e-10	-1.327624e+01	-6.791835e+01
1.440000e-06	-1.870211e-06	-9.512804e-10	-1.297031e+01	-6.758832e+01
1.450000e-06	-1.825968e-06	-9.455614e-10	-1.266347e+01	-6.724701e+01
1.460000e-06	-1.781515e-06	-9.424204e-10	-1.235518e+01	-6.689444e+01
1.470000e-06	-1.736955e-06	-9.394743e-10	-1.204615e+01	-6.653065e+01
1.480000e-06	-1.692238e-06	-9.328430e-10	-1.173603e+01	-6.615570e+01
1.490000e-06	-1.647258e-06	-9.251000e-10	-1.142408e+01	-6.576967e+01
1.500000e-06	-1.602164e-06	-9.151518e-10	-1.111134e+01	-6.537266e+01
1.510000e-06	-1.557028e-06	-9.033126e-10	-1.079832e+01	-6.496475e+01
1.520000e-06	-1.511776e-06	-8.954843e-10	-1.048448e+01	-6.454605e+01
1.530000e-06	-1.466399e-06	-8.923122e-10	-1.016979e+01	-6.411667e+01
1.540000e-06	-1.420923e-06	-8.924486e-10	-9.854399e+00	-6.367672e+01
1.550000e-06	-1.375393e-06	-8.902102e-10	-9.538641e+00	-6.322627e+01
1.560000e-06	-1.329846e-06	-8.826156e-10	-9.222765e+00	-6.276541e+01
1.570000e-06	-1.284264e-06	-8.693091e-10	-8.906640e+00	-6.229419e+01
1.580000e-06	-1.238576e-06	-8.543282e-10	-8.589785e+00	-6.181265e+01
1.590000e-06	-1.192722e-06	-8.423592e-10	-8.271780e+00	-6.132076e+01
1.600000e-06	-1.146846e-06	-8.313786e-10	-7.953616e+00	-6.081850e+01
1.610000e-06	-1.100900e-06	-8.223958e-10	-7.634970e+00	-6.030577e+01
1.620000e-06	-1.054881e-06	-8.178902e-10	-7.315823e+00	-5.978243e+01
1.630000e-06	-1.008725e-06	-8.145227e-10	-6.995721e+00	-5.924828e+01
1.640000e-06	-9.624015e-07	-8.092570e-10	-6.674457e+00	-5.870305e+01
1.650000e-06	-9.160441e-07	-8.021908e-10	-6.352959e+00	-5.814642e+01
1.660000e-06	-8.696270e-07	-7.939197e-10	-6.031047e+00	-5.757798e+01
1.670000e-06	-8.231396e-07	-7.846999e-10	-5.708646e+00	-5.699726e+01
1.680000e-06	-7.766612e-07	-7.733276e-10	-5.386309e+00	-5.640370e+01
1.690000e-06	-7.302168e-07	-7.621130e-10	-5.064207e+00	-5.579667e+01
1.700000e-06	-6.836227e-07	-7.523039e-10	-4.741067e+00	-5.517544e+01
1.710000e-06	-6.369444e-07	-7.421998e-10	-4.417344e+00	-5.453923e+01
1.720000e-06	-5.901644e-07	-7.310213e-10	-4.092915e+00	-5.388715e+01
1.730000e-06	-5.433234e-07	-7.200444e-10	-3.768062e+00	-5.321825e+01
1.740000e-06	-4.965573e-07	-7.110376e-10	-3.443729e+00	-5.253152e+01
1.750000e-06	-4.497388e-07	-7.029635e-10	-3.119034e+00	-5.182585e+01
1.760000e-06	-4.028130e-07	-6.909799e-10	-2.793593e+00	-5.110011e+01
1.770000e-06	-3.558112e-07	-6.771807e-10	-2.467626e+00	-5.035309e+01
1.780000e-06	-3.087968e-07	-6.642811e-10	-2.141571e+00	-4.958355e+01
1.790000e-06	-2.617859e-07	-6.523416e-10	-1.815540e+00	-4.879021e+01
1.800000e-06	-2.147931e-07	-6.415236e-10	-1.489635e+00	-4.797179e+01
1.810000e-06	-1.678612e-07	-6.304529e-10	-1.164153e+00	-4.712698e+01
1.820000e-06	-1.210010e-07	-6.179899e-10	-8.391674e-01	-4.625448e+01
1.830000e-06	-7.408426e-08	-6.047070e-10	-5.137899e-01	-4.535304e+01
1.840000e-06	-2.708828e-08	-5.921764e-10	-1.878629e-01	-4.442140e+01
1.850000e-06	1.980016e-08	-5.794917e-10	1.373183e-01	-4.345838e+01
1.860000e-06	6.667542e-08	-5.649597e-10	4.624080e-01	-4.246287e+01
1.870000e-06	1.136394e-07	-5.497305e-10	7.881129e-01	-4.143381e+01
1.880000e-06	1.605812e-07	-5.358353e-10	1.113664e+00	-4.037028e+01
1.890000e-06	2.075196e-07	-5.201135e-10	1.439192e+00	-3.927142e+01
1.900000e-06	2.544351e-07	-5.010910e-10	1.764561e+00	-3.813655e+01
1.910000e-06	3.013149e-07	-4.828180e-10	2.089682e+00	-3.696508e+01
1.920000e-06	3.482104e-07	-4.658151e-10	2.414912e+00	-3.575660e+01
1.930000e-06	3.950943e-07	-4.474931e-10	2.740062e+00	-3.451084e+01
1.940000e-06	4.419156e-07	-4.304627e-10	3.064778e+00	-3.322772e+01
1.950000e-06	4.887227e-07	-4.155321e-10	3.389395e+00	-3.190733e+01
1.960000e-06	5.355747e-07	-3.987630e-10	3.714323e+00	-3.054992e+01
1.970000e-06	5.823202e-07	-3.795290e-10	4.038513e+00	-2.915598e+01
1.980000e-06	6.289206e-07	-3.578902e-10	4.361697e+00	-2.772613e+01
1.990000e-06	6.754842e-07	-3.346465e-10	4.684625e+00	-2.626122e+01
2.000000e-06	7.220013e-07	-3.105595e-10	5.007231e+00	-2.476228e+01
2.010000e-06	7.684953e-07	-2.865504e-10	5.329676e+00	-2.323053e+01
2.020000e-06	8.148889e-07	-2.636493e-10	5.651426e+00	-2.166734e+01
2.030000e-06	8.610972e-07	-2.412703e-10	5.971890e+00	-2.007430e+01
2.040000e-06	9.073109e-07	-2.207047e-10	6.292392e+00	-1.845312e+01
2.050000e-06	9.536019e-07	-1.994393e-10	6.613430e+00	-1.680569e+01
2.060000e-06	9.998268e-07	-1.764016e-10	6.934009e+00	-1.513402e+01
2.070000e-06	1.045889e-06	-1.541943e-10	7.253460e+00	-1.344027e+01
2.080000e-06	1.091812e-06	-1.313682e-10	7.571947e+00	-1.172669e+01
2.090000e-06	1.137651e-06	-1.073238e-10	7.889850e+00	-9.995627e+00
2.100000e-06	1.183457e-06	-8.310492e-11	8.207524e+00	-8.249522e+00
2.110000e-06	1.229233e-06	-5.883220e-11	8.524988e+00	-6.490863e+00
2.120000e-06	1.274955e-06	-3.467127e-11	8.842082e+00	-4.722186e+00
2.130000e-06	1.320640e-06	-1.026690e-11	9.158913e+00	-2.946054e+00
2.140000e-06	1.366180e-06	1.383271e-11	9.474743e+00	-1.165036e+00
2.150000e-06	1.411508e-06	3.753735e-11	9.789103e+00	6.183065e-01
2.160000e-06	1.456758e-06	5.964057e-11	1.010292e+01	2.401437e+00
2.170000e-06	1.501977e-06	7.915231e-11	1.041653e+01	4.181862e+00
2.180000e-06	1.547062e-06	9.993476e-11	1.072920e+01	5.957144e+00
2.190000e-06	1.591990e-06	1.239980e-10	1.104078e+01	7.724916e+00
2.200000e-06	1.636885e-06	1.505594e-10	1.135214e+01	9.482894e+00
2.210000e-06	1.681691e-06	1.794592e-10	1.166288e+01	1.122889e+01
2.220000e-06	1.726299e-06	2.068069e-10	1.197225e+01	1.296082e+01
2.230000e-06	1.770821e-06	2.315334e-10	1.228102e+01	1.467672e+01
2.240000e-06	1.815193e-06	2.515014e-10	1.258875e+01	1.637473e+01
2.250000e-06	1.859291e-06	2.696868e-10	1.289457e+01	1.805313e+01
2.260000e-06	1.903220e-06	2.865732e-10	1.319923e+01	1.971032e+01
2.270000e-06	1.947149e-06	3.016938e-10	1.350389e+01	2.134485e+01
2.280000e-06	1.991034e-06	3.218831e-10	1.380824e+01	2.295539e+01
2.290000e-06	2.034825e-06	3.447804e-10	1.411194e+01	2.454073e+01
2.300000e-06	2.078587e-06	3.742543e-10	1.441544e+01	2.609982e+01
2.310000e-06	2.122257e-06	4.034035e-10	1.471830e+01	2.763171e+01
2.320000e-06	2.165868e-06	4.263087e-10	1.502075e+01	2.913561e+01
2.330000e-06	2.209394e-06	4.412547e-10	1.532261e+01	3.061080e+01
2.340000e-06	2.252782e-06	4.510839e-10	1.562352e+01	3.205673e+01
2.350000e-06	2.296069e-06	4.622542e-10	1.592372e+01	3.347291e+01
2.360000e-06	2.339186e-06	4.784145e-10	1.622275e+01	3.485899e+01
2.370000e-06	2.382075e-06	4.979235e-10	1.652019e+01	3.621469e+01
2.380000e-06	2.424638e-06	5.198343e-10	1.681537e+01	3.753983e+01
2.390000e-06	2.466911e-06	5.421866e-10	1.710854e+01	3.883430e+01
2.400000e-06	2.508951e-06	5.638271e-10	1.740010e+01	4.009809e+01
2.410000e-06	2.550700e-06	5.829561e-10	1.768964e+01	4.133124e+01
2.420000e-06	2.592141e-06	5.957131e-10	1.797705e+01	4.253384e+01
2.430000e-06	2.633229e-06	6.061918e-10	1.826200e+01	4.370605e+01
2.440000e-06	2.673952e-06	6.178670e-10	1.854442e+01	4.484809e+01
2.450000e-06	2.714417e-06	6.307138e-10	1.882506e+01	4.596021e+01
2.460000e-06	2.754668e-06	6.452864e-10	1.910420e+01	4.704270e+01
2.470000e-06	2.794760e-06	6.628313e-10	1.938225e+01	4.809589e+01
2.480000e-06	2.834719e-06	6.815853e-10	1.965938e+01	4.912015e+01
2.490000e-06	2.874521e-06	6.991905e-10	1.993541e+01	5.011586e+01
2.500000e-06	2.914196e-06	7.131305e-10	2.021056e+01	5.108344e+01
2.510000e-06	2.953767e-06	7.248209e-10	2.048499e+01	5.202334e+01
2.520000e-06	2.993253e-06	7.345924e-10	2.075884e+01	5.293603e+01
2.530000e-06	3.032607e-06	7.456861e-10	2.103177e+01	5.382198e+01
2.540000e-06	3.071706e-06	7.588153e-10	2.130293e+01	5.468171e+01
2.550000e-06	3.110457e-06	7.732505e-10	2.157167e+01	5.551574e+01
2.560000e-06	3.148976e-06	7.861756e-10	2.183881e+01	5.632461e+01
2.570000e-06	3.187342e-06	7.981619e-10	2.210489e+01	5.710889e+01
2.580000e-06	3.225481e-06	8.095864e-10	2.236939e+01	5.786914e+01
2.590000e-06	3.263419e-06	8.198468e-10	2.263250e+01	5.860595e+01
2.600000e-06	3.301173e-06	8.291870e-10	2.289433e+01	5.931992e+01
2.610000e-06	3.338707e-06	8.403694e-10	2.315464e+01	6.001167e+01
2.620000e-06	3.376046e-06	8.535816e-10	2.341359e+01	6.068181e+01
2.630000e-06	3.413113e-06	8.668678e-10	2.367066e+01	6.133098e+01
2.640000e-06	3.449794e-06	8.778958e-10	2.392505e+01	6.195980e+01
2.650000e-06	3.486215e-06	8.873876e-10	2.417763e+01	6.256891e+01
2.660000e-06	3.522434e-06	8.930666e-10	2.442882e+01	6.315895e+01
2.670000e-06	3.558470e-06	8.979036e-10	2.467874e+01	6.373054e+01
2.680000e-06	3.594344e-06	9.047104e-10	2.492753e+01	6.428432e+01
2.690000e-06	3.630031e-06	9.129487e-10	2.517503e+01	6.482089e+01
2.700000e-06	3.665655e-06	9.236838e-10	2.542209e+01	6.534086e+01
2.710000e-06	3.701208e-06	9.334464e-10	2.566866e+01	6.584482e+01
2.720000e-06	3.736562e-06	9.406130e-10	2.591384e+01	6.633333e+01
2.730000e-06	3.771518e-06	9.469758e-10	2.615627e+01	6.680693e+01
2.740000e-06	3.806050e-06	9.537847e-10	2.639576e+01	6.726614e+01
2.750000e-06	3.840247e-06	9.591503e-10	2.663292e+01	6.771145e+01
2.760000e-06	3.874020e-06	9.632284e-10	2.686714e+01	6.814332e+01
2.770000e-06	3.907274e-06	9.685538e-10	2.709777e+01	6.856217e+01
2.780000e-06	3.940005e-06	9.756584e-10	2.732477e+01	6.896839e+01
2.790000e-06	3.972384e-06	9.835617e-10	2.754932e+01	6.936234e+01
2.800000e-06	4.004497e-06	9.930537e-10	2.777203e+01	6.974434e+01
2.810000e-06	4.036416e-06	1.001661e-09	2.799339e+01	7.011467e+01
2.820000e-06	4.068261e-06	1.006871e-09	2.821424e+01	7.047358e+01
2.830000e-06	4.099911e-06	1.009929e-09	2.843375e+01	7.082128e+01
2.840000e-06	4.131322e-06	1.012851e-09	2.865159e+01	7.115796e+01
2.850000e-06	4.162529e-06	1.015448e-09	2.886801e+01	7.148378e+01
2.860000e-06	4.193413e-06	1.018142e-09	2.908220e+01	7.179887e+01
2.870000e-06	4.223975e-06	1.022582e-09	2.929416e+01	7.210332e+01
2.880000e-06	4.254200e-06	1.029958e-09	2.950377e+01	7.239723e+01
2.890000e-06	4.284069e-06	1.036604e-09	2.971092e+01	7.268068e+01
2.900000e-06	4.313681e-06	1.042510e-09	2.991629e+01	7.295372e+01
