# Temperatura_=_0.31
# Concentracion g/m^3_=_1620.0
# C_Vs_to_Am_M_A/Vsm_=_65563218390.804596
# pendiente_HvsI_1/m_=_3716.3
# ordenada_HvsI_A/m_=_1297.0
# frecuencia_Hz_=_135110.96043331674

Tiempo_(s)	Campo_(V.s)	Magnetizacion_(V.s)	Campo_(kA/m)	Magnetizacion_(A/m)
0.000000e+00	-5.516497e-06	-1.434054e-09	-3.837205e+01	-9.250620e+01
1.000000e-08	-5.516749e-06	-1.431857e-09	-3.837380e+01	-9.247739e+01
2.000000e-08	-5.516820e-06	-1.433552e-09	-3.837429e+01	-9.244929e+01
3.000000e-08	-5.516541e-06	-1.437615e-09	-3.837235e+01	-9.242158e+01
4.000000e-08	-5.515745e-06	-1.440204e-09	-3.836682e+01	-9.239391e+01
5.000000e-08	-5.514369e-06	-1.438881e-09	-3.835725e+01	-9.236592e+01
6.000000e-08	-5.512381e-06	-1.427131e-09	-3.834342e+01	-9.233721e+01
7.000000e-08	-5.509772e-06	-1.409329e-09	-3.832527e+01	-9.230737e+01
8.000000e-08	-5.506704e-06	-1.422367e-09	-3.830393e+01	-9.227599e+01
9.000000e-08	-5.503193e-06	-1.473903e-09	-3.827951e+01	-9.224264e+01
1.000000e-07	-5.499231e-06	-1.511086e-09	-3.825195e+01	-9.220691e+01
1.100000e-07	-5.494873e-06	-1.466272e-09	-3.822163e+01	-9.216840e+01
1.200000e-07	-5.490316e-06	-1.386668e-09	-3.818994e+01	-9.212671e+01
1.300000e-07	-5.485617e-06	-1.365010e-09	-3.815725e+01	-9.208147e+01
1.400000e-07	-5.480572e-06	-1.432819e-09	-3.812216e+01	-9.203236e+01
1.500000e-07	-5.475097e-06	-1.451868e-09	-3.808407e+01	-9.197905e+01
1.600000e-07	-5.469251e-06	-1.424413e-09	-3.804341e+01	-9.192127e+01
1.700000e-07	-5.463031e-06	-1.411236e-09	-3.800014e+01	-9.185881e+01
1.800000e-07	-5.456324e-06	-1.448916e-09	-3.795349e+01	-9.179148e+01
1.900000e-07	-5.449188e-06	-1.442986e-09	-3.790385e+01	-9.171912e+01
2.000000e-07	-5.441759e-06	-1.409508e-09	-3.785218e+01	-9.164167e+01
2.100000e-07	-5.434066e-06	-1.383093e-09	-3.779867e+01	-9.155907e+01
2.200000e-07	-5.426154e-06	-1.422685e-09	-3.774363e+01	-9.147133e+01
2.300000e-07	-5.418004e-06	-1.452418e-09	-3.768694e+01	-9.137850e+01
2.400000e-07	-5.409552e-06	-1.454144e-09	-3.762815e+01	-9.128071e+01
2.500000e-07	-5.400625e-06	-1.428870e-09	-3.756606e+01	-9.117808e+01
2.600000e-07	-5.390861e-06	-1.409782e-09	-3.749814e+01	-9.107081e+01
2.700000e-07	-5.380205e-06	-1.411847e-09	-3.742402e+01	-9.095914e+01
2.800000e-07	-5.369034e-06	-1.397397e-09	-3.734631e+01	-9.084332e+01
2.900000e-07	-5.357555e-06	-1.396226e-09	-3.726647e+01	-9.072365e+01
3.000000e-07	-5.345805e-06	-1.402543e-09	-3.718473e+01	-9.060044e+01
3.100000e-07	-5.333735e-06	-1.407181e-09	-3.710078e+01	-9.047403e+01
3.200000e-07	-5.321206e-06	-1.374195e-09	-3.701363e+01	-9.034477e+01
3.300000e-07	-5.308199e-06	-1.374556e-09	-3.692315e+01	-9.021301e+01
3.400000e-07	-5.294795e-06	-1.374566e-09	-3.682992e+01	-9.007911e+01
3.500000e-07	-5.281043e-06	-1.379111e-09	-3.673426e+01	-8.994342e+01
3.600000e-07	-5.266752e-06	-1.365622e-09	-3.663485e+01	-8.980627e+01
3.700000e-07	-5.252025e-06	-1.388201e-09	-3.653241e+01	-8.966798e+01
3.800000e-07	-5.236860e-06	-1.384978e-09	-3.642693e+01	-8.952885e+01
3.900000e-07	-5.221068e-06	-1.375994e-09	-3.631708e+01	-8.938916e+01
4.000000e-07	-5.204687e-06	-1.363719e-09	-3.620314e+01	-8.924913e+01
4.100000e-07	-5.187890e-06	-1.369006e-09	-3.608630e+01	-8.910897e+01
4.200000e-07	-5.170914e-06	-1.358375e-09	-3.596822e+01	-8.896884e+01
4.300000e-07	-5.153663e-06	-1.357059e-09	-3.584822e+01	-8.882885e+01
4.400000e-07	-5.136053e-06	-1.368683e-09	-3.572573e+01	-8.868909e+01
4.500000e-07	-5.118194e-06	-1.379516e-09	-3.560150e+01	-8.854959e+01
4.600000e-07	-5.099937e-06	-1.369298e-09	-3.547451e+01	-8.841034e+01
4.700000e-07	-5.081180e-06	-1.354261e-09	-3.534403e+01	-8.827128e+01
4.800000e-07	-5.062051e-06	-1.348765e-09	-3.521098e+01	-8.813233e+01
4.900000e-07	-5.042638e-06	-1.350152e-09	-3.507594e+01	-8.799334e+01
5.000000e-07	-5.023021e-06	-1.339691e-09	-3.493949e+01	-8.785415e+01
5.100000e-07	-5.003215e-06	-1.324106e-09	-3.480172e+01	-8.771456e+01
5.200000e-07	-4.983134e-06	-1.325216e-09	-3.466204e+01	-8.757436e+01
5.300000e-07	-4.962702e-06	-1.334418e-09	-3.451992e+01	-8.743328e+01
5.400000e-07	-4.941869e-06	-1.342625e-09	-3.437501e+01	-8.729108e+01
5.500000e-07	-4.920618e-06	-1.347012e-09	-3.422719e+01	-8.714748e+01
5.600000e-07	-4.899037e-06	-1.343744e-09	-3.407708e+01	-8.700221e+01
5.700000e-07	-4.877224e-06	-1.327376e-09	-3.392535e+01	-8.685499e+01
5.800000e-07	-4.855078e-06	-1.327657e-09	-3.377130e+01	-8.670557e+01
5.900000e-07	-4.832521e-06	-1.331294e-09	-3.361440e+01	-8.655370e+01
6.000000e-07	-4.809568e-06	-1.321856e-09	-3.345474e+01	-8.639915e+01
6.100000e-07	-4.786242e-06	-1.307201e-09	-3.329249e+01	-8.624171e+01
6.200000e-07	-4.762672e-06	-1.312462e-09	-3.312854e+01	-8.608122e+01
6.300000e-07	-4.738949e-06	-1.308289e-09	-3.296353e+01	-8.591752e+01
6.400000e-07	-4.715070e-06	-1.304223e-09	-3.279742e+01	-8.575052e+01
6.500000e-07	-4.690909e-06	-1.308574e-09	-3.262936e+01	-8.558015e+01
6.600000e-07	-4.666284e-06	-1.312849e-09	-3.245807e+01	-8.540638e+01
6.700000e-07	-4.641001e-06	-1.300349e-09	-3.228221e+01	-8.522923e+01
6.800000e-07	-4.615170e-06	-1.295173e-09	-3.210253e+01	-8.504873e+01
6.900000e-07	-4.588836e-06	-1.288536e-09	-3.191936e+01	-8.486499e+01
7.000000e-07	-4.562025e-06	-1.280157e-09	-3.173286e+01	-8.467812e+01
7.100000e-07	-4.534931e-06	-1.275068e-09	-3.154440e+01	-8.448827e+01
7.200000e-07	-4.507535e-06	-1.279655e-09	-3.135383e+01	-8.429563e+01
7.300000e-07	-4.479915e-06	-1.280773e-09	-3.116171e+01	-8.410041e+01
7.400000e-07	-4.452112e-06	-1.285346e-09	-3.096832e+01	-8.390281e+01
7.500000e-07	-4.424072e-06	-1.282682e-09	-3.077328e+01	-8.370308e+01
7.600000e-07	-4.395816e-06	-1.272815e-09	-3.057673e+01	-8.350145e+01
7.700000e-07	-4.367281e-06	-1.263990e-09	-3.037825e+01	-8.329815e+01
7.800000e-07	-4.338410e-06	-1.257498e-09	-3.017742e+01	-8.309341e+01
7.900000e-07	-4.309227e-06	-1.249443e-09	-2.997443e+01	-8.288744e+01
8.000000e-07	-4.279697e-06	-1.246985e-09	-2.976902e+01	-8.268043e+01
8.100000e-07	-4.249916e-06	-1.246110e-09	-2.956187e+01	-8.247255e+01
8.200000e-07	-4.219872e-06	-1.237212e-09	-2.935289e+01	-8.226393e+01
8.300000e-07	-4.189495e-06	-1.231196e-09	-2.914159e+01	-8.205467e+01
8.400000e-07	-4.158842e-06	-1.230581e-09	-2.892837e+01	-8.184481e+01
8.500000e-07	-4.127841e-06	-1.230620e-09	-2.871273e+01	-8.163439e+01
8.600000e-07	-4.096533e-06	-1.230398e-09	-2.849496e+01	-8.142335e+01
8.700000e-07	-4.065027e-06	-1.232341e-09	-2.827581e+01	-8.121164e+01
8.800000e-07	-4.033397e-06	-1.225141e-09	-2.805579e+01	-8.099913e+01
8.900000e-07	-4.001667e-06	-1.215475e-09	-2.783508e+01	-8.078565e+01
9.000000e-07	-3.969734e-06	-1.208833e-09	-2.761296e+01	-8.057101e+01
9.100000e-07	-3.937518e-06	-1.203616e-09	-2.738887e+01	-8.035495e+01
9.200000e-07	-3.904967e-06	-1.194571e-09	-2.716245e+01	-8.013721e+01
9.300000e-07	-3.872022e-06	-1.194515e-09	-2.693329e+01	-7.991750e+01
9.400000e-07	-3.838578e-06	-1.195737e-09	-2.670065e+01	-7.969547e+01
9.500000e-07	-3.804678e-06	-1.192549e-09	-2.646486e+01	-7.947081e+01
9.600000e-07	-3.770344e-06	-1.183548e-09	-2.622603e+01	-7.924316e+01
9.700000e-07	-3.735580e-06	-1.177062e-09	-2.598422e+01	-7.901219e+01
9.800000e-07	-3.700510e-06	-1.168239e-09	-2.574027e+01	-7.877756e+01
9.900000e-07	-3.665198e-06	-1.160937e-09	-2.549465e+01	-7.853896e+01
1.000000e-06	-3.629661e-06	-1.159103e-09	-2.524745e+01	-7.829610e+01
1.010000e-06	-3.593992e-06	-1.156755e-09	-2.499935e+01	-7.804870e+01
1.020000e-06	-3.558197e-06	-1.151064e-09	-2.475037e+01	-7.779655e+01
1.030000e-06	-3.522252e-06	-1.150242e-09	-2.450034e+01	-7.753946e+01
1.040000e-06	-3.486157e-06	-1.149414e-09	-2.424926e+01	-7.727729e+01
1.050000e-06	-3.449783e-06	-1.146478e-09	-2.399625e+01	-7.700995e+01
1.060000e-06	-3.413128e-06	-1.143140e-09	-2.374128e+01	-7.673742e+01
1.070000e-06	-3.376220e-06	-1.136980e-09	-2.348455e+01	-7.645971e+01
1.080000e-06	-3.338993e-06	-1.127256e-09	-2.322561e+01	-7.617688e+01
1.090000e-06	-3.301495e-06	-1.119200e-09	-2.296478e+01	-7.588907e+01
1.100000e-06	-3.263789e-06	-1.112899e-09	-2.270250e+01	-7.559643e+01
1.110000e-06	-3.225839e-06	-1.106120e-09	-2.243852e+01	-7.529919e+01
1.120000e-06	-3.187623e-06	-1.099747e-09	-2.217270e+01	-7.499760e+01
1.130000e-06	-3.149273e-06	-1.094998e-09	-2.190594e+01	-7.469193e+01
1.140000e-06	-3.110743e-06	-1.092535e-09	-2.163793e+01	-7.438250e+01
1.150000e-06	-3.071975e-06	-1.090094e-09	-2.136826e+01	-7.406962e+01
1.160000e-06	-3.033015e-06	-1.088628e-09	-2.109726e+01	-7.375361e+01
1.170000e-06	-2.993793e-06	-1.085872e-09	-2.082444e+01	-7.343479e+01
1.180000e-06	-2.954419e-06	-1.080722e-09	-2.055056e+01	-7.311348e+01
1.190000e-06	-2.914944e-06	-1.072452e-09	-2.027598e+01	-7.278995e+01
1.200000e-06	-2.875322e-06	-1.063460e-09	-2.000037e+01	-7.246443e+01
1.210000e-06	-2.835582e-06	-1.052608e-09	-1.972395e+01	-7.213715e+01
1.220000e-06	-2.795723e-06	-1.045217e-09	-1.944669e+01	-7.180823e+01
1.230000e-06	-2.755695e-06	-1.041278e-09	-1.916826e+01	-7.147778e+01
1.240000e-06	-2.715477e-06	-1.035794e-09	-1.888851e+01	-7.114581e+01
1.250000e-06	-2.675028e-06	-1.028312e-09	-1.860715e+01	-7.081226e+01
1.260000e-06	-2.634330e-06	-1.025135e-09	-1.832406e+01	-7.047701e+01
1.270000e-06	-2.593395e-06	-1.022261e-09	-1.803932e+01	-7.013985e+01
1.280000e-06	-2.552255e-06	-1.014487e-09	-1.775316e+01	-6.980049e+01
1.290000e-06	-2.510935e-06	-1.004556e-09	-1.746574e+01	-6.945857e+01
1.300000e-06	-2.469322e-06	-9.966604e-10	-1.717629e+01	-6.911364e+01
1.310000e-06	-2.427357e-06	-9.884551e-10	-1.688439e+01	-6.876519e+01
1.320000e-06	-2.385040e-06	-9.817142e-10	-1.659003e+01	-6.841263e+01
1.330000e-06	-2.342398e-06	-9.768550e-10	-1.629342e+01	-6.805533e+01
1.340000e-06	-2.299557e-06	-9.734536e-10	-1.599542e+01	-6.769261e+01
1.350000e-06	-2.256520e-06	-9.700700e-10	-1.569606e+01	-6.732372e+01
1.360000e-06	-2.213293e-06	-9.696519e-10	-1.539538e+01	-6.694791e+01
1.370000e-06	-2.169887e-06	-9.686556e-10	-1.509345e+01	-6.656442e+01
1.380000e-06	-2.126319e-06	-9.613153e-10	-1.479040e+01	-6.617245e+01
1.390000e-06	-2.082642e-06	-9.501856e-10	-1.448659e+01	-6.577123e+01
1.400000e-06	-2.038885e-06	-9.337937e-10	-1.418222e+01	-6.536000e+01
1.410000e-06	-1.995070e-06	-9.177623e-10	-1.387745e+01	-6.493804e+01
1.420000e-06	-1.951205e-06	-9.071903e-10	-1.357233e+01	-6.450466e+01
1.430000e-06	-1.907277e-06	-9.013374e-10	-1.326677e+01	-6.405923e+01
1.440000e-06	-1.863265e-06	-8.972576e-10	-1.296064e+01	-6.360115e+01
1.450000e-06	-1.819166e-06	-8.946477e-10	-1.265388e+01	-6.312993e+01
1.460000e-06	-1.774951e-06	-8.887630e-10	-1.234633e+01	-6.264511e+01
1.470000e-06	-1.730575e-06	-8.804689e-10	-1.203766e+01	-6.214632e+01
1.480000e-06	-1.686030e-06	-8.719923e-10	-1.172781e+01	-6.163326e+01
1.490000e-06	-1.641340e-06	-8.615197e-10	-1.141695e+01	-6.110571e+01
1.500000e-06	-1.596474e-06	-8.462479e-10	-1.110487e+01	-6.056352e+01
1.510000e-06	-1.551521e-06	-8.273096e-10	-1.079218e+01	-6.000660e+01
1.520000e-06	-1.506464e-06	-8.152082e-10	-1.047877e+01	-5.943490e+01
1.530000e-06	-1.461273e-06	-8.116988e-10	-1.016443e+01	-5.884845e+01
1.540000e-06	-1.416040e-06	-8.113630e-10	-9.849794e+00	-5.824729e+01
1.550000e-06	-1.370710e-06	-8.088134e-10	-9.534486e+00	-5.763151e+01
1.560000e-06	-1.325281e-06	-7.983280e-10	-9.218482e+00	-5.700117e+01
1.570000e-06	-1.279798e-06	-7.796853e-10	-8.902111e+00	-5.635636e+01
1.580000e-06	-1.234248e-06	-7.581984e-10	-8.585274e+00	-5.569713e+01
1.590000e-06	-1.188598e-06	-7.394453e-10	-8.267739e+00	-5.502349e+01
1.600000e-06	-1.142805e-06	-7.241484e-10	-7.949205e+00	-5.433542e+01
1.610000e-06	-1.096932e-06	-7.132738e-10	-7.630122e+00	-5.363279e+01
1.620000e-06	-1.051065e-06	-7.070474e-10	-7.311072e+00	-5.291541e+01
1.630000e-06	-1.005159e-06	-7.016863e-10	-6.991759e+00	-5.218300e+01
1.640000e-06	-9.591069e-07	-6.957567e-10	-6.671425e+00	-5.143513e+01
1.650000e-06	-9.129131e-07	-6.870659e-10	-6.350107e+00	-5.067129e+01
1.660000e-06	-8.666546e-07	-6.754552e-10	-6.028339e+00	-4.989082e+01
1.670000e-06	-8.203341e-07	-6.591689e-10	-5.706139e+00	-4.909291e+01
1.680000e-06	-7.740482e-07	-6.413203e-10	-5.384180e+00	-4.827665e+01
1.690000e-06	-7.277698e-07	-6.257789e-10	-5.062273e+00	-4.744096e+01
1.700000e-06	-6.813931e-07	-6.129056e-10	-4.739683e+00	-4.658464e+01
1.710000e-06	-6.349472e-07	-5.992172e-10	-4.416612e+00	-4.570635e+01
1.720000e-06	-5.884171e-07	-5.830207e-10	-4.092954e+00	-4.480465e+01
1.730000e-06	-5.417859e-07	-5.673189e-10	-3.768593e+00	-4.387797e+01
1.740000e-06	-4.951647e-07	-5.524446e-10	-3.444302e+00	-4.292468e+01
1.750000e-06	-4.485527e-07	-5.388559e-10	-3.120075e+00	-4.194306e+01
1.760000e-06	-4.018795e-07	-5.236588e-10	-2.795423e+00	-4.093134e+01
1.770000e-06	-3.551484e-07	-5.063797e-10	-2.470367e+00	-3.988774e+01
1.780000e-06	-3.083689e-07	-4.882891e-10	-2.144974e+00	-3.881046e+01
1.790000e-06	-2.615599e-07	-4.704347e-10	-1.819377e+00	-3.769774e+01
1.800000e-06	-2.147484e-07	-4.550937e-10	-1.493763e+00	-3.654788e+01
1.810000e-06	-1.679450e-07	-4.376686e-10	-1.168204e+00	-3.535926e+01
1.820000e-06	-1.210862e-07	-4.203587e-10	-8.422603e-01	-3.413036e+01
1.830000e-06	-7.423343e-08	-4.039148e-10	-5.163582e-01	-3.285982e+01
1.840000e-06	-2.746936e-08	-3.852694e-10	-1.910734e-01	-3.154645e+01
1.850000e-06	1.928967e-08	-3.655267e-10	1.341765e-01	-3.018924e+01
1.860000e-06	6.608803e-08	-3.469142e-10	4.596999e-01	-2.878741e+01
1.870000e-06	1.128966e-07	-3.292637e-10	7.852944e-01	-2.734043e+01
1.880000e-06	1.596344e-07	-3.101763e-10	1.110397e+00	-2.584803e+01
1.890000e-06	2.062867e-07	-2.903686e-10	1.434904e+00	-2.431021e+01
1.900000e-06	2.529281e-07	-2.673007e-10	1.759335e+00	-2.272726e+01
1.910000e-06	2.995390e-07	-2.420129e-10	2.083555e+00	-2.109980e+01
1.920000e-06	3.461931e-07	-2.153431e-10	2.408075e+00	-1.942871e+01
1.930000e-06	3.929257e-07	-1.894863e-10	2.733141e+00	-1.771521e+01
1.940000e-06	4.395597e-07	-1.663514e-10	3.057521e+00	-1.596081e+01
1.950000e-06	4.861628e-07	-1.459931e-10	3.381687e+00	-1.416733e+01
1.960000e-06	5.327124e-07	-1.254480e-10	3.705479e+00	-1.233685e+01
1.970000e-06	5.791114e-07	-1.023037e-10	4.028225e+00	-1.047176e+01
1.980000e-06	6.254432e-07	-7.673067e-11	4.350503e+00	-8.574662e+00
1.990000e-06	6.717939e-07	-4.693255e-11	4.672912e+00	-6.648410e+00
2.000000e-06	7.181972e-07	-1.213955e-11	4.995688e+00	-4.696058e+00
2.010000e-06	7.645085e-07	2.185989e-11	5.317823e+00	-2.720835e+00
2.020000e-06	8.106903e-07	5.339122e-11	5.639058e+00	-7.261192e-01
2.030000e-06	8.568305e-07	8.290181e-11	5.960003e+00	1.284597e+00
2.040000e-06	9.029445e-07	1.099341e-10	6.280767e+00	3.307737e+00
2.050000e-06	9.490045e-07	1.337525e-10	6.601154e+00	5.339678e+00
2.060000e-06	9.950393e-07	1.564127e-10	6.921366e+00	7.376780e+00
2.070000e-06	1.041042e-06	1.809135e-10	7.241355e+00	9.415421e+00
2.080000e-06	1.086898e-06	2.075596e-10	7.560324e+00	1.145203e+01
2.090000e-06	1.132627e-06	2.359530e-10	7.878408e+00	1.348311e+01
2.100000e-06	1.178310e-06	2.665890e-10	8.196174e+00	1.550529e+01
2.110000e-06	1.223907e-06	2.988505e-10	8.513338e+00	1.751533e+01
2.120000e-06	1.269479e-06	3.283642e-10	8.830334e+00	1.951014e+01
2.130000e-06	1.315024e-06	3.551210e-10	9.147140e+00	2.148682e+01
2.140000e-06	1.360459e-06	3.798816e-10	9.463179e+00	2.344269e+01
2.150000e-06	1.405834e-06	4.017228e-10	9.778800e+00	2.537525e+01
2.160000e-06	1.451109e-06	4.232517e-10	1.009373e+01	2.728226e+01
2.170000e-06	1.496242e-06	4.468806e-10	1.040766e+01	2.916170e+01
2.180000e-06	1.541233e-06	4.730675e-10	1.072062e+01	3.101178e+01
2.190000e-06	1.586092e-06	5.021771e-10	1.103265e+01	3.283097e+01
2.200000e-06	1.630845e-06	5.331221e-10	1.134395e+01	3.461797e+01
2.210000e-06	1.675411e-06	5.640352e-10	1.165395e+01	3.637171e+01
2.220000e-06	1.719784e-06	5.911275e-10	1.196260e+01	3.809133e+01
2.230000e-06	1.764010e-06	6.134546e-10	1.227023e+01	3.977619e+01
2.240000e-06	1.808144e-06	6.314105e-10	1.257722e+01	4.142586e+01
2.250000e-06	1.852160e-06	6.467684e-10	1.288339e+01	4.304008e+01
2.260000e-06	1.896033e-06	6.632908e-10	1.318856e+01	4.461874e+01
2.270000e-06	1.939848e-06	6.845698e-10	1.349334e+01	4.616190e+01
2.280000e-06	1.983609e-06	7.088424e-10	1.379773e+01	4.766972e+01
2.290000e-06	2.027297e-06	7.332117e-10	1.410162e+01	4.914250e+01
2.300000e-06	2.070900e-06	7.568977e-10	1.440491e+01	5.058060e+01
2.310000e-06	2.114489e-06	7.794145e-10	1.470811e+01	5.198446e+01
2.320000e-06	2.158094e-06	7.986069e-10	1.501143e+01	5.335457e+01
2.330000e-06	2.201604e-06	8.133302e-10	1.531407e+01	5.469145e+01
2.340000e-06	2.244954e-06	8.252795e-10	1.561562e+01	5.599563e+01
2.350000e-06	2.288137e-06	8.381622e-10	1.591599e+01	5.726768e+01
2.360000e-06	2.331153e-06	8.539838e-10	1.621520e+01	5.850811e+01
2.370000e-06	2.373989e-06	8.714187e-10	1.651317e+01	5.971745e+01
2.380000e-06	2.416544e-06	8.904015e-10	1.680917e+01	6.089620e+01
2.390000e-06	2.458699e-06	9.085041e-10	1.710240e+01	6.204481e+01
2.400000e-06	2.500498e-06	9.238982e-10	1.739314e+01	6.316372e+01
2.410000e-06	2.542043e-06	9.389807e-10	1.768212e+01	6.425330e+01
2.420000e-06	2.583248e-06	9.531856e-10	1.796874e+01	6.531392e+01
2.430000e-06	2.624077e-06	9.656262e-10	1.825274e+01	6.634589e+01
2.440000e-06	2.664714e-06	9.784646e-10	1.853541e+01	6.734950e+01
2.450000e-06	2.705080e-06	9.919507e-10	1.881619e+01	6.832502e+01
2.460000e-06	2.745156e-06	1.006039e-09	1.909495e+01	6.927268e+01
2.470000e-06	2.785111e-06	1.019359e-09	1.937288e+01	7.019272e+01
2.480000e-06	2.824955e-06	1.032140e-09	1.965002e+01	7.108537e+01
2.490000e-06	2.864692e-06	1.044861e-09	1.992643e+01	7.195085e+01
2.500000e-06	2.904298e-06	1.057123e-09	2.020193e+01	7.278941e+01
2.510000e-06	2.943808e-06	1.069693e-09	2.047676e+01	7.360131e+01
2.520000e-06	2.983201e-06	1.082056e-09	2.075077e+01	7.438683e+01
2.530000e-06	3.022420e-06	1.094209e-09	2.102357e+01	7.514629e+01
2.540000e-06	3.061462e-06	1.107134e-09	2.129514e+01	7.588007e+01
2.550000e-06	3.100200e-06	1.118735e-09	2.156460e+01	7.658856e+01
2.560000e-06	3.138643e-06	1.126597e-09	2.183200e+01	7.727221e+01
2.570000e-06	3.176833e-06	1.131023e-09	2.209765e+01	7.793153e+01
2.580000e-06	3.214770e-06	1.136000e-09	2.236153e+01	7.856706e+01
2.590000e-06	3.252572e-06	1.143877e-09	2.262447e+01	7.917942e+01
2.600000e-06	3.290165e-06	1.155343e-09	2.288597e+01	7.976924e+01
2.610000e-06	3.327514e-06	1.170243e-09	2.314576e+01	8.033721e+01
2.620000e-06	3.364730e-06	1.185609e-09	2.340463e+01	8.088408e+01
2.630000e-06	3.401728e-06	1.197724e-09	2.366199e+01	8.141059e+01
2.640000e-06	3.438423e-06	1.204595e-09	2.391723e+01	8.191755e+01
2.650000e-06	3.474876e-06	1.207768e-09	2.417079e+01	8.240576e+01
2.660000e-06	3.511112e-06	1.208973e-09	2.442284e+01	8.287602e+01
2.670000e-06	3.547125e-06	1.210485e-09	2.467335e+01	8.332918e+01
2.680000e-06	3.582950e-06	1.213442e-09	2.492254e+01	8.376602e+01
2.690000e-06	3.618637e-06	1.219085e-09	2.517078e+01	8.418735e+01
2.700000e-06	3.654222e-06	1.228554e-09	2.541830e+01	8.459394e+01
2.710000e-06	3.689675e-06	1.238860e-09	2.566491e+01	8.498650e+01
2.720000e-06	3.724931e-06	1.246125e-09	2.591014e+01	8.536575e+01
2.730000e-06	3.759884e-06	1.249834e-09	2.615327e+01	8.573231e+01
2.740000e-06	3.794422e-06	1.250873e-09	2.639352e+01	8.608678e+01
2.750000e-06	3.828497e-06	1.251075e-09	2.663053e+01	8.642968e+01
2.760000e-06	3.862057e-06	1.252281e-09	2.686398e+01	8.676148e+01
2.770000e-06	3.895141e-06	1.256401e-09	2.709410e+01	8.708259e+01
2.780000e-06	3.927751e-06	1.262768e-09	2.732094e+01	8.739335e+01
2.790000e-06	3.959927e-06	1.270098e-09	2.754475e+01	8.769402e+01
2.800000e-06	3.991938e-06	1.279383e-09	2.776741e+01	8.798483e+01
2.810000e-06	4.023809e-06	1.289044e-09	2.798910e+01	8.826593e+01
2.820000e-06	4.055493e-06	1.295002e-09	2.820949e+01	8.853742e+01
2.830000e-06	4.087028e-06	1.297508e-09	2.842884e+01	8.879936e+01
2.840000e-06	4.118348e-06	1.298371e-09	2.864670e+01	8.905177e+01
2.850000e-06	4.149429e-06	1.297972e-09	2.886290e+01	8.929462e+01
2.860000e-06	4.180218e-06	1.298618e-09	2.907706e+01	8.952788e+01
2.870000e-06	4.210616e-06	1.302049e-09	2.928851e+01	8.975150e+01
2.880000e-06	4.240657e-06	1.308092e-09	2.949747e+01	8.996541e+01
2.890000e-06	4.270419e-06	1.314045e-09	2.970449e+01	9.016955e+01
2.900000e-06	4.299972e-06	1.318908e-09	2.991006e+01	9.036388e+01
