# Temperatura_=_-3.13
# Concentracion g/m^3_=_1620.0
# C_Vs_to_Am_M_A/Vsm_=_65563218390.804596
# pendiente_HvsI_1/m_=_3716.3
# ordenada_HvsI_A/m_=_1297.0
# frecuencia_Hz_=_135109.68286085152

Tiempo_(s)	Campo_(V.s)	Magnetizacion_(V.s)	Campo_(kA/m)	Magnetizacion_(A/m)
0.000000e+00	-5.534672e-06	-1.447875e-09	-3.837468e+01	-9.395987e+01
1.000000e-08	-5.534895e-06	-1.446777e-09	-3.837623e+01	-9.390818e+01
2.000000e-08	-5.534860e-06	-1.447558e-09	-3.837599e+01	-9.385442e+01
3.000000e-08	-5.534378e-06	-1.449061e-09	-3.837264e+01	-9.379876e+01
4.000000e-08	-5.533309e-06	-1.447226e-09	-3.836523e+01	-9.374131e+01
5.000000e-08	-5.531677e-06	-1.439639e-09	-3.835392e+01	-9.368220e+01
6.000000e-08	-5.529444e-06	-1.427866e-09	-3.833843e+01	-9.362153e+01
7.000000e-08	-5.526678e-06	-1.436124e-09	-3.831925e+01	-9.355938e+01
8.000000e-08	-5.523414e-06	-1.464068e-09	-3.829662e+01	-9.349579e+01
9.000000e-08	-5.519715e-06	-1.459951e-09	-3.827097e+01	-9.343079e+01
1.000000e-07	-5.515618e-06	-1.421287e-09	-3.824257e+01	-9.336438e+01
1.100000e-07	-5.511210e-06	-1.414222e-09	-3.821201e+01	-9.329650e+01
1.200000e-07	-5.506637e-06	-1.431507e-09	-3.818030e+01	-9.322710e+01
1.300000e-07	-5.501765e-06	-1.410615e-09	-3.814652e+01	-9.315607e+01
1.400000e-07	-5.496485e-06	-1.382658e-09	-3.810991e+01	-9.308327e+01
1.500000e-07	-5.490853e-06	-1.413312e-09	-3.807086e+01	-9.300854e+01
1.600000e-07	-5.484806e-06	-1.462965e-09	-3.802894e+01	-9.293170e+01
1.700000e-07	-5.478307e-06	-1.443895e-09	-3.798388e+01	-9.285254e+01
1.800000e-07	-5.471387e-06	-1.385231e-09	-3.793590e+01	-9.277084e+01
1.900000e-07	-5.464106e-06	-1.407959e-09	-3.788541e+01	-9.268636e+01
2.000000e-07	-5.456541e-06	-1.428948e-09	-3.783296e+01	-9.259886e+01
2.100000e-07	-5.448726e-06	-1.419837e-09	-3.777877e+01	-9.250811e+01
2.200000e-07	-5.440620e-06	-1.385961e-09	-3.772257e+01	-9.241388e+01
2.300000e-07	-5.432246e-06	-1.416207e-09	-3.766451e+01	-9.231593e+01
2.400000e-07	-5.423440e-06	-1.441268e-09	-3.760345e+01	-9.221407e+01
2.500000e-07	-5.413880e-06	-1.432511e-09	-3.753717e+01	-9.210813e+01
2.600000e-07	-5.403574e-06	-1.400750e-09	-3.746572e+01	-9.199796e+01
2.700000e-07	-5.392733e-06	-1.405929e-09	-3.739055e+01	-9.188346e+01
2.800000e-07	-5.381413e-06	-1.423491e-09	-3.731206e+01	-9.176456e+01
2.900000e-07	-5.369612e-06	-1.427029e-09	-3.723024e+01	-9.164123e+01
3.000000e-07	-5.357473e-06	-1.412597e-09	-3.714607e+01	-9.151352e+01
3.100000e-07	-5.344962e-06	-1.408925e-09	-3.705933e+01	-9.138148e+01
3.200000e-07	-5.331978e-06	-1.428584e-09	-3.696930e+01	-9.124526e+01
3.300000e-07	-5.318634e-06	-1.420595e-09	-3.687678e+01	-9.110502e+01
3.400000e-07	-5.304963e-06	-1.402132e-09	-3.678199e+01	-9.096101e+01
3.500000e-07	-5.290835e-06	-1.400228e-09	-3.668404e+01	-9.081350e+01
3.600000e-07	-5.276312e-06	-1.434212e-09	-3.658334e+01	-9.066282e+01
3.700000e-07	-5.261286e-06	-1.415456e-09	-3.647916e+01	-9.050931e+01
3.800000e-07	-5.245640e-06	-1.398722e-09	-3.637068e+01	-9.035340e+01
3.900000e-07	-5.229461e-06	-1.415619e-09	-3.625850e+01	-9.019549e+01
4.000000e-07	-5.213009e-06	-1.420691e-09	-3.614443e+01	-9.003604e+01
4.100000e-07	-5.196326e-06	-1.364522e-09	-3.602876e+01	-8.987552e+01
4.200000e-07	-5.179200e-06	-1.380342e-09	-3.591002e+01	-8.971439e+01
4.300000e-07	-5.161757e-06	-1.425231e-09	-3.578907e+01	-8.955313e+01
4.400000e-07	-5.144092e-06	-1.396514e-09	-3.566659e+01	-8.939220e+01
4.500000e-07	-5.126061e-06	-1.357222e-09	-3.554157e+01	-8.923203e+01
4.600000e-07	-5.107590e-06	-1.410995e-09	-3.541351e+01	-8.907306e+01
4.700000e-07	-5.088672e-06	-1.405184e-09	-3.528234e+01	-8.891565e+01
4.800000e-07	-5.069370e-06	-1.344708e-09	-3.514851e+01	-8.876015e+01
4.900000e-07	-5.049795e-06	-1.359549e-09	-3.501278e+01	-8.860687e+01
5.000000e-07	-5.030045e-06	-1.389015e-09	-3.487585e+01	-8.845603e+01
5.100000e-07	-5.010082e-06	-1.331410e-09	-3.473743e+01	-8.830784e+01
5.200000e-07	-4.989729e-06	-1.332122e-09	-3.459632e+01	-8.816241e+01
5.300000e-07	-4.968950e-06	-1.387558e-09	-3.445224e+01	-8.801980e+01
5.400000e-07	-4.947802e-06	-1.360868e-09	-3.430562e+01	-8.788001e+01
5.500000e-07	-4.926348e-06	-1.327043e-09	-3.415686e+01	-8.774297e+01
5.600000e-07	-4.904618e-06	-1.373376e-09	-3.400620e+01	-8.760855e+01
5.700000e-07	-4.882515e-06	-1.371312e-09	-3.385295e+01	-8.747655e+01
5.800000e-07	-4.859930e-06	-1.319986e-09	-3.369636e+01	-8.734671e+01
5.900000e-07	-4.837058e-06	-1.341855e-09	-3.353777e+01	-8.721873e+01
6.000000e-07	-4.813985e-06	-1.361103e-09	-3.337779e+01	-8.709223e+01
6.100000e-07	-4.790637e-06	-1.319069e-09	-3.321591e+01	-8.696682e+01
6.200000e-07	-4.767081e-06	-1.314558e-09	-3.305259e+01	-8.684205e+01
6.300000e-07	-4.743299e-06	-1.344285e-09	-3.288770e+01	-8.671743e+01
6.400000e-07	-4.719168e-06	-1.323271e-09	-3.272038e+01	-8.659248e+01
6.500000e-07	-4.694625e-06	-1.316689e-09	-3.255021e+01	-8.646668e+01
6.600000e-07	-4.669667e-06	-1.337695e-09	-3.237716e+01	-8.633951e+01
6.700000e-07	-4.644171e-06	-1.330326e-09	-3.220039e+01	-8.621043e+01
6.800000e-07	-4.618011e-06	-1.308236e-09	-3.201900e+01	-8.607893e+01
6.900000e-07	-4.591279e-06	-1.315657e-09	-3.183366e+01	-8.594451e+01
7.000000e-07	-4.564236e-06	-1.305101e-09	-3.164616e+01	-8.580669e+01
7.100000e-07	-4.536942e-06	-1.291772e-09	-3.145692e+01	-8.566501e+01
7.200000e-07	-4.509388e-06	-1.300398e-09	-3.126587e+01	-8.551904e+01
7.300000e-07	-4.481681e-06	-1.310283e-09	-3.107376e+01	-8.536841e+01
7.400000e-07	-4.453833e-06	-1.300135e-09	-3.088068e+01	-8.521275e+01
7.500000e-07	-4.425743e-06	-1.300601e-09	-3.068592e+01	-8.505177e+01
7.600000e-07	-4.397304e-06	-1.295464e-09	-3.048873e+01	-8.488520e+01
7.700000e-07	-4.368570e-06	-1.281135e-09	-3.028951e+01	-8.471284e+01
7.800000e-07	-4.339493e-06	-1.271849e-09	-3.008790e+01	-8.453452e+01
7.900000e-07	-4.310042e-06	-1.271480e-09	-2.988370e+01	-8.435011e+01
8.000000e-07	-4.280342e-06	-1.261642e-09	-2.967777e+01	-8.415955e+01
8.100000e-07	-4.250343e-06	-1.259032e-09	-2.946978e+01	-8.396280e+01
8.200000e-07	-4.220002e-06	-1.260277e-09	-2.925941e+01	-8.375986e+01
8.300000e-07	-4.189348e-06	-1.252766e-09	-2.904687e+01	-8.355079e+01
8.400000e-07	-4.158456e-06	-1.245148e-09	-2.883268e+01	-8.333566e+01
8.500000e-07	-4.127358e-06	-1.251102e-09	-2.861706e+01	-8.311458e+01
8.600000e-07	-4.096010e-06	-1.255259e-09	-2.839971e+01	-8.288769e+01
8.700000e-07	-4.064496e-06	-1.248365e-09	-2.818121e+01	-8.265516e+01
8.800000e-07	-4.032818e-06	-1.244348e-09	-2.796157e+01	-8.241715e+01
8.900000e-07	-4.000916e-06	-1.238596e-09	-2.774037e+01	-8.217388e+01
9.000000e-07	-3.968673e-06	-1.227319e-09	-2.751682e+01	-8.192554e+01
9.100000e-07	-3.936066e-06	-1.220943e-09	-2.729074e+01	-8.167236e+01
9.200000e-07	-3.903088e-06	-1.226000e-09	-2.706209e+01	-8.141456e+01
9.300000e-07	-3.869584e-06	-1.224967e-09	-2.682979e+01	-8.115237e+01
9.400000e-07	-3.835629e-06	-1.222087e-09	-2.659435e+01	-8.088602e+01
9.500000e-07	-3.801231e-06	-1.221782e-09	-2.635586e+01	-8.061574e+01
9.600000e-07	-3.766423e-06	-1.216434e-09	-2.611451e+01	-8.034177e+01
9.700000e-07	-3.731335e-06	-1.198542e-09	-2.587123e+01	-8.006433e+01
9.800000e-07	-3.695994e-06	-1.188388e-09	-2.562619e+01	-7.978365e+01
9.900000e-07	-3.660449e-06	-1.185115e-09	-2.537975e+01	-7.949996e+01
1.000000e-06	-3.624774e-06	-1.181438e-09	-2.513239e+01	-7.921347e+01
1.010000e-06	-3.588991e-06	-1.176136e-09	-2.488429e+01	-7.892439e+01
1.020000e-06	-3.553037e-06	-1.177192e-09	-2.463500e+01	-7.863295e+01
1.030000e-06	-3.516868e-06	-1.171291e-09	-2.438422e+01	-7.833934e+01
1.040000e-06	-3.480436e-06	-1.162469e-09	-2.413162e+01	-7.804377e+01
1.050000e-06	-3.443774e-06	-1.156813e-09	-2.387743e+01	-7.774644e+01
1.060000e-06	-3.406950e-06	-1.152483e-09	-2.362211e+01	-7.744753e+01
1.070000e-06	-3.369860e-06	-1.142527e-09	-2.336495e+01	-7.714722e+01
1.080000e-06	-3.332421e-06	-1.137342e-09	-2.310536e+01	-7.684569e+01
1.090000e-06	-3.294715e-06	-1.135167e-09	-2.284393e+01	-7.654311e+01
1.100000e-06	-3.256809e-06	-1.129123e-09	-2.258110e+01	-7.623961e+01
1.110000e-06	-3.218705e-06	-1.120525e-09	-2.231691e+01	-7.593532e+01
1.120000e-06	-3.180364e-06	-1.111268e-09	-2.205107e+01	-7.563036e+01
1.130000e-06	-3.141747e-06	-1.102426e-09	-2.178332e+01	-7.532481e+01
1.140000e-06	-3.102904e-06	-1.095832e-09	-2.151400e+01	-7.501874e+01
1.150000e-06	-3.063877e-06	-1.095272e-09	-2.124341e+01	-7.471218e+01
1.160000e-06	-3.024694e-06	-1.096031e-09	-2.097174e+01	-7.440511e+01
1.170000e-06	-2.985415e-06	-1.093695e-09	-2.069939e+01	-7.409751e+01
1.180000e-06	-2.946024e-06	-1.087934e-09	-2.042628e+01	-7.378928e+01
1.190000e-06	-2.906404e-06	-1.080982e-09	-2.015157e+01	-7.348030e+01
1.200000e-06	-2.866559e-06	-1.069756e-09	-1.987531e+01	-7.317039e+01
1.210000e-06	-2.826627e-06	-1.057591e-09	-1.959843e+01	-7.285932e+01
1.220000e-06	-2.786571e-06	-1.046837e-09	-1.932071e+01	-7.254682e+01
1.230000e-06	-2.746311e-06	-1.038067e-09	-1.904156e+01	-7.223255e+01
1.240000e-06	-2.705928e-06	-1.030931e-09	-1.876157e+01	-7.191613e+01
1.250000e-06	-2.665292e-06	-1.028399e-09	-1.847982e+01	-7.159712e+01
1.260000e-06	-2.624309e-06	-1.028106e-09	-1.819566e+01	-7.127502e+01
1.270000e-06	-2.583050e-06	-1.026665e-09	-1.790960e+01	-7.094930e+01
1.280000e-06	-2.541540e-06	-1.018747e-09	-1.762178e+01	-7.061936e+01
1.290000e-06	-2.499765e-06	-1.009247e-09	-1.733213e+01	-7.028459e+01
1.300000e-06	-2.457610e-06	-9.965731e-10	-1.703986e+01	-6.994432e+01
1.310000e-06	-2.415111e-06	-9.828101e-10	-1.674519e+01	-6.959786e+01
1.320000e-06	-2.372311e-06	-9.728621e-10	-1.644843e+01	-6.924450e+01
1.330000e-06	-2.329282e-06	-9.697117e-10	-1.615009e+01	-6.888351e+01
1.340000e-06	-2.286127e-06	-9.681995e-10	-1.585088e+01	-6.851415e+01
1.350000e-06	-2.242843e-06	-9.682029e-10	-1.555077e+01	-6.813570e+01
1.360000e-06	-2.199405e-06	-9.690883e-10	-1.524959e+01	-6.774744e+01
1.370000e-06	-2.155818e-06	-9.631306e-10	-1.494738e+01	-6.734867e+01
1.380000e-06	-2.112104e-06	-9.510532e-10	-1.464428e+01	-6.693873e+01
1.390000e-06	-2.068313e-06	-9.375957e-10	-1.434066e+01	-6.651700e+01
1.400000e-06	-2.024491e-06	-9.230894e-10	-1.403682e+01	-6.608288e+01
1.410000e-06	-1.980593e-06	-9.093914e-10	-1.373245e+01	-6.563585e+01
1.420000e-06	-1.936626e-06	-8.998476e-10	-1.342761e+01	-6.517545e+01
1.430000e-06	-1.892559e-06	-8.958227e-10	-1.312207e+01	-6.470127e+01
1.440000e-06	-1.848358e-06	-8.930694e-10	-1.281560e+01	-6.421298e+01
1.450000e-06	-1.803997e-06	-8.877394e-10	-1.250803e+01	-6.371030e+01
1.460000e-06	-1.759533e-06	-8.799832e-10	-1.219973e+01	-6.319304e+01
1.470000e-06	-1.714977e-06	-8.696039e-10	-1.189080e+01	-6.266108e+01
1.480000e-06	-1.670267e-06	-8.599619e-10	-1.158081e+01	-6.211435e+01
1.490000e-06	-1.625399e-06	-8.513299e-10	-1.126972e+01	-6.155285e+01
1.500000e-06	-1.580275e-06	-8.412854e-10	-1.095685e+01	-6.097662e+01
1.510000e-06	-1.534994e-06	-8.296090e-10	-1.064289e+01	-6.038578e+01
1.520000e-06	-1.489691e-06	-8.185463e-10	-1.032878e+01	-5.978044e+01
1.530000e-06	-1.444299e-06	-8.082222e-10	-1.001406e+01	-5.916078e+01
1.540000e-06	-1.398858e-06	-7.983696e-10	-9.698991e+00	-5.852696e+01
1.550000e-06	-1.353393e-06	-7.866663e-10	-9.383760e+00	-5.787915e+01
1.560000e-06	-1.307774e-06	-7.737914e-10	-9.067462e+00	-5.721752e+01
1.570000e-06	-1.261986e-06	-7.595239e-10	-8.749985e+00	-5.654218e+01
1.580000e-06	-1.216145e-06	-7.476032e-10	-8.432149e+00	-5.585322e+01
1.590000e-06	-1.170277e-06	-7.367870e-10	-8.114126e+00	-5.515067e+01
1.600000e-06	-1.124315e-06	-7.249077e-10	-7.795445e+00	-5.443448e+01
1.610000e-06	-1.078241e-06	-7.141098e-10	-7.475990e+00	-5.370453e+01
1.620000e-06	-1.032115e-06	-7.030393e-10	-7.156177e+00	-5.296058e+01
1.630000e-06	-9.859529e-07	-6.933477e-10	-6.836111e+00	-5.220232e+01
1.640000e-06	-9.397295e-07	-6.869029e-10	-6.515621e+00	-5.142927e+01
1.650000e-06	-8.934690e-07	-6.795424e-10	-6.194873e+00	-5.064089e+01
1.660000e-06	-8.470593e-07	-6.707918e-10	-5.873091e+00	-4.983646e+01
1.670000e-06	-8.004744e-07	-6.592474e-10	-5.550094e+00	-4.901516e+01
1.680000e-06	-7.538645e-07	-6.435187e-10	-5.226924e+00	-4.817603e+01
1.690000e-06	-7.072941e-07	-6.278928e-10	-4.904028e+00	-4.731799e+01
1.700000e-06	-6.607163e-07	-6.112561e-10	-4.581081e+00	-4.643984e+01
1.710000e-06	-6.140679e-07	-5.921115e-10	-4.257644e+00	-4.554026e+01
1.720000e-06	-5.673023e-07	-5.735382e-10	-3.933394e+00	-4.461784e+01
1.730000e-06	-5.204704e-07	-5.582336e-10	-3.608685e+00	-4.367106e+01
1.740000e-06	-4.736517e-07	-5.470139e-10	-3.284067e+00	-4.269837e+01
1.750000e-06	-4.268262e-07	-5.355143e-10	-2.959402e+00	-4.169812e+01
1.760000e-06	-3.799771e-07	-5.206170e-10	-2.634574e+00	-4.066867e+01
1.770000e-06	-3.330596e-07	-5.042850e-10	-2.309271e+00	-3.960833e+01
1.780000e-06	-2.861370e-07	-4.874558e-10	-1.983933e+00	-3.851544e+01
1.790000e-06	-2.391894e-07	-4.708533e-10	-1.658421e+00	-3.738839e+01
1.800000e-06	-1.922075e-07	-4.541716e-10	-1.332672e+00	-3.622561e+01
1.810000e-06	-1.452649e-07	-4.356756e-10	-1.007195e+00	-3.502563e+01
1.820000e-06	-9.833961e-08	-4.166916e-10	-6.818383e-01	-3.378707e+01
1.830000e-06	-5.137895e-08	-3.982380e-10	-3.562362e-01	-3.250870e+01
1.840000e-06	-4.407870e-09	-3.792088e-10	-3.056199e-02	-3.118947e+01
1.850000e-06	4.256268e-08	-3.616226e-10	2.951086e-01	-2.982846e+01
1.860000e-06	8.956872e-08	-3.450075e-10	6.210253e-01	-2.842500e+01
1.870000e-06	1.365240e-07	-3.256674e-10	9.465902e-01	-2.697860e+01
1.880000e-06	1.834263e-07	-3.037195e-10	1.271787e+00	-2.548903e+01
1.890000e-06	2.302963e-07	-2.802972e-10	1.596761e+00	-2.395629e+01
1.900000e-06	2.772025e-07	-2.536365e-10	1.921985e+00	-2.238066e+01
1.910000e-06	3.241897e-07	-2.267454e-10	2.247771e+00	-2.076265e+01
1.920000e-06	3.711778e-07	-2.022184e-10	2.573564e+00	-1.910306e+01
1.930000e-06	4.180608e-07	-1.789782e-10	2.898627e+00	-1.740295e+01
1.940000e-06	4.648367e-07	-1.564884e-10	3.222948e+00	-1.566366e+01
1.950000e-06	5.116017e-07	-1.346291e-10	3.547194e+00	-1.388677e+01
1.960000e-06	5.583630e-07	-1.124811e-10	3.871414e+00	-1.207412e+01
1.970000e-06	6.050437e-07	-8.812982e-11	4.195074e+00	-1.022778e+01
1.980000e-06	6.516510e-07	-6.192456e-11	4.518226e+00	-8.350045e+00
1.990000e-06	6.982484e-07	-3.355068e-11	4.841309e+00	-6.443428e+00
2.000000e-06	7.448114e-07	-3.812013e-12	5.164154e+00	-4.510614e+00
2.010000e-06	7.912998e-07	2.484809e-11	5.486482e+00	-2.554455e+00
2.020000e-06	8.376899e-07	5.297910e-11	5.808128e+00	-5.779423e-01
2.030000e-06	8.839575e-07	8.124200e-11	6.128925e+00	1.415815e+00
2.040000e-06	9.301978e-07	1.095224e-10	6.449532e+00	3.423618e+00
2.050000e-06	9.764798e-07	1.369294e-10	6.770429e+00	5.442207e+00
2.060000e-06	1.022613e-06	1.632019e-10	7.090297e+00	7.468281e+00
2.070000e-06	1.068543e-06	1.895993e-10	7.408749e+00	9.498531e+00
2.080000e-06	1.114408e-06	2.160037e-10	7.726753e+00	1.152966e+01
2.090000e-06	1.160230e-06	2.442451e-10	8.044465e+00	1.355840e+01
2.100000e-06	1.205940e-06	2.748974e-10	8.361395e+00	1.558157e+01
2.110000e-06	1.251555e-06	3.050656e-10	8.677664e+00	1.759606e+01
2.120000e-06	1.297199e-06	3.328571e-10	8.994134e+00	1.959884e+01
2.130000e-06	1.342814e-06	3.604892e-10	9.310406e+00	2.158703e+01
2.140000e-06	1.388302e-06	3.879280e-10	9.625803e+00	2.355789e+01
2.150000e-06	1.433687e-06	4.127707e-10	9.940475e+00	2.550881e+01
2.160000e-06	1.478998e-06	4.365842e-10	1.025464e+01	2.743737e+01
2.170000e-06	1.524226e-06	4.610634e-10	1.056823e+01	2.934129e+01
2.180000e-06	1.569323e-06	4.871515e-10	1.088091e+01	3.121850e+01
2.190000e-06	1.614307e-06	5.143968e-10	1.119281e+01	3.306708e+01
2.200000e-06	1.659196e-06	5.421506e-10	1.150404e+01	3.488534e+01
2.210000e-06	1.703939e-06	5.697848e-10	1.181427e+01	3.667173e+01
2.220000e-06	1.748540e-06	5.962570e-10	1.212351e+01	3.842491e+01
2.230000e-06	1.793011e-06	6.207724e-10	1.243185e+01	4.014372e+01
2.240000e-06	1.837312e-06	6.403249e-10	1.273901e+01	4.182717e+01
2.250000e-06	1.881438e-06	6.549000e-10	1.304496e+01	4.347443e+01
2.260000e-06	1.925407e-06	6.705219e-10	1.334982e+01	4.508485e+01
2.270000e-06	1.969282e-06	6.893055e-10	1.365403e+01	4.665793e+01
2.280000e-06	2.013115e-06	7.108410e-10	1.395794e+01	4.819329e+01
2.290000e-06	2.056931e-06	7.333628e-10	1.426174e+01	4.969071e+01
2.300000e-06	2.100674e-06	7.576172e-10	1.456504e+01	5.115008e+01
2.310000e-06	2.144313e-06	7.809120e-10	1.486761e+01	5.257142e+01
2.320000e-06	2.187909e-06	7.987047e-10	1.516988e+01	5.395483e+01
2.330000e-06	2.231420e-06	8.136115e-10	1.547157e+01	5.530053e+01
2.340000e-06	2.274771e-06	8.267375e-10	1.577214e+01	5.660881e+01
2.350000e-06	2.317951e-06	8.414582e-10	1.607153e+01	5.788003e+01
2.360000e-06	2.360965e-06	8.577552e-10	1.636976e+01	5.911464e+01
2.370000e-06	2.403824e-06	8.770455e-10	1.666693e+01	6.031312e+01
2.380000e-06	2.446494e-06	8.959868e-10	1.696278e+01	6.147603e+01
2.390000e-06	2.488791e-06	9.110616e-10	1.725605e+01	6.260396e+01
2.400000e-06	2.530700e-06	9.233195e-10	1.754663e+01	6.369755e+01
2.410000e-06	2.572338e-06	9.347197e-10	1.783532e+01	6.475748e+01
2.420000e-06	2.613581e-06	9.475211e-10	1.812128e+01	6.578444e+01
2.430000e-06	2.654461e-06	9.627742e-10	1.840472e+01	6.677918e+01
2.440000e-06	2.695088e-06	9.773150e-10	1.868641e+01	6.774244e+01
2.450000e-06	2.735414e-06	9.906945e-10	1.896601e+01	6.867501e+01
2.460000e-06	2.775568e-06	1.005378e-09	1.924442e+01	6.957768e+01
2.470000e-06	2.815608e-06	1.017721e-09	1.952203e+01	7.045127e+01
2.480000e-06	2.855424e-06	1.028792e-09	1.979810e+01	7.129660e+01
2.490000e-06	2.895077e-06	1.040817e-09	2.007303e+01	7.211450e+01
2.500000e-06	2.934641e-06	1.052411e-09	2.034735e+01	7.290583e+01
2.510000e-06	2.974073e-06	1.065970e-09	2.062075e+01	7.367143e+01
2.520000e-06	3.013321e-06	1.079191e-09	2.089288e+01	7.441215e+01
2.530000e-06	3.052405e-06	1.092865e-09	2.116387e+01	7.512885e+01
2.540000e-06	3.091362e-06	1.106471e-09	2.143398e+01	7.582239e+01
2.550000e-06	3.130074e-06	1.115733e-09	2.170239e+01	7.649360e+01
2.560000e-06	3.168500e-06	1.120803e-09	2.196882e+01	7.714333e+01
2.570000e-06	3.206724e-06	1.124294e-09	2.223384e+01	7.777239e+01
2.580000e-06	3.244743e-06	1.128424e-09	2.249744e+01	7.838160e+01
2.590000e-06	3.282603e-06	1.133504e-09	2.275995e+01	7.897174e+01
2.600000e-06	3.320244e-06	1.143522e-09	2.302093e+01	7.954358e+01
2.610000e-06	3.357635e-06	1.157263e-09	2.328018e+01	8.009785e+01
2.620000e-06	3.394856e-06	1.173304e-09	2.353826e+01	8.063526e+01
2.630000e-06	3.431808e-06	1.185283e-09	2.379446e+01	8.115648e+01
2.640000e-06	3.468429e-06	1.193086e-09	2.404837e+01	8.166215e+01
2.650000e-06	3.504782e-06	1.197468e-09	2.430042e+01	8.215287e+01
2.660000e-06	3.540918e-06	1.198939e-09	2.455098e+01	8.262918e+01
2.670000e-06	3.576852e-06	1.201224e-09	2.480012e+01	8.309161e+01
2.680000e-06	3.612606e-06	1.207012e-09	2.504803e+01	8.354061e+01
2.690000e-06	3.648228e-06	1.218261e-09	2.529501e+01	8.397663e+01
2.700000e-06	3.683770e-06	1.230245e-09	2.554144e+01	8.440003e+01
2.710000e-06	3.719162e-06	1.236429e-09	2.578683e+01	8.481116e+01
2.720000e-06	3.754251e-06	1.238992e-09	2.603012e+01	8.521031e+01
2.730000e-06	3.789000e-06	1.240038e-09	2.627106e+01	8.559773e+01
2.740000e-06	3.823404e-06	1.242133e-09	2.650960e+01	8.597366e+01
2.750000e-06	3.857443e-06	1.246012e-09	2.674560e+01	8.633827e+01
2.760000e-06	3.891077e-06	1.252974e-09	2.697881e+01	8.669173e+01
2.770000e-06	3.924221e-06	1.261905e-09	2.720861e+01	8.703416e+01
2.780000e-06	3.956898e-06	1.269538e-09	2.743518e+01	8.736569e+01
2.790000e-06	3.989231e-06	1.276189e-09	2.765936e+01	8.768639e+01
2.800000e-06	4.021270e-06	1.280860e-09	2.788150e+01	8.799636e+01
2.810000e-06	4.053052e-06	1.282719e-09	2.810186e+01	8.829568e+01
2.820000e-06	4.084698e-06	1.283954e-09	2.832128e+01	8.858442e+01
2.830000e-06	4.116209e-06	1.288116e-09	2.853976e+01	8.886265e+01
2.840000e-06	4.147518e-06	1.293433e-09	2.875684e+01	8.913047e+01
2.850000e-06	4.178560e-06	1.298750e-09	2.897207e+01	8.938797e+01
2.860000e-06	4.209308e-06	1.304039e-09	2.918527e+01	8.963526e+01
2.870000e-06	4.239766e-06	1.308479e-09	2.939645e+01	8.987247e+01
2.880000e-06	4.269892e-06	1.309916e-09	2.960532e+01	9.009975e+01
2.890000e-06	4.299695e-06	1.310236e-09	2.981196e+01	9.031728e+01
2.900000e-06	4.329269e-06	1.310718e-09	3.001701e+01	9.052524e+01
