# Temperatura_=_5.43
# Concentracion g/m^3_=_1620.0
# C_Vs_to_Am_M_A/Vsm_=_65563218390.804596
# pendiente_HvsI_1/m_=_3716.3
# ordenada_HvsI_A/m_=_1297.0
# frecuencia_Hz_=_135108.55933947436

Tiempo_(s)	Campo_(V.s)	Magnetizacion_(V.s)	Campo_(kA/m)	Magnetizacion_(A/m)
0.000000e+00	-5.529393e-06	-1.597261e-09	-3.836188e+01	-1.043331e+02
1.000000e-08	-5.529549e-06	-1.597495e-09	-3.836297e+01	-1.043108e+02
2.000000e-08	-5.529414e-06	-1.599398e-09	-3.836203e+01	-1.042889e+02
3.000000e-08	-5.528812e-06	-1.601659e-09	-3.835785e+01	-1.042672e+02
4.000000e-08	-5.527686e-06	-1.602959e-09	-3.835004e+01	-1.042452e+02
5.000000e-08	-5.525903e-06	-1.599940e-09	-3.833767e+01	-1.042229e+02
6.000000e-08	-5.523516e-06	-1.592030e-09	-3.832111e+01	-1.041997e+02
7.000000e-08	-5.520690e-06	-1.590455e-09	-3.830150e+01	-1.041754e+02
8.000000e-08	-5.517433e-06	-1.617873e-09	-3.827891e+01	-1.041495e+02
9.000000e-08	-5.513712e-06	-1.630772e-09	-3.825309e+01	-1.041216e+02
1.000000e-07	-5.509555e-06	-1.600050e-09	-3.822425e+01	-1.040912e+02
1.100000e-07	-5.505051e-06	-1.604569e-09	-3.819300e+01	-1.040579e+02
1.200000e-07	-5.500328e-06	-1.601484e-09	-3.816024e+01	-1.040213e+02
1.300000e-07	-5.495451e-06	-1.566977e-09	-3.812640e+01	-1.039810e+02
1.400000e-07	-5.490288e-06	-1.571127e-09	-3.809058e+01	-1.039364e+02
1.500000e-07	-5.484698e-06	-1.590983e-09	-3.805180e+01	-1.038872e+02
1.600000e-07	-5.478705e-06	-1.661568e-09	-3.801022e+01	-1.038331e+02
1.700000e-07	-5.472224e-06	-1.578377e-09	-3.796526e+01	-1.037737e+02
1.800000e-07	-5.465260e-06	-1.560826e-09	-3.791694e+01	-1.037087e+02
1.900000e-07	-5.457945e-06	-1.575436e-09	-3.786619e+01	-1.036379e+02
2.000000e-07	-5.450401e-06	-1.616002e-09	-3.781385e+01	-1.035609e+02
2.100000e-07	-5.442618e-06	-1.561915e-09	-3.775985e+01	-1.034778e+02
2.200000e-07	-5.434538e-06	-1.544514e-09	-3.770380e+01	-1.033883e+02
2.300000e-07	-5.426109e-06	-1.582878e-09	-3.764532e+01	-1.032925e+02
2.400000e-07	-5.417083e-06	-1.607508e-09	-3.758270e+01	-1.031903e+02
2.500000e-07	-5.407298e-06	-1.581098e-09	-3.751481e+01	-1.030817e+02
2.600000e-07	-5.396956e-06	-1.548252e-09	-3.744306e+01	-1.029670e+02
2.700000e-07	-5.386124e-06	-1.572776e-09	-3.736791e+01	-1.028462e+02
2.800000e-07	-5.374786e-06	-1.577053e-09	-3.728925e+01	-1.027195e+02
2.900000e-07	-5.363081e-06	-1.581455e-09	-3.720804e+01	-1.025873e+02
3.000000e-07	-5.351059e-06	-1.548302e-09	-3.712463e+01	-1.024497e+02
3.100000e-07	-5.338631e-06	-1.573336e-09	-3.703841e+01	-1.023072e+02
3.200000e-07	-5.325708e-06	-1.562376e-09	-3.694876e+01	-1.021600e+02
3.300000e-07	-5.312396e-06	-1.570860e-09	-3.685640e+01	-1.020085e+02
3.400000e-07	-5.298757e-06	-1.530843e-09	-3.676178e+01	-1.018532e+02
3.500000e-07	-5.284761e-06	-1.555140e-09	-3.666467e+01	-1.016943e+02
3.600000e-07	-5.270259e-06	-1.564364e-09	-3.656406e+01	-1.015323e+02
3.700000e-07	-5.255219e-06	-1.561988e-09	-3.645972e+01	-1.013676e+02
3.800000e-07	-5.239590e-06	-1.524896e-09	-3.635129e+01	-1.012005e+02
3.900000e-07	-5.223467e-06	-1.559144e-09	-3.623942e+01	-1.010314e+02
4.000000e-07	-5.206945e-06	-1.554058e-09	-3.612480e+01	-1.008607e+02
4.100000e-07	-5.190090e-06	-1.516330e-09	-3.600787e+01	-1.006885e+02
4.200000e-07	-5.172953e-06	-1.528277e-09	-3.588897e+01	-1.005153e+02
4.300000e-07	-5.155463e-06	-1.586406e-09	-3.576763e+01	-1.003412e+02
4.400000e-07	-5.137567e-06	-1.538506e-09	-3.564347e+01	-1.001664e+02
4.500000e-07	-5.119244e-06	-1.501027e-09	-3.551635e+01	-9.999116e+01
4.600000e-07	-5.100603e-06	-1.553878e-09	-3.538702e+01	-9.981546e+01
4.700000e-07	-5.081628e-06	-1.547051e-09	-3.525537e+01	-9.963944e+01
4.800000e-07	-5.062315e-06	-1.477349e-09	-3.512138e+01	-9.946311e+01
4.900000e-07	-5.042779e-06	-1.513371e-09	-3.498585e+01	-9.928646e+01
5.000000e-07	-5.023047e-06	-1.552960e-09	-3.484895e+01	-9.910946e+01
5.100000e-07	-5.003015e-06	-1.479962e-09	-3.470997e+01	-9.893200e+01
5.200000e-07	-4.982610e-06	-1.478581e-09	-3.456840e+01	-9.875399e+01
5.300000e-07	-4.961852e-06	-1.538211e-09	-3.442439e+01	-9.857528e+01
5.400000e-07	-4.940745e-06	-1.495515e-09	-3.427796e+01	-9.839572e+01
5.500000e-07	-4.919358e-06	-1.451721e-09	-3.412958e+01	-9.821512e+01
5.600000e-07	-4.897670e-06	-1.522891e-09	-3.397911e+01	-9.803330e+01
5.700000e-07	-4.875589e-06	-1.513476e-09	-3.382591e+01	-9.785006e+01
5.800000e-07	-4.853110e-06	-1.456480e-09	-3.366996e+01	-9.766520e+01
5.900000e-07	-4.830198e-06	-1.491999e-09	-3.351100e+01	-9.747855e+01
6.000000e-07	-4.807003e-06	-1.521069e-09	-3.335008e+01	-9.728990e+01
6.100000e-07	-4.783617e-06	-1.450279e-09	-3.318783e+01	-9.709909e+01
6.200000e-07	-4.760049e-06	-1.457723e-09	-3.302432e+01	-9.690597e+01
6.300000e-07	-4.736254e-06	-1.489372e-09	-3.285923e+01	-9.671039e+01
6.400000e-07	-4.712094e-06	-1.458235e-09	-3.269161e+01	-9.651224e+01
6.500000e-07	-4.687591e-06	-1.443242e-09	-3.252162e+01	-9.631144e+01
6.600000e-07	-4.662586e-06	-1.484426e-09	-3.234814e+01	-9.610790e+01
6.700000e-07	-4.636910e-06	-1.459889e-09	-3.217000e+01	-9.590158e+01
6.800000e-07	-4.610672e-06	-1.434498e-09	-3.198797e+01	-9.569246e+01
6.900000e-07	-4.584032e-06	-1.451360e-09	-3.180315e+01	-9.548053e+01
7.000000e-07	-4.557078e-06	-1.448311e-09	-3.161614e+01	-9.526582e+01
7.100000e-07	-4.529783e-06	-1.420646e-09	-3.142678e+01	-9.504833e+01
7.200000e-07	-4.502261e-06	-1.438396e-09	-3.123583e+01	-9.482813e+01
7.300000e-07	-4.474596e-06	-1.445832e-09	-3.104390e+01	-9.460524e+01
7.400000e-07	-4.446750e-06	-1.428206e-09	-3.085071e+01	-9.437973e+01
7.500000e-07	-4.418658e-06	-1.426992e-09	-3.065581e+01	-9.415165e+01
7.600000e-07	-4.390279e-06	-1.433204e-09	-3.045893e+01	-9.392102e+01
7.700000e-07	-4.361582e-06	-1.414930e-09	-3.025983e+01	-9.368789e+01
7.800000e-07	-4.332485e-06	-1.405776e-09	-3.005796e+01	-9.345227e+01
7.900000e-07	-4.303063e-06	-1.409004e-09	-2.985384e+01	-9.321416e+01
8.000000e-07	-4.273369e-06	-1.395230e-09	-2.964782e+01	-9.297353e+01
8.100000e-07	-4.243406e-06	-1.384690e-09	-2.943995e+01	-9.273032e+01
8.200000e-07	-4.213105e-06	-1.386719e-09	-2.922972e+01	-9.248446e+01
8.300000e-07	-4.182434e-06	-1.382788e-09	-2.901694e+01	-9.223583e+01
8.400000e-07	-4.151477e-06	-1.370588e-09	-2.880216e+01	-9.198431e+01
8.500000e-07	-4.120312e-06	-1.380235e-09	-2.858595e+01	-9.172970e+01
8.600000e-07	-4.088996e-06	-1.382336e-09	-2.836868e+01	-9.147183e+01
8.700000e-07	-4.057525e-06	-1.369116e-09	-2.815034e+01	-9.121047e+01
8.800000e-07	-4.025883e-06	-1.357988e-09	-2.793082e+01	-9.094537e+01
8.900000e-07	-3.993997e-06	-1.355964e-09	-2.770960e+01	-9.067628e+01
9.000000e-07	-3.961900e-06	-1.339356e-09	-2.748691e+01	-9.040290e+01
9.100000e-07	-3.929470e-06	-1.334273e-09	-2.726192e+01	-9.012498e+01
9.200000e-07	-3.896496e-06	-1.336956e-09	-2.703315e+01	-8.984220e+01
9.300000e-07	-3.862978e-06	-1.333798e-09	-2.680061e+01	-8.955431e+01
9.400000e-07	-3.828960e-06	-1.322723e-09	-2.656460e+01	-8.926102e+01
9.500000e-07	-3.794507e-06	-1.324697e-09	-2.632558e+01	-8.896209e+01
9.600000e-07	-3.759724e-06	-1.313993e-09	-2.608426e+01	-8.865730e+01
9.700000e-07	-3.724648e-06	-1.297121e-09	-2.584091e+01	-8.834645e+01
9.800000e-07	-3.689309e-06	-1.289490e-09	-2.559573e+01	-8.802940e+01
9.900000e-07	-3.653785e-06	-1.290945e-09	-2.534927e+01	-8.770602e+01
1.000000e-06	-3.618084e-06	-1.283410e-09	-2.510158e+01	-8.737625e+01
1.010000e-06	-3.582247e-06	-1.279699e-09	-2.485295e+01	-8.704009e+01
1.020000e-06	-3.546293e-06	-1.280574e-09	-2.460351e+01	-8.669758e+01
1.030000e-06	-3.510157e-06	-1.274046e-09	-2.435280e+01	-8.634881e+01
1.040000e-06	-3.473741e-06	-1.263841e-09	-2.410016e+01	-8.599392e+01
1.050000e-06	-3.436982e-06	-1.261549e-09	-2.384513e+01	-8.563314e+01
1.060000e-06	-3.399935e-06	-1.256767e-09	-2.358811e+01	-8.526671e+01
1.070000e-06	-3.362679e-06	-1.247176e-09	-2.332963e+01	-8.489492e+01
1.080000e-06	-3.325198e-06	-1.240910e-09	-2.306960e+01	-8.451813e+01
1.090000e-06	-3.287517e-06	-1.232891e-09	-2.280817e+01	-8.413669e+01
1.100000e-06	-3.249667e-06	-1.221156e-09	-2.254558e+01	-8.375102e+01
1.110000e-06	-3.211573e-06	-1.210466e-09	-2.228128e+01	-8.336152e+01
1.120000e-06	-3.173272e-06	-1.202738e-09	-2.201556e+01	-8.296861e+01
1.130000e-06	-3.134742e-06	-1.191863e-09	-2.174825e+01	-8.257271e+01
1.140000e-06	-3.095886e-06	-1.186609e-09	-2.147867e+01	-8.217421e+01
1.150000e-06	-3.056808e-06	-1.186282e-09	-2.120755e+01	-8.177349e+01
1.160000e-06	-3.017648e-06	-1.184343e-09	-2.093587e+01	-8.137088e+01
1.170000e-06	-2.978373e-06	-1.175006e-09	-2.066339e+01	-8.096666e+01
1.180000e-06	-2.938910e-06	-1.169582e-09	-2.038960e+01	-8.056106e+01
1.190000e-06	-2.899301e-06	-1.164606e-09	-2.011480e+01	-8.015423e+01
1.200000e-06	-2.859561e-06	-1.157587e-09	-1.983910e+01	-7.974626e+01
1.210000e-06	-2.819651e-06	-1.148115e-09	-1.956221e+01	-7.933713e+01
1.220000e-06	-2.779609e-06	-1.140939e-09	-1.928440e+01	-7.892674e+01
1.230000e-06	-2.739448e-06	-1.129900e-09	-1.900578e+01	-7.851492e+01
1.240000e-06	-2.699071e-06	-1.120082e-09	-1.872564e+01	-7.810137e+01
1.250000e-06	-2.658415e-06	-1.111936e-09	-1.844358e+01	-7.768572e+01
1.260000e-06	-2.617445e-06	-1.106720e-09	-1.815934e+01	-7.726747e+01
1.270000e-06	-2.576143e-06	-1.100051e-09	-1.787279e+01	-7.684608e+01
1.280000e-06	-2.534600e-06	-1.091506e-09	-1.758458e+01	-7.642087e+01
1.290000e-06	-2.492803e-06	-1.081877e-09	-1.729459e+01	-7.599114e+01
1.300000e-06	-2.450729e-06	-1.072223e-09	-1.700270e+01	-7.555607e+01
1.310000e-06	-2.408335e-06	-1.061721e-09	-1.670857e+01	-7.511481e+01
1.320000e-06	-2.365542e-06	-1.053178e-09	-1.641168e+01	-7.466647e+01
1.330000e-06	-2.322472e-06	-1.045349e-09	-1.611287e+01	-7.421010e+01
1.340000e-06	-2.279249e-06	-1.037477e-09	-1.581300e+01	-7.374478e+01
1.350000e-06	-2.235888e-06	-1.031892e-09	-1.551217e+01	-7.326953e+01
1.360000e-06	-2.192409e-06	-1.029913e-09	-1.521052e+01	-7.278344e+01
1.370000e-06	-2.148840e-06	-1.025987e-09	-1.490824e+01	-7.228559e+01
1.380000e-06	-2.105169e-06	-1.017230e-09	-1.460526e+01	-7.177512e+01
1.390000e-06	-2.061413e-06	-1.003541e-09	-1.430169e+01	-7.125122e+01
1.400000e-06	-2.017618e-06	-9.869173e-10	-1.399785e+01	-7.071316e+01
1.410000e-06	-1.973783e-06	-9.717470e-10	-1.369373e+01	-7.016028e+01
1.420000e-06	-1.929832e-06	-9.592819e-10	-1.338881e+01	-6.959201e+01
1.430000e-06	-1.885748e-06	-9.503896e-10	-1.308296e+01	-6.900791e+01
1.440000e-06	-1.841550e-06	-9.426885e-10	-1.277632e+01	-6.840759e+01
1.450000e-06	-1.797220e-06	-9.357667e-10	-1.246877e+01	-6.779082e+01
1.460000e-06	-1.752705e-06	-9.285350e-10	-1.215993e+01	-6.715745e+01
1.470000e-06	-1.708043e-06	-9.202322e-10	-1.185008e+01	-6.650744e+01
1.480000e-06	-1.663329e-06	-9.098831e-10	-1.153986e+01	-6.584085e+01
1.490000e-06	-1.618523e-06	-8.988958e-10	-1.122900e+01	-6.515783e+01
1.500000e-06	-1.573593e-06	-8.843143e-10	-1.091729e+01	-6.445864e+01
1.510000e-06	-1.528572e-06	-8.696969e-10	-1.060494e+01	-6.374356e+01
1.520000e-06	-1.483426e-06	-8.569848e-10	-1.029173e+01	-6.301298e+01
1.530000e-06	-1.438109e-06	-8.460576e-10	-9.977331e+00	-6.226729e+01
1.540000e-06	-1.392709e-06	-8.360516e-10	-9.662351e+00	-6.150692e+01
1.550000e-06	-1.347234e-06	-8.276642e-10	-9.346852e+00	-6.073230e+01
1.560000e-06	-1.301684e-06	-8.143425e-10	-9.030837e+00	-5.994384e+01
1.570000e-06	-1.256057e-06	-7.977067e-10	-8.714284e+00	-5.914190e+01
1.580000e-06	-1.210306e-06	-7.804205e-10	-8.396875e+00	-5.832679e+01
1.590000e-06	-1.164460e-06	-7.631286e-10	-8.078803e+00	-5.749875e+01
1.600000e-06	-1.118483e-06	-7.462514e-10	-7.759823e+00	-5.665790e+01
1.610000e-06	-1.072423e-06	-7.342179e-10	-7.440265e+00	-5.580424e+01
1.620000e-06	-1.026324e-06	-7.256103e-10	-7.120441e+00	-5.493765e+01
1.630000e-06	-9.801549e-07	-7.157870e-10	-6.800129e+00	-5.405785e+01
1.640000e-06	-9.338902e-07	-7.047504e-10	-6.479154e+00	-5.316440e+01
1.650000e-06	-8.875013e-07	-6.929102e-10	-6.157316e+00	-5.225670e+01
1.660000e-06	-8.410824e-07	-6.799678e-10	-5.835271e+00	-5.133396e+01
1.670000e-06	-7.946979e-07	-6.651109e-10	-5.513463e+00	-5.039522e+01
1.680000e-06	-7.482094e-07	-6.498467e-10	-5.190936e+00	-4.943934e+01
1.690000e-06	-7.016366e-07	-6.352915e-10	-4.867822e+00	-4.846503e+01
1.700000e-06	-6.550413e-07	-6.190845e-10	-4.544553e+00	-4.747080e+01
1.710000e-06	-6.084205e-07	-6.003640e-10	-4.221106e+00	-4.645506e+01
1.720000e-06	-5.617839e-07	-5.800846e-10	-3.897550e+00	-4.541604e+01
1.730000e-06	-5.150937e-07	-5.608418e-10	-3.573622e+00	-4.435189e+01
1.740000e-06	-4.683273e-07	-5.459321e-10	-3.249166e+00	-4.326067e+01
1.750000e-06	-4.215530e-07	-5.313739e-10	-2.924655e+00	-4.214035e+01
1.760000e-06	-3.747548e-07	-5.169918e-10	-2.599978e+00	-4.098890e+01
1.770000e-06	-3.279216e-07	-5.024604e-10	-2.275058e+00	-3.980426e+01
1.780000e-06	-2.811301e-07	-4.875469e-10	-1.950428e+00	-3.858442e+01
1.790000e-06	-2.342877e-07	-4.724546e-10	-1.625444e+00	-3.732739e+01
1.800000e-06	-1.873922e-07	-4.550754e-10	-1.300092e+00	-3.603133e+01
1.810000e-06	-1.404954e-07	-4.357591e-10	-9.747306e-01	-3.469447e+01
1.820000e-06	-9.365384e-08	-4.167736e-10	-6.497527e-01	-3.331523e+01
1.830000e-06	-4.680294e-08	-3.986395e-10	-3.247100e-01	-3.189223e+01
1.840000e-06	6.728750e-11	-3.818624e-10	4.668279e-04	-3.042427e+01
1.850000e-06	4.690295e-08	-3.641566e-10	3.254038e-01	-2.891043e+01
1.860000e-06	9.378119e-08	-3.448934e-10	6.506362e-01	-2.735004e+01
1.870000e-06	1.406727e-07	-3.214700e-10	9.759603e-01	-2.574275e+01
1.880000e-06	1.875471e-07	-2.953776e-10	1.301166e+00	-2.408847e+01
1.890000e-06	2.344258e-07	-2.668286e-10	1.626402e+00	-2.238748e+01
1.900000e-06	2.813202e-07	-2.389722e-10	1.951746e+00	-2.064037e+01
1.910000e-06	3.282231e-07	-2.147722e-10	2.277150e+00	-1.884805e+01
1.920000e-06	3.751436e-07	-1.918145e-10	2.602675e+00	-1.701180e+01
1.930000e-06	4.219942e-07	-1.694753e-10	2.927716e+00	-1.513320e+01
1.940000e-06	4.687498e-07	-1.457009e-10	3.252098e+00	-1.321417e+01
1.950000e-06	5.154479e-07	-1.196057e-10	3.576080e+00	-1.125693e+01
1.960000e-06	5.620828e-07	-9.222089e-11	3.899624e+00	-9.264007e+00
1.970000e-06	6.086937e-07	-6.390238e-11	4.223002e+00	-7.238171e+00
1.980000e-06	6.552286e-07	-3.631264e-11	4.545852e+00	-5.182459e+00
1.990000e-06	7.017073e-07	-8.836207e-12	4.868312e+00	-3.100116e+00
2.000000e-06	7.481893e-07	1.984356e-11	5.190796e+00	-9.945759e-01
2.010000e-06	7.946010e-07	4.970825e-11	5.512791e+00	1.130574e+00
2.020000e-06	8.409705e-07	8.211040e-11	5.834494e+00	3.271628e+00
2.030000e-06	8.872778e-07	1.151011e-10	6.155766e+00	5.424798e+00
2.040000e-06	9.335263e-07	1.474863e-10	6.476629e+00	7.586248e+00
2.050000e-06	9.797559e-07	1.772177e-10	6.797361e+00	9.752132e+00
2.060000e-06	1.025902e-06	2.046584e-10	7.117511e+00	1.191863e+01
2.070000e-06	1.071966e-06	2.308497e-10	7.437095e+00	1.408198e+01
2.080000e-06	1.117921e-06	2.573198e-10	7.755922e+00	1.623850e+01
2.090000e-06	1.163799e-06	2.865906e-10	8.074219e+00	1.838466e+01
2.100000e-06	1.209611e-06	3.177364e-10	8.392050e+00	2.051706e+01
2.110000e-06	1.255336e-06	3.486595e-10	8.709284e+00	2.263247e+01
2.120000e-06	1.301004e-06	3.786786e-10	9.026123e+00	2.472788e+01
2.130000e-06	1.346608e-06	4.087630e-10	9.342514e+00	2.680048e+01
2.140000e-06	1.392095e-06	4.380009e-10	9.658090e+00	2.884770e+01
2.150000e-06	1.437459e-06	4.631877e-10	9.972818e+00	3.086720e+01
2.160000e-06	1.482774e-06	4.872145e-10	1.028720e+01	3.285691e+01
2.170000e-06	1.527955e-06	5.118221e-10	1.060067e+01	3.481499e+01
2.180000e-06	1.572961e-06	5.383879e-10	1.091291e+01	3.673988e+01
2.190000e-06	1.617813e-06	5.670935e-10	1.122408e+01	3.863024e+01
2.200000e-06	1.662537e-06	5.967283e-10	1.153437e+01	4.048500e+01
2.210000e-06	1.707172e-06	6.265465e-10	1.184404e+01	4.230332e+01
2.220000e-06	1.751723e-06	6.542612e-10	1.215313e+01	4.408455e+01
2.230000e-06	1.796142e-06	6.775859e-10	1.246129e+01	4.582827e+01
2.240000e-06	1.840381e-06	6.953086e-10	1.276822e+01	4.753426e+01
2.250000e-06	1.884490e-06	7.100921e-10	1.307424e+01	4.920245e+01
2.260000e-06	1.928483e-06	7.274682e-10	1.337945e+01	5.083291e+01
2.270000e-06	1.972412e-06	7.483133e-10	1.368422e+01	5.242588e+01
2.280000e-06	2.016290e-06	7.705422e-10	1.398864e+01	5.398167e+01
2.290000e-06	2.060097e-06	7.934900e-10	1.429256e+01	5.550070e+01
2.300000e-06	2.103800e-06	8.173664e-10	1.459577e+01	5.698346e+01
2.310000e-06	2.147426e-06	8.399733e-10	1.489843e+01	5.843048e+01
2.320000e-06	2.191010e-06	8.577706e-10	1.520082e+01	5.984235e+01
2.330000e-06	2.234491e-06	8.724553e-10	1.550248e+01	6.121965e+01
2.340000e-06	2.277851e-06	8.869868e-10	1.580330e+01	6.256298e+01
2.350000e-06	2.321044e-06	9.038698e-10	1.610297e+01	6.387293e+01
2.360000e-06	2.364016e-06	9.229381e-10	1.640110e+01	6.515008e+01
2.370000e-06	2.406741e-06	9.422918e-10	1.669752e+01	6.639496e+01
2.380000e-06	2.449144e-06	9.600384e-10	1.699170e+01	6.760811e+01
2.390000e-06	2.491216e-06	9.745102e-10	1.728358e+01	6.879000e+01
2.400000e-06	2.533043e-06	9.863270e-10	1.757377e+01	6.994109e+01
2.410000e-06	2.574630e-06	9.971742e-10	1.786230e+01	7.106178e+01
2.420000e-06	2.615900e-06	1.008620e-09	1.814862e+01	7.215246e+01
2.430000e-06	2.656919e-06	1.023959e-09	1.843320e+01	7.321350e+01
2.440000e-06	2.697688e-06	1.042027e-09	1.871605e+01	7.424521e+01
2.450000e-06	2.738139e-06	1.060789e-09	1.899669e+01	7.524793e+01
2.460000e-06	2.778332e-06	1.077278e-09	1.927555e+01	7.622196e+01
2.470000e-06	2.818342e-06	1.088826e-09	1.955312e+01	7.716761e+01
2.480000e-06	2.858206e-06	1.098480e-09	1.982969e+01	7.808521e+01
2.490000e-06	2.897949e-06	1.108430e-09	2.010542e+01	7.897508e+01
2.500000e-06	2.937573e-06	1.120201e-09	2.038032e+01	7.983761e+01
2.510000e-06	2.977008e-06	1.136217e-09	2.065392e+01	8.067316e+01
2.520000e-06	3.016214e-06	1.151291e-09	2.092592e+01	8.148219e+01
2.530000e-06	3.055224e-06	1.165948e-09	2.119657e+01	8.226517e+01
2.540000e-06	3.094058e-06	1.179870e-09	2.146599e+01	8.302262e+01
2.550000e-06	3.132701e-06	1.188796e-09	2.173409e+01	8.375513e+01
2.560000e-06	3.171136e-06	1.192351e-09	2.200074e+01	8.446331e+01
2.570000e-06	3.209358e-06	1.193621e-09	2.226592e+01	8.514788e+01
2.580000e-06	3.247368e-06	1.196809e-09	2.252962e+01	8.580955e+01
2.590000e-06	3.285169e-06	1.203978e-09	2.279188e+01	8.644911e+01
2.600000e-06	3.322766e-06	1.218417e-09	2.305272e+01	8.706741e+01
2.610000e-06	3.360164e-06	1.234848e-09	2.331218e+01	8.766530e+01
2.620000e-06	3.397351e-06	1.249347e-09	2.357018e+01	8.824370e+01
2.630000e-06	3.434299e-06	1.258817e-09	2.382652e+01	8.880353e+01
2.640000e-06	3.470965e-06	1.264640e-09	2.408090e+01	8.934574e+01
2.650000e-06	3.507318e-06	1.268391e-09	2.433311e+01	8.987126e+01
2.660000e-06	3.543403e-06	1.270653e-09	2.458346e+01	9.038106e+01
2.670000e-06	3.579292e-06	1.275121e-09	2.483245e+01	9.087604e+01
2.680000e-06	3.615023e-06	1.282426e-09	2.508034e+01	9.135712e+01
2.690000e-06	3.650606e-06	1.292395e-09	2.532721e+01	9.182516e+01
2.700000e-06	3.686043e-06	1.302569e-09	2.557307e+01	9.228099e+01
2.710000e-06	3.721365e-06	1.309364e-09	2.581812e+01	9.272536e+01
2.720000e-06	3.756491e-06	1.314658e-09	2.606182e+01	9.315899e+01
2.730000e-06	3.791251e-06	1.318697e-09	2.630298e+01	9.358250e+01
2.740000e-06	3.825647e-06	1.322794e-09	2.654162e+01	9.399647e+01
2.750000e-06	3.859656e-06	1.326544e-09	2.677757e+01	9.440136e+01
2.760000e-06	3.893126e-06	1.332677e-09	2.700977e+01	9.479757e+01
2.770000e-06	3.926066e-06	1.341597e-09	2.723830e+01	9.518542e+01
2.780000e-06	3.958612e-06	1.350847e-09	2.746410e+01	9.556513e+01
2.790000e-06	3.990906e-06	1.360397e-09	2.768815e+01	9.593686e+01
2.800000e-06	4.023026e-06	1.368553e-09	2.791099e+01	9.630067e+01
2.810000e-06	4.054905e-06	1.374753e-09	2.813217e+01	9.665656e+01
2.820000e-06	4.086557e-06	1.377555e-09	2.835176e+01	9.700445e+01
2.830000e-06	4.117982e-06	1.380111e-09	2.856978e+01	9.734422e+01
2.840000e-06	4.149199e-06	1.383145e-09	2.878636e+01	9.767567e+01
2.850000e-06	4.180193e-06	1.386739e-09	2.900139e+01	9.799857e+01
2.860000e-06	4.210849e-06	1.393052e-09	2.921407e+01	9.831267e+01
2.870000e-06	4.241166e-06	1.402267e-09	2.942441e+01	9.861768e+01
2.880000e-06	4.271142e-06	1.409272e-09	2.963237e+01	9.891331e+01
2.890000e-06	4.300782e-06	1.413952e-09	2.983801e+01	9.919925e+01
2.900000e-06	4.330179e-06	1.418575e-09	3.004196e+01	9.947522e+01
