# Temperatura_=_13.2
# Concentracion g/m^3_=_1620.0
# C_Vs_to_Am_M_A/Vsm_=_65563218390.804596
# pendiente_HvsI_1/m_=_3716.3
# ordenada_HvsI_A/m_=_1297.0
# frecuencia_Hz_=_135105.10854381014

Tiempo_(s)	Campo_(V.s)	Magnetizacion_(V.s)	Campo_(kA/m)	Magnetizacion_(A/m)
0.000000e+00	-5.519911e-06	-1.827898e-09	-3.836569e+01	-1.190169e+02
1.000000e-08	-5.520139e-06	-1.825465e-09	-3.836727e+01	-1.189427e+02
2.000000e-08	-5.520038e-06	-1.824823e-09	-3.836657e+01	-1.188681e+02
3.000000e-08	-5.519416e-06	-1.825520e-09	-3.836224e+01	-1.187936e+02
4.000000e-08	-5.518204e-06	-1.825790e-09	-3.835382e+01	-1.187196e+02
5.000000e-08	-5.516472e-06	-1.819089e-09	-3.834178e+01	-1.186466e+02
6.000000e-08	-5.514227e-06	-1.803858e-09	-3.832618e+01	-1.185748e+02
7.000000e-08	-5.511362e-06	-1.811712e-09	-3.830626e+01	-1.185045e+02
8.000000e-08	-5.508035e-06	-1.857463e-09	-3.828314e+01	-1.184357e+02
9.000000e-08	-5.504326e-06	-1.883215e-09	-3.825736e+01	-1.183685e+02
1.000000e-07	-5.500222e-06	-1.836801e-09	-3.822883e+01	-1.183028e+02
1.100000e-07	-5.495841e-06	-1.769144e-09	-3.819839e+01	-1.182384e+02
1.200000e-07	-5.491261e-06	-1.776974e-09	-3.816655e+01	-1.181751e+02
1.300000e-07	-5.486427e-06	-1.824257e-09	-3.813296e+01	-1.181125e+02
1.400000e-07	-5.481172e-06	-1.821363e-09	-3.809643e+01	-1.180503e+02
1.500000e-07	-5.475544e-06	-1.774499e-09	-3.805732e+01	-1.179879e+02
1.600000e-07	-5.469514e-06	-1.797593e-09	-3.801541e+01	-1.179248e+02
1.700000e-07	-5.462982e-06	-1.848414e-09	-3.797000e+01	-1.178603e+02
1.800000e-07	-5.456057e-06	-1.836688e-09	-3.792187e+01	-1.177938e+02
1.900000e-07	-5.448855e-06	-1.784510e-09	-3.787182e+01	-1.177247e+02
2.000000e-07	-5.441387e-06	-1.771068e-09	-3.781991e+01	-1.176522e+02
2.100000e-07	-5.433623e-06	-1.809092e-09	-3.776595e+01	-1.175756e+02
2.200000e-07	-5.425588e-06	-1.813904e-09	-3.771010e+01	-1.174943e+02
2.300000e-07	-5.417298e-06	-1.796813e-09	-3.765248e+01	-1.174076e+02
2.400000e-07	-5.408441e-06	-1.786763e-09	-3.759092e+01	-1.173148e+02
2.500000e-07	-5.398678e-06	-1.804542e-09	-3.752306e+01	-1.172155e+02
2.600000e-07	-5.388189e-06	-1.800765e-09	-3.745016e+01	-1.171089e+02
2.700000e-07	-5.377245e-06	-1.792243e-09	-3.737409e+01	-1.169948e+02
2.800000e-07	-5.365920e-06	-1.786339e-09	-3.729538e+01	-1.168727e+02
2.900000e-07	-5.354253e-06	-1.804684e-09	-3.721429e+01	-1.167423e+02
3.000000e-07	-5.342277e-06	-1.796642e-09	-3.713105e+01	-1.166034e+02
3.100000e-07	-5.329918e-06	-1.775154e-09	-3.704515e+01	-1.164559e+02
3.200000e-07	-5.317025e-06	-1.770721e-09	-3.695554e+01	-1.162996e+02
3.300000e-07	-5.303756e-06	-1.786175e-09	-3.686332e+01	-1.161347e+02
3.400000e-07	-5.290201e-06	-1.777985e-09	-3.676911e+01	-1.159612e+02
3.500000e-07	-5.276180e-06	-1.761613e-09	-3.667165e+01	-1.157795e+02
3.600000e-07	-5.261597e-06	-1.771646e-09	-3.657029e+01	-1.155896e+02
3.700000e-07	-5.246590e-06	-1.779994e-09	-3.646599e+01	-1.153921e+02
3.800000e-07	-5.231102e-06	-1.761707e-09	-3.635834e+01	-1.151874e+02
3.900000e-07	-5.214977e-06	-1.755184e-09	-3.624627e+01	-1.149758e+02
4.000000e-07	-5.198441e-06	-1.766126e-09	-3.613133e+01	-1.147579e+02
4.100000e-07	-5.181636e-06	-1.745490e-09	-3.601453e+01	-1.145343e+02
4.200000e-07	-5.164467e-06	-1.728731e-09	-3.589520e+01	-1.143056e+02
4.300000e-07	-5.146966e-06	-1.750968e-09	-3.577356e+01	-1.140722e+02
4.400000e-07	-5.129190e-06	-1.766469e-09	-3.565001e+01	-1.138348e+02
4.500000e-07	-5.111056e-06	-1.736191e-09	-3.552397e+01	-1.135940e+02
4.600000e-07	-5.092464e-06	-1.732958e-09	-3.539475e+01	-1.133503e+02
4.700000e-07	-5.073468e-06	-1.741221e-09	-3.526272e+01	-1.131042e+02
4.800000e-07	-5.054211e-06	-1.728112e-09	-3.512888e+01	-1.128562e+02
4.900000e-07	-5.034698e-06	-1.708578e-09	-3.499325e+01	-1.126067e+02
5.000000e-07	-5.014987e-06	-1.719588e-09	-3.485625e+01	-1.123562e+02
5.100000e-07	-4.995048e-06	-1.706635e-09	-3.471767e+01	-1.121049e+02
5.200000e-07	-4.974753e-06	-1.695478e-09	-3.457661e+01	-1.118531e+02
5.300000e-07	-4.954100e-06	-1.712542e-09	-3.443306e+01	-1.116010e+02
5.400000e-07	-4.933056e-06	-1.722477e-09	-3.428680e+01	-1.113487e+02
5.500000e-07	-4.911675e-06	-1.692349e-09	-3.413819e+01	-1.110963e+02
5.600000e-07	-4.890007e-06	-1.684352e-09	-3.398759e+01	-1.108438e+02
5.700000e-07	-4.867999e-06	-1.692817e-09	-3.383462e+01	-1.105910e+02
5.800000e-07	-4.845581e-06	-1.681896e-09	-3.367881e+01	-1.103380e+02
5.900000e-07	-4.822763e-06	-1.665506e-09	-3.352021e+01	-1.100845e+02
6.000000e-07	-4.799604e-06	-1.671905e-09	-3.335925e+01	-1.098302e+02
6.100000e-07	-4.776211e-06	-1.666222e-09	-3.319666e+01	-1.095749e+02
6.200000e-07	-4.752667e-06	-1.650323e-09	-3.303302e+01	-1.093183e+02
6.300000e-07	-4.728910e-06	-1.649657e-09	-3.286789e+01	-1.090601e+02
6.400000e-07	-4.704806e-06	-1.651925e-09	-3.270036e+01	-1.087998e+02
6.500000e-07	-4.680227e-06	-1.644660e-09	-3.252953e+01	-1.085370e+02
6.600000e-07	-4.655194e-06	-1.643717e-09	-3.235554e+01	-1.082714e+02
6.700000e-07	-4.629703e-06	-1.644358e-09	-3.217837e+01	-1.080027e+02
6.800000e-07	-4.603695e-06	-1.628936e-09	-3.199760e+01	-1.077302e+02
6.900000e-07	-4.577154e-06	-1.619145e-09	-3.181313e+01	-1.074538e+02
7.000000e-07	-4.550116e-06	-1.618148e-09	-3.162521e+01	-1.071730e+02
7.100000e-07	-4.522803e-06	-1.614398e-09	-3.143537e+01	-1.068875e+02
7.200000e-07	-4.495332e-06	-1.609171e-09	-3.124444e+01	-1.065969e+02
7.300000e-07	-4.467671e-06	-1.615391e-09	-3.105218e+01	-1.063009e+02
7.400000e-07	-4.439828e-06	-1.612390e-09	-3.085866e+01	-1.059993e+02
7.500000e-07	-4.411754e-06	-1.602280e-09	-3.066353e+01	-1.056919e+02
7.600000e-07	-4.383401e-06	-1.595777e-09	-3.046647e+01	-1.053783e+02
7.700000e-07	-4.354715e-06	-1.591838e-09	-3.026709e+01	-1.050585e+02
7.800000e-07	-4.325652e-06	-1.578565e-09	-3.006508e+01	-1.047323e+02
7.900000e-07	-4.296202e-06	-1.575405e-09	-2.986040e+01	-1.043997e+02
8.000000e-07	-4.266472e-06	-1.572675e-09	-2.965376e+01	-1.040604e+02
8.100000e-07	-4.236475e-06	-1.563443e-09	-2.944527e+01	-1.037146e+02
8.200000e-07	-4.206134e-06	-1.554887e-09	-2.923439e+01	-1.033621e+02
8.300000e-07	-4.175496e-06	-1.558033e-09	-2.902144e+01	-1.030030e+02
8.400000e-07	-4.144599e-06	-1.552881e-09	-2.880669e+01	-1.026373e+02
8.500000e-07	-4.113509e-06	-1.547656e-09	-2.859060e+01	-1.022650e+02
8.600000e-07	-4.082239e-06	-1.548492e-09	-2.837326e+01	-1.018863e+02
8.700000e-07	-4.050781e-06	-1.541202e-09	-2.815462e+01	-1.015012e+02
8.800000e-07	-4.019115e-06	-1.523536e-09	-2.793453e+01	-1.011099e+02
8.900000e-07	-3.987234e-06	-1.513840e-09	-2.771294e+01	-1.007124e+02
9.000000e-07	-3.955083e-06	-1.507194e-09	-2.748947e+01	-1.003089e+02
9.100000e-07	-3.922592e-06	-1.494737e-09	-2.726365e+01	-9.989953e+01
9.200000e-07	-3.889704e-06	-1.489303e-09	-2.703506e+01	-9.948442e+01
9.300000e-07	-3.856410e-06	-1.490416e-09	-2.680366e+01	-9.906373e+01
9.400000e-07	-3.822621e-06	-1.481848e-09	-2.656881e+01	-9.863764e+01
9.500000e-07	-3.788284e-06	-1.470946e-09	-2.633015e+01	-9.820630e+01
9.600000e-07	-3.753594e-06	-1.464354e-09	-2.608904e+01	-9.776990e+01
9.700000e-07	-3.718608e-06	-1.451599e-09	-2.584588e+01	-9.732863e+01
9.800000e-07	-3.683384e-06	-1.438688e-09	-2.560106e+01	-9.688266e+01
9.900000e-07	-3.648043e-06	-1.435230e-09	-2.535542e+01	-9.643219e+01
1.000000e-06	-3.612547e-06	-1.436163e-09	-2.510871e+01	-9.597742e+01
1.010000e-06	-3.576899e-06	-1.427559e-09	-2.486094e+01	-9.551854e+01
1.020000e-06	-3.541106e-06	-1.420614e-09	-2.461217e+01	-9.505576e+01
1.030000e-06	-3.505095e-06	-1.413086e-09	-2.436187e+01	-9.458929e+01
1.040000e-06	-3.468792e-06	-1.402765e-09	-2.410955e+01	-9.411931e+01
1.050000e-06	-3.432228e-06	-1.392264e-09	-2.385541e+01	-9.364602e+01
1.060000e-06	-3.395424e-06	-1.386093e-09	-2.359962e+01	-9.316963e+01
1.070000e-06	-3.358338e-06	-1.376420e-09	-2.334185e+01	-9.269030e+01
1.080000e-06	-3.321075e-06	-1.367114e-09	-2.308286e+01	-9.220821e+01
1.090000e-06	-3.283589e-06	-1.360117e-09	-2.282231e+01	-9.172352e+01
1.100000e-06	-3.245841e-06	-1.353004e-09	-2.255995e+01	-9.123635e+01
1.110000e-06	-3.207850e-06	-1.339216e-09	-2.229589e+01	-9.074682e+01
1.120000e-06	-3.169538e-06	-1.325519e-09	-2.202961e+01	-9.025500e+01
1.130000e-06	-3.131006e-06	-1.312747e-09	-2.176180e+01	-8.976095e+01
1.140000e-06	-3.092337e-06	-1.300175e-09	-2.149303e+01	-8.926467e+01
1.150000e-06	-3.053487e-06	-1.293106e-09	-2.122301e+01	-8.876614e+01
1.160000e-06	-3.014461e-06	-1.291513e-09	-2.095176e+01	-8.826529e+01
1.170000e-06	-2.975279e-06	-1.287229e-09	-2.067943e+01	-8.776198e+01
1.180000e-06	-2.935951e-06	-1.279872e-09	-2.040608e+01	-8.725605e+01
1.190000e-06	-2.896479e-06	-1.272723e-09	-2.013174e+01	-8.674727e+01
1.200000e-06	-2.856883e-06	-1.260029e-09	-1.985653e+01	-8.623536e+01
1.210000e-06	-2.817177e-06	-1.243501e-09	-1.958056e+01	-8.571999e+01
1.220000e-06	-2.777275e-06	-1.230518e-09	-1.930322e+01	-8.520076e+01
1.230000e-06	-2.737128e-06	-1.222304e-09	-1.902418e+01	-8.467724e+01
1.240000e-06	-2.696716e-06	-1.213892e-09	-1.874330e+01	-8.414892e+01
1.250000e-06	-2.656073e-06	-1.208696e-09	-1.846082e+01	-8.361527e+01
1.260000e-06	-2.615151e-06	-1.205946e-09	-1.817639e+01	-8.307570e+01
1.270000e-06	-2.573906e-06	-1.199421e-09	-1.788972e+01	-8.252958e+01
1.280000e-06	-2.532491e-06	-1.187763e-09	-1.760187e+01	-8.197626e+01
1.290000e-06	-2.490794e-06	-1.176911e-09	-1.731206e+01	-8.141507e+01
1.300000e-06	-2.448658e-06	-1.161785e-09	-1.701919e+01	-8.084530e+01
1.310000e-06	-2.406147e-06	-1.144688e-09	-1.672373e+01	-8.026625e+01
1.320000e-06	-2.363432e-06	-1.132572e-09	-1.642683e+01	-7.967721e+01
1.330000e-06	-2.320562e-06	-1.126448e-09	-1.612887e+01	-7.907748e+01
1.340000e-06	-2.277415e-06	-1.122988e-09	-1.582899e+01	-7.846640e+01
1.350000e-06	-2.234055e-06	-1.120708e-09	-1.552761e+01	-7.784331e+01
1.360000e-06	-2.190660e-06	-1.114985e-09	-1.522600e+01	-7.720759e+01
1.370000e-06	-2.147205e-06	-1.104276e-09	-1.492397e+01	-7.655868e+01
1.380000e-06	-2.103648e-06	-1.089782e-09	-1.462123e+01	-7.589605e+01
1.390000e-06	-2.060030e-06	-1.072261e-09	-1.431807e+01	-7.521925e+01
1.400000e-06	-2.016343e-06	-1.053570e-09	-1.401443e+01	-7.452788e+01
1.410000e-06	-1.972605e-06	-1.037330e-09	-1.371042e+01	-7.382160e+01
1.420000e-06	-1.928748e-06	-1.027108e-09	-1.340561e+01	-7.310017e+01
1.430000e-06	-1.884714e-06	-1.020491e-09	-1.309955e+01	-7.236338e+01
1.440000e-06	-1.840558e-06	-1.013572e-09	-1.279264e+01	-7.161113e+01
1.450000e-06	-1.796293e-06	-1.003785e-09	-1.248499e+01	-7.084335e+01
1.460000e-06	-1.751927e-06	-9.925851e-10	-1.217662e+01	-7.006007e+01
1.470000e-06	-1.707450e-06	-9.765071e-10	-1.186749e+01	-6.926135e+01
1.480000e-06	-1.662791e-06	-9.576832e-10	-1.155709e+01	-6.844732e+01
1.490000e-06	-1.618015e-06	-9.422359e-10	-1.124588e+01	-6.761814e+01
1.500000e-06	-1.573123e-06	-9.279630e-10	-1.093386e+01	-6.677401e+01
1.510000e-06	-1.528074e-06	-9.165793e-10	-1.062075e+01	-6.591515e+01
1.520000e-06	-1.482894e-06	-9.077292e-10	-1.030674e+01	-6.504177e+01
1.530000e-06	-1.437585e-06	-8.969374e-10	-9.991815e+00	-6.415410e+01
1.540000e-06	-1.392166e-06	-8.843570e-10	-9.676134e+00	-6.325234e+01
1.550000e-06	-1.346666e-06	-8.676810e-10	-9.359892e+00	-6.233663e+01
1.560000e-06	-1.301160e-06	-8.480828e-10	-9.043604e+00	-6.140711e+01
1.570000e-06	-1.255607e-06	-8.263083e-10	-8.726990e+00	-6.046381e+01
1.580000e-06	-1.209893e-06	-8.081269e-10	-8.409264e+00	-5.950672e+01
1.590000e-06	-1.164095e-06	-7.964212e-10	-8.090946e+00	-5.853570e+01
1.600000e-06	-1.118302e-06	-7.834808e-10	-7.772668e+00	-5.755054e+01
1.610000e-06	-1.072406e-06	-7.701522e-10	-7.453668e+00	-5.655091e+01
1.620000e-06	-1.026424e-06	-7.561663e-10	-7.134072e+00	-5.553635e+01
1.630000e-06	-9.804387e-07	-7.397392e-10	-6.814458e+00	-5.450628e+01
1.640000e-06	-9.344232e-07	-7.211566e-10	-6.494631e+00	-5.345999e+01
1.650000e-06	-8.883227e-07	-7.031095e-10	-6.174213e+00	-5.239663e+01
1.660000e-06	-8.420366e-07	-6.876342e-10	-5.852505e+00	-5.131523e+01
1.670000e-06	-7.956374e-07	-6.713956e-10	-5.530012e+00	-5.021468e+01
1.680000e-06	-7.492097e-07	-6.539955e-10	-5.207320e+00	-4.909374e+01
1.690000e-06	-7.027474e-07	-6.387369e-10	-4.884387e+00	-4.795107e+01
1.700000e-06	-6.561384e-07	-6.213086e-10	-4.560435e+00	-4.678521e+01
1.710000e-06	-6.094946e-07	-5.988120e-10	-4.236242e+00	-4.559462e+01
1.720000e-06	-5.629711e-07	-5.749423e-10	-3.912884e+00	-4.437767e+01
1.730000e-06	-5.164789e-07	-5.526537e-10	-3.589744e+00	-4.313271e+01
1.740000e-06	-4.699139e-07	-5.345815e-10	-3.266097e+00	-4.185801e+01
1.750000e-06	-4.231852e-07	-5.196346e-10	-2.941313e+00	-4.055184e+01
1.760000e-06	-3.763899e-07	-5.032714e-10	-2.616067e+00	-3.921249e+01
1.770000e-06	-3.295805e-07	-4.848940e-10	-2.290722e+00	-3.783828e+01
1.780000e-06	-2.827607e-07	-4.644883e-10	-1.965305e+00	-3.642757e+01
1.790000e-06	-2.359606e-07	-4.423082e-10	-1.640025e+00	-3.497881e+01
1.800000e-06	-1.890588e-07	-4.187795e-10	-1.314037e+00	-3.349058e+01
1.810000e-06	-1.420972e-07	-3.944455e-10	-9.876351e-01	-3.196157e+01
1.820000e-06	-9.526121e-08	-3.708528e-10	-6.621051e-01	-3.039063e+01
1.830000e-06	-4.851281e-08	-3.474164e-10	-3.371842e-01	-2.877680e+01
1.840000e-06	-1.724773e-09	-3.251904e-10	-1.198789e-02	-2.711932e+01
1.850000e-06	4.510013e-08	-3.055123e-10	3.134647e-01	-2.541765e+01
1.860000e-06	9.188905e-08	-2.859319e-10	6.386672e-01	-2.367148e+01
1.870000e-06	1.386747e-07	-2.610074e-10	9.638473e-01	-2.188077e+01
1.880000e-06	1.854866e-07	-2.316037e-10	1.289209e+00	-2.004575e+01
1.890000e-06	2.323345e-07	-2.008865e-10	1.614822e+00	-1.816690e+01
1.900000e-06	2.791840e-07	-1.704561e-10	1.940445e+00	-1.624500e+01
1.910000e-06	3.260002e-07	-1.428380e-10	2.265837e+00	-1.428111e+01
1.920000e-06	3.727597e-07	-1.169316e-10	2.590835e+00	-1.227658e+01
1.930000e-06	4.194654e-07	-9.126308e-11	2.915460e+00	-1.023304e+01
1.940000e-06	4.661703e-07	-6.579960e-11	3.240078e+00	-8.152387e+00
1.950000e-06	5.128352e-07	-3.944341e-11	3.564419e+00	-6.036790e+00
1.960000e-06	5.594071e-07	-1.036898e-11	3.888113e+00	-3.888665e+00
1.970000e-06	6.059039e-07	2.182148e-11	4.211285e+00	-1.710665e+00
1.980000e-06	6.523741e-07	5.430249e-11	4.534272e+00	4.943400e-01
1.990000e-06	6.988298e-07	8.602963e-11	4.857159e+00	2.723285e+00
2.000000e-06	7.452284e-07	1.167563e-10	5.179649e+00	4.972929e+00
2.010000e-06	7.915630e-07	1.476600e-10	5.501693e+00	7.239887e+00
2.020000e-06	8.377561e-07	1.808524e-10	5.822755e+00	9.520648e+00
2.030000e-06	8.838161e-07	2.160535e-10	6.142890e+00	1.181161e+01
2.040000e-06	9.299097e-07	2.495439e-10	6.463260e+00	1.410910e+01
2.050000e-06	9.760040e-07	2.796800e-10	6.783635e+00	1.640941e+01
2.060000e-06	1.022044e-06	3.096408e-10	7.103630e+00	1.870883e+01
2.070000e-06	1.068041e-06	3.402639e-10	7.423333e+00	2.100365e+01
2.080000e-06	1.113917e-06	3.714418e-10	7.742191e+00	2.329023e+01
2.090000e-06	1.159677e-06	4.043349e-10	8.060240e+00	2.556500e+01
2.100000e-06	1.205383e-06	4.390420e-10	8.377915e+00	2.782447e+01
2.110000e-06	1.251035e-06	4.717098e-10	8.695217e+00	3.006530e+01
2.120000e-06	1.296635e-06	4.995266e-10	9.012153e+00	3.228428e+01
2.130000e-06	1.342107e-06	5.265725e-10	9.328207e+00	3.447837e+01
2.140000e-06	1.387440e-06	5.551728e-10	9.643287e+00	3.664472e+01
2.150000e-06	1.432711e-06	5.839828e-10	9.957940e+00	3.878068e+01
2.160000e-06	1.477949e-06	6.122146e-10	1.027237e+01	4.088381e+01
2.170000e-06	1.523088e-06	6.398459e-10	1.058610e+01	4.295188e+01
2.180000e-06	1.568020e-06	6.689708e-10	1.089839e+01	4.498293e+01
2.190000e-06	1.612791e-06	6.989340e-10	1.120957e+01	4.697521e+01
2.200000e-06	1.657396e-06	7.279737e-10	1.151960e+01	4.892721e+01
2.210000e-06	1.701844e-06	7.554023e-10	1.182853e+01	5.083769e+01
2.220000e-06	1.746135e-06	7.802834e-10	1.213637e+01	5.270561e+01
2.230000e-06	1.790297e-06	8.027561e-10	1.244331e+01	5.453019e+01
2.240000e-06	1.834381e-06	8.238719e-10	1.274971e+01	5.631090e+01
2.250000e-06	1.878346e-06	8.441056e-10	1.305529e+01	5.804739e+01
2.260000e-06	1.922242e-06	8.650446e-10	1.336038e+01	5.973954e+01
2.270000e-06	1.966081e-06	8.887833e-10	1.366508e+01	6.138744e+01
2.280000e-06	2.009829e-06	9.126352e-10	1.396915e+01	6.299136e+01
2.290000e-06	2.053463e-06	9.337491e-10	1.427242e+01	6.455173e+01
2.300000e-06	2.097012e-06	9.548783e-10	1.457511e+01	6.606916e+01
2.310000e-06	2.140549e-06	9.759833e-10	1.487771e+01	6.754438e+01
2.320000e-06	2.184016e-06	9.942991e-10	1.517982e+01	6.897826e+01
2.330000e-06	2.227377e-06	1.010837e-09	1.548120e+01	7.037177e+01
2.340000e-06	2.270683e-06	1.028370e-09	1.578220e+01	7.172598e+01
2.350000e-06	2.313866e-06	1.048723e-09	1.608233e+01	7.304202e+01
2.360000e-06	2.356833e-06	1.069294e-09	1.638097e+01	7.432109e+01
2.370000e-06	2.399606e-06	1.088283e-09	1.667826e+01	7.556442e+01
2.380000e-06	2.442013e-06	1.105833e-09	1.697301e+01	7.677329e+01
2.390000e-06	2.483947e-06	1.118977e-09	1.726447e+01	7.794896e+01
2.400000e-06	2.525563e-06	1.130336e-09	1.755372e+01	7.909272e+01
2.410000e-06	2.566945e-06	1.143580e-09	1.784134e+01	8.020581e+01
2.420000e-06	2.608029e-06	1.159003e-09	1.812689e+01	8.128948e+01
2.430000e-06	2.648755e-06	1.176726e-09	1.840995e+01	8.234491e+01
2.440000e-06	2.689233e-06	1.194395e-09	1.869129e+01	8.337326e+01
2.450000e-06	2.729514e-06	1.211211e-09	1.897126e+01	8.437563e+01
2.460000e-06	2.769597e-06	1.226276e-09	1.924985e+01	8.535306e+01
2.470000e-06	2.809587e-06	1.236866e-09	1.952780e+01	8.630651e+01
2.480000e-06	2.849436e-06	1.245592e-09	1.980477e+01	8.723690e+01
2.490000e-06	2.889114e-06	1.255788e-09	2.008055e+01	8.814505e+01
2.500000e-06	2.928686e-06	1.266578e-09	2.035559e+01	8.903173e+01
2.510000e-06	2.968172e-06	1.281455e-09	2.063003e+01	8.989763e+01
2.520000e-06	3.007500e-06	1.297318e-09	2.090338e+01	9.074336e+01
2.530000e-06	3.046589e-06	1.314406e-09	2.117507e+01	9.156949e+01
2.540000e-06	3.085391e-06	1.331318e-09	2.144475e+01	9.237649e+01
2.550000e-06	3.123992e-06	1.342397e-09	2.171305e+01	9.316479e+01
2.560000e-06	3.162481e-06	1.349584e-09	2.198056e+01	9.393477e+01
2.570000e-06	3.200690e-06	1.355478e-09	2.224613e+01	9.468673e+01
2.580000e-06	3.238613e-06	1.361506e-09	2.250971e+01	9.542097e+01
2.590000e-06	3.276338e-06	1.369532e-09	2.277191e+01	9.613770e+01
2.600000e-06	3.313845e-06	1.382017e-09	2.303260e+01	9.683715e+01
2.610000e-06	3.351118e-06	1.399594e-09	2.329167e+01	9.751949e+01
2.620000e-06	3.388149e-06	1.419015e-09	2.354905e+01	9.818490e+01
2.630000e-06	3.424977e-06	1.433169e-09	2.380502e+01	9.883352e+01
2.640000e-06	3.461607e-06	1.441337e-09	2.405961e+01	9.946551e+01
2.650000e-06	3.497910e-06	1.444583e-09	2.431194e+01	1.000810e+02
2.660000e-06	3.533932e-06	1.445944e-09	2.456230e+01	1.006802e+02
2.670000e-06	3.569777e-06	1.450011e-09	2.481144e+01	1.012633e+02
2.680000e-06	3.605495e-06	1.457316e-09	2.505969e+01	1.018305e+02
2.690000e-06	3.641116e-06	1.469441e-09	2.530727e+01	1.023819e+02
2.700000e-06	3.676609e-06	1.482572e-09	2.555397e+01	1.029179e+02
2.710000e-06	3.711912e-06	1.490492e-09	2.579934e+01	1.034387e+02
2.720000e-06	3.747041e-06	1.495719e-09	2.604350e+01	1.039446e+02
2.730000e-06	3.781921e-06	1.498617e-09	2.628593e+01	1.044360e+02
2.740000e-06	3.816345e-06	1.500192e-09	2.652519e+01	1.049132e+02
2.750000e-06	3.850259e-06	1.501725e-09	2.676091e+01	1.053766e+02
2.760000e-06	3.883551e-06	1.506671e-09	2.699230e+01	1.058266e+02
2.770000e-06	3.916321e-06	1.516754e-09	2.722006e+01	1.062638e+02
2.780000e-06	3.948664e-06	1.528275e-09	2.744486e+01	1.066884e+02
2.790000e-06	3.980583e-06	1.539174e-09	2.766671e+01	1.071011e+02
2.800000e-06	4.012348e-06	1.547966e-09	2.788750e+01	1.075023e+02
2.810000e-06	4.044070e-06	1.553865e-09	2.810797e+01	1.078926e+02
2.820000e-06	4.075671e-06	1.556466e-09	2.832761e+01	1.082724e+02
2.830000e-06	4.107160e-06	1.556882e-09	2.854647e+01	1.086422e+02
2.840000e-06	4.138535e-06	1.557509e-09	2.876455e+01	1.090025e+02
2.850000e-06	4.169633e-06	1.561266e-09	2.898069e+01	1.093538e+02
2.860000e-06	4.200337e-06	1.568832e-09	2.919409e+01	1.096966e+02
2.870000e-06	4.230672e-06	1.578479e-09	2.940494e+01	1.100312e+02
2.880000e-06	4.260637e-06	1.585261e-09	2.961320e+01	1.103581e+02
2.890000e-06	4.290228e-06	1.588770e-09	2.981888e+01	1.106776e+02
2.900000e-06	4.319503e-06	1.592494e-09	3.002235e+01	1.109900e+02
