# Temperatura_=_-2.43
# Concentracion g/m^3_=_1620.0
# C_Vs_to_Am_M_A/Vsm_=_65563218390.804596
# pendiente_HvsI_1/m_=_3716.3
# ordenada_HvsI_A/m_=_1297.0
# frecuencia_Hz_=_135111.81151012573

Tiempo_(s)	Campo_(V.s)	Magnetizacion_(V.s)	Campo_(kA/m)	Magnetizacion_(A/m)
0.000000e+00	-5.526658e-06	-1.405654e-09	-3.835581e+01	-9.117850e+01
1.000000e-08	-5.526865e-06	-1.402576e-09	-3.835724e+01	-9.110725e+01
2.000000e-08	-5.526828e-06	-1.404644e-09	-3.835699e+01	-9.103894e+01
3.000000e-08	-5.526515e-06	-1.407368e-09	-3.835481e+01	-9.097391e+01
4.000000e-08	-5.525709e-06	-1.408975e-09	-3.834922e+01	-9.091241e+01
5.000000e-08	-5.524249e-06	-1.408108e-09	-3.833908e+01	-9.085465e+01
6.000000e-08	-5.522207e-06	-1.394771e-09	-3.832491e+01	-9.080072e+01
7.000000e-08	-5.519579e-06	-1.384211e-09	-3.830667e+01	-9.075068e+01
8.000000e-08	-5.516453e-06	-1.396865e-09	-3.828498e+01	-9.070448e+01
9.000000e-08	-5.512905e-06	-1.432838e-09	-3.826035e+01	-9.066200e+01
1.000000e-07	-5.508960e-06	-1.475111e-09	-3.823297e+01	-9.062305e+01
1.100000e-07	-5.504585e-06	-1.468200e-09	-3.820261e+01	-9.058735e+01
1.200000e-07	-5.499937e-06	-1.377798e-09	-3.817035e+01	-9.055455e+01
1.300000e-07	-5.495150e-06	-1.325968e-09	-3.813713e+01	-9.052426e+01
1.400000e-07	-5.490048e-06	-1.388687e-09	-3.810172e+01	-9.049598e+01
1.500000e-07	-5.484504e-06	-1.435276e-09	-3.806325e+01	-9.046920e+01
1.600000e-07	-5.478599e-06	-1.398234e-09	-3.802227e+01	-9.044335e+01
1.700000e-07	-5.472315e-06	-1.355941e-09	-3.797866e+01	-9.041782e+01
1.800000e-07	-5.465603e-06	-1.417507e-09	-3.793207e+01	-9.039199e+01
1.900000e-07	-5.458464e-06	-1.460313e-09	-3.788253e+01	-9.036520e+01
2.000000e-07	-5.451002e-06	-1.399643e-09	-3.783074e+01	-9.033682e+01
2.100000e-07	-5.443315e-06	-1.344242e-09	-3.777739e+01	-9.030620e+01
2.200000e-07	-5.435334e-06	-1.381898e-09	-3.772200e+01	-9.027271e+01
2.300000e-07	-5.427097e-06	-1.447959e-09	-3.766484e+01	-9.023576e+01
2.400000e-07	-5.418445e-06	-1.435852e-09	-3.760479e+01	-9.019479e+01
2.500000e-07	-5.409138e-06	-1.392271e-09	-3.754020e+01	-9.014929e+01
2.600000e-07	-5.399117e-06	-1.386854e-09	-3.747065e+01	-9.009881e+01
2.700000e-07	-5.388389e-06	-1.402909e-09	-3.739620e+01	-9.004294e+01
2.800000e-07	-5.377204e-06	-1.381166e-09	-3.731857e+01	-8.998137e+01
2.900000e-07	-5.365722e-06	-1.361970e-09	-3.723888e+01	-8.991384e+01
3.000000e-07	-5.353914e-06	-1.374970e-09	-3.715694e+01	-8.984017e+01
3.100000e-07	-5.341676e-06	-1.387507e-09	-3.707200e+01	-8.976028e+01
3.200000e-07	-5.328965e-06	-1.364249e-09	-3.698378e+01	-8.967413e+01
3.300000e-07	-5.315829e-06	-1.345978e-09	-3.689262e+01	-8.958180e+01
3.400000e-07	-5.302378e-06	-1.353584e-09	-3.679927e+01	-8.948340e+01
3.500000e-07	-5.288557e-06	-1.365977e-09	-3.670335e+01	-8.937916e+01
3.600000e-07	-5.274188e-06	-1.350289e-09	-3.660363e+01	-8.926933e+01
3.700000e-07	-5.259194e-06	-1.339829e-09	-3.649956e+01	-8.915425e+01
3.800000e-07	-5.243718e-06	-1.359861e-09	-3.639216e+01	-8.903430e+01
3.900000e-07	-5.227889e-06	-1.374855e-09	-3.628230e+01	-8.890990e+01
4.000000e-07	-5.211504e-06	-1.346821e-09	-3.616859e+01	-8.878151e+01
4.100000e-07	-5.194694e-06	-1.342355e-09	-3.605193e+01	-8.864961e+01
4.200000e-07	-5.177679e-06	-1.368932e-09	-3.593383e+01	-8.851470e+01
4.300000e-07	-5.160313e-06	-1.352209e-09	-3.581332e+01	-8.837728e+01
4.400000e-07	-5.142570e-06	-1.323386e-09	-3.569018e+01	-8.823785e+01
4.500000e-07	-5.124457e-06	-1.356906e-09	-3.556447e+01	-8.809689e+01
4.600000e-07	-5.105919e-06	-1.377126e-09	-3.543581e+01	-8.795484e+01
4.700000e-07	-5.086983e-06	-1.325148e-09	-3.530440e+01	-8.781214e+01
4.800000e-07	-5.067737e-06	-1.326272e-09	-3.517083e+01	-8.766917e+01
4.900000e-07	-5.048294e-06	-1.372338e-09	-3.503589e+01	-8.752626e+01
5.000000e-07	-5.028662e-06	-1.343422e-09	-3.489964e+01	-8.738369e+01
5.100000e-07	-5.008803e-06	-1.300964e-09	-3.476181e+01	-8.724169e+01
5.200000e-07	-4.988600e-06	-1.335195e-09	-3.462161e+01	-8.710042e+01
5.300000e-07	-4.968040e-06	-1.334825e-09	-3.447892e+01	-8.696000e+01
5.400000e-07	-4.947147e-06	-1.302705e-09	-3.433391e+01	-8.682046e+01
5.500000e-07	-4.925843e-06	-1.339135e-09	-3.418606e+01	-8.668178e+01
5.600000e-07	-4.904169e-06	-1.364694e-09	-3.403564e+01	-8.654390e+01
5.700000e-07	-4.882224e-06	-1.311856e-09	-3.388334e+01	-8.640669e+01
5.800000e-07	-4.859906e-06	-1.311634e-09	-3.372844e+01	-8.626996e+01
5.900000e-07	-4.837185e-06	-1.350573e-09	-3.357076e+01	-8.613350e+01
6.000000e-07	-4.814152e-06	-1.317957e-09	-3.341091e+01	-8.599703e+01
6.100000e-07	-4.790878e-06	-1.287450e-09	-3.324938e+01	-8.586029e+01
6.200000e-07	-4.767330e-06	-1.322305e-09	-3.308596e+01	-8.572294e+01
6.300000e-07	-4.743561e-06	-1.319649e-09	-3.292100e+01	-8.558465e+01
6.400000e-07	-4.719688e-06	-1.292346e-09	-3.275532e+01	-8.544511e+01
6.500000e-07	-4.695487e-06	-1.313242e-09	-3.258736e+01	-8.530396e+01
6.600000e-07	-4.670789e-06	-1.324237e-09	-3.241595e+01	-8.516088e+01
6.700000e-07	-4.645530e-06	-1.294713e-09	-3.224064e+01	-8.501555e+01
6.800000e-07	-4.619667e-06	-1.291345e-09	-3.206115e+01	-8.486769e+01
6.900000e-07	-4.593262e-06	-1.302235e-09	-3.187790e+01	-8.471703e+01
7.000000e-07	-4.566421e-06	-1.286675e-09	-3.169162e+01	-8.456334e+01
7.100000e-07	-4.539256e-06	-1.280963e-09	-3.150309e+01	-8.440642e+01
7.200000e-07	-4.511878e-06	-1.293282e-09	-3.131309e+01	-8.424611e+01
7.300000e-07	-4.484283e-06	-1.290210e-09	-3.112157e+01	-8.408230e+01
7.400000e-07	-4.456424e-06	-1.282608e-09	-3.092823e+01	-8.391491e+01
7.500000e-07	-4.428366e-06	-1.285040e-09	-3.073350e+01	-8.374391e+01
7.600000e-07	-4.400042e-06	-1.279389e-09	-3.053692e+01	-8.356930e+01
7.700000e-07	-4.371382e-06	-1.269806e-09	-3.033802e+01	-8.339112e+01
7.800000e-07	-4.342385e-06	-1.267565e-09	-3.013678e+01	-8.320944e+01
7.900000e-07	-4.313063e-06	-1.267603e-09	-2.993328e+01	-8.302438e+01
8.000000e-07	-4.283440e-06	-1.263864e-09	-2.972769e+01	-8.283605e+01
8.100000e-07	-4.253524e-06	-1.263732e-09	-2.952007e+01	-8.264461e+01
8.200000e-07	-4.223312e-06	-1.258284e-09	-2.931040e+01	-8.245021e+01
8.300000e-07	-4.192709e-06	-1.250017e-09	-2.909801e+01	-8.225303e+01
8.400000e-07	-4.161835e-06	-1.247056e-09	-2.888374e+01	-8.205324e+01
8.500000e-07	-4.130819e-06	-1.249488e-09	-2.866848e+01	-8.185100e+01
8.600000e-07	-4.099576e-06	-1.247758e-09	-2.845165e+01	-8.164646e+01
8.700000e-07	-4.068145e-06	-1.245875e-09	-2.823351e+01	-8.143978e+01
8.800000e-07	-4.036555e-06	-1.242281e-09	-2.801427e+01	-8.123107e+01
8.900000e-07	-4.004742e-06	-1.232665e-09	-2.779349e+01	-8.102042e+01
9.000000e-07	-3.972693e-06	-1.223651e-09	-2.757106e+01	-8.080792e+01
9.100000e-07	-3.940364e-06	-1.221649e-09	-2.734669e+01	-8.059360e+01
9.200000e-07	-3.907665e-06	-1.217013e-09	-2.711976e+01	-8.037747e+01
9.300000e-07	-3.874498e-06	-1.211056e-09	-2.688957e+01	-8.015952e+01
9.400000e-07	-3.840809e-06	-1.209490e-09	-2.665576e+01	-7.993970e+01
9.500000e-07	-3.806682e-06	-1.207084e-09	-2.641892e+01	-7.971792e+01
9.600000e-07	-3.772122e-06	-1.196843e-09	-2.617907e+01	-7.949409e+01
9.700000e-07	-3.737186e-06	-1.187541e-09	-2.593661e+01	-7.926806e+01
9.800000e-07	-3.702020e-06	-1.182665e-09	-2.569255e+01	-7.903969e+01
9.900000e-07	-3.666633e-06	-1.178125e-09	-2.544696e+01	-7.880880e+01
1.000000e-06	-3.631048e-06	-1.176837e-09	-2.520000e+01	-7.857521e+01
1.010000e-06	-3.595330e-06	-1.175056e-09	-2.495211e+01	-7.833874e+01
1.020000e-06	-3.559488e-06	-1.169180e-09	-2.470336e+01	-7.809918e+01
1.030000e-06	-3.523476e-06	-1.160780e-09	-2.445343e+01	-7.785635e+01
1.040000e-06	-3.487263e-06	-1.156692e-09	-2.420211e+01	-7.761006e+01
1.050000e-06	-3.450760e-06	-1.154902e-09	-2.394877e+01	-7.736013e+01
1.060000e-06	-3.413891e-06	-1.150062e-09	-2.369289e+01	-7.710640e+01
1.070000e-06	-3.376767e-06	-1.142847e-09	-2.343525e+01	-7.684873e+01
1.080000e-06	-3.339451e-06	-1.137013e-09	-2.317627e+01	-7.658699e+01
1.090000e-06	-3.301915e-06	-1.131290e-09	-2.291577e+01	-7.632109e+01
1.100000e-06	-3.264145e-06	-1.125865e-09	-2.265364e+01	-7.605094e+01
1.110000e-06	-3.226176e-06	-1.119451e-09	-2.239013e+01	-7.577650e+01
1.120000e-06	-3.187994e-06	-1.111822e-09	-2.212514e+01	-7.549772e+01
1.130000e-06	-3.149526e-06	-1.102585e-09	-2.185817e+01	-7.521461e+01
1.140000e-06	-3.110836e-06	-1.096610e-09	-2.158965e+01	-7.492717e+01
1.150000e-06	-3.071907e-06	-1.095325e-09	-2.131948e+01	-7.463542e+01
1.160000e-06	-3.032809e-06	-1.093922e-09	-2.104813e+01	-7.433940e+01
1.170000e-06	-2.993605e-06	-1.089653e-09	-2.077605e+01	-7.403916e+01
1.180000e-06	-2.954236e-06	-1.084893e-09	-2.050282e+01	-7.373473e+01
1.190000e-06	-2.914715e-06	-1.078991e-09	-2.022854e+01	-7.342616e+01
1.200000e-06	-2.875039e-06	-1.070400e-09	-1.995318e+01	-7.311348e+01
1.210000e-06	-2.835254e-06	-1.060202e-09	-1.967707e+01	-7.279671e+01
1.220000e-06	-2.795368e-06	-1.051011e-09	-1.940025e+01	-7.247585e+01
1.230000e-06	-2.755300e-06	-1.046216e-09	-1.912218e+01	-7.215086e+01
1.240000e-06	-2.714983e-06	-1.041796e-09	-1.884237e+01	-7.182170e+01
1.250000e-06	-2.674389e-06	-1.035954e-09	-1.856065e+01	-7.148826e+01
1.260000e-06	-2.633521e-06	-1.031241e-09	-1.827701e+01	-7.115043e+01
1.270000e-06	-2.592330e-06	-1.026083e-09	-1.799114e+01	-7.080802e+01
1.280000e-06	-2.550837e-06	-1.017056e-09	-1.770318e+01	-7.046083e+01
1.290000e-06	-2.509032e-06	-1.006583e-09	-1.741305e+01	-7.010860e+01
1.300000e-06	-2.466930e-06	-9.980853e-10	-1.712085e+01	-6.975104e+01
1.310000e-06	-2.424578e-06	-9.901546e-10	-1.682692e+01	-6.938781e+01
1.320000e-06	-2.381959e-06	-9.830661e-10	-1.653114e+01	-6.901853e+01
1.330000e-06	-2.339108e-06	-9.776402e-10	-1.623375e+01	-6.864279e+01
1.340000e-06	-2.296050e-06	-9.718812e-10	-1.593492e+01	-6.826016e+01
1.350000e-06	-2.252809e-06	-9.685993e-10	-1.563482e+01	-6.787016e+01
1.360000e-06	-2.209443e-06	-9.661014e-10	-1.533385e+01	-6.747231e+01
1.370000e-06	-2.165931e-06	-9.610785e-10	-1.503187e+01	-6.706612e+01
1.380000e-06	-2.122299e-06	-9.528257e-10	-1.472906e+01	-6.665107e+01
1.390000e-06	-2.078635e-06	-9.425666e-10	-1.442603e+01	-6.622667e+01
1.400000e-06	-2.034886e-06	-9.313208e-10	-1.412240e+01	-6.579241e+01
1.410000e-06	-1.991055e-06	-9.212625e-10	-1.381821e+01	-6.534783e+01
1.420000e-06	-1.947167e-06	-9.148912e-10	-1.351362e+01	-6.489246e+01
1.430000e-06	-1.903150e-06	-9.082084e-10	-1.320814e+01	-6.442586e+01
1.440000e-06	-1.859020e-06	-9.017678e-10	-1.290187e+01	-6.394765e+01
1.450000e-06	-1.814821e-06	-8.941097e-10	-1.259512e+01	-6.345745e+01
1.460000e-06	-1.770441e-06	-8.835871e-10	-1.228712e+01	-6.295494e+01
1.470000e-06	-1.725843e-06	-8.715737e-10	-1.197760e+01	-6.243984e+01
1.480000e-06	-1.681066e-06	-8.609992e-10	-1.166684e+01	-6.191191e+01
1.490000e-06	-1.636173e-06	-8.537593e-10	-1.135528e+01	-6.137094e+01
1.500000e-06	-1.591205e-06	-8.448247e-10	-1.104319e+01	-6.081677e+01
1.510000e-06	-1.546103e-06	-8.336913e-10	-1.073018e+01	-6.024928e+01
1.520000e-06	-1.500880e-06	-8.236126e-10	-1.041632e+01	-5.966835e+01
1.530000e-06	-1.455566e-06	-8.131010e-10	-1.010184e+01	-5.907391e+01
1.540000e-06	-1.410165e-06	-8.036955e-10	-9.786748e+00	-5.846590e+01
1.550000e-06	-1.364713e-06	-7.937459e-10	-9.471304e+00	-5.784424e+01
1.560000e-06	-1.319188e-06	-7.827826e-10	-9.155356e+00	-5.720886e+01
1.570000e-06	-1.273560e-06	-7.696790e-10	-8.838688e+00	-5.655970e+01
1.580000e-06	-1.227852e-06	-7.559559e-10	-8.521467e+00	-5.589662e+01
1.590000e-06	-1.182088e-06	-7.438874e-10	-8.203861e+00	-5.521948e+01
1.600000e-06	-1.136210e-06	-7.303744e-10	-7.885462e+00	-5.452808e+01
1.610000e-06	-1.090185e-06	-7.172527e-10	-7.566038e+00	-5.382215e+01
1.620000e-06	-1.044121e-06	-7.068507e-10	-7.246353e+00	-5.310136e+01
1.630000e-06	-9.980158e-07	-6.973212e-10	-6.926373e+00	-5.236529e+01
1.640000e-06	-9.517796e-07	-6.864221e-10	-6.605488e+00	-5.161344e+01
1.650000e-06	-9.054847e-07	-6.740896e-10	-6.284195e+00	-5.084521e+01
1.660000e-06	-8.591450e-07	-6.612573e-10	-5.962590e+00	-5.005988e+01
1.670000e-06	-8.127675e-07	-6.483335e-10	-5.640724e+00	-4.925667e+01
1.680000e-06	-7.663057e-07	-6.357117e-10	-5.318272e+00	-4.843464e+01
1.690000e-06	-7.198019e-07	-6.243167e-10	-4.995529e+00	-4.759280e+01
1.700000e-06	-6.732593e-07	-6.128928e-10	-4.672516e+00	-4.673001e+01
1.710000e-06	-6.266247e-07	-5.986455e-10	-4.348866e+00	-4.584507e+01
1.720000e-06	-5.800006e-07	-5.788727e-10	-4.025288e+00	-4.493669e+01
1.730000e-06	-5.333088e-07	-5.582999e-10	-3.701240e+00	-4.400348e+01
1.740000e-06	-4.865926e-07	-5.407209e-10	-3.377022e+00	-4.304401e+01
1.750000e-06	-4.398377e-07	-5.255436e-10	-3.052537e+00	-4.205679e+01
1.760000e-06	-3.929903e-07	-5.104466e-10	-2.727410e+00	-4.104032e+01
1.770000e-06	-3.460669e-07	-4.949337e-10	-2.401754e+00	-3.999306e+01
1.780000e-06	-2.991325e-07	-4.792180e-10	-2.076023e+00	-3.891348e+01
1.790000e-06	-2.522707e-07	-4.641113e-10	-1.750795e+00	-3.780012e+01
1.800000e-06	-2.054101e-07	-4.483688e-10	-1.425575e+00	-3.665151e+01
1.810000e-06	-1.585661e-07	-4.310659e-10	-1.100471e+00	-3.546632e+01
1.820000e-06	-1.116814e-07	-4.130203e-10	-7.750849e-01	-3.424325e+01
1.830000e-06	-6.472760e-08	-3.941821e-10	-4.492188e-01	-3.298119e+01
1.840000e-06	-1.780205e-08	-3.749654e-10	-1.235488e-01	-3.167911e+01
1.850000e-06	2.901454e-08	-3.569281e-10	2.013651e-01	-3.033619e+01
1.860000e-06	7.582433e-08	-3.405923e-10	5.262318e-01	-2.895177e+01
1.870000e-06	1.227141e-07	-3.231037e-10	8.516534e-01	-2.752539e+01
1.880000e-06	1.695764e-07	-3.046696e-10	1.176885e+00	-2.605682e+01
1.890000e-06	2.165039e-07	-2.843191e-10	1.502568e+00	-2.454606e+01
1.900000e-06	2.634895e-07	-2.610388e-10	1.828655e+00	-2.299335e+01
1.910000e-06	3.103815e-07	-2.368607e-10	2.154093e+00	-2.139916e+01
1.920000e-06	3.572037e-07	-2.126663e-10	2.479045e+00	-1.976426e+01
1.930000e-06	4.040369e-07	-1.898459e-10	2.804075e+00	-1.808963e+01
1.940000e-06	4.509019e-07	-1.688194e-10	3.129324e+00	-1.637654e+01
1.950000e-06	4.977000e-07	-1.478913e-10	3.454110e+00	-1.462651e+01
1.960000e-06	5.443516e-07	-1.261849e-10	3.777878e+00	-1.284128e+01
1.970000e-06	5.909203e-07	-1.035854e-10	4.101072e+00	-1.102287e+01
1.980000e-06	6.374558e-07	-8.054735e-11	4.424035e+00	-9.173479e+00
1.990000e-06	6.839063e-07	-5.416656e-11	4.746408e+00	-7.295542e+00
2.000000e-06	7.302508e-07	-2.421935e-11	5.068046e+00	-5.391672e+00
2.010000e-06	7.765329e-07	5.774390e-12	5.389250e+00	-3.464652e+00
2.020000e-06	8.228446e-07	3.470641e-11	5.710660e+00	-1.517412e+00
2.030000e-06	8.691373e-07	6.250930e-11	6.031938e+00	4.469965e-01
2.040000e-06	9.153599e-07	8.834759e-11	6.352729e+00	2.425424e+00
2.050000e-06	9.615624e-07	1.112288e-10	6.673381e+00	4.414651e+00
2.060000e-06	1.007643e-06	1.334400e-10	6.993189e+00	6.411412e+00
2.070000e-06	1.053639e-06	1.583222e-10	7.312409e+00	8.412423e+00
2.080000e-06	1.099619e-06	1.867177e-10	7.631515e+00	1.041441e+01
2.090000e-06	1.145518e-06	2.173552e-10	7.950058e+00	1.241413e+01
2.100000e-06	1.191301e-06	2.479875e-10	8.267802e+00	1.440840e+01
2.110000e-06	1.236928e-06	2.780430e-10	8.584462e+00	1.639411e+01
2.120000e-06	1.282459e-06	3.052326e-10	8.900448e+00	1.836827e+01
2.130000e-06	1.327984e-06	3.296274e-10	9.216398e+00	2.032800e+01
2.140000e-06	1.373434e-06	3.540519e-10	9.531831e+00	2.227057e+01
2.150000e-06	1.418799e-06	3.788866e-10	9.846669e+00	2.419339e+01
2.160000e-06	1.464092e-06	4.052132e-10	1.016101e+01	2.609405e+01
2.170000e-06	1.509307e-06	4.313707e-10	1.047481e+01	2.797033e+01
2.180000e-06	1.554432e-06	4.576787e-10	1.078798e+01	2.982019e+01
2.190000e-06	1.599430e-06	4.846980e-10	1.110027e+01	3.164177e+01
2.200000e-06	1.644331e-06	5.107936e-10	1.141189e+01	3.343343e+01
2.210000e-06	1.689048e-06	5.371293e-10	1.172223e+01	3.519372e+01
2.220000e-06	1.733565e-06	5.646319e-10	1.203119e+01	3.692137e+01
2.230000e-06	1.777929e-06	5.909429e-10	1.233908e+01	3.861533e+01
2.240000e-06	1.822156e-06	6.127485e-10	1.264603e+01	4.027472e+01
2.250000e-06	1.866379e-06	6.292850e-10	1.295294e+01	4.189883e+01
2.260000e-06	1.910535e-06	6.442906e-10	1.325939e+01	4.348715e+01
2.270000e-06	1.954500e-06	6.616542e-10	1.356451e+01	4.503931e+01
2.280000e-06	1.998332e-06	6.813400e-10	1.386871e+01	4.655508e+01
2.290000e-06	2.042077e-06	7.018483e-10	1.417231e+01	4.803439e+01
2.300000e-06	2.085752e-06	7.248926e-10	1.447542e+01	4.947728e+01
2.310000e-06	2.129395e-06	7.493646e-10	1.477831e+01	5.088390e+01
2.320000e-06	2.172987e-06	7.701506e-10	1.508085e+01	5.225449e+01
2.330000e-06	2.216459e-06	7.860710e-10	1.538254e+01	5.358940e+01
2.340000e-06	2.259785e-06	7.995722e-10	1.568324e+01	5.488902e+01
2.350000e-06	2.302978e-06	8.144381e-10	1.598300e+01	5.615383e+01
2.360000e-06	2.346013e-06	8.309325e-10	1.628167e+01	5.738432e+01
2.370000e-06	2.388809e-06	8.487060e-10	1.657868e+01	5.858106e+01
2.380000e-06	2.431290e-06	8.676639e-10	1.687350e+01	5.974461e+01
2.390000e-06	2.473496e-06	8.846796e-10	1.716642e+01	6.087557e+01
2.400000e-06	2.515482e-06	9.001955e-10	1.745780e+01	6.197455e+01
2.410000e-06	2.557214e-06	9.154333e-10	1.774743e+01	6.304215e+01
2.420000e-06	2.598529e-06	9.293502e-10	1.803417e+01	6.407900e+01
2.430000e-06	2.639409e-06	9.427813e-10	1.831788e+01	6.508568e+01
2.440000e-06	2.680028e-06	9.550804e-10	1.859978e+01	6.606281e+01
2.450000e-06	2.720483e-06	9.663946e-10	1.888055e+01	6.701096e+01
2.460000e-06	2.760753e-06	9.782167e-10	1.916002e+01	6.793070e+01
2.470000e-06	2.800803e-06	9.904751e-10	1.943797e+01	6.882260e+01
2.480000e-06	2.840677e-06	1.003518e-09	1.971471e+01	6.968722e+01
2.490000e-06	2.880403e-06	1.016687e-09	1.999041e+01	7.052508e+01
2.500000e-06	2.919997e-06	1.027591e-09	2.026520e+01	7.133671e+01
2.510000e-06	2.959482e-06	1.038447e-09	2.053923e+01	7.212264e+01
2.520000e-06	2.998832e-06	1.047934e-09	2.081233e+01	7.288337e+01
2.530000e-06	3.037954e-06	1.055776e-09	2.108384e+01	7.361942e+01
2.540000e-06	3.076895e-06	1.064725e-09	2.135410e+01	7.433129e+01
2.550000e-06	3.115733e-06	1.074175e-09	2.162364e+01	7.501949e+01
2.560000e-06	3.154381e-06	1.082730e-09	2.189186e+01	7.568453e+01
2.570000e-06	3.192785e-06	1.090520e-09	2.215839e+01	7.632692e+01
2.580000e-06	3.230862e-06	1.098597e-09	2.242265e+01	7.694718e+01
2.590000e-06	3.268613e-06	1.104869e-09	2.268465e+01	7.754582e+01
2.600000e-06	3.306165e-06	1.109629e-09	2.294526e+01	7.812340e+01
2.610000e-06	3.343553e-06	1.115836e-09	2.320474e+01	7.868043e+01
2.620000e-06	3.380757e-06	1.125406e-09	2.346294e+01	7.921747e+01
2.630000e-06	3.417689e-06	1.135428e-09	2.371925e+01	7.973507e+01
2.640000e-06	3.454319e-06	1.144633e-09	2.397347e+01	8.023379e+01
2.650000e-06	3.490688e-06	1.153754e-09	2.422588e+01	8.071420e+01
2.660000e-06	3.526858e-06	1.161337e-09	2.447690e+01	8.117686e+01
2.670000e-06	3.562819e-06	1.166071e-09	2.472648e+01	8.162235e+01
2.680000e-06	3.598558e-06	1.168773e-09	2.497451e+01	8.205123e+01
2.690000e-06	3.634187e-06	1.172313e-09	2.522178e+01	8.246410e+01
2.700000e-06	3.669712e-06	1.178105e-09	2.546833e+01	8.286150e+01
2.710000e-06	3.705092e-06	1.183806e-09	2.571387e+01	8.324400e+01
2.720000e-06	3.740353e-06	1.187873e-09	2.595859e+01	8.361217e+01
2.730000e-06	3.775347e-06	1.192010e-09	2.620145e+01	8.396654e+01
2.740000e-06	3.809937e-06	1.197049e-09	2.644151e+01	8.430765e+01
2.750000e-06	3.844069e-06	1.202369e-09	2.667839e+01	8.463602e+01
2.760000e-06	3.877673e-06	1.207742e-09	2.691161e+01	8.495215e+01
2.770000e-06	3.910766e-06	1.212698e-09	2.714128e+01	8.525655e+01
2.780000e-06	3.943424e-06	1.217345e-09	2.736793e+01	8.554967e+01
2.790000e-06	3.975713e-06	1.222216e-09	2.759202e+01	8.583198e+01
2.800000e-06	4.007751e-06	1.229140e-09	2.781437e+01	8.610391e+01
2.810000e-06	4.039580e-06	1.234147e-09	2.803527e+01	8.636587e+01
2.820000e-06	4.071190e-06	1.237641e-09	2.825464e+01	8.661826e+01
2.830000e-06	4.102677e-06	1.242387e-09	2.847317e+01	8.686145e+01
2.840000e-06	4.133974e-06	1.246510e-09	2.869038e+01	8.709580e+01
2.850000e-06	4.164959e-06	1.249832e-09	2.890542e+01	8.732165e+01
2.860000e-06	4.195690e-06	1.255198e-09	2.911869e+01	8.753932e+01
2.870000e-06	4.226107e-06	1.262414e-09	2.932979e+01	8.774910e+01
2.880000e-06	4.256168e-06	1.266887e-09	2.953842e+01	8.795128e+01
2.890000e-06	4.285989e-06	1.268849e-09	2.974538e+01	8.814614e+01
2.900000e-06	4.315601e-06	1.270857e-09	2.995089e+01	8.833393e+01
