# Temperatura_=_13.7
# Concentracion g/m^3_=_1620.0
# C_Vs_to_Am_M_A/Vsm_=_65563218390.804596
# pendiente_HvsI_1/m_=_3716.3
# ordenada_HvsI_A/m_=_1297.0
# frecuencia_Hz_=_135108.7472802222

Tiempo_(s)	Campo_(V.s)	Magnetizacion_(V.s)	Campo_(kA/m)	Magnetizacion_(A/m)
0.000000e+00	-5.531934e-06	-1.860994e-09	-3.836566e+01	-1.223547e+02
1.000000e-08	-5.531916e-06	-1.861084e-09	-3.836554e+01	-1.223165e+02
2.000000e-08	-5.531713e-06	-1.864660e-09	-3.836413e+01	-1.222779e+02
3.000000e-08	-5.531154e-06	-1.867035e-09	-3.836025e+01	-1.222394e+02
4.000000e-08	-5.530138e-06	-1.865941e-09	-3.835320e+01	-1.222012e+02
5.000000e-08	-5.528523e-06	-1.860251e-09	-3.834200e+01	-1.221636e+02
6.000000e-08	-5.526265e-06	-1.850867e-09	-3.832635e+01	-1.221269e+02
7.000000e-08	-5.523476e-06	-1.854021e-09	-3.830700e+01	-1.220911e+02
8.000000e-08	-5.520107e-06	-1.885756e-09	-3.828364e+01	-1.220562e+02
9.000000e-08	-5.516252e-06	-1.906398e-09	-3.825691e+01	-1.220223e+02
1.000000e-07	-5.512021e-06	-1.886664e-09	-3.822756e+01	-1.219891e+02
1.100000e-07	-5.507554e-06	-1.851916e-09	-3.819658e+01	-1.219564e+02
1.200000e-07	-5.502883e-06	-1.816904e-09	-3.816418e+01	-1.219240e+02
1.300000e-07	-5.497810e-06	-1.809874e-09	-3.812900e+01	-1.218913e+02
1.400000e-07	-5.492338e-06	-1.846086e-09	-3.809105e+01	-1.218579e+02
1.500000e-07	-5.486574e-06	-1.850323e-09	-3.805108e+01	-1.218233e+02
1.600000e-07	-5.480438e-06	-1.865808e-09	-3.800853e+01	-1.217868e+02
1.700000e-07	-5.473836e-06	-1.832279e-09	-3.796274e+01	-1.217478e+02
1.800000e-07	-5.466812e-06	-1.867025e-09	-3.791402e+01	-1.217056e+02
1.900000e-07	-5.459472e-06	-1.859852e-09	-3.786312e+01	-1.216595e+02
2.000000e-07	-5.451913e-06	-1.843213e-09	-3.781069e+01	-1.216087e+02
2.100000e-07	-5.444114e-06	-1.813999e-09	-3.775660e+01	-1.215525e+02
2.200000e-07	-5.436037e-06	-1.852251e-09	-3.770059e+01	-1.214901e+02
2.300000e-07	-5.427574e-06	-1.890616e-09	-3.764190e+01	-1.214210e+02
2.400000e-07	-5.418502e-06	-1.883578e-09	-3.757897e+01	-1.213443e+02
2.500000e-07	-5.408744e-06	-1.850708e-09	-3.751130e+01	-1.212596e+02
2.600000e-07	-5.398397e-06	-1.841148e-09	-3.743955e+01	-1.211663e+02
2.700000e-07	-5.387573e-06	-1.857406e-09	-3.736448e+01	-1.210640e+02
2.800000e-07	-5.376285e-06	-1.848627e-09	-3.728619e+01	-1.209522e+02
2.900000e-07	-5.364533e-06	-1.850963e-09	-3.720468e+01	-1.208306e+02
3.000000e-07	-5.352413e-06	-1.840125e-09	-3.712063e+01	-1.206991e+02
3.100000e-07	-5.339963e-06	-1.854378e-09	-3.703428e+01	-1.205576e+02
3.200000e-07	-5.327078e-06	-1.831129e-09	-3.694493e+01	-1.204060e+02
3.300000e-07	-5.313772e-06	-1.838027e-09	-3.685264e+01	-1.202444e+02
3.400000e-07	-5.300123e-06	-1.817533e-09	-3.675798e+01	-1.200731e+02
3.500000e-07	-5.286033e-06	-1.837049e-09	-3.666026e+01	-1.198924e+02
3.600000e-07	-5.271385e-06	-1.832727e-09	-3.655867e+01	-1.197025e+02
3.700000e-07	-5.256274e-06	-1.838426e-09	-3.645388e+01	-1.195039e+02
3.800000e-07	-5.240691e-06	-1.819401e-09	-3.634581e+01	-1.192972e+02
3.900000e-07	-5.224544e-06	-1.836992e-09	-3.623382e+01	-1.190829e+02
4.000000e-07	-5.207972e-06	-1.818984e-09	-3.611889e+01	-1.188616e+02
4.100000e-07	-5.191068e-06	-1.800450e-09	-3.600165e+01	-1.186339e+02
4.200000e-07	-5.173869e-06	-1.804605e-09	-3.588237e+01	-1.184006e+02
4.300000e-07	-5.156392e-06	-1.829984e-09	-3.576117e+01	-1.181623e+02
4.400000e-07	-5.138507e-06	-1.809017e-09	-3.563712e+01	-1.179197e+02
4.500000e-07	-5.120161e-06	-1.807789e-09	-3.550989e+01	-1.176734e+02
4.600000e-07	-5.101456e-06	-1.826014e-09	-3.538016e+01	-1.174241e+02
4.700000e-07	-5.082400e-06	-1.803561e-09	-3.524801e+01	-1.171723e+02
4.800000e-07	-5.062970e-06	-1.775116e-09	-3.511325e+01	-1.169186e+02
4.900000e-07	-5.043305e-06	-1.797357e-09	-3.497687e+01	-1.166635e+02
5.000000e-07	-5.023445e-06	-1.795115e-09	-3.483914e+01	-1.164073e+02
5.100000e-07	-5.003312e-06	-1.753934e-09	-3.469950e+01	-1.161504e+02
5.200000e-07	-4.982867e-06	-1.771551e-09	-3.455771e+01	-1.158931e+02
5.300000e-07	-4.962039e-06	-1.794430e-09	-3.441327e+01	-1.156355e+02
5.400000e-07	-4.940812e-06	-1.765430e-09	-3.426605e+01	-1.153778e+02
5.500000e-07	-4.919273e-06	-1.753177e-09	-3.411667e+01	-1.151199e+02
5.600000e-07	-4.897465e-06	-1.778356e-09	-3.396542e+01	-1.148618e+02
5.700000e-07	-4.875352e-06	-1.745117e-09	-3.381206e+01	-1.146033e+02
5.800000e-07	-4.852916e-06	-1.725998e-09	-3.365646e+01	-1.143443e+02
5.900000e-07	-4.830068e-06	-1.749351e-09	-3.349801e+01	-1.140844e+02
6.000000e-07	-4.806844e-06	-1.743737e-09	-3.333694e+01	-1.138234e+02
6.100000e-07	-4.783371e-06	-1.705922e-09	-3.317415e+01	-1.135609e+02
6.200000e-07	-4.759675e-06	-1.726045e-09	-3.300981e+01	-1.132964e+02
6.300000e-07	-4.735726e-06	-1.730541e-09	-3.284371e+01	-1.130296e+02
6.400000e-07	-4.711466e-06	-1.709260e-09	-3.267546e+01	-1.127599e+02
6.500000e-07	-4.686883e-06	-1.710687e-09	-3.250497e+01	-1.124870e+02
6.600000e-07	-4.661889e-06	-1.724500e-09	-3.233163e+01	-1.122102e+02
6.700000e-07	-4.636318e-06	-1.694873e-09	-3.215429e+01	-1.119293e+02
6.800000e-07	-4.610113e-06	-1.688631e-09	-3.197255e+01	-1.116437e+02
6.900000e-07	-4.583378e-06	-1.694487e-09	-3.178714e+01	-1.113530e+02
7.000000e-07	-4.556263e-06	-1.679036e-09	-3.159908e+01	-1.110569e+02
7.100000e-07	-4.528845e-06	-1.662865e-09	-3.140894e+01	-1.107549e+02
7.200000e-07	-4.501172e-06	-1.677302e-09	-3.121702e+01	-1.104469e+02
7.300000e-07	-4.473326e-06	-1.672133e-09	-3.102389e+01	-1.101325e+02
7.400000e-07	-4.445308e-06	-1.658718e-09	-3.082958e+01	-1.098115e+02
7.500000e-07	-4.417046e-06	-1.658983e-09	-3.063358e+01	-1.094837e+02
7.600000e-07	-4.388474e-06	-1.654543e-09	-3.043542e+01	-1.091491e+02
7.700000e-07	-4.359594e-06	-1.636770e-09	-3.023513e+01	-1.088076e+02
7.800000e-07	-4.330401e-06	-1.632316e-09	-3.003266e+01	-1.084591e+02
7.900000e-07	-4.300942e-06	-1.634561e-09	-2.982835e+01	-1.081036e+02
8.000000e-07	-4.271267e-06	-1.623217e-09	-2.962255e+01	-1.077413e+02
8.100000e-07	-4.241283e-06	-1.614599e-09	-2.941460e+01	-1.073721e+02
8.200000e-07	-4.210910e-06	-1.612447e-09	-2.920395e+01	-1.069963e+02
8.300000e-07	-4.180259e-06	-1.604961e-09	-2.899138e+01	-1.066138e+02
8.400000e-07	-4.149319e-06	-1.595003e-09	-2.877680e+01	-1.062250e+02
8.500000e-07	-4.118101e-06	-1.599088e-09	-2.856030e+01	-1.058298e+02
8.600000e-07	-4.086689e-06	-1.594941e-09	-2.834244e+01	-1.054286e+02
8.700000e-07	-4.055042e-06	-1.584104e-09	-2.812297e+01	-1.050214e+02
8.800000e-07	-4.023240e-06	-1.575164e-09	-2.790240e+01	-1.046085e+02
8.900000e-07	-3.991296e-06	-1.568843e-09	-2.768087e+01	-1.041899e+02
9.000000e-07	-3.959094e-06	-1.550862e-09	-2.745753e+01	-1.037659e+02
9.100000e-07	-3.926577e-06	-1.543104e-09	-2.723202e+01	-1.033365e+02
9.200000e-07	-3.893692e-06	-1.540210e-09	-2.700395e+01	-1.029019e+02
9.300000e-07	-3.860331e-06	-1.538148e-09	-2.677258e+01	-1.024622e+02
9.400000e-07	-3.826454e-06	-1.531278e-09	-2.653764e+01	-1.020175e+02
9.500000e-07	-3.792077e-06	-1.531243e-09	-2.629922e+01	-1.015679e+02
9.600000e-07	-3.757226e-06	-1.521137e-09	-2.605751e+01	-1.011134e+02
9.700000e-07	-3.722050e-06	-1.507921e-09	-2.581356e+01	-1.006542e+02
9.800000e-07	-3.686618e-06	-1.498247e-09	-2.556783e+01	-1.001902e+02
9.900000e-07	-3.650965e-06	-1.491524e-09	-2.532057e+01	-9.972159e+01
1.000000e-06	-3.615215e-06	-1.481220e-09	-2.507263e+01	-9.924832e+01
1.010000e-06	-3.579365e-06	-1.476881e-09	-2.482400e+01	-9.877047e+01
1.020000e-06	-3.543387e-06	-1.472984e-09	-2.457448e+01	-9.828810e+01
1.030000e-06	-3.507230e-06	-1.463414e-09	-2.432372e+01	-9.780126e+01
1.040000e-06	-3.470811e-06	-1.452816e-09	-2.407114e+01	-9.731003e+01
1.050000e-06	-3.434124e-06	-1.446622e-09	-2.381670e+01	-9.681447e+01
1.060000e-06	-3.397132e-06	-1.436262e-09	-2.356015e+01	-9.631468e+01
1.070000e-06	-3.359851e-06	-1.425135e-09	-2.330160e+01	-9.581074e+01
1.080000e-06	-3.322350e-06	-1.418782e-09	-2.304152e+01	-9.530277e+01
1.090000e-06	-3.284642e-06	-1.411023e-09	-2.278000e+01	-9.479087e+01
1.100000e-06	-3.246689e-06	-1.398933e-09	-2.251679e+01	-9.427516e+01
1.110000e-06	-3.208447e-06	-1.385423e-09	-2.225157e+01	-9.375575e+01
1.120000e-06	-3.170078e-06	-1.374937e-09	-2.198547e+01	-9.323277e+01
1.130000e-06	-3.131506e-06	-1.361713e-09	-2.171796e+01	-9.270633e+01
1.140000e-06	-3.092604e-06	-1.355619e-09	-2.144816e+01	-9.217652e+01
1.150000e-06	-3.053482e-06	-1.354161e-09	-2.117683e+01	-9.164343e+01
1.160000e-06	-3.014218e-06	-1.349693e-09	-2.090453e+01	-9.110713e+01
1.170000e-06	-2.974833e-06	-1.340616e-09	-2.063138e+01	-9.056764e+01
1.180000e-06	-2.935261e-06	-1.331276e-09	-2.035693e+01	-9.002498e+01
1.190000e-06	-2.895525e-06	-1.316878e-09	-2.008136e+01	-8.947909e+01
1.200000e-06	-2.855706e-06	-1.302773e-09	-1.980520e+01	-8.892992e+01
1.210000e-06	-2.815801e-06	-1.292338e-09	-1.952845e+01	-8.837732e+01
1.220000e-06	-2.775775e-06	-1.285778e-09	-1.925085e+01	-8.782112e+01
1.230000e-06	-2.735537e-06	-1.275863e-09	-1.897179e+01	-8.726109e+01
1.240000e-06	-2.695092e-06	-1.266612e-09	-1.869129e+01	-8.669694e+01
1.250000e-06	-2.654394e-06	-1.258279e-09	-1.840904e+01	-8.612832e+01
1.260000e-06	-2.613355e-06	-1.249693e-09	-1.812442e+01	-8.555485e+01
1.270000e-06	-2.572084e-06	-1.239009e-09	-1.783820e+01	-8.497606e+01
1.280000e-06	-2.530594e-06	-1.228942e-09	-1.755045e+01	-8.439145e+01
1.290000e-06	-2.488787e-06	-1.217613e-09	-1.726050e+01	-8.380047e+01
1.300000e-06	-2.446663e-06	-1.205607e-09	-1.696836e+01	-8.320254e+01
1.310000e-06	-2.404190e-06	-1.191985e-09	-1.667380e+01	-8.259703e+01
1.320000e-06	-2.361419e-06	-1.179087e-09	-1.637716e+01	-8.198329e+01
1.330000e-06	-2.318419e-06	-1.168114e-09	-1.607895e+01	-8.136066e+01
1.340000e-06	-2.275224e-06	-1.160400e-09	-1.577938e+01	-8.072846e+01
1.350000e-06	-2.231798e-06	-1.154465e-09	-1.547820e+01	-8.008602e+01
1.360000e-06	-2.188195e-06	-1.149406e-09	-1.517581e+01	-7.943268e+01
1.370000e-06	-2.144516e-06	-1.142397e-09	-1.487288e+01	-7.876779e+01
1.380000e-06	-2.100746e-06	-1.130316e-09	-1.456932e+01	-7.809076e+01
1.390000e-06	-2.056961e-06	-1.114249e-09	-1.426566e+01	-7.740099e+01
1.400000e-06	-2.013161e-06	-1.096810e-09	-1.396189e+01	-7.669798e+01
1.410000e-06	-1.969269e-06	-1.079131e-09	-1.365749e+01	-7.598125e+01
1.420000e-06	-1.925252e-06	-1.063807e-09	-1.335221e+01	-7.525040e+01
1.430000e-06	-1.881097e-06	-1.052464e-09	-1.304599e+01	-7.450507e+01
1.440000e-06	-1.836785e-06	-1.041388e-09	-1.273867e+01	-7.374498e+01
1.450000e-06	-1.792441e-06	-1.030629e-09	-1.243113e+01	-7.296993e+01
1.460000e-06	-1.748144e-06	-1.018184e-09	-1.212391e+01	-7.217977e+01
1.470000e-06	-1.703671e-06	-1.004504e-09	-1.181548e+01	-7.137442e+01
1.480000e-06	-1.658967e-06	-9.892151e-10	-1.150545e+01	-7.055384e+01
1.490000e-06	-1.614074e-06	-9.734381e-10	-1.119410e+01	-6.971808e+01
1.500000e-06	-1.568963e-06	-9.553432e-10	-1.088124e+01	-6.886718e+01
1.510000e-06	-1.523709e-06	-9.365986e-10	-1.056739e+01	-6.800125e+01
1.520000e-06	-1.478369e-06	-9.210868e-10	-1.025294e+01	-6.712042e+01
1.530000e-06	-1.433029e-06	-9.105128e-10	-9.938497e+00	-6.622480e+01
1.540000e-06	-1.387640e-06	-9.004335e-10	-9.623709e+00	-6.531450e+01
1.550000e-06	-1.342135e-06	-8.900285e-10	-9.308121e+00	-6.438963e+01
1.560000e-06	-1.296470e-06	-8.766671e-10	-8.991420e+00	-6.345023e+01
1.570000e-06	-1.250687e-06	-8.599620e-10	-8.673896e+00	-6.249630e+01
1.580000e-06	-1.204896e-06	-8.410269e-10	-8.356323e+00	-6.152776e+01
1.590000e-06	-1.159025e-06	-8.209790e-10	-8.038194e+00	-6.054447e+01
1.600000e-06	-1.113042e-06	-7.989231e-10	-7.719287e+00	-5.954617e+01
1.610000e-06	-1.066951e-06	-7.801064e-10	-7.399635e+00	-5.853248e+01
1.620000e-06	-1.020740e-06	-7.641687e-10	-7.079144e+00	-5.750293e+01
1.630000e-06	-9.745168e-07	-7.499382e-10	-6.758574e+00	-5.645690e+01
1.640000e-06	-9.282688e-07	-7.370284e-10	-6.437829e+00	-5.539364e+01
1.650000e-06	-8.819589e-07	-7.233067e-10	-6.116656e+00	-5.431227e+01
1.660000e-06	-8.356625e-07	-7.072972e-10	-5.795577e+00	-5.321176e+01
1.670000e-06	-7.893795e-07	-6.900273e-10	-5.474590e+00	-5.209095e+01
1.680000e-06	-7.430469e-07	-6.724929e-10	-5.153259e+00	-5.094855e+01
1.690000e-06	-6.965642e-07	-6.544235e-10	-4.830887e+00	-4.978315e+01
1.700000e-06	-6.499672e-07	-6.347690e-10	-4.507723e+00	-4.859324e+01
1.710000e-06	-6.033410e-07	-6.116456e-10	-4.184355e+00	-4.737720e+01
1.720000e-06	-5.566918e-07	-5.885774e-10	-3.860829e+00	-4.613335e+01
1.730000e-06	-5.099951e-07	-5.679353e-10	-3.536973e+00	-4.485993e+01
1.740000e-06	-4.632393e-07	-5.512423e-10	-3.212707e+00	-4.355517e+01
1.750000e-06	-4.163572e-07	-5.352541e-10	-2.887565e+00	-4.221728e+01
1.760000e-06	-3.694603e-07	-5.168325e-10	-2.562321e+00	-4.084450e+01
1.770000e-06	-3.226370e-07	-4.940231e-10	-2.237587e+00	-3.943510e+01
1.780000e-06	-2.757339e-07	-4.699601e-10	-1.912300e+00	-3.798742e+01
1.790000e-06	-2.287212e-07	-4.465951e-10	-1.586252e+00	-3.649993e+01
1.800000e-06	-1.816399e-07	-4.228659e-10	-1.259728e+00	-3.497119e+01
1.810000e-06	-1.345918e-07	-3.993440e-10	-9.334353e-01	-3.339994e+01
1.820000e-06	-8.763475e-08	-3.773775e-10	-6.077739e-01	-3.178512e+01
1.830000e-06	-4.065018e-08	-3.548102e-10	-2.819215e-01	-3.012584e+01
1.840000e-06	6.382773e-09	-3.313878e-10	4.426649e-02	-2.842147e+01
1.850000e-06	5.336159e-08	-3.084032e-10	3.700790e-01	-2.667162e+01
1.860000e-06	1.003171e-07	-2.861312e-10	6.957298e-01	-2.487619e+01
1.870000e-06	1.472801e-07	-2.615776e-10	1.021433e+00	-2.303532e+01
1.880000e-06	1.942540e-07	-2.343313e-10	1.347211e+00	-2.114950e+01
1.890000e-06	2.411945e-07	-2.067806e-10	1.672758e+00	-1.921947e+01
1.900000e-06	2.880950e-07	-1.787531e-10	1.998027e+00	-1.724631e+01
1.910000e-06	3.349860e-07	-1.486648e-10	2.323231e+00	-1.523138e+01
1.920000e-06	3.818088e-07	-1.173679e-10	2.647961e+00	-1.317636e+01
1.930000e-06	4.285755e-07	-8.574253e-11	2.972303e+00	-1.108321e+01
1.940000e-06	4.752857e-07	-5.558256e-11	3.296252e+00	-8.954160e+00
1.950000e-06	5.219054e-07	-2.833963e-11	3.619574e+00	-6.791717e+00
1.960000e-06	5.684843e-07	-1.049708e-12	3.942614e+00	-4.598623e+00
1.970000e-06	6.151165e-07	2.811648e-11	4.266022e+00	-2.377843e+00
1.980000e-06	6.616862e-07	6.003465e-11	4.588997e+00	-1.325343e-01
1.990000e-06	7.081173e-07	9.535243e-11	4.911011e+00	2.133974e+00
2.000000e-06	7.545313e-07	1.308449e-10	5.232907e+00	4.418214e+00
2.010000e-06	8.009139e-07	1.664942e-10	5.554584e+00	6.716613e+00
2.020000e-06	8.471868e-07	2.036641e-10	5.875501e+00	9.025517e+00
2.030000e-06	8.933663e-07	2.379908e-10	6.195770e+00	1.134123e+01
2.040000e-06	9.395199e-07	2.683023e-10	6.515860e+00	1.366004e+01
2.050000e-06	9.856136e-07	2.970646e-10	6.835533e+00	1.597827e+01
2.060000e-06	1.031595e-06	3.257444e-10	7.154427e+00	1.829226e+01
2.070000e-06	1.077553e-06	3.562070e-10	7.473159e+00	2.059846e+01
2.080000e-06	1.123473e-06	3.909505e-10	7.791631e+00	2.289341e+01
2.090000e-06	1.169258e-06	4.273475e-10	8.109166e+00	2.517379e+01
2.100000e-06	1.214995e-06	4.637301e-10	8.426367e+00	2.743643e+01
2.110000e-06	1.260714e-06	4.958451e-10	8.743442e+00	2.967833e+01
2.120000e-06	1.306355e-06	5.255440e-10	9.059971e+00	3.189670e+01
2.130000e-06	1.351911e-06	5.553516e-10	9.375917e+00	3.408893e+01
2.140000e-06	1.397382e-06	5.840976e-10	9.691271e+00	3.625266e+01
2.150000e-06	1.442767e-06	6.108627e-10	1.000603e+01	3.838573e+01
2.160000e-06	1.488061e-06	6.359965e-10	1.032016e+01	4.048623e+01
2.170000e-06	1.533225e-06	6.618951e-10	1.063339e+01	4.255246e+01
2.180000e-06	1.578227e-06	6.909385e-10	1.094549e+01	4.458298e+01
2.190000e-06	1.623073e-06	7.226902e-10	1.125651e+01	4.657656e+01
2.200000e-06	1.667813e-06	7.536156e-10	1.156679e+01	4.853220e+01
2.210000e-06	1.712456e-06	7.844907e-10	1.187641e+01	5.044911e+01
2.220000e-06	1.756915e-06	8.128046e-10	1.218474e+01	5.232671e+01
2.230000e-06	1.801212e-06	8.361642e-10	1.249196e+01	5.416461e+01
2.240000e-06	1.845415e-06	8.566717e-10	1.279852e+01	5.596257e+01
2.250000e-06	1.889530e-06	8.755851e-10	1.310447e+01	5.772056e+01
2.260000e-06	1.933550e-06	8.962928e-10	1.340976e+01	5.943867e+01
2.270000e-06	1.977493e-06	9.189111e-10	1.371453e+01	6.111712e+01
2.280000e-06	2.021371e-06	9.412559e-10	1.401883e+01	6.275624e+01
2.290000e-06	2.065169e-06	9.652658e-10	1.432258e+01	6.435648e+01
2.300000e-06	2.108918e-06	9.889484e-10	1.462599e+01	6.591836e+01
2.310000e-06	2.152588e-06	1.010618e-09	1.492886e+01	6.744246e+01
2.320000e-06	2.196190e-06	1.028516e-09	1.523125e+01	6.892943e+01
2.330000e-06	2.239743e-06	1.045176e-09	1.553331e+01	7.037996e+01
2.340000e-06	2.283110e-06	1.062729e-09	1.583407e+01	7.179477e+01
2.350000e-06	2.326239e-06	1.081145e-09	1.613319e+01	7.317457e+01
2.360000e-06	2.369193e-06	1.099391e-09	1.643108e+01	7.452013e+01
2.370000e-06	2.411932e-06	1.117210e-09	1.672749e+01	7.583217e+01
2.380000e-06	2.454297e-06	1.134218e-09	1.702131e+01	7.711146e+01
2.390000e-06	2.496309e-06	1.150248e-09	1.731267e+01	7.835871e+01
2.400000e-06	2.538056e-06	1.166585e-09	1.760220e+01	7.957464e+01
2.410000e-06	2.579493e-06	1.182945e-09	1.788958e+01	8.075997e+01
2.420000e-06	2.620600e-06	1.200024e-09	1.817467e+01	8.191536e+01
2.430000e-06	2.661437e-06	1.218259e-09	1.845789e+01	8.304149e+01
2.440000e-06	2.702078e-06	1.234908e-09	1.873974e+01	8.413901e+01
2.450000e-06	2.742473e-06	1.248584e-09	1.901989e+01	8.520854e+01
2.460000e-06	2.782639e-06	1.260077e-09	1.929845e+01	8.625071e+01
2.470000e-06	2.822651e-06	1.269566e-09	1.957595e+01	8.726612e+01
2.480000e-06	2.862541e-06	1.281027e-09	1.985260e+01	8.825535e+01
2.490000e-06	2.902309e-06	1.295269e-09	2.012841e+01	8.921899e+01
2.500000e-06	2.941993e-06	1.310628e-09	2.040362e+01	9.015762e+01
2.510000e-06	2.981567e-06	1.327535e-09	2.067808e+01	9.107180e+01
2.520000e-06	3.020992e-06	1.342533e-09	2.095151e+01	9.196210e+01
2.530000e-06	3.060217e-06	1.357162e-09	2.122354e+01	9.282909e+01
2.540000e-06	3.099188e-06	1.371466e-09	2.149382e+01	9.367333e+01
2.550000e-06	3.137863e-06	1.380348e-09	2.176205e+01	9.449539e+01
2.560000e-06	3.176291e-06	1.385830e-09	2.202856e+01	9.529583e+01
2.570000e-06	3.214490e-06	1.391843e-09	2.229347e+01	9.607523e+01
2.580000e-06	3.252435e-06	1.401248e-09	2.255664e+01	9.683414e+01
2.590000e-06	3.290212e-06	1.412728e-09	2.281863e+01	9.757313e+01
2.600000e-06	3.327760e-06	1.426344e-09	2.307904e+01	9.829278e+01
2.610000e-06	3.365096e-06	1.441723e-09	2.333798e+01	9.899364e+01
2.620000e-06	3.402249e-06	1.456091e-09	2.359565e+01	9.967626e+01
2.630000e-06	3.439116e-06	1.468387e-09	2.385132e+01	1.003412e+02
2.640000e-06	3.475677e-06	1.475645e-09	2.410489e+01	1.009890e+02
2.650000e-06	3.511995e-06	1.478670e-09	2.435676e+01	1.016202e+02
2.660000e-06	3.548090e-06	1.482081e-09	2.460710e+01	1.022353e+02
2.670000e-06	3.584016e-06	1.487421e-09	2.485625e+01	1.028348e+02
2.680000e-06	3.619841e-06	1.496274e-09	2.510471e+01	1.034191e+02
2.690000e-06	3.655550e-06	1.509206e-09	2.535237e+01	1.039889e+02
2.700000e-06	3.691131e-06	1.522174e-09	2.559913e+01	1.045444e+02
2.710000e-06	3.726487e-06	1.529807e-09	2.584434e+01	1.050861e+02
2.720000e-06	3.761530e-06	1.534777e-09	2.608737e+01	1.056145e+02
2.730000e-06	3.796294e-06	1.538067e-09	2.632846e+01	1.061299e+02
2.740000e-06	3.830646e-06	1.540541e-09	2.656671e+01	1.066327e+02
2.750000e-06	3.864444e-06	1.545489e-09	2.680111e+01	1.071231e+02
2.760000e-06	3.897726e-06	1.553704e-09	2.703193e+01	1.076017e+02
2.770000e-06	3.930546e-06	1.563455e-09	2.725954e+01	1.080685e+02
2.780000e-06	3.962950e-06	1.573264e-09	2.748428e+01	1.085240e+02
2.790000e-06	3.995091e-06	1.582705e-09	2.770718e+01	1.089684e+02
2.800000e-06	4.027042e-06	1.590396e-09	2.792878e+01	1.094019e+02
2.810000e-06	4.058819e-06	1.595276e-09	2.814916e+01	1.098248e+02
2.820000e-06	4.090505e-06	1.600540e-09	2.836891e+01	1.102372e+02
2.830000e-06	4.122044e-06	1.607277e-09	2.858765e+01	1.106395e+02
2.840000e-06	4.153346e-06	1.615274e-09	2.880473e+01	1.110318e+02
2.850000e-06	4.184284e-06	1.624333e-09	2.901930e+01	1.114143e+02
2.860000e-06	4.214774e-06	1.633018e-09	2.923075e+01	1.117872e+02
2.870000e-06	4.244941e-06	1.639660e-09	2.943997e+01	1.121506e+02
2.880000e-06	4.274910e-06	1.642855e-09	2.964781e+01	1.125047e+02
2.890000e-06	4.304630e-06	1.645201e-09	2.985393e+01	1.128498e+02
2.900000e-06	4.334044e-06	1.649055e-09	3.005793e+01	1.131859e+02
