# Temperatura_=_4.82
# Concentracion g/m^3_=_1620.0
# C_Vs_to_Am_M_A/Vsm_=_65563218390.804596
# pendiente_HvsI_1/m_=_3716.3
# ordenada_HvsI_A/m_=_1297.0
# frecuencia_Hz_=_135111.32228758506

Tiempo_(s)	Campo_(V.s)	Magnetizacion_(V.s)	Campo_(kA/m)	Magnetizacion_(A/m)
0.000000e+00	-5.528819e-06	-1.539897e-09	-3.835649e+01	-1.004404e+02
1.000000e-08	-5.528998e-06	-1.540267e-09	-3.835773e+01	-1.003769e+02
2.000000e-08	-5.528860e-06	-1.544058e-09	-3.835677e+01	-1.003153e+02
3.000000e-08	-5.528249e-06	-1.548358e-09	-3.835254e+01	-1.002557e+02
4.000000e-08	-5.527112e-06	-1.549785e-09	-3.834465e+01	-1.001981e+02
5.000000e-08	-5.525443e-06	-1.549057e-09	-3.833307e+01	-1.001426e+02
6.000000e-08	-5.523222e-06	-1.546468e-09	-3.831766e+01	-1.000892e+02
7.000000e-08	-5.520429e-06	-1.544122e-09	-3.829828e+01	-1.000377e+02
8.000000e-08	-5.517161e-06	-1.542141e-09	-3.827561e+01	-9.998790e+01
9.000000e-08	-5.513472e-06	-1.541353e-09	-3.825002e+01	-9.993960e+01
1.000000e-07	-5.509367e-06	-1.529305e-09	-3.822154e+01	-9.989250e+01
1.100000e-07	-5.504943e-06	-1.518228e-09	-3.819085e+01	-9.984624e+01
1.200000e-07	-5.500311e-06	-1.491221e-09	-3.815872e+01	-9.980043e+01
1.300000e-07	-5.495376e-06	-1.512874e-09	-3.812448e+01	-9.975463e+01
1.400000e-07	-5.490045e-06	-1.551565e-09	-3.808750e+01	-9.970840e+01
1.500000e-07	-5.484291e-06	-1.547495e-09	-3.804757e+01	-9.966126e+01
1.600000e-07	-5.478145e-06	-1.524824e-09	-3.800494e+01	-9.961272e+01
1.700000e-07	-5.471590e-06	-1.513314e-09	-3.795946e+01	-9.956232e+01
1.800000e-07	-5.464598e-06	-1.555640e-09	-3.791095e+01	-9.950958e+01
1.900000e-07	-5.457349e-06	-1.562827e-09	-3.786067e+01	-9.945405e+01
2.000000e-07	-5.449874e-06	-1.514801e-09	-3.780880e+01	-9.939530e+01
2.100000e-07	-5.442104e-06	-1.490563e-09	-3.775490e+01	-9.933295e+01
2.200000e-07	-5.434029e-06	-1.520468e-09	-3.769888e+01	-9.926664e+01
2.300000e-07	-5.425537e-06	-1.562801e-09	-3.763997e+01	-9.919608e+01
2.400000e-07	-5.416536e-06	-1.543941e-09	-3.757752e+01	-9.912100e+01
2.500000e-07	-5.406942e-06	-1.522801e-09	-3.751096e+01	-9.904122e+01
2.600000e-07	-5.396690e-06	-1.521441e-09	-3.743984e+01	-9.895659e+01
2.700000e-07	-5.385894e-06	-1.524194e-09	-3.736494e+01	-9.886702e+01
2.800000e-07	-5.374663e-06	-1.504346e-09	-3.728702e+01	-9.877248e+01
2.900000e-07	-5.362989e-06	-1.503852e-09	-3.720604e+01	-9.867299e+01
3.000000e-07	-5.350878e-06	-1.513180e-09	-3.712202e+01	-9.856863e+01
3.100000e-07	-5.338353e-06	-1.508111e-09	-3.703512e+01	-9.845951e+01
3.200000e-07	-5.325414e-06	-1.494071e-09	-3.694536e+01	-9.834580e+01
3.300000e-07	-5.312118e-06	-1.496678e-09	-3.685312e+01	-9.822769e+01
3.400000e-07	-5.298505e-06	-1.507570e-09	-3.675867e+01	-9.810541e+01
3.500000e-07	-5.284433e-06	-1.499111e-09	-3.666105e+01	-9.797919e+01
3.600000e-07	-5.269806e-06	-1.498352e-09	-3.655957e+01	-9.784932e+01
3.700000e-07	-5.254736e-06	-1.501204e-09	-3.645503e+01	-9.771604e+01
3.800000e-07	-5.239167e-06	-1.511984e-09	-3.634701e+01	-9.757964e+01
3.900000e-07	-5.223055e-06	-1.493589e-09	-3.623523e+01	-9.744038e+01
4.000000e-07	-5.206548e-06	-1.475663e-09	-3.612072e+01	-9.729849e+01
4.100000e-07	-5.189746e-06	-1.471516e-09	-3.600415e+01	-9.715422e+01
4.200000e-07	-5.172603e-06	-1.484858e-09	-3.588522e+01	-9.700776e+01
4.300000e-07	-5.155072e-06	-1.484259e-09	-3.576360e+01	-9.685929e+01
4.400000e-07	-5.137227e-06	-1.484440e-09	-3.563980e+01	-9.670896e+01
4.500000e-07	-5.118963e-06	-1.491372e-09	-3.551309e+01	-9.655685e+01
4.600000e-07	-5.100217e-06	-1.486303e-09	-3.538304e+01	-9.640305e+01
4.700000e-07	-5.081200e-06	-1.458328e-09	-3.525111e+01	-9.624759e+01
4.800000e-07	-5.061948e-06	-1.455529e-09	-3.511755e+01	-9.609046e+01
4.900000e-07	-5.042377e-06	-1.463837e-09	-3.498177e+01	-9.593162e+01
5.000000e-07	-5.022541e-06	-1.451125e-09	-3.484416e+01	-9.577100e+01
5.100000e-07	-5.002475e-06	-1.440491e-09	-3.470495e+01	-9.560850e+01
5.200000e-07	-4.982112e-06	-1.459855e-09	-3.456368e+01	-9.544400e+01
5.300000e-07	-4.961369e-06	-1.464673e-09	-3.441978e+01	-9.527736e+01
5.400000e-07	-4.940216e-06	-1.452731e-09	-3.427303e+01	-9.510841e+01
5.500000e-07	-4.918773e-06	-1.455109e-09	-3.412426e+01	-9.493701e+01
5.600000e-07	-4.897060e-06	-1.453322e-09	-3.397363e+01	-9.476297e+01
5.700000e-07	-4.874999e-06	-1.433776e-09	-3.382058e+01	-9.458614e+01
5.800000e-07	-4.852651e-06	-1.436046e-09	-3.366554e+01	-9.440636e+01
5.900000e-07	-4.829908e-06	-1.449094e-09	-3.350776e+01	-9.422350e+01
6.000000e-07	-4.806769e-06	-1.430569e-09	-3.334723e+01	-9.403744e+01
6.100000e-07	-4.783385e-06	-1.416026e-09	-3.318500e+01	-9.384808e+01
6.200000e-07	-4.759730e-06	-1.425244e-09	-3.302089e+01	-9.365536e+01
6.300000e-07	-4.735803e-06	-1.420381e-09	-3.285490e+01	-9.345924e+01
6.400000e-07	-4.711624e-06	-1.408716e-09	-3.268715e+01	-9.325970e+01
6.500000e-07	-4.687133e-06	-1.422693e-09	-3.251725e+01	-9.305679e+01
6.600000e-07	-4.662126e-06	-1.426080e-09	-3.234376e+01	-9.285054e+01
6.700000e-07	-4.636607e-06	-1.411485e-09	-3.216672e+01	-9.264106e+01
6.800000e-07	-4.610651e-06	-1.407167e-09	-3.198665e+01	-9.242845e+01
6.900000e-07	-4.584042e-06	-1.407181e-09	-3.180205e+01	-9.221285e+01
7.000000e-07	-4.556939e-06	-1.390844e-09	-3.161402e+01	-9.199442e+01
7.100000e-07	-4.529608e-06	-1.384750e-09	-3.142441e+01	-9.177335e+01
7.200000e-07	-4.502027e-06	-1.388328e-09	-3.123307e+01	-9.154980e+01
7.300000e-07	-4.474234e-06	-1.389035e-09	-3.104025e+01	-9.132399e+01
7.400000e-07	-4.446284e-06	-1.387849e-09	-3.084634e+01	-9.109609e+01
7.500000e-07	-4.418105e-06	-1.390561e-09	-3.065085e+01	-9.086630e+01
7.600000e-07	-4.389613e-06	-1.383684e-09	-3.045318e+01	-9.063478e+01
7.700000e-07	-4.360791e-06	-1.373696e-09	-3.025323e+01	-9.040168e+01
7.800000e-07	-4.331605e-06	-1.366345e-09	-3.005075e+01	-9.016714e+01
7.900000e-07	-4.302094e-06	-1.362150e-09	-2.984602e+01	-8.993126e+01
8.000000e-07	-4.272302e-06	-1.357029e-09	-2.963934e+01	-8.969410e+01
8.100000e-07	-4.242283e-06	-1.352464e-09	-2.943107e+01	-8.945570e+01
8.200000e-07	-4.212005e-06	-1.347703e-09	-2.922102e+01	-8.921605e+01
8.300000e-07	-4.181422e-06	-1.347550e-09	-2.900885e+01	-8.897510e+01
8.400000e-07	-4.150507e-06	-1.348817e-09	-2.879437e+01	-8.873278e+01
8.500000e-07	-4.119291e-06	-1.349122e-09	-2.857781e+01	-8.848894e+01
8.600000e-07	-4.087958e-06	-1.348660e-09	-2.836044e+01	-8.824343e+01
8.700000e-07	-4.056499e-06	-1.343615e-09	-2.814218e+01	-8.799605e+01
8.800000e-07	-4.024826e-06	-1.335359e-09	-2.792246e+01	-8.774657e+01
8.900000e-07	-3.992912e-06	-1.326728e-09	-2.770105e+01	-8.749474e+01
9.000000e-07	-3.960691e-06	-1.319349e-09	-2.747752e+01	-8.724027e+01
9.100000e-07	-3.928100e-06	-1.310511e-09	-2.725141e+01	-8.698287e+01
9.200000e-07	-3.895099e-06	-1.304473e-09	-2.702246e+01	-8.672224e+01
9.300000e-07	-3.861687e-06	-1.301873e-09	-2.679067e+01	-8.645807e+01
9.400000e-07	-3.827878e-06	-1.300628e-09	-2.655612e+01	-8.619007e+01
9.500000e-07	-3.793596e-06	-1.295890e-09	-2.631829e+01	-8.591792e+01
9.600000e-07	-3.758817e-06	-1.287973e-09	-2.607700e+01	-8.564137e+01
9.700000e-07	-3.723715e-06	-1.276180e-09	-2.583348e+01	-8.536016e+01
9.800000e-07	-3.688380e-06	-1.267684e-09	-2.558834e+01	-8.507407e+01
9.900000e-07	-3.652831e-06	-1.264068e-09	-2.534172e+01	-8.478290e+01
1.000000e-06	-3.617136e-06	-1.262399e-09	-2.509408e+01	-8.448650e+01
1.010000e-06	-3.581338e-06	-1.257048e-09	-2.484573e+01	-8.418476e+01
1.020000e-06	-3.545428e-06	-1.250386e-09	-2.459661e+01	-8.387760e+01
1.030000e-06	-3.509259e-06	-1.242916e-09	-2.434568e+01	-8.356498e+01
1.040000e-06	-3.472800e-06	-1.236396e-09	-2.409274e+01	-8.324693e+01
1.050000e-06	-3.436052e-06	-1.230629e-09	-2.383780e+01	-8.292347e+01
1.060000e-06	-3.398970e-06	-1.226592e-09	-2.358055e+01	-8.259471e+01
1.070000e-06	-3.361669e-06	-1.221099e-09	-2.332177e+01	-8.226074e+01
1.080000e-06	-3.324235e-06	-1.216421e-09	-2.306207e+01	-8.192172e+01
1.090000e-06	-3.286646e-06	-1.211274e-09	-2.280129e+01	-8.157780e+01
1.100000e-06	-3.248794e-06	-1.201869e-09	-2.253869e+01	-8.122915e+01
1.110000e-06	-3.210664e-06	-1.188551e-09	-2.227416e+01	-8.087597e+01
1.120000e-06	-3.172277e-06	-1.175178e-09	-2.200785e+01	-8.051843e+01
1.130000e-06	-3.133641e-06	-1.166327e-09	-2.173981e+01	-8.015670e+01
1.140000e-06	-3.094808e-06	-1.164126e-09	-2.147040e+01	-7.979093e+01
1.150000e-06	-3.055704e-06	-1.167219e-09	-2.119912e+01	-7.942126e+01
1.160000e-06	-3.016363e-06	-1.170239e-09	-2.092618e+01	-7.904778e+01
1.170000e-06	-2.976862e-06	-1.165947e-09	-2.065214e+01	-7.867053e+01
1.180000e-06	-2.937285e-06	-1.155189e-09	-2.037758e+01	-7.828955e+01
1.190000e-06	-2.897650e-06	-1.142741e-09	-2.010261e+01	-7.790478e+01
1.200000e-06	-2.857912e-06	-1.125880e-09	-1.982692e+01	-7.751613e+01
1.210000e-06	-2.818025e-06	-1.110169e-09	-1.955020e+01	-7.712345e+01
1.220000e-06	-2.777938e-06	-1.101628e-09	-1.927210e+01	-7.672653e+01
1.230000e-06	-2.737758e-06	-1.098068e-09	-1.899335e+01	-7.632512e+01
1.240000e-06	-2.697488e-06	-1.095966e-09	-1.871397e+01	-7.591887e+01
1.250000e-06	-2.656994e-06	-1.097324e-09	-1.843304e+01	-7.550742e+01
1.260000e-06	-2.616148e-06	-1.095931e-09	-1.814967e+01	-7.509034e+01
1.270000e-06	-2.574927e-06	-1.086133e-09	-1.786370e+01	-7.466716e+01
1.280000e-06	-2.533321e-06	-1.070520e-09	-1.757505e+01	-7.423738e+01
1.290000e-06	-2.491446e-06	-1.055026e-09	-1.728454e+01	-7.380045e+01
1.300000e-06	-2.449329e-06	-1.043049e-09	-1.699236e+01	-7.335583e+01
1.310000e-06	-2.406866e-06	-1.036285e-09	-1.669777e+01	-7.290294e+01
1.320000e-06	-2.364069e-06	-1.032652e-09	-1.640086e+01	-7.244121e+01
1.330000e-06	-2.321020e-06	-1.029127e-09	-1.610221e+01	-7.197009e+01
1.340000e-06	-2.277882e-06	-1.023050e-09	-1.580294e+01	-7.148903e+01
1.350000e-06	-2.234573e-06	-1.017782e-09	-1.550248e+01	-7.099752e+01
1.360000e-06	-2.191074e-06	-1.011636e-09	-1.520069e+01	-7.049508e+01
1.370000e-06	-2.147522e-06	-1.000200e-09	-1.489855e+01	-6.998126e+01
1.380000e-06	-2.103877e-06	-9.875522e-10	-1.459577e+01	-6.945570e+01
1.390000e-06	-2.060063e-06	-9.764567e-10	-1.429180e+01	-6.891807e+01
1.400000e-06	-2.016193e-06	-9.660952e-10	-1.398745e+01	-6.836810e+01
1.410000e-06	-1.972359e-06	-9.576696e-10	-1.368335e+01	-6.780559e+01
1.420000e-06	-1.928449e-06	-9.502640e-10	-1.337872e+01	-6.723043e+01
1.430000e-06	-1.884383e-06	-9.420314e-10	-1.307301e+01	-6.664253e+01
1.440000e-06	-1.840191e-06	-9.328963e-10	-1.276643e+01	-6.604190e+01
1.450000e-06	-1.795832e-06	-9.240911e-10	-1.245869e+01	-6.542859e+01
1.460000e-06	-1.751318e-06	-9.155683e-10	-1.214987e+01	-6.480271e+01
1.470000e-06	-1.706723e-06	-9.053786e-10	-1.184048e+01	-6.416442e+01
1.480000e-06	-1.661991e-06	-8.965842e-10	-1.153016e+01	-6.351390e+01
1.490000e-06	-1.617077e-06	-8.878539e-10	-1.121856e+01	-6.285136e+01
1.500000e-06	-1.572033e-06	-8.744872e-10	-1.090607e+01	-6.217704e+01
1.510000e-06	-1.526886e-06	-8.594253e-10	-1.059285e+01	-6.149114e+01
1.520000e-06	-1.481629e-06	-8.459261e-10	-1.027889e+01	-6.079387e+01
1.530000e-06	-1.436288e-06	-8.319561e-10	-9.964329e+00	-6.008542e+01
1.540000e-06	-1.390827e-06	-8.184035e-10	-9.648939e+00	-5.936591e+01
1.550000e-06	-1.345316e-06	-8.077607e-10	-9.333201e+00	-5.863542e+01
1.560000e-06	-1.299750e-06	-7.983932e-10	-9.017089e+00	-5.789394e+01
1.570000e-06	-1.254026e-06	-7.865592e-10	-8.699875e+00	-5.714138e+01
1.580000e-06	-1.208222e-06	-7.744968e-10	-8.382107e+00	-5.637757e+01
1.590000e-06	-1.162443e-06	-7.591754e-10	-8.064515e+00	-5.560219e+01
1.600000e-06	-1.116539e-06	-7.394271e-10	-7.746049e+00	-5.481484e+01
1.610000e-06	-1.070442e-06	-7.204108e-10	-7.426250e+00	-5.401497e+01
1.620000e-06	-1.024286e-06	-7.057266e-10	-7.106038e+00	-5.320190e+01
1.630000e-06	-9.780889e-07	-6.936308e-10	-6.785546e+00	-5.237482e+01
1.640000e-06	-9.318205e-07	-6.822637e-10	-6.464557e+00	-5.153278e+01
1.650000e-06	-8.855205e-07	-6.729975e-10	-6.143348e+00	-5.067471e+01
1.660000e-06	-8.391477e-07	-6.660776e-10	-5.821634e+00	-4.979939e+01
1.670000e-06	-7.926235e-07	-6.569542e-10	-5.498870e+00	-4.890548e+01
1.680000e-06	-7.461255e-07	-6.422921e-10	-5.176288e+00	-4.799155e+01
1.690000e-06	-6.996229e-07	-6.240667e-10	-4.853673e+00	-4.705604e+01
1.700000e-06	-6.530085e-07	-6.018539e-10	-4.530283e+00	-4.609733e+01
1.710000e-06	-6.063948e-07	-5.792666e-10	-4.206898e+00	-4.511370e+01
1.720000e-06	-5.597990e-07	-5.599382e-10	-3.883637e+00	-4.410341e+01
1.730000e-06	-5.130852e-07	-5.446191e-10	-3.559558e+00	-4.306466e+01
1.740000e-06	-4.662224e-07	-5.324968e-10	-3.234444e+00	-4.199567e+01
1.750000e-06	-4.193727e-07	-5.209998e-10	-2.909422e+00	-4.089465e+01
1.760000e-06	-3.724792e-07	-5.070082e-10	-2.584096e+00	-3.975985e+01
1.770000e-06	-3.255682e-07	-4.878133e-10	-2.258648e+00	-3.858958e+01
1.780000e-06	-2.787133e-07	-4.652363e-10	-1.933589e+00	-3.738224e+01
1.790000e-06	-2.318187e-07	-4.428969e-10	-1.608255e+00	-3.613633e+01
1.800000e-06	-1.849040e-07	-4.207602e-10	-1.282782e+00	-3.485047e+01
1.810000e-06	-1.380006e-07	-4.000494e-10	-9.573867e-01	-3.352345e+01
1.820000e-06	-9.111961e-08	-3.818886e-10	-6.321474e-01	-3.215422e+01
1.830000e-06	-4.425743e-08	-3.642129e-10	-3.070384e-01	-3.074191e+01
1.840000e-06	2.645016e-09	-3.458932e-10	1.834995e-02	-2.928589e+01
1.850000e-06	4.957877e-08	-3.266621e-10	3.439555e-01	-2.778570e+01
1.860000e-06	9.643575e-08	-3.063938e-10	6.690284e-01	-2.624116e+01
1.870000e-06	1.432161e-07	-2.855754e-10	9.935696e-01	-2.465230e+01
1.880000e-06	1.900797e-07	-2.637121e-10	1.318689e+00	-2.301943e+01
1.890000e-06	2.370116e-07	-2.391218e-10	1.644281e+00	-2.134308e+01
1.900000e-06	2.838953e-07	-2.138365e-10	1.969539e+00	-1.962408e+01
1.910000e-06	3.307666e-07	-1.881345e-10	2.294711e+00	-1.786347e+01
1.920000e-06	3.775932e-07	-1.630268e-10	2.619574e+00	-1.606257e+01
1.930000e-06	4.243938e-07	-1.396584e-10	2.944256e+00	-1.422293e+01
1.940000e-06	4.711492e-07	-1.170899e-10	3.268624e+00	-1.234636e+01
1.950000e-06	5.177931e-07	-9.593426e-11	3.592219e+00	-1.043487e+01
1.960000e-06	5.644190e-07	-7.139138e-11	3.915688e+00	-8.490691e+00
1.970000e-06	6.110795e-07	-4.426322e-11	4.239398e+00	-6.516249e+00
1.980000e-06	6.577137e-07	-1.511439e-11	4.562925e+00	-4.514152e+00
1.990000e-06	7.041902e-07	1.677346e-11	4.885359e+00	-2.487163e+00
2.000000e-06	7.505727e-07	4.818249e-11	5.207140e+00	-4.381893e-01
2.010000e-06	7.969960e-07	7.624698e-11	5.529204e+00	1.629746e+00
2.020000e-06	8.434348e-07	1.055188e-10	5.851376e+00	3.713521e+00
2.030000e-06	8.897431e-07	1.348386e-10	6.172643e+00	5.809940e+00
2.040000e-06	9.359157e-07	1.617787e-10	6.492967e+00	7.915754e+00
2.050000e-06	9.820130e-07	1.878308e-10	6.812770e+00	1.002769e+01
2.060000e-06	1.027981e-06	2.140899e-10	7.131679e+00	1.214245e+01
2.070000e-06	1.073892e-06	2.407685e-10	7.450187e+00	1.425677e+01
2.080000e-06	1.119848e-06	2.680058e-10	7.769005e+00	1.636742e+01
2.090000e-06	1.165783e-06	2.983661e-10	8.087685e+00	1.847121e+01
2.100000e-06	1.211587e-06	3.295281e-10	8.405450e+00	2.056503e+01
2.110000e-06	1.257284e-06	3.588908e-10	8.722479e+00	2.264586e+01
2.120000e-06	1.302881e-06	3.865843e-10	9.038809e+00	2.471081e+01
2.130000e-06	1.348389e-06	4.123706e-10	9.354526e+00	2.675707e+01
2.140000e-06	1.393830e-06	4.354076e-10	9.669771e+00	2.878201e+01
2.150000e-06	1.439171e-06	4.579449e-10	9.984330e+00	3.078313e+01
2.160000e-06	1.484421e-06	4.832628e-10	1.029825e+01	3.275807e+01
2.170000e-06	1.529581e-06	5.118448e-10	1.061155e+01	3.470466e+01
2.180000e-06	1.574673e-06	5.415684e-10	1.092438e+01	3.662091e+01
2.190000e-06	1.619628e-06	5.722599e-10	1.123626e+01	3.850500e+01
2.200000e-06	1.664420e-06	6.015454e-10	1.154700e+01	4.035527e+01
2.210000e-06	1.709083e-06	6.284895e-10	1.185686e+01	4.217029e+01
2.220000e-06	1.753607e-06	6.510985e-10	1.216575e+01	4.394878e+01
2.230000e-06	1.797974e-06	6.712604e-10	1.247354e+01	4.568967e+01
2.240000e-06	1.842210e-06	6.897557e-10	1.278044e+01	4.739206e+01
2.250000e-06	1.886374e-06	7.100564e-10	1.308683e+01	4.905523e+01
2.260000e-06	1.930428e-06	7.334872e-10	1.339245e+01	5.067865e+01
2.270000e-06	1.974337e-06	7.565012e-10	1.369707e+01	5.226194e+01
2.280000e-06	2.018144e-06	7.780566e-10	1.400099e+01	5.380492e+01
2.290000e-06	2.061881e-06	7.984371e-10	1.430441e+01	5.530753e+01
2.300000e-06	2.105604e-06	8.188740e-10	1.460775e+01	5.676987e+01
2.310000e-06	2.149260e-06	8.391224e-10	1.491061e+01	5.819220e+01
2.320000e-06	2.192819e-06	8.589777e-10	1.521280e+01	5.957490e+01
2.330000e-06	2.236302e-06	8.782539e-10	1.551447e+01	6.091845e+01
2.340000e-06	2.279682e-06	8.965813e-10	1.581542e+01	6.222347e+01
2.350000e-06	2.322936e-06	9.144307e-10	1.611550e+01	6.349066e+01
2.360000e-06	2.365968e-06	9.302710e-10	1.641403e+01	6.472083e+01
2.370000e-06	2.408696e-06	9.437559e-10	1.671046e+01	6.591484e+01
2.380000e-06	2.451127e-06	9.567398e-10	1.700483e+01	6.707365e+01
2.390000e-06	2.493181e-06	9.697199e-10	1.729658e+01	6.819823e+01
2.400000e-06	2.534856e-06	9.850719e-10	1.758570e+01	6.928963e+01
2.410000e-06	2.576226e-06	1.002914e-09	1.787271e+01	7.034892e+01
2.420000e-06	2.617329e-06	1.019611e-09	1.815787e+01	7.137719e+01
2.430000e-06	2.658257e-06	1.033863e-09	1.844180e+01	7.237552e+01
2.440000e-06	2.698949e-06	1.046696e-09	1.872411e+01	7.334503e+01
2.450000e-06	2.739346e-06	1.058742e-09	1.900436e+01	7.428680e+01
2.460000e-06	2.779544e-06	1.070977e-09	1.928324e+01	7.520190e+01
2.470000e-06	2.819584e-06	1.082246e-09	1.956102e+01	7.609137e+01
2.480000e-06	2.859412e-06	1.094385e-09	1.983733e+01	7.695621e+01
2.490000e-06	2.899125e-06	1.106061e-09	2.011284e+01	7.779738e+01
2.500000e-06	2.938760e-06	1.118154e-09	2.038781e+01	7.861580e+01
2.510000e-06	2.978250e-06	1.132857e-09	2.066177e+01	7.941233e+01
2.520000e-06	3.017597e-06	1.145464e-09	2.093475e+01	8.018776e+01
2.530000e-06	3.056751e-06	1.158080e-09	2.120638e+01	8.094285e+01
2.540000e-06	3.095660e-06	1.170220e-09	2.147631e+01	8.167826e+01
2.550000e-06	3.134318e-06	1.178255e-09	2.174451e+01	8.239461e+01
2.560000e-06	3.172740e-06	1.181937e-09	2.201106e+01	8.309244e+01
2.570000e-06	3.210985e-06	1.184507e-09	2.227638e+01	8.377224e+01
2.580000e-06	3.249039e-06	1.190002e-09	2.254039e+01	8.443443e+01
2.590000e-06	3.286861e-06	1.198247e-09	2.280278e+01	8.507938e+01
2.600000e-06	3.324469e-06	1.211830e-09	2.306369e+01	8.570738e+01
2.610000e-06	3.361827e-06	1.228938e-09	2.332286e+01	8.631870e+01
2.620000e-06	3.398896e-06	1.243992e-09	2.358003e+01	8.691354e+01
2.630000e-06	3.435736e-06	1.253594e-09	2.383561e+01	8.749208e+01
2.640000e-06	3.472327e-06	1.258977e-09	2.408946e+01	8.805445e+01
2.650000e-06	3.508663e-06	1.261704e-09	2.434154e+01	8.860075e+01
2.660000e-06	3.544804e-06	1.263453e-09	2.459227e+01	8.913106e+01
2.670000e-06	3.580757e-06	1.267040e-09	2.484170e+01	8.964546e+01
2.680000e-06	3.616523e-06	1.273835e-09	2.508983e+01	9.014400e+01
2.690000e-06	3.652162e-06	1.283913e-09	2.533708e+01	9.062675e+01
2.700000e-06	3.687732e-06	1.293320e-09	2.558385e+01	9.109376e+01
2.710000e-06	3.723133e-06	1.299738e-09	2.582944e+01	9.154512e+01
2.720000e-06	3.758259e-06	1.305653e-09	2.607313e+01	9.198090e+01
2.730000e-06	3.793128e-06	1.310781e-09	2.631504e+01	9.240121e+01
2.740000e-06	3.827579e-06	1.314445e-09	2.655404e+01	9.280619e+01
2.750000e-06	3.861516e-06	1.317320e-09	2.678948e+01	9.319601e+01
2.760000e-06	3.894996e-06	1.322717e-09	2.702175e+01	9.357084e+01
2.770000e-06	3.928014e-06	1.330229e-09	2.725082e+01	9.393092e+01
2.780000e-06	3.960580e-06	1.336872e-09	2.747675e+01	9.427650e+01
2.790000e-06	3.992772e-06	1.344292e-09	2.770008e+01	9.460786e+01
2.800000e-06	4.024709e-06	1.352345e-09	2.792165e+01	9.492534e+01
2.810000e-06	4.056452e-06	1.358925e-09	2.814186e+01	9.522928e+01
2.820000e-06	4.088070e-06	1.362618e-09	2.836121e+01	9.552006e+01
2.830000e-06	4.119550e-06	1.366244e-09	2.857961e+01	9.579810e+01
2.840000e-06	4.150771e-06	1.369627e-09	2.879620e+01	9.606381e+01
2.850000e-06	4.181687e-06	1.371614e-09	2.901069e+01	9.631766e+01
2.860000e-06	4.212254e-06	1.376552e-09	2.922275e+01	9.656010e+01
2.870000e-06	4.242407e-06	1.381261e-09	2.943194e+01	9.679160e+01
2.880000e-06	4.272305e-06	1.383618e-09	2.963935e+01	9.701265e+01
2.890000e-06	4.302048e-06	1.386431e-09	2.984570e+01	9.722372e+01
2.900000e-06	4.331509e-06	1.392627e-09	3.005008e+01	9.742530e+01
