# Temperatura_=_-9.62
# Concentracion g/m^3_=_1620.0
# C_Vs_to_Am_M_A/Vsm_=_65563218390.804596
# pendiente_HvsI_1/m_=_3716.3
# ordenada_HvsI_A/m_=_1297.0
# frecuencia_Hz_=_135109.186564725

Tiempo_(s)	Campo_(V.s)	Magnetizacion_(V.s)	Campo_(kA/m)	Magnetizacion_(A/m)
0.000000e+00	-5.530460e-06	-1.391776e-09	-3.837150e+01	-9.033998e+01
1.000000e-08	-5.530628e-06	-1.390066e-09	-3.837266e+01	-9.028438e+01
2.000000e-08	-5.530562e-06	-1.389732e-09	-3.837221e+01	-9.022841e+01
3.000000e-08	-5.530199e-06	-1.389316e-09	-3.836969e+01	-9.017220e+01
4.000000e-08	-5.529480e-06	-1.388269e-09	-3.836470e+01	-9.011591e+01
5.000000e-08	-5.528238e-06	-1.386555e-09	-3.835609e+01	-9.005968e+01
6.000000e-08	-5.526393e-06	-1.380860e-09	-3.834328e+01	-9.000364e+01
7.000000e-08	-5.523976e-06	-1.375087e-09	-3.832651e+01	-8.994793e+01
8.000000e-08	-5.520889e-06	-1.369954e-09	-3.830509e+01	-8.989266e+01
9.000000e-08	-5.517226e-06	-1.362239e-09	-3.827968e+01	-8.983792e+01
1.000000e-07	-5.513180e-06	-1.395065e-09	-3.825161e+01	-8.978377e+01
1.100000e-07	-5.508834e-06	-1.436641e-09	-3.822145e+01	-8.973024e+01
1.200000e-07	-5.504241e-06	-1.404251e-09	-3.818959e+01	-8.967733e+01
1.300000e-07	-5.499391e-06	-1.292165e-09	-3.815594e+01	-8.962500e+01
1.400000e-07	-5.494256e-06	-1.312807e-09	-3.812031e+01	-8.957317e+01
1.500000e-07	-5.488723e-06	-1.390433e-09	-3.808192e+01	-8.952171e+01
1.600000e-07	-5.482813e-06	-1.422273e-09	-3.804091e+01	-8.947047e+01
1.700000e-07	-5.476538e-06	-1.335752e-09	-3.799738e+01	-8.941923e+01
1.800000e-07	-5.469852e-06	-1.313843e-09	-3.795099e+01	-8.936775e+01
1.900000e-07	-5.462786e-06	-1.397491e-09	-3.790196e+01	-8.931576e+01
2.000000e-07	-5.455353e-06	-1.404695e-09	-3.785039e+01	-8.926292e+01
2.100000e-07	-5.447592e-06	-1.356605e-09	-3.779655e+01	-8.920891e+01
2.200000e-07	-5.439558e-06	-1.326026e-09	-3.774081e+01	-8.915334e+01
2.300000e-07	-5.431202e-06	-1.388633e-09	-3.768283e+01	-8.909585e+01
2.400000e-07	-5.422537e-06	-1.404307e-09	-3.762271e+01	-8.903602e+01
2.500000e-07	-5.413520e-06	-1.384020e-09	-3.756015e+01	-8.897347e+01
2.600000e-07	-5.403794e-06	-1.344743e-09	-3.749266e+01	-8.890780e+01
2.700000e-07	-5.393280e-06	-1.374163e-09	-3.741972e+01	-8.883863e+01
2.800000e-07	-5.382202e-06	-1.372854e-09	-3.734286e+01	-8.876560e+01
2.900000e-07	-5.370650e-06	-1.364615e-09	-3.726271e+01	-8.868837e+01
3.000000e-07	-5.358710e-06	-1.342400e-09	-3.717986e+01	-8.860664e+01
3.100000e-07	-5.346415e-06	-1.366005e-09	-3.709456e+01	-8.852016e+01
3.200000e-07	-5.333695e-06	-1.374109e-09	-3.700631e+01	-8.842872e+01
3.300000e-07	-5.320586e-06	-1.357358e-09	-3.691535e+01	-8.833215e+01
3.400000e-07	-5.307091e-06	-1.333110e-09	-3.682172e+01	-8.823037e+01
3.500000e-07	-5.293246e-06	-1.356488e-09	-3.672566e+01	-8.812332e+01
3.600000e-07	-5.279025e-06	-1.367688e-09	-3.662699e+01	-8.801103e+01
3.700000e-07	-5.264382e-06	-1.338667e-09	-3.652540e+01	-8.789359e+01
3.800000e-07	-5.249187e-06	-1.339814e-09	-3.641997e+01	-8.777114e+01
3.900000e-07	-5.233369e-06	-1.372509e-09	-3.631022e+01	-8.764388e+01
4.000000e-07	-5.217079e-06	-1.341715e-09	-3.619720e+01	-8.751208e+01
4.100000e-07	-5.200358e-06	-1.300797e-09	-3.608119e+01	-8.737607e+01
4.200000e-07	-5.183356e-06	-1.358469e-09	-3.596322e+01	-8.723620e+01
4.300000e-07	-5.166071e-06	-1.372706e-09	-3.584329e+01	-8.709288e+01
4.400000e-07	-5.148394e-06	-1.307708e-09	-3.572065e+01	-8.694656e+01
4.500000e-07	-5.130354e-06	-1.315562e-09	-3.559548e+01	-8.679771e+01
4.600000e-07	-5.111930e-06	-1.392999e-09	-3.546765e+01	-8.664683e+01
4.700000e-07	-5.093084e-06	-1.328518e-09	-3.533690e+01	-8.649439e+01
4.800000e-07	-5.073820e-06	-1.284712e-09	-3.520324e+01	-8.634092e+01
4.900000e-07	-5.054203e-06	-1.353981e-09	-3.506713e+01	-8.618691e+01
5.000000e-07	-5.034412e-06	-1.360226e-09	-3.492981e+01	-8.603282e+01
5.100000e-07	-5.014478e-06	-1.269806e-09	-3.479151e+01	-8.587912e+01
5.200000e-07	-4.994324e-06	-1.316545e-09	-3.465167e+01	-8.572622e+01
5.300000e-07	-4.973772e-06	-1.360278e-09	-3.450908e+01	-8.557450e+01
5.400000e-07	-4.952765e-06	-1.295267e-09	-3.436333e+01	-8.542429e+01
5.500000e-07	-4.931509e-06	-1.288962e-09	-3.421585e+01	-8.527588e+01
5.600000e-07	-4.910000e-06	-1.364474e-09	-3.406662e+01	-8.512948e+01
5.700000e-07	-4.888019e-06	-1.312883e-09	-3.391411e+01	-8.498526e+01
5.800000e-07	-4.865613e-06	-1.265602e-09	-3.375865e+01	-8.484332e+01
5.900000e-07	-4.842916e-06	-1.321551e-09	-3.360117e+01	-8.470370e+01
6.000000e-07	-4.819832e-06	-1.322978e-09	-3.344101e+01	-8.456637e+01
6.100000e-07	-4.796356e-06	-1.257512e-09	-3.327813e+01	-8.443123e+01
6.200000e-07	-4.772662e-06	-1.287329e-09	-3.311373e+01	-8.429815e+01
6.300000e-07	-4.748756e-06	-1.317249e-09	-3.294787e+01	-8.416692e+01
6.400000e-07	-4.724640e-06	-1.276701e-09	-3.278055e+01	-8.403729e+01
6.500000e-07	-4.700305e-06	-1.278763e-09	-3.261171e+01	-8.390894e+01
6.600000e-07	-4.675576e-06	-1.310326e-09	-3.244014e+01	-8.378154e+01
6.700000e-07	-4.650368e-06	-1.284046e-09	-3.226523e+01	-8.365471e+01
6.800000e-07	-4.624645e-06	-1.263604e-09	-3.208677e+01	-8.352805e+01
6.900000e-07	-4.598331e-06	-1.286350e-09	-3.190419e+01	-8.340112e+01
7.000000e-07	-4.571429e-06	-1.275340e-09	-3.171754e+01	-8.327350e+01
7.100000e-07	-4.544070e-06	-1.257123e-09	-3.152772e+01	-8.314473e+01
7.200000e-07	-4.516426e-06	-1.267920e-09	-3.133592e+01	-8.301438e+01
7.300000e-07	-4.488644e-06	-1.276144e-09	-3.114316e+01	-8.288201e+01
7.400000e-07	-4.460754e-06	-1.261475e-09	-3.094966e+01	-8.274720e+01
7.500000e-07	-4.432682e-06	-1.262784e-09	-3.075489e+01	-8.260955e+01
7.600000e-07	-4.404371e-06	-1.260148e-09	-3.055845e+01	-8.246868e+01
7.700000e-07	-4.375780e-06	-1.252959e-09	-3.036008e+01	-8.232423e+01
7.800000e-07	-4.346772e-06	-1.244398e-09	-3.015882e+01	-8.217591e+01
7.900000e-07	-4.317379e-06	-1.246714e-09	-2.995489e+01	-8.202341e+01
8.000000e-07	-4.287721e-06	-1.240581e-09	-2.974912e+01	-8.186650e+01
8.100000e-07	-4.257836e-06	-1.241626e-09	-2.954176e+01	-8.170497e+01
8.200000e-07	-4.227687e-06	-1.238129e-09	-2.933258e+01	-8.153864e+01
8.300000e-07	-4.197240e-06	-1.232199e-09	-2.912134e+01	-8.136739e+01
8.400000e-07	-4.166435e-06	-1.224311e-09	-2.890760e+01	-8.119111e+01
8.500000e-07	-4.135276e-06	-1.230277e-09	-2.869142e+01	-8.100974e+01
8.600000e-07	-4.103893e-06	-1.227333e-09	-2.847368e+01	-8.082325e+01
8.700000e-07	-4.072330e-06	-1.217497e-09	-2.825469e+01	-8.063165e+01
8.800000e-07	-4.040619e-06	-1.209209e-09	-2.803467e+01	-8.043494e+01
8.900000e-07	-4.008777e-06	-1.203385e-09	-2.781374e+01	-8.023320e+01
9.000000e-07	-3.976737e-06	-1.192152e-09	-2.759144e+01	-8.002648e+01
9.100000e-07	-3.944386e-06	-1.191661e-09	-2.736698e+01	-7.981488e+01
9.200000e-07	-3.911711e-06	-1.193434e-09	-2.714028e+01	-7.959851e+01
9.300000e-07	-3.878675e-06	-1.187262e-09	-2.691107e+01	-7.937749e+01
9.400000e-07	-3.845215e-06	-1.182620e-09	-2.667892e+01	-7.915193e+01
9.500000e-07	-3.811313e-06	-1.184016e-09	-2.644370e+01	-7.892199e+01
9.600000e-07	-3.776978e-06	-1.177259e-09	-2.620547e+01	-7.868780e+01
9.700000e-07	-3.742136e-06	-1.164453e-09	-2.596373e+01	-7.844952e+01
9.800000e-07	-3.706893e-06	-1.163439e-09	-2.571921e+01	-7.820729e+01
9.900000e-07	-3.671435e-06	-1.163422e-09	-2.547319e+01	-7.796128e+01
1.000000e-06	-3.635782e-06	-1.159495e-09	-2.522583e+01	-7.771163e+01
1.010000e-06	-3.599988e-06	-1.155891e-09	-2.497748e+01	-7.745851e+01
1.020000e-06	-3.564083e-06	-1.156266e-09	-2.472836e+01	-7.720208e+01
1.030000e-06	-3.528023e-06	-1.148107e-09	-2.447817e+01	-7.694249e+01
1.040000e-06	-3.491760e-06	-1.142336e-09	-2.422657e+01	-7.667992e+01
1.050000e-06	-3.455281e-06	-1.141667e-09	-2.397347e+01	-7.641451e+01
1.060000e-06	-3.418528e-06	-1.140503e-09	-2.371847e+01	-7.614645e+01
1.070000e-06	-3.381425e-06	-1.129983e-09	-2.346104e+01	-7.587588e+01
1.080000e-06	-3.344039e-06	-1.124723e-09	-2.320165e+01	-7.560297e+01
1.090000e-06	-3.306442e-06	-1.119958e-09	-2.294079e+01	-7.532789e+01
1.100000e-06	-3.268657e-06	-1.113996e-09	-2.267864e+01	-7.505078e+01
1.110000e-06	-3.230672e-06	-1.107855e-09	-2.241509e+01	-7.477180e+01
1.120000e-06	-3.192449e-06	-1.105670e-09	-2.214989e+01	-7.449109e+01
1.130000e-06	-3.153974e-06	-1.096596e-09	-2.188294e+01	-7.420879e+01
1.140000e-06	-3.115156e-06	-1.089314e-09	-2.161361e+01	-7.392502e+01
1.150000e-06	-3.076186e-06	-1.088057e-09	-2.134323e+01	-7.363987e+01
1.160000e-06	-3.037146e-06	-1.087747e-09	-2.107236e+01	-7.335343e+01
1.170000e-06	-2.997931e-06	-1.082798e-09	-2.080028e+01	-7.306575e+01
1.180000e-06	-2.958500e-06	-1.077963e-09	-2.052670e+01	-7.277687e+01
1.190000e-06	-2.918865e-06	-1.074298e-09	-2.025170e+01	-7.248677e+01
1.200000e-06	-2.879139e-06	-1.068141e-09	-1.997607e+01	-7.219541e+01
1.210000e-06	-2.839278e-06	-1.059931e-09	-1.969951e+01	-7.190271e+01
1.220000e-06	-2.799223e-06	-1.052737e-09	-1.942160e+01	-7.160853e+01
1.230000e-06	-2.759070e-06	-1.043993e-09	-1.914301e+01	-7.131270e+01
1.240000e-06	-2.718740e-06	-1.036133e-09	-1.886319e+01	-7.101499e+01
1.250000e-06	-2.678107e-06	-1.032890e-09	-1.858127e+01	-7.071510e+01
1.260000e-06	-2.637267e-06	-1.032112e-09	-1.829791e+01	-7.041271e+01
1.270000e-06	-2.596179e-06	-1.029624e-09	-1.801284e+01	-7.010743e+01
1.280000e-06	-2.554786e-06	-1.021567e-09	-1.772565e+01	-6.979879e+01
1.290000e-06	-2.513122e-06	-1.012332e-09	-1.743657e+01	-6.948632e+01
1.300000e-06	-2.471220e-06	-1.002125e-09	-1.714585e+01	-6.916944e+01
1.310000e-06	-2.429036e-06	-9.916399e-10	-1.685316e+01	-6.884758e+01
1.320000e-06	-2.386458e-06	-9.839144e-10	-1.655775e+01	-6.852009e+01
1.330000e-06	-2.343579e-06	-9.796293e-10	-1.626025e+01	-6.818630e+01
1.340000e-06	-2.300533e-06	-9.760871e-10	-1.596158e+01	-6.784551e+01
1.350000e-06	-2.257277e-06	-9.763097e-10	-1.566147e+01	-6.749700e+01
1.360000e-06	-2.213814e-06	-9.750095e-10	-1.535991e+01	-6.714004e+01
1.370000e-06	-2.170241e-06	-9.710947e-10	-1.505759e+01	-6.677388e+01
1.380000e-06	-2.126582e-06	-9.640897e-10	-1.475467e+01	-6.639779e+01
1.390000e-06	-2.082804e-06	-9.546873e-10	-1.445094e+01	-6.601104e+01
1.400000e-06	-2.038951e-06	-9.409787e-10	-1.414667e+01	-6.561295e+01
1.410000e-06	-1.995038e-06	-9.289257e-10	-1.384200e+01	-6.520285e+01
1.420000e-06	-1.951073e-06	-9.205468e-10	-1.353696e+01	-6.478010e+01
1.430000e-06	-1.907044e-06	-9.157280e-10	-1.323147e+01	-6.434414e+01
1.440000e-06	-1.862882e-06	-9.110471e-10	-1.292507e+01	-6.389443e+01
1.450000e-06	-1.818568e-06	-9.048959e-10	-1.261761e+01	-6.343053e+01
1.460000e-06	-1.774114e-06	-8.972384e-10	-1.230917e+01	-6.295203e+01
1.470000e-06	-1.729507e-06	-8.876825e-10	-1.199969e+01	-6.245860e+01
1.480000e-06	-1.684749e-06	-8.763216e-10	-1.168915e+01	-6.194998e+01
1.490000e-06	-1.639883e-06	-8.660505e-10	-1.137785e+01	-6.142599e+01
1.500000e-06	-1.594897e-06	-8.545732e-10	-1.106573e+01	-6.088649e+01
1.510000e-06	-1.549773e-06	-8.416800e-10	-1.075266e+01	-6.033143e+01
1.520000e-06	-1.504580e-06	-8.317050e-10	-1.043909e+01	-5.976080e+01
1.530000e-06	-1.459298e-06	-8.249142e-10	-1.012492e+01	-5.917465e+01
1.540000e-06	-1.413873e-06	-8.169047e-10	-9.809748e+00	-5.857306e+01
1.550000e-06	-1.368325e-06	-8.080353e-10	-9.493726e+00	-5.795614e+01
1.560000e-06	-1.322684e-06	-7.964163e-10	-9.177062e+00	-5.732405e+01
1.570000e-06	-1.276955e-06	-7.802686e-10	-8.859786e+00	-5.667690e+01
1.580000e-06	-1.231196e-06	-7.651543e-10	-8.542298e+00	-5.601484e+01
1.590000e-06	-1.185399e-06	-7.532491e-10	-8.224551e+00	-5.533799e+01
1.600000e-06	-1.139500e-06	-7.406310e-10	-7.906088e+00	-5.464640e+01
1.610000e-06	-1.093546e-06	-7.270167e-10	-7.587252e+00	-5.394011e+01
1.620000e-06	-1.047557e-06	-7.162702e-10	-7.268174e+00	-5.321908e+01
1.630000e-06	-1.001454e-06	-7.055788e-10	-6.948301e+00	-5.248319e+01
1.640000e-06	-9.552189e-07	-6.945153e-10	-6.627510e+00	-5.173223e+01
1.650000e-06	-9.088745e-07	-6.837375e-10	-6.305964e+00	-5.096589e+01
1.660000e-06	-8.624473e-07	-6.748076e-10	-5.983842e+00	-5.018375e+01
1.670000e-06	-8.160063e-07	-6.645280e-10	-5.661624e+00	-4.938529e+01
1.680000e-06	-7.695297e-07	-6.511487e-10	-5.339160e+00	-4.856983e+01
1.690000e-06	-7.230217e-07	-6.357503e-10	-5.016478e+00	-4.773660e+01
1.700000e-06	-6.764891e-07	-6.202089e-10	-4.693624e+00	-4.688470e+01
1.710000e-06	-6.299765e-07	-6.029778e-10	-4.370910e+00	-4.601310e+01
1.720000e-06	-5.834725e-07	-5.843703e-10	-4.048255e+00	-4.512065e+01
1.730000e-06	-5.368174e-07	-5.682085e-10	-3.724552e+00	-4.420611e+01
1.740000e-06	-4.899988e-07	-5.561734e-10	-3.399715e+00	-4.326813e+01
1.750000e-06	-4.431789e-07	-5.462948e-10	-3.074869e+00	-4.230528e+01
1.760000e-06	-3.963457e-07	-5.347333e-10	-2.749931e+00	-4.131607e+01
1.770000e-06	-3.494644e-07	-5.180950e-10	-2.424658e+00	-4.029895e+01
1.780000e-06	-3.025877e-07	-4.988061e-10	-2.099418e+00	-3.925235e+01
1.790000e-06	-2.556504e-07	-4.799464e-10	-1.773757e+00	-3.817469e+01
1.800000e-06	-2.087109e-07	-4.638674e-10	-1.448080e+00	-3.706440e+01
1.810000e-06	-1.618123e-07	-4.495169e-10	-1.122688e+00	-3.591997e+01
1.820000e-06	-1.148767e-07	-4.343550e-10	-7.970391e-01	-3.473995e+01
1.830000e-06	-6.789410e-08	-4.180030e-10	-4.710636e-01	-3.352296e+01
1.840000e-06	-2.097082e-08	-4.003644e-10	-1.455000e-01	-3.226777e+01
1.850000e-06	2.588403e-08	-3.820691e-10	1.795889e-01	-3.097326e+01
1.860000e-06	7.277610e-08	-3.641275e-10	5.049360e-01	-2.963850e+01
1.870000e-06	1.197072e-07	-3.450183e-10	8.305539e-01	-2.826272e+01
1.880000e-06	1.666604e-07	-3.245850e-10	1.156325e+00	-2.684538e+01
1.890000e-06	2.136242e-07	-3.029182e-10	1.482170e+00	-2.538613e+01
1.900000e-06	2.605547e-07	-2.794030e-10	1.807784e+00	-2.388487e+01
1.910000e-06	3.074614e-07	-2.560707e-10	2.133232e+00	-2.234177e+01
1.920000e-06	3.543771e-07	-2.331698e-10	2.458743e+00	-2.075723e+01
1.930000e-06	4.012480e-07	-2.117660e-10	2.783944e+00	-1.913190e+01
1.940000e-06	4.480462e-07	-1.906826e-10	3.108639e+00	-1.746674e+01
1.950000e-06	4.947558e-07	-1.679011e-10	3.432720e+00	-1.576293e+01
1.960000e-06	5.413609e-07	-1.430037e-10	3.756076e+00	-1.402193e+01
1.970000e-06	5.879108e-07	-1.165275e-10	4.079049e+00	-1.224544e+01
1.980000e-06	6.344596e-07	-9.046513e-11	4.402015e+00	-1.043540e+01
1.990000e-06	6.809767e-07	-6.530300e-11	4.724760e+00	-8.593983e+00
2.000000e-06	7.274182e-07	-3.871395e-11	5.046982e+00	-6.723555e+00
2.010000e-06	7.737999e-07	-1.160402e-11	5.368787e+00	-4.826680e+00
2.020000e-06	8.201739e-07	1.596757e-11	5.690540e+00	-2.906085e+00
2.030000e-06	8.665187e-07	4.482275e-11	6.012090e+00	-9.646403e-01
2.040000e-06	9.127485e-07	7.465260e-11	6.332842e+00	9.946686e-01
2.050000e-06	9.589775e-07	1.034527e-10	6.653589e+00	2.968764e+00
2.060000e-06	1.005186e-06	1.298019e-10	6.974192e+00	4.954502e+00
2.070000e-06	1.051244e-06	1.542660e-10	7.293756e+00	6.948705e+00
2.080000e-06	1.097218e-06	1.790493e-10	7.612733e+00	8.948179e+00
2.090000e-06	1.143138e-06	2.064882e-10	7.931333e+00	1.094975e+01
2.100000e-06	1.188943e-06	2.366200e-10	8.249136e+00	1.295028e+01
2.110000e-06	1.234703e-06	2.667920e-10	8.566627e+00	1.494670e+01
2.120000e-06	1.280462e-06	2.959071e-10	8.884118e+00	1.693602e+01
2.130000e-06	1.326098e-06	3.246942e-10	9.200751e+00	1.891535e+01
2.140000e-06	1.371618e-06	3.527313e-10	9.516577e+00	2.088195e+01
2.150000e-06	1.417032e-06	3.785761e-10	9.831666e+00	2.283319e+01
2.160000e-06	1.462377e-06	4.024265e-10	1.014628e+01	2.476660e+01
2.170000e-06	1.507655e-06	4.245369e-10	1.046043e+01	2.667989e+01
2.180000e-06	1.552804e-06	4.470772e-10	1.077368e+01	2.857091e+01
2.190000e-06	1.597793e-06	4.744056e-10	1.108583e+01	3.043772e+01
2.200000e-06	1.642586e-06	5.062166e-10	1.139661e+01	3.227852e+01
2.210000e-06	1.687205e-06	5.377291e-10	1.170618e+01	3.409172e+01
2.220000e-06	1.731758e-06	5.659172e-10	1.201530e+01	3.587590e+01
2.230000e-06	1.776216e-06	5.907798e-10	1.232376e+01	3.762980e+01
2.240000e-06	1.820485e-06	6.110868e-10	1.263091e+01	3.935233e+01
2.250000e-06	1.864631e-06	6.271812e-10	1.293721e+01	4.104258e+01
2.260000e-06	1.908718e-06	6.423815e-10	1.324309e+01	4.269976e+01
2.270000e-06	1.952708e-06	6.605083e-10	1.354830e+01	4.432323e+01
2.280000e-06	1.996587e-06	6.827032e-10	1.385274e+01	4.591251e+01
2.290000e-06	2.040431e-06	7.088792e-10	1.415694e+01	4.746719e+01
2.300000e-06	2.084256e-06	7.373122e-10	1.446101e+01	4.898699e+01
2.310000e-06	2.128030e-06	7.647052e-10	1.476472e+01	5.047174e+01
2.320000e-06	2.171701e-06	7.858602e-10	1.506772e+01	5.192133e+01
2.330000e-06	2.215261e-06	8.003392e-10	1.536995e+01	5.333574e+01
2.340000e-06	2.258712e-06	8.114814e-10	1.567142e+01	5.471501e+01
2.350000e-06	2.301962e-06	8.236511e-10	1.597150e+01	5.605923e+01
2.360000e-06	2.344954e-06	8.394069e-10	1.626979e+01	5.736854e+01
2.370000e-06	2.387712e-06	8.579763e-10	1.656645e+01	5.864313e+01
2.380000e-06	2.430174e-06	8.787049e-10	1.686106e+01	5.988322e+01
2.390000e-06	2.472312e-06	8.994747e-10	1.715343e+01	6.108905e+01
2.400000e-06	2.514165e-06	9.179037e-10	1.744381e+01	6.226089e+01
2.410000e-06	2.555651e-06	9.320625e-10	1.773165e+01	6.339904e+01
2.420000e-06	2.596818e-06	9.423732e-10	1.801727e+01	6.450382e+01
2.430000e-06	2.637793e-06	9.518887e-10	1.830157e+01	6.557558e+01
2.440000e-06	2.678502e-06	9.649021e-10	1.858401e+01	6.661467e+01
2.450000e-06	2.718919e-06	9.817858e-10	1.886443e+01	6.762149e+01
2.460000e-06	2.759167e-06	9.991693e-10	1.914368e+01	6.859644e+01
2.470000e-06	2.799300e-06	1.013391e-09	1.942213e+01	6.953996e+01
2.480000e-06	2.839292e-06	1.024580e-09	1.969961e+01	7.045251e+01
2.490000e-06	2.879165e-06	1.035348e-09	1.997625e+01	7.133459e+01
2.500000e-06	2.918942e-06	1.045046e-09	2.025224e+01	7.218672e+01
2.510000e-06	2.958556e-06	1.055368e-09	2.052709e+01	7.300945e+01
2.520000e-06	2.997988e-06	1.066561e-09	2.080067e+01	7.380339e+01
2.530000e-06	3.037279e-06	1.078365e-09	2.107328e+01	7.456915e+01
2.540000e-06	3.076379e-06	1.092195e-09	2.134457e+01	7.530740e+01
2.550000e-06	3.115195e-06	1.105397e-09	2.161388e+01	7.601881e+01
2.560000e-06	3.153688e-06	1.113972e-09	2.188095e+01	7.670412e+01
2.570000e-06	3.191927e-06	1.117500e-09	2.214626e+01	7.736406e+01
2.580000e-06	3.229958e-06	1.121108e-09	2.241013e+01	7.799943e+01
2.590000e-06	3.267816e-06	1.127144e-09	2.267280e+01	7.861100e+01
2.600000e-06	3.305524e-06	1.136058e-09	2.293443e+01	7.919960e+01
2.610000e-06	3.343023e-06	1.148368e-09	2.319460e+01	7.976605e+01
2.620000e-06	3.380271e-06	1.162312e-09	2.345303e+01	8.031118e+01
2.630000e-06	3.417291e-06	1.172452e-09	2.370989e+01	8.083581e+01
2.640000e-06	3.453989e-06	1.178884e-09	2.396451e+01	8.134079e+01
2.650000e-06	3.490389e-06	1.184838e-09	2.421706e+01	8.182691e+01
2.660000e-06	3.526652e-06	1.188740e-09	2.446866e+01	8.229499e+01
2.670000e-06	3.562752e-06	1.191454e-09	2.471913e+01	8.274578e+01
2.680000e-06	3.598686e-06	1.195715e-09	2.496844e+01	8.318005e+01
2.690000e-06	3.634478e-06	1.203374e-09	2.521678e+01	8.359849e+01
2.700000e-06	3.670087e-06	1.213066e-09	2.546384e+01	8.400179e+01
2.710000e-06	3.705478e-06	1.219424e-09	2.570939e+01	8.439058e+01
2.720000e-06	3.740625e-06	1.222367e-09	2.595325e+01	8.476545e+01
2.730000e-06	3.775478e-06	1.224814e-09	2.619506e+01	8.512694e+01
2.740000e-06	3.810019e-06	1.227442e-09	2.643471e+01	8.547555e+01
2.750000e-06	3.844045e-06	1.230063e-09	2.667079e+01	8.581173e+01
2.760000e-06	3.877421e-06	1.232889e-09	2.690237e+01	8.613589e+01
2.770000e-06	3.910407e-06	1.237521e-09	2.713123e+01	8.644838e+01
2.780000e-06	3.943084e-06	1.243119e-09	2.735795e+01	8.674952e+01
2.790000e-06	3.975476e-06	1.248515e-09	2.758269e+01	8.703959e+01
2.800000e-06	4.007640e-06	1.254062e-09	2.780585e+01	8.731885e+01
2.810000e-06	4.039597e-06	1.258941e-09	2.802758e+01	8.758750e+01
2.820000e-06	4.071412e-06	1.261314e-09	2.824832e+01	8.784573e+01
2.830000e-06	4.103048e-06	1.263376e-09	2.846781e+01	8.809372e+01
2.840000e-06	4.134491e-06	1.266649e-09	2.868597e+01	8.833163e+01
2.850000e-06	4.165703e-06	1.270210e-09	2.890253e+01	8.855959e+01
2.860000e-06	4.196522e-06	1.274580e-09	2.911636e+01	8.877775e+01
2.870000e-06	4.226991e-06	1.281414e-09	2.932776e+01	8.898627e+01
2.880000e-06	4.257160e-06	1.288135e-09	2.953708e+01	8.918528e+01
2.890000e-06	4.287020e-06	1.291492e-09	2.974425e+01	8.937495e+01
2.900000e-06	4.316658e-06	1.293198e-09	2.994989e+01	8.955545e+01
