# Temperatura_=_-11.05
# Concentracion g/m^3_=_1620.0
# C_Vs_to_Am_M_A/Vsm_=_65563218390.804596
# pendiente_HvsI_1/m_=_3716.3
# ordenada_HvsI_A/m_=_1297.0
# frecuencia_Hz_=_135105.8020161636

Tiempo_(s)	Campo_(V.s)	Magnetizacion_(V.s)	Campo_(kA/m)	Magnetizacion_(A/m)
0.000000e+00	-5.508970e-06	-1.312755e-09	-3.836059e+01	-8.493494e+01
1.000000e-08	-5.509097e-06	-1.312951e-09	-3.836147e+01	-8.490711e+01
2.000000e-08	-5.508943e-06	-1.314227e-09	-3.836040e+01	-8.487892e+01
3.000000e-08	-5.508311e-06	-1.312997e-09	-3.835600e+01	-8.484994e+01
4.000000e-08	-5.507220e-06	-1.311448e-09	-3.834840e+01	-8.481972e+01
5.000000e-08	-5.505645e-06	-1.305603e-09	-3.833743e+01	-8.478779e+01
6.000000e-08	-5.503463e-06	-1.301445e-09	-3.832224e+01	-8.475369e+01
7.000000e-08	-5.500746e-06	-1.320651e-09	-3.830332e+01	-8.471699e+01
8.000000e-08	-5.497487e-06	-1.324414e-09	-3.828063e+01	-8.467725e+01
9.000000e-08	-5.493714e-06	-1.281698e-09	-3.825436e+01	-8.463409e+01
1.000000e-07	-5.489609e-06	-1.300673e-09	-3.822577e+01	-8.458713e+01
1.100000e-07	-5.485199e-06	-1.369024e-09	-3.819507e+01	-8.453607e+01
1.200000e-07	-5.480462e-06	-1.328237e-09	-3.816208e+01	-8.448064e+01
1.300000e-07	-5.475429e-06	-1.235868e-09	-3.812703e+01	-8.442063e+01
1.400000e-07	-5.470135e-06	-1.239193e-09	-3.809017e+01	-8.435589e+01
1.500000e-07	-5.464511e-06	-1.351361e-09	-3.805101e+01	-8.428633e+01
1.600000e-07	-5.458396e-06	-1.349423e-09	-3.800843e+01	-8.421194e+01
1.700000e-07	-5.451831e-06	-1.233954e-09	-3.796271e+01	-8.413274e+01
1.800000e-07	-5.444925e-06	-1.243196e-09	-3.791462e+01	-8.404885e+01
1.900000e-07	-5.437656e-06	-1.335514e-09	-3.786401e+01	-8.396041e+01
2.000000e-07	-5.430057e-06	-1.334490e-09	-3.781110e+01	-8.386766e+01
2.100000e-07	-5.422251e-06	-1.249150e-09	-3.775674e+01	-8.377085e+01
2.200000e-07	-5.414154e-06	-1.247839e-09	-3.770036e+01	-8.367031e+01
2.300000e-07	-5.405717e-06	-1.313464e-09	-3.764161e+01	-8.356639e+01
2.400000e-07	-5.396864e-06	-1.316219e-09	-3.757996e+01	-8.345947e+01
2.500000e-07	-5.387363e-06	-1.248205e-09	-3.751380e+01	-8.334997e+01
2.600000e-07	-5.377113e-06	-1.232659e-09	-3.744243e+01	-8.323832e+01
2.700000e-07	-5.366224e-06	-1.262929e-09	-3.736660e+01	-8.312493e+01
2.800000e-07	-5.354997e-06	-1.265801e-09	-3.728843e+01	-8.301026e+01
2.900000e-07	-5.343421e-06	-1.232861e-09	-3.720782e+01	-8.289473e+01
3.000000e-07	-5.331401e-06	-1.227097e-09	-3.712412e+01	-8.277873e+01
3.100000e-07	-5.318962e-06	-1.248803e-09	-3.703750e+01	-8.266267e+01
3.200000e-07	-5.306082e-06	-1.247011e-09	-3.694782e+01	-8.254689e+01
3.300000e-07	-5.292852e-06	-1.208775e-09	-3.685570e+01	-8.243171e+01
3.400000e-07	-5.279294e-06	-1.195740e-09	-3.676129e+01	-8.231742e+01
3.500000e-07	-5.265357e-06	-1.242886e-09	-3.666424e+01	-8.220424e+01
3.600000e-07	-5.251023e-06	-1.248416e-09	-3.656443e+01	-8.209237e+01
3.700000e-07	-5.236145e-06	-1.201486e-09	-3.646083e+01	-8.198195e+01
3.800000e-07	-5.220569e-06	-1.222501e-09	-3.635237e+01	-8.187306e+01
3.900000e-07	-5.204475e-06	-1.271752e-09	-3.624030e+01	-8.176575e+01
4.000000e-07	-5.188005e-06	-1.206600e-09	-3.612561e+01	-8.166001e+01
4.100000e-07	-5.171179e-06	-1.171518e-09	-3.600845e+01	-8.155580e+01
4.200000e-07	-5.154086e-06	-1.263155e-09	-3.588943e+01	-8.145304e+01
4.300000e-07	-5.136719e-06	-1.265777e-09	-3.576849e+01	-8.135159e+01
4.400000e-07	-5.119071e-06	-1.167832e-09	-3.564561e+01	-8.125131e+01
4.500000e-07	-5.101088e-06	-1.225943e-09	-3.552038e+01	-8.115202e+01
4.600000e-07	-5.082619e-06	-1.300858e-09	-3.539178e+01	-8.105352e+01
4.700000e-07	-5.063623e-06	-1.199478e-09	-3.525951e+01	-8.095561e+01
4.800000e-07	-5.044288e-06	-1.169061e-09	-3.512487e+01	-8.085806e+01
4.900000e-07	-5.024729e-06	-1.269917e-09	-3.498867e+01	-8.076066e+01
5.000000e-07	-5.004925e-06	-1.222385e-09	-3.485077e+01	-8.066320e+01
5.100000e-07	-4.984876e-06	-1.145150e-09	-3.471116e+01	-8.056548e+01
5.200000e-07	-4.964557e-06	-1.237820e-09	-3.456968e+01	-8.046731e+01
5.300000e-07	-4.943938e-06	-1.252211e-09	-3.442610e+01	-8.036852e+01
5.400000e-07	-4.922860e-06	-1.149016e-09	-3.427933e+01	-8.026898e+01
5.500000e-07	-4.901436e-06	-1.200800e-09	-3.413015e+01	-8.016857e+01
5.600000e-07	-4.879770e-06	-1.268996e-09	-3.397928e+01	-8.006719e+01
5.700000e-07	-4.857715e-06	-1.174107e-09	-3.382571e+01	-7.996478e+01
5.800000e-07	-4.835314e-06	-1.160700e-09	-3.366972e+01	-7.986131e+01
5.900000e-07	-4.812558e-06	-1.245318e-09	-3.351126e+01	-7.975676e+01
6.000000e-07	-4.789406e-06	-1.198441e-09	-3.335005e+01	-7.965116e+01
6.100000e-07	-4.765943e-06	-1.144561e-09	-3.318667e+01	-7.954455e+01
6.200000e-07	-4.742291e-06	-1.208897e-09	-3.302198e+01	-7.943696e+01
6.300000e-07	-4.718437e-06	-1.205918e-09	-3.285587e+01	-7.932849e+01
6.400000e-07	-4.694311e-06	-1.152034e-09	-3.268787e+01	-7.921920e+01
6.500000e-07	-4.669889e-06	-1.190285e-09	-3.251782e+01	-7.910918e+01
6.600000e-07	-4.645048e-06	-1.211737e-09	-3.234484e+01	-7.899852e+01
6.700000e-07	-4.619706e-06	-1.165011e-09	-3.216838e+01	-7.888729e+01
6.800000e-07	-4.593802e-06	-1.172931e-09	-3.198800e+01	-7.877557e+01
6.900000e-07	-4.567329e-06	-1.195731e-09	-3.180366e+01	-7.866340e+01
7.000000e-07	-4.540356e-06	-1.166072e-09	-3.161584e+01	-7.855082e+01
7.100000e-07	-4.512995e-06	-1.160716e-09	-3.142532e+01	-7.843784e+01
7.200000e-07	-4.485425e-06	-1.186045e-09	-3.123334e+01	-7.832445e+01
7.300000e-07	-4.457722e-06	-1.173376e-09	-3.104044e+01	-7.821059e+01
7.400000e-07	-4.429878e-06	-1.163718e-09	-3.084655e+01	-7.809620e+01
7.500000e-07	-4.401804e-06	-1.178012e-09	-3.065106e+01	-7.798116e+01
7.600000e-07	-4.373435e-06	-1.170786e-09	-3.045352e+01	-7.786533e+01
7.700000e-07	-4.344706e-06	-1.155383e-09	-3.025347e+01	-7.774854e+01
7.800000e-07	-4.315549e-06	-1.161782e-09	-3.005044e+01	-7.763060e+01
7.900000e-07	-4.286118e-06	-1.160763e-09	-2.984551e+01	-7.751127e+01
8.000000e-07	-4.256507e-06	-1.150420e-09	-2.963932e+01	-7.739031e+01
8.100000e-07	-4.226653e-06	-1.158133e-09	-2.943144e+01	-7.726746e+01
8.200000e-07	-4.196518e-06	-1.160686e-09	-2.922159e+01	-7.714242e+01
8.300000e-07	-4.166031e-06	-1.144212e-09	-2.900930e+01	-7.701493e+01
8.400000e-07	-4.135197e-06	-1.143397e-09	-2.879460e+01	-7.688467e+01
8.500000e-07	-4.103992e-06	-1.154874e-09	-2.857731e+01	-7.675139e+01
8.600000e-07	-4.072530e-06	-1.146845e-09	-2.835823e+01	-7.661479e+01
8.700000e-07	-4.041033e-06	-1.136108e-09	-2.813891e+01	-7.647463e+01
8.800000e-07	-4.009436e-06	-1.139652e-09	-2.791889e+01	-7.633066e+01
8.900000e-07	-3.977670e-06	-1.133718e-09	-2.769769e+01	-7.618270e+01
9.000000e-07	-3.945689e-06	-1.123270e-09	-2.747500e+01	-7.603055e+01
9.100000e-07	-3.913383e-06	-1.130028e-09	-2.725004e+01	-7.587409e+01
9.200000e-07	-3.880740e-06	-1.130766e-09	-2.702274e+01	-7.571324e+01
9.300000e-07	-3.847640e-06	-1.116689e-09	-2.679226e+01	-7.554793e+01
9.400000e-07	-3.813976e-06	-1.113869e-09	-2.655784e+01	-7.537816e+01
9.500000e-07	-3.779849e-06	-1.117292e-09	-2.632021e+01	-7.520399e+01
9.600000e-07	-3.745299e-06	-1.103833e-09	-2.607962e+01	-7.502549e+01
9.700000e-07	-3.710363e-06	-1.094660e-09	-2.583636e+01	-7.484281e+01
9.800000e-07	-3.675068e-06	-1.100746e-09	-2.559059e+01	-7.465612e+01
9.900000e-07	-3.639516e-06	-1.100361e-09	-2.534303e+01	-7.446563e+01
1.000000e-06	-3.603856e-06	-1.093886e-09	-2.509472e+01	-7.427159e+01
1.010000e-06	-3.568095e-06	-1.095825e-09	-2.484570e+01	-7.407428e+01
1.020000e-06	-3.532171e-06	-1.093892e-09	-2.459555e+01	-7.387399e+01
1.030000e-06	-3.496066e-06	-1.083606e-09	-2.434414e+01	-7.367104e+01
1.040000e-06	-3.459759e-06	-1.080848e-09	-2.409132e+01	-7.346573e+01
1.050000e-06	-3.423248e-06	-1.084505e-09	-2.383709e+01	-7.325840e+01
1.060000e-06	-3.386481e-06	-1.079152e-09	-2.358107e+01	-7.304934e+01
1.070000e-06	-3.349432e-06	-1.071930e-09	-2.332309e+01	-7.283884e+01
1.080000e-06	-3.312090e-06	-1.070495e-09	-2.306306e+01	-7.262717e+01
1.090000e-06	-3.274451e-06	-1.063709e-09	-2.280097e+01	-7.241456e+01
1.100000e-06	-3.236667e-06	-1.054866e-09	-2.253787e+01	-7.220120e+01
1.110000e-06	-3.198693e-06	-1.051837e-09	-2.227345e+01	-7.198723e+01
1.120000e-06	-3.160455e-06	-1.047075e-09	-2.200718e+01	-7.177274e+01
1.130000e-06	-3.122044e-06	-1.039362e-09	-2.173972e+01	-7.155776e+01
1.140000e-06	-3.083502e-06	-1.037544e-09	-2.147134e+01	-7.134227e+01
1.150000e-06	-3.044742e-06	-1.042152e-09	-2.120144e+01	-7.112617e+01
1.160000e-06	-3.005654e-06	-1.042156e-09	-2.092926e+01	-7.090931e+01
1.170000e-06	-2.966379e-06	-1.037757e-09	-2.065577e+01	-7.069145e+01
1.180000e-06	-2.927003e-06	-1.033518e-09	-2.038159e+01	-7.047232e+01
1.190000e-06	-2.887434e-06	-1.028180e-09	-2.010606e+01	-7.025156e+01
1.200000e-06	-2.847689e-06	-1.020664e-09	-1.982930e+01	-7.002878e+01
1.210000e-06	-2.807832e-06	-1.013042e-09	-1.955176e+01	-6.980350e+01
1.220000e-06	-2.767916e-06	-1.007201e-09	-1.927382e+01	-6.957522e+01
1.230000e-06	-2.727924e-06	-1.002311e-09	-1.899534e+01	-6.934340e+01
1.240000e-06	-2.687697e-06	-9.997203e-10	-1.871523e+01	-6.910746e+01
1.250000e-06	-2.647176e-06	-9.977681e-10	-1.843307e+01	-6.886679e+01
1.260000e-06	-2.606373e-06	-9.956912e-10	-1.814895e+01	-6.862077e+01
1.270000e-06	-2.565332e-06	-9.925685e-10	-1.786316e+01	-6.836879e+01
1.280000e-06	-2.524141e-06	-9.888164e-10	-1.757634e+01	-6.811021e+01
1.290000e-06	-2.482666e-06	-9.836174e-10	-1.728753e+01	-6.784444e+01
1.300000e-06	-2.440877e-06	-9.759811e-10	-1.699655e+01	-6.757088e+01
1.310000e-06	-2.398722e-06	-9.673199e-10	-1.670301e+01	-6.728898e+01
1.320000e-06	-2.356220e-06	-9.609293e-10	-1.640705e+01	-6.699821e+01
1.330000e-06	-2.313507e-06	-9.558924e-10	-1.610964e+01	-6.669810e+01
1.340000e-06	-2.270536e-06	-9.520686e-10	-1.581041e+01	-6.638823e+01
1.350000e-06	-2.227278e-06	-9.500455e-10	-1.550920e+01	-6.606823e+01
1.360000e-06	-2.183841e-06	-9.480984e-10	-1.520673e+01	-6.573779e+01
1.370000e-06	-2.140324e-06	-9.424736e-10	-1.490371e+01	-6.539667e+01
1.380000e-06	-2.096708e-06	-9.342206e-10	-1.460000e+01	-6.504467e+01
1.390000e-06	-2.053003e-06	-9.246533e-10	-1.429567e+01	-6.468168e+01
1.400000e-06	-2.009257e-06	-9.139153e-10	-1.399105e+01	-6.430765e+01
1.410000e-06	-1.965468e-06	-9.036730e-10	-1.368613e+01	-6.392256e+01
1.420000e-06	-1.921564e-06	-8.965140e-10	-1.338042e+01	-6.352647e+01
1.430000e-06	-1.877555e-06	-8.913186e-10	-1.307397e+01	-6.311948e+01
1.440000e-06	-1.833479e-06	-8.856490e-10	-1.276706e+01	-6.270172e+01
1.450000e-06	-1.789285e-06	-8.814892e-10	-1.245932e+01	-6.227336e+01
1.460000e-06	-1.744971e-06	-8.758202e-10	-1.215075e+01	-6.183460e+01
1.470000e-06	-1.700527e-06	-8.679116e-10	-1.184127e+01	-6.138564e+01
1.480000e-06	-1.655922e-06	-8.615313e-10	-1.153067e+01	-6.092668e+01
1.490000e-06	-1.611153e-06	-8.562864e-10	-1.121894e+01	-6.045793e+01
1.500000e-06	-1.566206e-06	-8.477045e-10	-1.090596e+01	-5.997955e+01
1.510000e-06	-1.521185e-06	-8.360690e-10	-1.059246e+01	-5.949169e+01
1.520000e-06	-1.476154e-06	-8.253031e-10	-1.027890e+01	-5.899445e+01
1.530000e-06	-1.431019e-06	-8.142863e-10	-9.964611e+00	-5.848787e+01
1.540000e-06	-1.385699e-06	-8.052433e-10	-9.649031e+00	-5.797193e+01
1.550000e-06	-1.340233e-06	-7.999019e-10	-9.332442e+00	-5.744654e+01
1.560000e-06	-1.294751e-06	-7.936342e-10	-9.015734e+00	-5.691151e+01
1.570000e-06	-1.249227e-06	-7.842378e-10	-8.698735e+00	-5.636658e+01
1.580000e-06	-1.203572e-06	-7.732621e-10	-8.380827e+00	-5.581136e+01
1.590000e-06	-1.157825e-06	-7.606123e-10	-8.062275e+00	-5.524540e+01
1.600000e-06	-1.112021e-06	-7.455012e-10	-7.743329e+00	-5.466810e+01
1.610000e-06	-1.066142e-06	-7.324064e-10	-7.423865e+00	-5.407878e+01
1.620000e-06	-1.020046e-06	-7.223942e-10	-7.102882e+00	-5.347663e+01
1.630000e-06	-9.737879e-07	-7.151848e-10	-6.780773e+00	-5.286075e+01
1.640000e-06	-9.276166e-07	-7.100662e-10	-6.459268e+00	-5.223013e+01
1.650000e-06	-8.814756e-07	-7.027549e-10	-6.137975e+00	-5.158365e+01
1.660000e-06	-8.352948e-07	-6.926160e-10	-5.816405e+00	-5.092009e+01
1.670000e-06	-7.890585e-07	-6.809181e-10	-5.494448e+00	-5.023816e+01
1.680000e-06	-7.427316e-07	-6.670348e-10	-5.171860e+00	-4.953649e+01
1.690000e-06	-6.963497e-07	-6.534524e-10	-4.848889e+00	-4.881362e+01
1.700000e-06	-6.499518e-07	-6.393795e-10	-4.525806e+00	-4.806805e+01
1.710000e-06	-6.035275e-07	-6.243218e-10	-4.202541e+00	-4.729824e+01
1.720000e-06	-5.570322e-07	-6.099346e-10	-3.878780e+00	-4.650262e+01
1.730000e-06	-5.104561e-07	-5.977124e-10	-3.554457e+00	-4.567960e+01
1.740000e-06	-4.639209e-07	-5.880046e-10	-3.230418e+00	-4.482759e+01
1.750000e-06	-4.173931e-07	-5.787064e-10	-2.906431e+00	-4.394503e+01
1.760000e-06	-3.707913e-07	-5.659933e-10	-2.581930e+00	-4.303039e+01
1.770000e-06	-3.241361e-07	-5.487203e-10	-2.257055e+00	-4.208218e+01
1.780000e-06	-2.774304e-07	-5.312322e-10	-1.931830e+00	-4.109898e+01
1.790000e-06	-2.306908e-07	-5.157362e-10	-1.606368e+00	-4.007948e+01
1.800000e-06	-1.839485e-07	-5.022054e-10	-1.280888e+00	-3.902243e+01
1.810000e-06	-1.372703e-07	-4.899847e-10	-9.558534e-01	-3.792671e+01
1.820000e-06	-9.056787e-08	-4.765641e-10	-6.306509e-01	-3.679135e+01
1.830000e-06	-4.382417e-08	-4.604918e-10	-3.051607e-01	-3.561549e+01
1.840000e-06	2.849263e-09	-4.430809e-10	1.984026e-02	-3.439846e+01
1.850000e-06	4.954648e-08	-4.253351e-10	3.450068e-01	-3.313972e+01
1.860000e-06	9.633608e-08	-4.074015e-10	6.708166e-01	-3.183894e+01
1.870000e-06	1.430876e-07	-3.890675e-10	9.963611e-01	-3.049595e+01
1.880000e-06	1.897299e-07	-3.707902e-10	1.321146e+00	-2.911078e+01
1.890000e-06	2.363475e-07	-3.509854e-10	1.645758e+00	-2.768368e+01
1.900000e-06	2.829898e-07	-3.295076e-10	1.970542e+00	-2.621506e+01
1.910000e-06	3.296508e-07	-3.078835e-10	2.295456e+00	-2.470558e+01
1.920000e-06	3.764027e-07	-2.865173e-10	2.621003e+00	-2.315606e+01
1.930000e-06	4.231255e-07	-2.641676e-10	2.946348e+00	-2.156755e+01
1.940000e-06	4.697107e-07	-2.409910e-10	3.270735e+00	-1.994129e+01
1.950000e-06	5.162123e-07	-2.186525e-10	3.594539e+00	-1.827872e+01
1.960000e-06	5.626786e-07	-1.974568e-10	3.918098e+00	-1.658146e+01
1.970000e-06	6.091377e-07	-1.762013e-10	4.241606e+00	-1.485132e+01
1.980000e-06	6.555539e-07	-1.536084e-10	4.564816e+00	-1.309026e+01
1.990000e-06	7.019300e-07	-1.284839e-10	4.887746e+00	-1.130043e+01
2.000000e-06	7.482325e-07	-1.004197e-10	5.210164e+00	-9.484087e+00
2.010000e-06	7.944762e-07	-7.114122e-11	5.532173e+00	-7.643658e+00
2.020000e-06	8.406684e-07	-4.146314e-11	5.853822e+00	-5.781667e+00
2.030000e-06	8.867993e-07	-1.224808e-11	6.175046e+00	-3.900745e+00
2.040000e-06	9.328643e-07	1.469528e-11	6.495810e+00	-2.003609e+00
2.050000e-06	9.788146e-07	3.894818e-11	6.815776e+00	-9.304689e-02
2.060000e-06	1.024680e-06	6.222171e-11	7.135150e+00	1.828105e+00
2.070000e-06	1.070447e-06	8.671723e-11	7.453839e+00	3.756975e+00
2.080000e-06	1.116176e-06	1.112062e-10	7.772261e+00	5.690675e+00
2.090000e-06	1.161935e-06	1.369220e-10	8.090896e+00	7.626320e+00
2.100000e-06	1.207600e-06	1.659548e-10	8.408878e+00	9.561043e+00
2.110000e-06	1.253166e-06	1.945888e-10	8.726165e+00	1.149202e+01
2.120000e-06	1.298569e-06	2.220179e-10	9.042323e+00	1.341646e+01
2.130000e-06	1.343822e-06	2.496222e-10	9.357432e+00	1.533167e+01
2.140000e-06	1.389031e-06	2.758717e-10	9.672234e+00	1.723501e+01
2.150000e-06	1.434146e-06	3.000116e-10	9.986384e+00	1.912397e+01
2.160000e-06	1.479167e-06	3.222571e-10	1.029988e+01	2.099612e+01
2.170000e-06	1.524103e-06	3.451179e-10	1.061278e+01	2.284917e+01
2.180000e-06	1.568917e-06	3.696689e-10	1.092483e+01	2.468096e+01
2.190000e-06	1.613605e-06	3.961836e-10	1.123601e+01	2.648945e+01
2.200000e-06	1.658214e-06	4.252954e-10	1.154664e+01	2.827279e+01
2.210000e-06	1.702773e-06	4.541179e-10	1.185691e+01	3.002924e+01
2.220000e-06	1.747198e-06	4.806165e-10	1.216625e+01	3.175723e+01
2.230000e-06	1.791452e-06	5.036017e-10	1.247441e+01	3.345537e+01
2.240000e-06	1.835589e-06	5.221701e-10	1.278175e+01	3.512240e+01
2.250000e-06	1.879610e-06	5.371834e-10	1.308828e+01	3.675724e+01
2.260000e-06	1.923542e-06	5.534642e-10	1.339419e+01	3.835897e+01
2.270000e-06	1.967431e-06	5.732526e-10	1.369980e+01	3.992680e+01
2.280000e-06	2.011264e-06	5.943495e-10	1.400502e+01	4.146013e+01
2.290000e-06	2.054985e-06	6.163850e-10	1.430947e+01	4.295846e+01
2.300000e-06	2.098626e-06	6.395938e-10	1.461335e+01	4.442145e+01
2.310000e-06	2.142199e-06	6.621034e-10	1.491677e+01	4.584890e+01
2.320000e-06	2.185637e-06	6.814163e-10	1.521924e+01	4.724072e+01
2.330000e-06	2.228917e-06	6.973622e-10	1.552061e+01	4.859691e+01
2.340000e-06	2.272015e-06	7.123088e-10	1.582072e+01	4.991760e+01
2.350000e-06	2.314920e-06	7.277509e-10	1.611947e+01	5.120301e+01
2.360000e-06	2.357584e-06	7.436011e-10	1.641656e+01	5.245343e+01
2.370000e-06	2.399854e-06	7.609426e-10	1.671089e+01	5.366922e+01
2.380000e-06	2.441780e-06	7.792539e-10	1.700284e+01	5.485082e+01
2.390000e-06	2.483512e-06	7.956646e-10	1.729343e+01	5.599869e+01
2.400000e-06	2.525059e-06	8.101614e-10	1.758273e+01	5.711336e+01
2.410000e-06	2.566371e-06	8.243429e-10	1.787040e+01	5.819539e+01
2.420000e-06	2.607344e-06	8.380478e-10	1.815570e+01	5.924535e+01
2.430000e-06	2.647966e-06	8.516206e-10	1.843857e+01	6.026383e+01
2.440000e-06	2.688339e-06	8.668006e-10	1.871970e+01	6.125145e+01
2.450000e-06	2.728538e-06	8.825775e-10	1.899962e+01	6.220882e+01
2.460000e-06	2.768573e-06	8.979055e-10	1.927839e+01	6.313655e+01
2.470000e-06	2.808488e-06	9.115412e-10	1.955633e+01	6.403524e+01
2.480000e-06	2.848340e-06	9.231047e-10	1.983383e+01	6.490551e+01
2.490000e-06	2.888014e-06	9.332437e-10	2.011009e+01	6.574793e+01
2.500000e-06	2.927501e-06	9.429117e-10	2.038506e+01	6.656309e+01
2.510000e-06	2.966867e-06	9.547723e-10	2.065917e+01	6.735156e+01
2.520000e-06	3.006054e-06	9.661588e-10	2.093204e+01	6.811389e+01
2.530000e-06	3.045038e-06	9.794200e-10	2.120350e+01	6.885062e+01
2.540000e-06	3.083743e-06	9.944913e-10	2.147302e+01	6.956230e+01
2.550000e-06	3.122199e-06	1.004825e-09	2.174080e+01	7.024945e+01
2.560000e-06	3.160482e-06	1.010192e-09	2.200737e+01	7.091258e+01
2.570000e-06	3.198562e-06	1.015361e-09	2.227253e+01	7.155222e+01
2.580000e-06	3.236449e-06	1.021221e-09	2.253635e+01	7.216886e+01
2.590000e-06	3.274139e-06	1.028619e-09	2.279880e+01	7.276302e+01
2.600000e-06	3.311610e-06	1.038297e-09	2.305972e+01	7.333521e+01
2.610000e-06	3.348865e-06	1.049449e-09	2.331914e+01	7.388595e+01
2.620000e-06	3.385864e-06	1.062914e-09	2.357677e+01	7.441576e+01
2.630000e-06	3.422531e-06	1.076026e-09	2.383209e+01	7.492516e+01
2.640000e-06	3.458876e-06	1.085505e-09	2.408518e+01	7.541469e+01
2.650000e-06	3.495051e-06	1.091891e-09	2.433707e+01	7.588489e+01
2.660000e-06	3.531095e-06	1.095051e-09	2.458806e+01	7.633631e+01
2.670000e-06	3.566942e-06	1.095196e-09	2.483767e+01	7.676951e+01
2.680000e-06	3.602660e-06	1.096881e-09	2.508639e+01	7.718506e+01
2.690000e-06	3.638220e-06	1.103006e-09	2.533400e+01	7.758351e+01
2.700000e-06	3.673642e-06	1.111003e-09	2.558066e+01	7.796545e+01
2.710000e-06	3.708882e-06	1.116710e-09	2.582604e+01	7.833146e+01
2.720000e-06	3.743805e-06	1.120682e-09	2.606922e+01	7.868211e+01
2.730000e-06	3.778370e-06	1.123380e-09	2.630991e+01	7.901797e+01
2.740000e-06	3.812406e-06	1.124803e-09	2.654691e+01	7.933961e+01
2.750000e-06	3.845921e-06	1.126485e-09	2.678029e+01	7.964758e+01
2.760000e-06	3.879108e-06	1.131268e-09	2.701137e+01	7.994244e+01
2.770000e-06	3.911916e-06	1.137855e-09	2.723983e+01	8.022472e+01
2.780000e-06	3.944387e-06	1.146214e-09	2.746593e+01	8.049493e+01
2.790000e-06	3.976626e-06	1.153530e-09	2.769042e+01	8.075358e+01
2.800000e-06	4.008633e-06	1.157004e-09	2.791330e+01	8.100113e+01
2.810000e-06	4.040400e-06	1.157647e-09	2.813450e+01	8.123803e+01
2.820000e-06	4.071925e-06	1.158930e-09	2.835402e+01	8.146473e+01
2.830000e-06	4.103278e-06	1.162626e-09	2.857234e+01	8.168162e+01
2.840000e-06	4.134410e-06	1.168220e-09	2.878912e+01	8.188908e+01
2.850000e-06	4.165267e-06	1.174751e-09	2.900399e+01	8.208747e+01
2.860000e-06	4.195813e-06	1.180396e-09	2.921669e+01	8.227712e+01
2.870000e-06	4.226065e-06	1.184451e-09	2.942734e+01	8.245834e+01
2.880000e-06	4.256088e-06	1.186274e-09	2.963640e+01	8.263141e+01
2.890000e-06	4.285815e-06	1.186210e-09	2.984340e+01	8.279661e+01
2.900000e-06	4.315124e-06	1.186862e-09	3.004749e+01	8.295420e+01
