# Temperatura_=_12.3
# Concentracion g/m^3_=_1620.0
# C_Vs_to_Am_M_A/Vsm_=_65563218390.804596
# pendiente_HvsI_1/m_=_3716.3
# ordenada_HvsI_A/m_=_1297.0
# frecuencia_Hz_=_135107.1580722026

Tiempo_(s)	Campo_(V.s)	Magnetizacion_(V.s)	Campo_(kA/m)	Magnetizacion_(A/m)
0.000000e+00	-5.536122e-06	-1.723149e-09	-3.837567e+01	-1.131089e+02
1.000000e-08	-5.536247e-06	-1.723190e-09	-3.837653e+01	-1.130622e+02
2.000000e-08	-5.536105e-06	-1.723771e-09	-3.837555e+01	-1.130119e+02
3.000000e-08	-5.535614e-06	-1.725078e-09	-3.837215e+01	-1.129580e+02
4.000000e-08	-5.534705e-06	-1.724677e-09	-3.836585e+01	-1.129006e+02
5.000000e-08	-5.533292e-06	-1.717733e-09	-3.835605e+01	-1.128398e+02
6.000000e-08	-5.531211e-06	-1.701724e-09	-3.834163e+01	-1.127756e+02
7.000000e-08	-5.528480e-06	-1.692298e-09	-3.832270e+01	-1.127082e+02
8.000000e-08	-5.525262e-06	-1.725123e-09	-3.830039e+01	-1.126376e+02
9.000000e-08	-5.521592e-06	-1.783624e-09	-3.827495e+01	-1.125642e+02
1.000000e-07	-5.517432e-06	-1.795183e-09	-3.824611e+01	-1.124879e+02
1.100000e-07	-5.512914e-06	-1.713024e-09	-3.821479e+01	-1.124089e+02
1.200000e-07	-5.508276e-06	-1.671251e-09	-3.818264e+01	-1.123273e+02
1.300000e-07	-5.503442e-06	-1.676791e-09	-3.814913e+01	-1.122432e+02
1.400000e-07	-5.498163e-06	-1.729335e-09	-3.811254e+01	-1.121568e+02
1.500000e-07	-5.492474e-06	-1.696144e-09	-3.807311e+01	-1.120682e+02
1.600000e-07	-5.486497e-06	-1.678777e-09	-3.803167e+01	-1.119774e+02
1.700000e-07	-5.480068e-06	-1.703032e-09	-3.798711e+01	-1.118844e+02
1.800000e-07	-5.473151e-06	-1.722832e-09	-3.793916e+01	-1.117894e+02
1.900000e-07	-5.465891e-06	-1.703263e-09	-3.788884e+01	-1.116923e+02
2.000000e-07	-5.458364e-06	-1.660275e-09	-3.783666e+01	-1.115931e+02
2.100000e-07	-5.450535e-06	-1.692578e-09	-3.778239e+01	-1.114918e+02
2.200000e-07	-5.442438e-06	-1.725377e-09	-3.772626e+01	-1.113882e+02
2.300000e-07	-5.434103e-06	-1.743014e-09	-3.766848e+01	-1.112823e+02
2.400000e-07	-5.425385e-06	-1.698284e-09	-3.760805e+01	-1.111740e+02
2.500000e-07	-5.415983e-06	-1.698450e-09	-3.754288e+01	-1.110632e+02
2.600000e-07	-5.405745e-06	-1.689548e-09	-3.747191e+01	-1.109496e+02
2.700000e-07	-5.394887e-06	-1.695111e-09	-3.739664e+01	-1.108331e+02
2.800000e-07	-5.383602e-06	-1.672854e-09	-3.731842e+01	-1.107135e+02
2.900000e-07	-5.371926e-06	-1.695055e-09	-3.723748e+01	-1.105906e+02
3.000000e-07	-5.359933e-06	-1.692894e-09	-3.715435e+01	-1.104641e+02
3.100000e-07	-5.347511e-06	-1.681048e-09	-3.706824e+01	-1.103340e+02
3.200000e-07	-5.334570e-06	-1.653769e-09	-3.697854e+01	-1.101999e+02
3.300000e-07	-5.321262e-06	-1.663791e-09	-3.688629e+01	-1.100617e+02
3.400000e-07	-5.307614e-06	-1.663019e-09	-3.679168e+01	-1.099192e+02
3.500000e-07	-5.293533e-06	-1.651257e-09	-3.669407e+01	-1.097722e+02
3.600000e-07	-5.279093e-06	-1.658948e-09	-3.659397e+01	-1.096206e+02
3.700000e-07	-5.264386e-06	-1.678768e-09	-3.649203e+01	-1.094643e+02
3.800000e-07	-5.249102e-06	-1.662482e-09	-3.638608e+01	-1.093031e+02
3.900000e-07	-5.233117e-06	-1.638508e-09	-3.627528e+01	-1.091370e+02
4.000000e-07	-5.216631e-06	-1.656447e-09	-3.616100e+01	-1.089660e+02
4.100000e-07	-5.199783e-06	-1.652558e-09	-3.604421e+01	-1.087900e+02
4.200000e-07	-5.182595e-06	-1.632014e-09	-3.592507e+01	-1.086091e+02
4.300000e-07	-5.165072e-06	-1.639407e-09	-3.580360e+01	-1.084234e+02
4.400000e-07	-5.147265e-06	-1.670428e-09	-3.568016e+01	-1.082329e+02
4.500000e-07	-5.129073e-06	-1.641861e-09	-3.555405e+01	-1.080377e+02
4.600000e-07	-5.110435e-06	-1.632557e-09	-3.542486e+01	-1.078381e+02
4.700000e-07	-5.091432e-06	-1.638160e-09	-3.529313e+01	-1.076342e+02
4.800000e-07	-5.072098e-06	-1.635550e-09	-3.515912e+01	-1.074261e+02
4.900000e-07	-5.052483e-06	-1.613365e-09	-3.502314e+01	-1.072141e+02
5.000000e-07	-5.032661e-06	-1.634758e-09	-3.488574e+01	-1.069984e+02
5.100000e-07	-5.012621e-06	-1.619769e-09	-3.474683e+01	-1.067793e+02
5.200000e-07	-4.992295e-06	-1.599966e-09	-3.460593e+01	-1.065569e+02
5.300000e-07	-4.971625e-06	-1.611828e-09	-3.446265e+01	-1.063316e+02
5.400000e-07	-4.950649e-06	-1.630467e-09	-3.431725e+01	-1.061035e+02
5.500000e-07	-4.929329e-06	-1.598143e-09	-3.416946e+01	-1.058729e+02
5.600000e-07	-4.907585e-06	-1.597820e-09	-3.401873e+01	-1.056399e+02
5.700000e-07	-4.885486e-06	-1.610775e-09	-3.386554e+01	-1.054047e+02
5.800000e-07	-4.863095e-06	-1.599030e-09	-3.371033e+01	-1.051676e+02
5.900000e-07	-4.840287e-06	-1.582563e-09	-3.355223e+01	-1.049285e+02
6.000000e-07	-4.817080e-06	-1.592874e-09	-3.339136e+01	-1.046878e+02
6.100000e-07	-4.793581e-06	-1.578133e-09	-3.322847e+01	-1.044453e+02
6.200000e-07	-4.769865e-06	-1.564177e-09	-3.306408e+01	-1.042011e+02
6.300000e-07	-4.746017e-06	-1.572465e-09	-3.289876e+01	-1.039553e+02
6.400000e-07	-4.721883e-06	-1.569587e-09	-3.273147e+01	-1.037079e+02
6.500000e-07	-4.697376e-06	-1.557824e-09	-3.256159e+01	-1.034587e+02
6.600000e-07	-4.672459e-06	-1.562903e-09	-3.238887e+01	-1.032077e+02
6.700000e-07	-4.647033e-06	-1.559724e-09	-3.221262e+01	-1.029548e+02
6.800000e-07	-4.621087e-06	-1.540389e-09	-3.203276e+01	-1.026998e+02
6.900000e-07	-4.594585e-06	-1.541409e-09	-3.184906e+01	-1.024426e+02
7.000000e-07	-4.567531e-06	-1.540639e-09	-3.166152e+01	-1.021830e+02
7.100000e-07	-4.540099e-06	-1.530689e-09	-3.147137e+01	-1.019208e+02
7.200000e-07	-4.512458e-06	-1.527838e-09	-3.127976e+01	-1.016558e+02
7.300000e-07	-4.484689e-06	-1.535488e-09	-3.108727e+01	-1.013877e+02
7.400000e-07	-4.456796e-06	-1.522073e-09	-3.089392e+01	-1.011164e+02
7.500000e-07	-4.428683e-06	-1.513111e-09	-3.069905e+01	-1.008415e+02
7.600000e-07	-4.400309e-06	-1.509767e-09	-3.050236e+01	-1.005630e+02
7.700000e-07	-4.371628e-06	-1.506609e-09	-3.030355e+01	-1.002806e+02
7.800000e-07	-4.342527e-06	-1.493907e-09	-3.010182e+01	-9.999408e+01
7.900000e-07	-4.313059e-06	-1.497896e-09	-2.989755e+01	-9.970324e+01
8.000000e-07	-4.283365e-06	-1.496419e-09	-2.969172e+01	-9.940794e+01
8.100000e-07	-4.253419e-06	-1.489077e-09	-2.948414e+01	-9.910801e+01
8.200000e-07	-4.223117e-06	-1.480900e-09	-2.927409e+01	-9.880332e+01
8.300000e-07	-4.192463e-06	-1.482756e-09	-2.906160e+01	-9.849377e+01
8.400000e-07	-4.161506e-06	-1.472906e-09	-2.884701e+01	-9.817927e+01
8.500000e-07	-4.130275e-06	-1.469487e-09	-2.863052e+01	-9.785976e+01
8.600000e-07	-4.098844e-06	-1.471252e-09	-2.841264e+01	-9.753518e+01
8.700000e-07	-4.067224e-06	-1.466971e-09	-2.819346e+01	-9.720553e+01
8.800000e-07	-4.035433e-06	-1.453712e-09	-2.797309e+01	-9.687081e+01
8.900000e-07	-4.003467e-06	-1.448665e-09	-2.775150e+01	-9.653104e+01
9.000000e-07	-3.971259e-06	-1.441412e-09	-2.752824e+01	-9.618625e+01
9.100000e-07	-3.938706e-06	-1.428724e-09	-2.730259e+01	-9.583652e+01
9.200000e-07	-3.905752e-06	-1.423071e-09	-2.707416e+01	-9.548190e+01
9.300000e-07	-3.872439e-06	-1.423698e-09	-2.684324e+01	-9.512249e+01
9.400000e-07	-3.838738e-06	-1.415530e-09	-2.660963e+01	-9.475838e+01
9.500000e-07	-3.804566e-06	-1.406427e-09	-2.637275e+01	-9.438967e+01
9.600000e-07	-3.769814e-06	-1.402457e-09	-2.613186e+01	-9.401647e+01
9.700000e-07	-3.734667e-06	-1.392098e-09	-2.588822e+01	-9.363889e+01
9.800000e-07	-3.699357e-06	-1.382562e-09	-2.564346e+01	-9.325704e+01
9.900000e-07	-3.663829e-06	-1.379543e-09	-2.539718e+01	-9.287104e+01
1.000000e-06	-3.628092e-06	-1.379515e-09	-2.514945e+01	-9.248099e+01
1.010000e-06	-3.592237e-06	-1.370850e-09	-2.490091e+01	-9.208699e+01
1.020000e-06	-3.556272e-06	-1.366076e-09	-2.465161e+01	-9.168915e+01
1.030000e-06	-3.520143e-06	-1.360938e-09	-2.440116e+01	-9.128754e+01
1.040000e-06	-3.483752e-06	-1.354973e-09	-2.414891e+01	-9.088226e+01
1.050000e-06	-3.447031e-06	-1.348476e-09	-2.389436e+01	-9.047336e+01
1.060000e-06	-3.410038e-06	-1.346733e-09	-2.363793e+01	-9.006090e+01
1.070000e-06	-3.372841e-06	-1.337457e-09	-2.338009e+01	-8.964494e+01
1.080000e-06	-3.335398e-06	-1.328569e-09	-2.312054e+01	-8.922549e+01
1.090000e-06	-3.297700e-06	-1.321598e-09	-2.285922e+01	-8.880257e+01
1.100000e-06	-3.259783e-06	-1.314781e-09	-2.259639e+01	-8.837620e+01
1.110000e-06	-3.221648e-06	-1.303672e-09	-2.233204e+01	-8.794633e+01
1.120000e-06	-3.183257e-06	-1.296743e-09	-2.206592e+01	-8.751296e+01
1.130000e-06	-3.144624e-06	-1.287563e-09	-2.179812e+01	-8.707602e+01
1.140000e-06	-3.105797e-06	-1.277375e-09	-2.152898e+01	-8.663545e+01
1.150000e-06	-3.066781e-06	-1.270736e-09	-2.125852e+01	-8.619115e+01
1.160000e-06	-3.027571e-06	-1.266493e-09	-2.098672e+01	-8.574302e+01
1.170000e-06	-2.988196e-06	-1.257654e-09	-2.071378e+01	-8.529092e+01
1.180000e-06	-2.948640e-06	-1.248226e-09	-2.043958e+01	-8.483471e+01
1.190000e-06	-2.908952e-06	-1.240309e-09	-2.016447e+01	-8.437420e+01
1.200000e-06	-2.869184e-06	-1.230910e-09	-1.988880e+01	-8.390920e+01
1.210000e-06	-2.829213e-06	-1.218816e-09	-1.961173e+01	-8.343948e+01
1.220000e-06	-2.789094e-06	-1.210252e-09	-1.933363e+01	-8.296478e+01
1.230000e-06	-2.748888e-06	-1.203049e-09	-1.905493e+01	-8.248484e+01
1.240000e-06	-2.708487e-06	-1.191856e-09	-1.877487e+01	-8.199936e+01
1.250000e-06	-2.667862e-06	-1.180415e-09	-1.849327e+01	-8.150801e+01
1.260000e-06	-2.626945e-06	-1.171766e-09	-1.820963e+01	-8.101044e+01
1.270000e-06	-2.585653e-06	-1.164161e-09	-1.792341e+01	-8.050628e+01
1.280000e-06	-2.544078e-06	-1.154959e-09	-1.763521e+01	-7.999515e+01
1.290000e-06	-2.502247e-06	-1.148450e-09	-1.734525e+01	-7.947663e+01
1.300000e-06	-2.460143e-06	-1.138023e-09	-1.705339e+01	-7.895029e+01
1.310000e-06	-2.417780e-06	-1.122908e-09	-1.675973e+01	-7.841569e+01
1.320000e-06	-2.375127e-06	-1.107815e-09	-1.646406e+01	-7.787238e+01
1.330000e-06	-2.332162e-06	-1.096986e-09	-1.616624e+01	-7.731989e+01
1.340000e-06	-2.288945e-06	-1.088064e-09	-1.586667e+01	-7.675777e+01
1.350000e-06	-2.245627e-06	-1.083073e-09	-1.556639e+01	-7.618555e+01
1.360000e-06	-2.202202e-06	-1.078879e-09	-1.526538e+01	-7.560277e+01
1.370000e-06	-2.158600e-06	-1.071738e-09	-1.496313e+01	-7.500899e+01
1.380000e-06	-2.114867e-06	-1.058083e-09	-1.465998e+01	-7.440375e+01
1.390000e-06	-2.071014e-06	-1.042469e-09	-1.435600e+01	-7.378666e+01
1.400000e-06	-2.027087e-06	-1.024805e-09	-1.405150e+01	-7.315730e+01
1.410000e-06	-1.983076e-06	-1.011116e-09	-1.374642e+01	-7.251531e+01
1.420000e-06	-1.938971e-06	-9.990046e-10	-1.344069e+01	-7.186034e+01
1.430000e-06	-1.894817e-06	-9.891892e-10	-1.313462e+01	-7.119207e+01
1.440000e-06	-1.850548e-06	-9.819848e-10	-1.282775e+01	-7.051023e+01
1.450000e-06	-1.806149e-06	-9.744821e-10	-1.251999e+01	-6.981457e+01
1.460000e-06	-1.761620e-06	-9.638788e-10	-1.221132e+01	-6.910488e+01
1.470000e-06	-1.716984e-06	-9.506256e-10	-1.190191e+01	-6.838096e+01
1.480000e-06	-1.672234e-06	-9.382282e-10	-1.159171e+01	-6.764268e+01
1.490000e-06	-1.627309e-06	-9.264852e-10	-1.128029e+01	-6.688990e+01
1.500000e-06	-1.582283e-06	-9.098559e-10	-1.096818e+01	-6.612253e+01
1.510000e-06	-1.537173e-06	-8.935000e-10	-1.065548e+01	-6.534048e+01
1.520000e-06	-1.491948e-06	-8.803097e-10	-1.034199e+01	-6.454369e+01
1.530000e-06	-1.446572e-06	-8.668173e-10	-1.002745e+01	-6.373208e+01
1.540000e-06	-1.401056e-06	-8.547419e-10	-9.711939e+00	-6.290559e+01
1.550000e-06	-1.355440e-06	-8.447080e-10	-9.395732e+00	-6.206413e+01
1.560000e-06	-1.309733e-06	-8.334481e-10	-9.078894e+00	-6.120761e+01
1.570000e-06	-1.263934e-06	-8.162360e-10	-8.761425e+00	-6.033588e+01
1.580000e-06	-1.218129e-06	-7.972399e-10	-8.443912e+00	-5.944876e+01
1.590000e-06	-1.172264e-06	-7.786852e-10	-8.125978e+00	-5.854603e+01
1.600000e-06	-1.126270e-06	-7.610327e-10	-7.807156e+00	-5.762740e+01
1.610000e-06	-1.080233e-06	-7.468789e-10	-7.488030e+00	-5.669250e+01
1.620000e-06	-1.034096e-06	-7.366785e-10	-7.168216e+00	-5.574088e+01
1.630000e-06	-9.878423e-07	-7.251963e-10	-6.847593e+00	-5.477201e+01
1.640000e-06	-9.414917e-07	-7.126305e-10	-6.526296e+00	-5.378527e+01
1.650000e-06	-8.949811e-07	-6.981280e-10	-6.203891e+00	-5.277993e+01
1.660000e-06	-8.484413e-07	-6.824973e-10	-5.881283e+00	-5.175515e+01
1.670000e-06	-8.019541e-07	-6.655578e-10	-5.559040e+00	-5.071001e+01
1.680000e-06	-7.554518e-07	-6.483997e-10	-5.236692e+00	-4.964347e+01
1.690000e-06	-7.089525e-07	-6.316397e-10	-4.914365e+00	-4.855439e+01
1.700000e-06	-6.622872e-07	-6.150261e-10	-4.590888e+00	-4.744154e+01
1.710000e-06	-6.155274e-07	-5.954838e-10	-4.266755e+00	-4.630358e+01
1.720000e-06	-5.688465e-07	-5.744265e-10	-3.943169e+00	-4.513912e+01
1.730000e-06	-5.221917e-07	-5.515992e-10	-3.619764e+00	-4.394670e+01
1.740000e-06	-4.754852e-07	-5.314337e-10	-3.296000e+00	-4.272479e+01
1.750000e-06	-4.286662e-07	-5.130911e-10	-2.971457e+00	-4.147183e+01
1.760000e-06	-3.817979e-07	-4.946508e-10	-2.646572e+00	-4.018626e+01
1.770000e-06	-3.348816e-07	-4.771639e-10	-2.321355e+00	-3.886651e+01
1.780000e-06	-2.878980e-07	-4.580937e-10	-1.995671e+00	-3.751104e+01
1.790000e-06	-2.408803e-07	-4.384709e-10	-1.669751e+00	-3.611835e+01
1.800000e-06	-1.938322e-07	-4.151831e-10	-1.343619e+00	-3.468704e+01
1.810000e-06	-1.467799e-07	-3.915663e-10	-1.017459e+00	-3.321577e+01
1.820000e-06	-9.970798e-08	-3.708959e-10	-6.911626e-01	-3.170335e+01
1.830000e-06	-5.263511e-08	-3.499241e-10	-3.648596e-01	-3.014873e+01
1.840000e-06	-5.699523e-09	-3.279912e-10	-3.950834e-02	-2.855103e+01
1.850000e-06	4.120426e-08	-3.080629e-10	2.856225e-01	-2.690958e+01
1.860000e-06	8.816632e-08	-2.865592e-10	6.111573e-01	-2.522390e+01
1.870000e-06	1.351390e-07	-2.610108e-10	9.367660e-01	-2.349375e+01
1.880000e-06	1.821805e-07	-2.357532e-10	1.262851e+00	-2.171916e+01
1.890000e-06	2.292319e-07	-2.104871e-10	1.589005e+00	-1.990042e+01
1.900000e-06	2.762223e-07	-1.837269e-10	1.914736e+00	-1.803808e+01
1.910000e-06	3.231706e-07	-1.563536e-10	2.240176e+00	-1.613301e+01
1.920000e-06	3.701302e-07	-1.277276e-10	2.565693e+00	-1.418634e+01
1.930000e-06	4.170982e-07	-9.838422e-11	2.891270e+00	-1.219950e+01
1.940000e-06	4.640001e-07	-6.945798e-11	3.216388e+00	-1.017424e+01
1.950000e-06	5.107993e-07	-4.243477e-11	3.540794e+00	-8.112550e+00
1.960000e-06	5.575147e-07	-1.523919e-11	3.864618e+00	-6.016731e+00
1.970000e-06	6.041259e-07	1.147251e-11	4.187721e+00	-3.889330e+00
1.980000e-06	6.506808e-07	3.796998e-11	4.510434e+00	-1.733143e+00
1.990000e-06	6.973054e-07	6.796908e-11	4.833629e+00	4.488105e-01
2.000000e-06	7.438905e-07	1.022910e-10	5.156551e+00	2.653308e+00
2.010000e-06	7.902253e-07	1.370280e-10	5.477738e+00	4.876951e+00
2.020000e-06	8.364694e-07	1.703833e-10	5.798295e+00	7.116192e+00
2.030000e-06	8.827806e-07	2.040105e-10	6.119319e+00	9.367370e+00
2.040000e-06	9.290692e-07	2.351134e-10	6.440185e+00	1.162673e+01
2.050000e-06	9.752187e-07	2.634466e-10	6.760087e+00	1.389048e+01
2.060000e-06	1.021285e-06	2.920951e-10	7.079416e+00	1.615479e+01
2.070000e-06	1.067376e-06	3.207507e-10	7.398907e+00	1.841584e+01
2.080000e-06	1.113427e-06	3.510620e-10	7.718126e+00	2.066989e+01
2.090000e-06	1.159389e-06	3.843892e-10	8.036728e+00	2.291325e+01
2.100000e-06	1.205173e-06	4.199556e-10	8.354104e+00	2.514234e+01
2.110000e-06	1.250856e-06	4.545831e-10	8.670771e+00	2.735373e+01
2.120000e-06	1.296549e-06	4.862029e-10	8.987506e+00	2.954415e+01
2.130000e-06	1.342179e-06	5.157381e-10	9.303811e+00	3.171052e+01
2.140000e-06	1.387667e-06	5.422606e-10	9.619125e+00	3.384997e+01
2.150000e-06	1.433055e-06	5.661848e-10	9.933750e+00	3.595987e+01
2.160000e-06	1.478386e-06	5.911259e-10	1.024798e+01	3.803781e+01
2.170000e-06	1.523579e-06	6.176321e-10	1.056125e+01	4.008165e+01
2.180000e-06	1.568703e-06	6.461230e-10	1.087404e+01	4.208952e+01
2.190000e-06	1.613715e-06	6.752744e-10	1.118606e+01	4.405981e+01
2.200000e-06	1.658577e-06	7.045687e-10	1.149704e+01	4.599116e+01
2.210000e-06	1.703307e-06	7.351811e-10	1.180710e+01	4.788249e+01
2.220000e-06	1.747833e-06	7.632523e-10	1.211575e+01	4.973299e+01
2.230000e-06	1.792198e-06	7.874836e-10	1.242328e+01	5.154206e+01
2.240000e-06	1.836469e-06	8.080773e-10	1.273016e+01	5.330938e+01
2.250000e-06	1.880625e-06	8.253980e-10	1.303625e+01	5.503482e+01
2.260000e-06	1.924666e-06	8.427722e-10	1.334153e+01	5.671847e+01
2.270000e-06	1.968654e-06	8.626180e-10	1.364645e+01	5.836058e+01
2.280000e-06	2.012563e-06	8.843027e-10	1.395082e+01	5.996160e+01
2.290000e-06	2.056391e-06	9.064552e-10	1.425463e+01	6.152210e+01
2.300000e-06	2.100193e-06	9.296563e-10	1.455826e+01	6.304277e+01
2.310000e-06	2.143990e-06	9.538170e-10	1.486186e+01	6.452442e+01
2.320000e-06	2.187733e-06	9.736757e-10	1.516508e+01	6.596791e+01
2.330000e-06	2.231307e-06	9.895246e-10	1.546712e+01	6.737418e+01
2.340000e-06	2.274661e-06	1.003826e-09	1.576765e+01	6.874420e+01
2.350000e-06	2.317858e-06	1.018940e-09	1.606708e+01	7.007895e+01
2.360000e-06	2.360907e-06	1.034753e-09	1.636549e+01	7.137942e+01
2.370000e-06	2.403697e-06	1.052381e-09	1.666211e+01	7.264657e+01
2.380000e-06	2.446170e-06	1.072005e-09	1.695653e+01	7.388136e+01
2.390000e-06	2.488397e-06	1.090234e-09	1.724924e+01	7.508469e+01
2.400000e-06	2.530312e-06	1.107500e-09	1.753979e+01	7.625741e+01
2.410000e-06	2.571887e-06	1.124358e-09	1.782798e+01	7.740032e+01
2.420000e-06	2.613150e-06	1.137647e-09	1.811401e+01	7.851416e+01
2.430000e-06	2.654085e-06	1.149052e-09	1.839777e+01	7.959961e+01
2.440000e-06	2.694721e-06	1.162296e-09	1.867945e+01	8.065728e+01
2.450000e-06	2.735116e-06	1.176619e-09	1.895946e+01	8.168774e+01
2.460000e-06	2.775336e-06	1.191985e-09	1.923826e+01	8.269147e+01
2.470000e-06	2.815392e-06	1.206545e-09	1.951592e+01	8.366892e+01
2.480000e-06	2.855306e-06	1.219977e-09	1.979261e+01	8.462050e+01
2.490000e-06	2.895122e-06	1.232138e-09	2.006860e+01	8.554656e+01
2.500000e-06	2.934809e-06	1.242102e-09	2.034371e+01	8.644743e+01
2.510000e-06	2.974340e-06	1.254583e-09	2.061773e+01	8.732343e+01
2.520000e-06	3.013680e-06	1.266434e-09	2.089043e+01	8.817485e+01
2.530000e-06	3.052743e-06	1.278627e-09	2.116121e+01	8.900198e+01
2.540000e-06	3.091593e-06	1.293542e-09	2.143052e+01	8.980513e+01
2.550000e-06	3.130214e-06	1.305478e-09	2.169823e+01	9.058461e+01
2.560000e-06	3.168587e-06	1.313265e-09	2.196423e+01	9.134075e+01
2.570000e-06	3.206765e-06	1.319302e-09	2.222887e+01	9.207391e+01
2.580000e-06	3.244771e-06	1.325088e-09	2.249232e+01	9.278448e+01
2.590000e-06	3.282676e-06	1.330416e-09	2.275508e+01	9.347289e+01
2.600000e-06	3.320457e-06	1.340402e-09	2.301697e+01	9.413960e+01
2.610000e-06	3.357977e-06	1.354627e-09	2.327705e+01	9.478512e+01
2.620000e-06	3.395240e-06	1.370314e-09	2.353536e+01	9.540999e+01
2.630000e-06	3.432268e-06	1.382298e-09	2.379203e+01	9.601480e+01
2.640000e-06	3.468944e-06	1.389069e-09	2.404626e+01	9.660017e+01
2.650000e-06	3.505302e-06	1.393299e-09	2.429829e+01	9.716674e+01
2.660000e-06	3.541488e-06	1.397333e-09	2.454913e+01	9.771520e+01
2.670000e-06	3.577562e-06	1.402157e-09	2.479919e+01	9.824625e+01
2.680000e-06	3.613500e-06	1.408468e-09	2.504830e+01	9.876059e+01
2.690000e-06	3.649286e-06	1.418425e-09	2.529637e+01	9.925896e+01
2.700000e-06	3.684919e-06	1.428526e-09	2.554337e+01	9.974207e+01
2.710000e-06	3.720451e-06	1.434574e-09	2.578967e+01	1.002106e+02
2.720000e-06	3.755766e-06	1.438681e-09	2.603447e+01	1.006654e+02
2.730000e-06	3.790669e-06	1.442186e-09	2.627642e+01	1.011069e+02
2.740000e-06	3.825066e-06	1.446055e-09	2.651485e+01	1.015360e+02
2.750000e-06	3.858920e-06	1.449464e-09	2.674953e+01	1.019531e+02
2.760000e-06	3.892280e-06	1.454293e-09	2.698077e+01	1.023589e+02
2.770000e-06	3.925236e-06	1.461205e-09	2.720922e+01	1.027539e+02
2.780000e-06	3.957836e-06	1.468936e-09	2.743520e+01	1.031386e+02
2.790000e-06	3.990142e-06	1.476948e-09	2.765914e+01	1.035134e+02
2.800000e-06	4.022190e-06	1.485889e-09	2.788129e+01	1.038787e+02
2.810000e-06	4.054048e-06	1.492672e-09	2.810213e+01	1.042347e+02
2.820000e-06	4.085823e-06	1.494347e-09	2.832239e+01	1.045818e+02
2.830000e-06	4.117415e-06	1.495769e-09	2.854138e+01	1.049202e+02
2.840000e-06	4.148793e-06	1.497970e-09	2.875889e+01	1.052500e+02
2.850000e-06	4.179854e-06	1.501351e-09	2.897420e+01	1.055713e+02
2.860000e-06	4.210549e-06	1.508170e-09	2.918697e+01	1.058843e+02
2.870000e-06	4.240933e-06	1.517389e-09	2.939759e+01	1.061889e+02
2.880000e-06	4.270998e-06	1.524201e-09	2.960599e+01	1.064853e+02
2.890000e-06	4.300799e-06	1.528712e-09	2.981257e+01	1.067733e+02
2.900000e-06	4.330356e-06	1.534010e-09	3.001746e+01	1.070530e+02
