# Temperatura_=_-7.8
# Concentracion g/m^3_=_1620.0
# C_Vs_to_Am_M_A/Vsm_=_65563218390.804596
# pendiente_HvsI_1/m_=_3716.3
# ordenada_HvsI_A/m_=_1297.0
# frecuencia_Hz_=_135110.5996741643

Tiempo_(s)	Campo_(V.s)	Magnetizacion_(V.s)	Campo_(kA/m)	Magnetizacion_(A/m)
0.000000e+00	-5.521746e-06	-1.385344e-09	-3.836209e+01	-9.084320e+01
1.000000e-08	-5.521833e-06	-1.381535e-09	-3.836270e+01	-9.077933e+01
2.000000e-08	-5.521644e-06	-1.378650e-09	-3.836139e+01	-9.071574e+01
3.000000e-08	-5.521081e-06	-1.377870e-09	-3.835747e+01	-9.065207e+01
4.000000e-08	-5.520019e-06	-1.376788e-09	-3.835010e+01	-9.058796e+01
5.000000e-08	-5.518367e-06	-1.371717e-09	-3.833862e+01	-9.052300e+01
6.000000e-08	-5.515997e-06	-1.368515e-09	-3.832215e+01	-9.045683e+01
7.000000e-08	-5.513063e-06	-1.375123e-09	-3.830177e+01	-9.038905e+01
8.000000e-08	-5.509728e-06	-1.378234e-09	-3.827860e+01	-9.031929e+01
9.000000e-08	-5.506007e-06	-1.372875e-09	-3.825275e+01	-9.024722e+01
1.000000e-07	-5.501956e-06	-1.398134e-09	-3.822460e+01	-9.017248e+01
1.100000e-07	-5.497549e-06	-1.387348e-09	-3.819399e+01	-9.009479e+01
1.200000e-07	-5.492820e-06	-1.344162e-09	-3.816113e+01	-9.001386e+01
1.300000e-07	-5.487835e-06	-1.283403e-09	-3.812650e+01	-8.992946e+01
1.400000e-07	-5.482486e-06	-1.350478e-09	-3.808934e+01	-8.984139e+01
1.500000e-07	-5.476714e-06	-1.405097e-09	-3.804924e+01	-8.974948e+01
1.600000e-07	-5.470553e-06	-1.383328e-09	-3.800643e+01	-8.965360e+01
1.700000e-07	-5.463953e-06	-1.302837e-09	-3.796058e+01	-8.955367e+01
1.800000e-07	-5.456934e-06	-1.332139e-09	-3.791181e+01	-8.944965e+01
1.900000e-07	-5.449610e-06	-1.403326e-09	-3.786093e+01	-8.934152e+01
2.000000e-07	-5.442020e-06	-1.371728e-09	-3.780820e+01	-8.922932e+01
2.100000e-07	-5.434155e-06	-1.306053e-09	-3.775356e+01	-8.911309e+01
2.200000e-07	-5.425997e-06	-1.306627e-09	-3.769688e+01	-8.899294e+01
2.300000e-07	-5.417574e-06	-1.376479e-09	-3.763836e+01	-8.886896e+01
2.400000e-07	-5.408671e-06	-1.368746e-09	-3.757651e+01	-8.874131e+01
2.500000e-07	-5.398998e-06	-1.335082e-09	-3.750931e+01	-8.861013e+01
2.600000e-07	-5.388640e-06	-1.313522e-09	-3.743735e+01	-8.847558e+01
2.700000e-07	-5.377752e-06	-1.346995e-09	-3.736170e+01	-8.833785e+01
2.800000e-07	-5.366433e-06	-1.327751e-09	-3.728306e+01	-8.819710e+01
2.900000e-07	-5.354766e-06	-1.319033e-09	-3.720201e+01	-8.805352e+01
3.000000e-07	-5.342680e-06	-1.312267e-09	-3.711804e+01	-8.790728e+01
3.100000e-07	-5.330151e-06	-1.342740e-09	-3.703100e+01	-8.775853e+01
3.200000e-07	-5.317186e-06	-1.318407e-09	-3.694092e+01	-8.760743e+01
3.300000e-07	-5.303793e-06	-1.294264e-09	-3.684788e+01	-8.745411e+01
3.400000e-07	-5.290061e-06	-1.289671e-09	-3.675247e+01	-8.729870e+01
3.500000e-07	-5.275977e-06	-1.328990e-09	-3.665462e+01	-8.714129e+01
3.600000e-07	-5.261352e-06	-1.314507e-09	-3.655302e+01	-8.698197e+01
3.700000e-07	-5.246131e-06	-1.301042e-09	-3.644727e+01	-8.682081e+01
3.800000e-07	-5.230440e-06	-1.320871e-09	-3.633825e+01	-8.665784e+01
3.900000e-07	-5.214325e-06	-1.331746e-09	-3.622630e+01	-8.649309e+01
4.000000e-07	-5.197759e-06	-1.283106e-09	-3.611121e+01	-8.632658e+01
4.100000e-07	-5.180903e-06	-1.278119e-09	-3.599410e+01	-8.615831e+01
4.200000e-07	-5.163776e-06	-1.320549e-09	-3.587511e+01	-8.598826e+01
4.300000e-07	-5.146256e-06	-1.294654e-09	-3.575340e+01	-8.581641e+01
4.400000e-07	-5.128402e-06	-1.268294e-09	-3.562935e+01	-8.564274e+01
4.500000e-07	-5.110194e-06	-1.311606e-09	-3.550285e+01	-8.546723e+01
4.600000e-07	-5.091528e-06	-1.328164e-09	-3.537317e+01	-8.528986e+01
4.700000e-07	-5.072519e-06	-1.263235e-09	-3.524111e+01	-8.511062e+01
4.800000e-07	-5.053278e-06	-1.274945e-09	-3.510743e+01	-8.492950e+01
4.900000e-07	-5.033776e-06	-1.299545e-09	-3.497194e+01	-8.474653e+01
5.000000e-07	-5.014029e-06	-1.259859e-09	-3.483475e+01	-8.456174e+01
5.100000e-07	-4.993967e-06	-1.236577e-09	-3.469537e+01	-8.437519e+01
5.200000e-07	-4.973571e-06	-1.290057e-09	-3.455367e+01	-8.418695e+01
5.300000e-07	-4.952829e-06	-1.268813e-09	-3.440957e+01	-8.399713e+01
5.400000e-07	-4.931754e-06	-1.239815e-09	-3.426315e+01	-8.380586e+01
5.500000e-07	-4.910321e-06	-1.274516e-09	-3.411425e+01	-8.361330e+01
5.600000e-07	-4.888483e-06	-1.287364e-09	-3.396252e+01	-8.341963e+01
5.700000e-07	-4.866338e-06	-1.231940e-09	-3.380868e+01	-8.322507e+01
5.800000e-07	-4.843919e-06	-1.245457e-09	-3.365292e+01	-8.302984e+01
5.900000e-07	-4.821113e-06	-1.266708e-09	-3.349448e+01	-8.283419e+01
6.000000e-07	-4.797990e-06	-1.233572e-09	-3.333383e+01	-8.263840e+01
6.100000e-07	-4.774690e-06	-1.213955e-09	-3.317196e+01	-8.244274e+01
6.200000e-07	-4.751180e-06	-1.242214e-09	-3.300862e+01	-8.224751e+01
6.300000e-07	-4.727374e-06	-1.227440e-09	-3.284323e+01	-8.205300e+01
6.400000e-07	-4.703253e-06	-1.215210e-09	-3.267565e+01	-8.185949e+01
6.500000e-07	-4.678778e-06	-1.235397e-09	-3.250561e+01	-8.166727e+01
6.600000e-07	-4.653826e-06	-1.236509e-09	-3.233226e+01	-8.147660e+01
6.700000e-07	-4.628341e-06	-1.214368e-09	-3.215520e+01	-8.128772e+01
6.800000e-07	-4.602331e-06	-1.217641e-09	-3.197450e+01	-8.110085e+01
6.900000e-07	-4.575779e-06	-1.218340e-09	-3.179003e+01	-8.091617e+01
7.000000e-07	-4.548703e-06	-1.201966e-09	-3.160192e+01	-8.073383e+01
7.100000e-07	-4.521268e-06	-1.207530e-09	-3.141131e+01	-8.055392e+01
7.200000e-07	-4.493672e-06	-1.221095e-09	-3.121959e+01	-8.037650e+01
7.300000e-07	-4.465948e-06	-1.219209e-09	-3.102699e+01	-8.020158e+01
7.400000e-07	-4.438066e-06	-1.213909e-09	-3.083327e+01	-8.002910e+01
7.500000e-07	-4.409970e-06	-1.215331e-09	-3.063808e+01	-7.985895e+01
7.600000e-07	-4.381531e-06	-1.206401e-09	-3.044050e+01	-7.969097e+01
7.700000e-07	-4.352733e-06	-1.202292e-09	-3.024043e+01	-7.952494e+01
7.800000e-07	-4.323592e-06	-1.200201e-09	-3.003797e+01	-7.936058e+01
7.900000e-07	-4.294099e-06	-1.198325e-09	-2.983307e+01	-7.919758e+01
8.000000e-07	-4.264333e-06	-1.190952e-09	-2.962627e+01	-7.903555e+01
8.100000e-07	-4.234311e-06	-1.192946e-09	-2.941769e+01	-7.887409e+01
8.200000e-07	-4.204061e-06	-1.183465e-09	-2.920753e+01	-7.871272e+01
8.300000e-07	-4.173585e-06	-1.176000e-09	-2.899580e+01	-7.855097e+01
8.400000e-07	-4.142750e-06	-1.175603e-09	-2.878158e+01	-7.838832e+01
8.500000e-07	-4.111523e-06	-1.183795e-09	-2.856463e+01	-7.822425e+01
8.600000e-07	-4.080093e-06	-1.179655e-09	-2.834627e+01	-7.805820e+01
8.700000e-07	-4.048575e-06	-1.180091e-09	-2.812730e+01	-7.788964e+01
8.800000e-07	-4.016847e-06	-1.179384e-09	-2.790687e+01	-7.771805e+01
8.900000e-07	-3.984813e-06	-1.170851e-09	-2.768432e+01	-7.754290e+01
9.000000e-07	-3.952580e-06	-1.156490e-09	-2.746038e+01	-7.736371e+01
9.100000e-07	-3.920077e-06	-1.153066e-09	-2.723457e+01	-7.718003e+01
9.200000e-07	-3.887229e-06	-1.146707e-09	-2.700635e+01	-7.699143e+01
9.300000e-07	-3.853956e-06	-1.142760e-09	-2.677519e+01	-7.679755e+01
9.400000e-07	-3.820196e-06	-1.145419e-09	-2.654065e+01	-7.659808e+01
9.500000e-07	-3.786050e-06	-1.147421e-09	-2.630342e+01	-7.639277e+01
9.600000e-07	-3.751450e-06	-1.137546e-09	-2.606304e+01	-7.618143e+01
9.700000e-07	-3.716441e-06	-1.128653e-09	-2.581982e+01	-7.596393e+01
9.800000e-07	-3.681143e-06	-1.123753e-09	-2.557459e+01	-7.574022e+01
9.900000e-07	-3.645652e-06	-1.117135e-09	-2.532801e+01	-7.551030e+01
1.000000e-06	-3.610026e-06	-1.112946e-09	-2.508050e+01	-7.527425e+01
1.010000e-06	-3.574294e-06	-1.112453e-09	-2.483225e+01	-7.503221e+01
1.020000e-06	-3.538441e-06	-1.109702e-09	-2.458317e+01	-7.478437e+01
1.030000e-06	-3.502356e-06	-1.102275e-09	-2.433247e+01	-7.453099e+01
1.040000e-06	-3.466036e-06	-1.101163e-09	-2.408013e+01	-7.427237e+01
1.050000e-06	-3.429464e-06	-1.099490e-09	-2.382606e+01	-7.400883e+01
1.060000e-06	-3.392569e-06	-1.094631e-09	-2.356973e+01	-7.374076e+01
1.070000e-06	-3.355404e-06	-1.087289e-09	-2.331152e+01	-7.346855e+01
1.080000e-06	-3.317984e-06	-1.081820e-09	-2.305155e+01	-7.319259e+01
1.090000e-06	-3.280365e-06	-1.070977e-09	-2.279019e+01	-7.291330e+01
1.100000e-06	-3.242566e-06	-1.064099e-09	-2.252759e+01	-7.263107e+01
1.110000e-06	-3.204514e-06	-1.058440e-09	-2.226322e+01	-7.234629e+01
1.120000e-06	-3.166193e-06	-1.051166e-09	-2.199699e+01	-7.205930e+01
1.130000e-06	-3.127673e-06	-1.042369e-09	-2.172937e+01	-7.177043e+01
1.140000e-06	-3.089015e-06	-1.041483e-09	-2.146080e+01	-7.147993e+01
1.150000e-06	-3.050096e-06	-1.040396e-09	-2.119041e+01	-7.118803e+01
1.160000e-06	-3.010900e-06	-1.036815e-09	-2.091810e+01	-7.089487e+01
1.170000e-06	-2.971596e-06	-1.031250e-09	-2.064504e+01	-7.060053e+01
1.180000e-06	-2.932159e-06	-1.026697e-09	-2.037105e+01	-7.030503e+01
1.190000e-06	-2.892562e-06	-1.018880e-09	-2.009595e+01	-7.000830e+01
1.200000e-06	-2.852839e-06	-1.011007e-09	-1.981998e+01	-6.971019e+01
1.210000e-06	-2.813015e-06	-1.003472e-09	-1.954330e+01	-6.941050e+01
1.220000e-06	-2.773069e-06	-9.982327e-10	-1.926578e+01	-6.910892e+01
1.230000e-06	-2.732959e-06	-9.916687e-10	-1.898711e+01	-6.880509e+01
1.240000e-06	-2.692588e-06	-9.862132e-10	-1.870664e+01	-6.849857e+01
1.250000e-06	-2.651909e-06	-9.824810e-10	-1.842403e+01	-6.818887e+01
1.260000e-06	-2.611049e-06	-9.814915e-10	-1.814015e+01	-6.787543e+01
1.270000e-06	-2.569875e-06	-9.782273e-10	-1.785409e+01	-6.755765e+01
1.280000e-06	-2.528416e-06	-9.699548e-10	-1.756606e+01	-6.723491e+01
1.290000e-06	-2.486791e-06	-9.618753e-10	-1.727687e+01	-6.690655e+01
1.300000e-06	-2.444836e-06	-9.547332e-10	-1.698539e+01	-6.657189e+01
1.310000e-06	-2.402461e-06	-9.471172e-10	-1.669100e+01	-6.623025e+01
1.320000e-06	-2.359837e-06	-9.377536e-10	-1.639487e+01	-6.588097e+01
1.330000e-06	-2.317106e-06	-9.298307e-10	-1.609799e+01	-6.552339e+01
1.340000e-06	-2.274131e-06	-9.243181e-10	-1.579943e+01	-6.515690e+01
1.350000e-06	-2.230900e-06	-9.222474e-10	-1.549908e+01	-6.478091e+01
1.360000e-06	-2.187518e-06	-9.209168e-10	-1.519768e+01	-6.439489e+01
1.370000e-06	-2.144038e-06	-9.184069e-10	-1.489561e+01	-6.399838e+01
1.380000e-06	-2.100483e-06	-9.121828e-10	-1.459302e+01	-6.359095e+01
1.390000e-06	-2.056786e-06	-9.025631e-10	-1.428944e+01	-6.317227e+01
1.400000e-06	-2.012933e-06	-8.896358e-10	-1.398476e+01	-6.274208e+01
1.410000e-06	-1.969003e-06	-8.787531e-10	-1.367956e+01	-6.230018e+01
1.420000e-06	-1.925032e-06	-8.686920e-10	-1.337408e+01	-6.184645e+01
1.430000e-06	-1.881022e-06	-8.595864e-10	-1.306832e+01	-6.138086e+01
1.440000e-06	-1.836916e-06	-8.528008e-10	-1.276189e+01	-6.090343e+01
1.450000e-06	-1.792709e-06	-8.501522e-10	-1.245477e+01	-6.041425e+01
1.460000e-06	-1.748327e-06	-8.454968e-10	-1.214643e+01	-5.991347e+01
1.470000e-06	-1.703745e-06	-8.375121e-10	-1.183669e+01	-5.940126e+01
1.480000e-06	-1.659066e-06	-8.283059e-10	-1.152629e+01	-5.887787e+01
1.490000e-06	-1.614202e-06	-8.176188e-10	-1.121460e+01	-5.834353e+01
1.500000e-06	-1.569168e-06	-8.019267e-10	-1.090173e+01	-5.779851e+01
1.510000e-06	-1.524023e-06	-7.865117e-10	-1.058808e+01	-5.724305e+01
1.520000e-06	-1.478763e-06	-7.732626e-10	-1.027364e+01	-5.667738e+01
1.530000e-06	-1.433470e-06	-7.628586e-10	-9.958972e+00	-5.610170e+01
1.540000e-06	-1.388112e-06	-7.535073e-10	-9.643851e+00	-5.551614e+01
1.550000e-06	-1.342653e-06	-7.439708e-10	-9.328027e+00	-5.492079e+01
1.560000e-06	-1.297050e-06	-7.326681e-10	-9.011199e+00	-5.431562e+01
1.570000e-06	-1.251353e-06	-7.209075e-10	-8.693721e+00	-5.370053e+01
1.580000e-06	-1.205645e-06	-7.086463e-10	-8.376165e+00	-5.307531e+01
1.590000e-06	-1.159852e-06	-6.949750e-10	-8.058025e+00	-5.243961e+01
1.600000e-06	-1.113952e-06	-6.807182e-10	-7.739136e+00	-5.179297e+01
1.610000e-06	-1.067949e-06	-6.673824e-10	-7.419531e+00	-5.113477e+01
1.620000e-06	-1.021862e-06	-6.558821e-10	-7.099345e+00	-5.046428e+01
1.630000e-06	-9.756780e-07	-6.446863e-10	-6.778481e+00	-4.978060e+01
1.640000e-06	-9.294621e-07	-6.345676e-10	-6.457398e+00	-4.908268e+01
1.650000e-06	-8.832999e-07	-6.245215e-10	-6.136688e+00	-4.836934e+01
1.660000e-06	-8.370210e-07	-6.161859e-10	-5.815168e+00	-4.763925e+01
1.670000e-06	-7.905631e-07	-6.060734e-10	-5.492404e+00	-4.689096e+01
1.680000e-06	-7.440965e-07	-5.930867e-10	-5.169579e+00	-4.612290e+01
1.690000e-06	-6.976022e-07	-5.779898e-10	-4.846562e+00	-4.533337e+01
1.700000e-06	-6.511309e-07	-5.612568e-10	-4.523704e+00	-4.452061e+01
1.710000e-06	-6.046928e-07	-5.413597e-10	-4.201078e+00	-4.368275e+01
1.720000e-06	-5.580641e-07	-5.222210e-10	-3.877127e+00	-4.281790e+01
1.730000e-06	-5.113083e-07	-5.061410e-10	-3.552292e+00	-4.192411e+01
1.740000e-06	-4.645686e-07	-4.936337e-10	-3.227570e+00	-4.099944e+01
1.750000e-06	-4.178453e-07	-4.821341e-10	-2.902962e+00	-4.004194e+01
1.760000e-06	-3.710449e-07	-4.677974e-10	-2.577818e+00	-3.904971e+01
1.770000e-06	-3.242120e-07	-4.517320e-10	-2.252449e+00	-3.802092e+01
1.780000e-06	-2.774078e-07	-4.360159e-10	-1.927279e+00	-3.695382e+01
1.790000e-06	-2.305829e-07	-4.193821e-10	-1.601965e+00	-3.584676e+01
1.800000e-06	-1.837153e-07	-4.027534e-10	-1.276355e+00	-3.469825e+01
1.810000e-06	-1.367806e-07	-3.859007e-10	-9.502774e-01	-3.350695e+01
1.820000e-06	-8.985186e-08	-3.679827e-10	-6.242420e-01	-3.227171e+01
1.830000e-06	-4.297925e-08	-3.498226e-10	-2.985965e-01	-3.099155e+01
1.840000e-06	3.857027e-09	-3.322098e-10	2.679653e-02	-2.966576e+01
1.850000e-06	5.071502e-08	-3.148405e-10	3.523404e-01	-2.829381e+01
1.860000e-06	9.755699e-08	-2.976914e-10	6.777730e-01	-2.687547e+01
1.870000e-06	1.443777e-07	-2.794661e-10	1.003058e+00	-2.541072e+01
1.880000e-06	1.912930e-07	-2.591067e-10	1.329000e+00	-2.389984e+01
1.890000e-06	2.381918e-07	-2.371454e-10	1.654827e+00	-2.234335e+01
1.900000e-06	2.850865e-07	-2.130282e-10	1.980626e+00	-2.074207e+01
1.910000e-06	3.319862e-07	-1.874036e-10	2.306460e+00	-1.909706e+01
1.920000e-06	3.787592e-07	-1.625017e-10	2.631413e+00	-1.740966e+01
1.930000e-06	4.254047e-07	-1.386328e-10	2.955481e+00	-1.568146e+01
1.940000e-06	4.719398e-07	-1.156012e-10	3.278782e+00	-1.391428e+01
1.950000e-06	5.184282e-07	-9.437718e-11	3.601758e+00	-1.211019e+01
1.960000e-06	5.648863e-07	-7.327962e-11	3.924523e+00	-1.027146e+01
1.970000e-06	6.113478e-07	-5.213841e-11	4.247313e+00	-8.400561e+00
1.980000e-06	6.578120e-07	-2.909178e-11	4.570120e+00	-6.500136e+00
1.990000e-06	7.042450e-07	-2.692479e-12	4.892712e+00	-4.572984e+00
2.000000e-06	7.506645e-07	2.691826e-11	5.215210e+00	-2.622032e+00
2.010000e-06	7.970589e-07	5.756767e-11	5.537532e+00	-6.503138e-01
2.020000e-06	8.433368e-07	8.756617e-11	5.859046e+00	1.339054e+00
2.030000e-06	8.894860e-07	1.157704e-10	6.179666e+00	3.342899e+00
2.040000e-06	9.356669e-07	1.423214e-10	6.500506e+00	5.358018e+00
2.050000e-06	9.818137e-07	1.665962e-10	6.821108e+00	7.381197e+00
2.060000e-06	1.027829e-06	1.891907e-10	7.140801e+00	9.409242e+00
2.070000e-06	1.073784e-06	2.128138e-10	7.460067e+00	1.143899e+01
2.080000e-06	1.119753e-06	2.379663e-10	7.779433e+00	1.346736e+01
2.090000e-06	1.165653e-06	2.663044e-10	8.098327e+00	1.549132e+01
2.100000e-06	1.211387e-06	2.965750e-10	8.416060e+00	1.750796e+01
2.110000e-06	1.257043e-06	3.263865e-10	8.733254e+00	1.951447e+01
2.120000e-06	1.302635e-06	3.551912e-10	9.049999e+00	2.150817e+01
2.130000e-06	1.348086e-06	3.824358e-10	9.365771e+00	2.348655e+01
2.140000e-06	1.393427e-06	4.073341e-10	9.680775e+00	2.544720e+01
2.150000e-06	1.438702e-06	4.281214e-10	9.995323e+00	2.738791e+01
2.160000e-06	1.483889e-06	4.482628e-10	1.030926e+01	2.930661e+01
2.170000e-06	1.529009e-06	4.692359e-10	1.062272e+01	3.120142e+01
2.180000e-06	1.574063e-06	4.941749e-10	1.093573e+01	3.307060e+01
2.190000e-06	1.618975e-06	5.218462e-10	1.124776e+01	3.491261e+01
2.200000e-06	1.663688e-06	5.500199e-10	1.155840e+01	3.672604e+01
2.210000e-06	1.708264e-06	5.769355e-10	1.186809e+01	3.850968e+01
2.220000e-06	1.752716e-06	6.014586e-10	1.217692e+01	4.026244e+01
2.230000e-06	1.797026e-06	6.237055e-10	1.248476e+01	4.198341e+01
2.240000e-06	1.841231e-06	6.433461e-10	1.279188e+01	4.367180e+01
2.250000e-06	1.885313e-06	6.603170e-10	1.309813e+01	4.532698e+01
2.260000e-06	1.929244e-06	6.780595e-10	1.340334e+01	4.694840e+01
2.270000e-06	1.973082e-06	6.985615e-10	1.370790e+01	4.853567e+01
2.280000e-06	2.016876e-06	7.191150e-10	1.401216e+01	5.008849e+01
2.290000e-06	2.060627e-06	7.410750e-10	1.431611e+01	5.160664e+01
2.300000e-06	2.104313e-06	7.644896e-10	1.461962e+01	5.309001e+01
2.310000e-06	2.147904e-06	7.870667e-10	1.492247e+01	5.453854e+01
2.320000e-06	2.191418e-06	8.060038e-10	1.522478e+01	5.595227e+01
2.330000e-06	2.234864e-06	8.219646e-10	1.552662e+01	5.733128e+01
2.340000e-06	2.278169e-06	8.367333e-10	1.582748e+01	5.867571e+01
2.350000e-06	2.321296e-06	8.523364e-10	1.612711e+01	5.998573e+01
2.360000e-06	2.364327e-06	8.692614e-10	1.642606e+01	6.126157e+01
2.370000e-06	2.407137e-06	8.877005e-10	1.672348e+01	6.250350e+01
2.380000e-06	2.449564e-06	9.052841e-10	1.701824e+01	6.371179e+01
2.390000e-06	2.491566e-06	9.215903e-10	1.731005e+01	6.488678e+01
2.400000e-06	2.533183e-06	9.361940e-10	1.759918e+01	6.602880e+01
2.410000e-06	2.574616e-06	9.502083e-10	1.788703e+01	6.713822e+01
2.420000e-06	2.615817e-06	9.645519e-10	1.817328e+01	6.821544e+01
2.430000e-06	2.656607e-06	9.779994e-10	1.845666e+01	6.926085e+01
2.440000e-06	2.697114e-06	9.911809e-10	1.873809e+01	7.027490e+01
2.450000e-06	2.737406e-06	1.004941e-09	1.901801e+01	7.125804e+01
2.460000e-06	2.777469e-06	1.018179e-09	1.929635e+01	7.221074e+01
2.470000e-06	2.817393e-06	1.029326e-09	1.957372e+01	7.313349e+01
2.480000e-06	2.857210e-06	1.039992e-09	1.985034e+01	7.402683e+01
2.490000e-06	2.896919e-06	1.051402e-09	2.012622e+01	7.489128e+01
2.500000e-06	2.936470e-06	1.061804e-09	2.040100e+01	7.572741e+01
2.510000e-06	2.975883e-06	1.072226e-09	2.067482e+01	7.653579e+01
2.520000e-06	3.015196e-06	1.082570e-09	2.094794e+01	7.731704e+01
2.530000e-06	3.054300e-06	1.095496e-09	2.121962e+01	7.807178e+01
2.540000e-06	3.093095e-06	1.108803e-09	2.148915e+01	7.880064e+01
2.550000e-06	3.131584e-06	1.118013e-09	2.175654e+01	7.950428e+01
2.560000e-06	3.169872e-06	1.123753e-09	2.202255e+01	8.018337e+01
2.570000e-06	3.208061e-06	1.128267e-09	2.228786e+01	8.083859e+01
2.580000e-06	3.246077e-06	1.132941e-09	2.255198e+01	8.147063e+01
2.590000e-06	3.283887e-06	1.138742e-09	2.281467e+01	8.208017e+01
2.600000e-06	3.321431e-06	1.148654e-09	2.307550e+01	8.266791e+01
2.610000e-06	3.358658e-06	1.160955e-09	2.333413e+01	8.323453e+01
2.620000e-06	3.395692e-06	1.174290e-09	2.359142e+01	8.378070e+01
2.630000e-06	3.432512e-06	1.185405e-09	2.384723e+01	8.430709e+01
2.640000e-06	3.469058e-06	1.192743e-09	2.410113e+01	8.481433e+01
2.650000e-06	3.505339e-06	1.198543e-09	2.435319e+01	8.530304e+01
2.660000e-06	3.541361e-06	1.202116e-09	2.460345e+01	8.577383e+01
2.670000e-06	3.577207e-06	1.202973e-09	2.485249e+01	8.622725e+01
2.680000e-06	3.612888e-06	1.204018e-09	2.510039e+01	8.666382e+01
2.690000e-06	3.648446e-06	1.208267e-09	2.534742e+01	8.708405e+01
2.700000e-06	3.683945e-06	1.215625e-09	2.559405e+01	8.748839e+01
2.710000e-06	3.719309e-06	1.222768e-09	2.583974e+01	8.787726e+01
2.720000e-06	3.754388e-06	1.229534e-09	2.608345e+01	8.825103e+01
2.730000e-06	3.789053e-06	1.234715e-09	2.632428e+01	8.861003e+01
2.740000e-06	3.823237e-06	1.238134e-09	2.656177e+01	8.895457e+01
2.750000e-06	3.856993e-06	1.240446e-09	2.679629e+01	8.928490e+01
2.760000e-06	3.890314e-06	1.243856e-09	2.702779e+01	8.960125e+01
2.770000e-06	3.923215e-06	1.247548e-09	2.725637e+01	8.990381e+01
2.780000e-06	3.955732e-06	1.250478e-09	2.748228e+01	9.019275e+01
2.790000e-06	3.987857e-06	1.255275e-09	2.770546e+01	9.046820e+01
2.800000e-06	4.019696e-06	1.260989e-09	2.792666e+01	9.073029e+01
2.810000e-06	4.051423e-06	1.267467e-09	2.814709e+01	9.097913e+01
2.820000e-06	4.083070e-06	1.275383e-09	2.836695e+01	9.121481e+01
2.830000e-06	4.114501e-06	1.283140e-09	2.858532e+01	9.143744e+01
2.840000e-06	4.145648e-06	1.288559e-09	2.880171e+01	9.164713e+01
2.850000e-06	4.176467e-06	1.290933e-09	2.901583e+01	9.184398e+01
2.860000e-06	4.207033e-06	1.294417e-09	2.922818e+01	9.202814e+01
2.870000e-06	4.237352e-06	1.297856e-09	2.943882e+01	9.219974e+01
2.880000e-06	4.267339e-06	1.299909e-09	2.964716e+01	9.235897e+01
2.890000e-06	4.297019e-06	1.301064e-09	2.985336e+01	9.250604e+01
2.900000e-06	4.326395e-06	1.304448e-09	3.005744e+01	9.264120e+01
