# Temperatura_=_-7.2
# Concentracion g/m^3_=_1620.0
# C_Vs_to_Am_M_A/Vsm_=_65563218390.804596
# pendiente_HvsI_1/m_=_3716.3
# ordenada_HvsI_A/m_=_1297.0
# frecuencia_Hz_=_135110.88762809013

Tiempo_(s)	Campo_(V.s)	Magnetizacion_(V.s)	Campo_(kA/m)	Magnetizacion_(A/m)
0.000000e+00	-5.512859e-06	-1.406184e-09	-3.836877e+01	-9.238598e+01
1.000000e-08	-5.512993e-06	-1.400748e-09	-3.836970e+01	-9.229653e+01
2.000000e-08	-5.512840e-06	-1.399115e-09	-3.836863e+01	-9.220777e+01
3.000000e-08	-5.512203e-06	-1.399740e-09	-3.836420e+01	-9.211962e+01
4.000000e-08	-5.511013e-06	-1.398631e-09	-3.835592e+01	-9.203197e+01
5.000000e-08	-5.509223e-06	-1.390142e-09	-3.834346e+01	-9.194467e+01
6.000000e-08	-5.506816e-06	-1.379865e-09	-3.832670e+01	-9.185757e+01
7.000000e-08	-5.503895e-06	-1.395044e-09	-3.830638e+01	-9.177049e+01
8.000000e-08	-5.500527e-06	-1.421289e-09	-3.828293e+01	-9.168324e+01
9.000000e-08	-5.496758e-06	-1.421251e-09	-3.825670e+01	-9.159560e+01
1.000000e-07	-5.492620e-06	-1.395552e-09	-3.822790e+01	-9.150734e+01
1.100000e-07	-5.488149e-06	-1.375785e-09	-3.819679e+01	-9.141824e+01
1.200000e-07	-5.483421e-06	-1.356492e-09	-3.816388e+01	-9.132807e+01
1.300000e-07	-5.478476e-06	-1.363832e-09	-3.812946e+01	-9.123658e+01
1.400000e-07	-5.473187e-06	-1.367409e-09	-3.809265e+01	-9.114355e+01
1.500000e-07	-5.467515e-06	-1.413044e-09	-3.805317e+01	-9.104874e+01
1.600000e-07	-5.461491e-06	-1.409167e-09	-3.801125e+01	-9.095194e+01
1.700000e-07	-5.455056e-06	-1.395483e-09	-3.796646e+01	-9.085295e+01
1.800000e-07	-5.448085e-06	-1.344293e-09	-3.791794e+01	-9.075156e+01
1.900000e-07	-5.440715e-06	-1.353877e-09	-3.786665e+01	-9.064762e+01
2.000000e-07	-5.433125e-06	-1.361185e-09	-3.781382e+01	-9.054096e+01
2.100000e-07	-5.425311e-06	-1.374421e-09	-3.775944e+01	-9.043146e+01
2.200000e-07	-5.417267e-06	-1.361331e-09	-3.770345e+01	-9.031900e+01
2.300000e-07	-5.408875e-06	-1.376875e-09	-3.764505e+01	-9.020350e+01
2.400000e-07	-5.399867e-06	-1.383194e-09	-3.758235e+01	-9.008490e+01
2.500000e-07	-5.390099e-06	-1.365899e-09	-3.751437e+01	-8.996316e+01
2.600000e-07	-5.379685e-06	-1.351535e-09	-3.744189e+01	-8.983829e+01
2.700000e-07	-5.368787e-06	-1.358042e-09	-3.736604e+01	-8.971028e+01
2.800000e-07	-5.357420e-06	-1.380064e-09	-3.728693e+01	-8.957918e+01
2.900000e-07	-5.345658e-06	-1.361964e-09	-3.720507e+01	-8.944504e+01
3.000000e-07	-5.333607e-06	-1.358804e-09	-3.712120e+01	-8.930796e+01
3.100000e-07	-5.321153e-06	-1.350249e-09	-3.703452e+01	-8.916803e+01
3.200000e-07	-5.308228e-06	-1.372069e-09	-3.694456e+01	-8.902536e+01
3.300000e-07	-5.294882e-06	-1.341938e-09	-3.685167e+01	-8.888008e+01
3.400000e-07	-5.281279e-06	-1.351494e-09	-3.675700e+01	-8.873235e+01
3.500000e-07	-5.267339e-06	-1.357504e-09	-3.665997e+01	-8.858230e+01
3.600000e-07	-5.252837e-06	-1.383756e-09	-3.655904e+01	-8.843011e+01
3.700000e-07	-5.237746e-06	-1.356102e-09	-3.645402e+01	-8.827592e+01
3.800000e-07	-5.222111e-06	-1.363515e-09	-3.634519e+01	-8.811992e+01
3.900000e-07	-5.206022e-06	-1.356910e-09	-3.623322e+01	-8.796225e+01
4.000000e-07	-5.189556e-06	-1.347216e-09	-3.611862e+01	-8.780307e+01
4.100000e-07	-5.172670e-06	-1.330826e-09	-3.600109e+01	-8.764255e+01
4.200000e-07	-5.155408e-06	-1.354901e-09	-3.588095e+01	-8.748083e+01
4.300000e-07	-5.137901e-06	-1.354625e-09	-3.575910e+01	-8.731803e+01
4.400000e-07	-5.120078e-06	-1.343381e-09	-3.563506e+01	-8.715430e+01
4.500000e-07	-5.101892e-06	-1.348132e-09	-3.550849e+01	-8.698973e+01
4.600000e-07	-5.083259e-06	-1.355218e-09	-3.537880e+01	-8.682444e+01
4.700000e-07	-5.064216e-06	-1.333872e-09	-3.524627e+01	-8.665849e+01
4.800000e-07	-5.044959e-06	-1.332747e-09	-3.511224e+01	-8.649198e+01
4.900000e-07	-5.025430e-06	-1.338774e-09	-3.497632e+01	-8.632494e+01
5.000000e-07	-5.005643e-06	-1.318467e-09	-3.483860e+01	-8.615742e+01
5.100000e-07	-4.985612e-06	-1.311573e-09	-3.469919e+01	-8.598944e+01
5.200000e-07	-4.965284e-06	-1.330515e-09	-3.455771e+01	-8.582103e+01
5.300000e-07	-4.944630e-06	-1.329020e-09	-3.441396e+01	-8.565218e+01
5.400000e-07	-4.923619e-06	-1.311573e-09	-3.426773e+01	-8.548288e+01
5.500000e-07	-4.902237e-06	-1.323394e-09	-3.411892e+01	-8.531310e+01
5.600000e-07	-4.880486e-06	-1.322724e-09	-3.396753e+01	-8.514282e+01
5.700000e-07	-4.858432e-06	-1.309529e-09	-3.381404e+01	-8.497200e+01
5.800000e-07	-4.836039e-06	-1.304285e-09	-3.365818e+01	-8.480058e+01
5.900000e-07	-4.813215e-06	-1.308768e-09	-3.349933e+01	-8.462851e+01
6.000000e-07	-4.790045e-06	-1.291980e-09	-3.333807e+01	-8.445574e+01
6.100000e-07	-4.766645e-06	-1.291453e-09	-3.317521e+01	-8.428221e+01
6.200000e-07	-4.743071e-06	-1.291508e-09	-3.301114e+01	-8.410784e+01
6.300000e-07	-4.719331e-06	-1.291795e-09	-3.284592e+01	-8.393257e+01
6.400000e-07	-4.695239e-06	-1.289531e-09	-3.267824e+01	-8.375633e+01
6.500000e-07	-4.670712e-06	-1.298652e-09	-3.250753e+01	-8.357904e+01
6.600000e-07	-4.645699e-06	-1.289198e-09	-3.233344e+01	-8.340064e+01
6.700000e-07	-4.620140e-06	-1.285564e-09	-3.215556e+01	-8.322105e+01
6.800000e-07	-4.594097e-06	-1.277613e-09	-3.197430e+01	-8.304020e+01
6.900000e-07	-4.567554e-06	-1.271678e-09	-3.178956e+01	-8.285799e+01
7.000000e-07	-4.540518e-06	-1.261624e-09	-3.160140e+01	-8.267437e+01
7.100000e-07	-4.513136e-06	-1.264504e-09	-3.141082e+01	-8.248923e+01
7.200000e-07	-4.485547e-06	-1.259515e-09	-3.121881e+01	-8.230250e+01
7.300000e-07	-4.457836e-06	-1.258212e-09	-3.102595e+01	-8.211408e+01
7.400000e-07	-4.430002e-06	-1.255291e-09	-3.083222e+01	-8.192388e+01
7.500000e-07	-4.401946e-06	-1.249686e-09	-3.063696e+01	-8.173179e+01
7.600000e-07	-4.373604e-06	-1.243854e-09	-3.043970e+01	-8.153771e+01
7.700000e-07	-4.344892e-06	-1.243492e-09	-3.023987e+01	-8.134152e+01
7.800000e-07	-4.315783e-06	-1.233352e-09	-3.003727e+01	-8.114311e+01
7.900000e-07	-4.286373e-06	-1.221779e-09	-2.983259e+01	-8.094234e+01
8.000000e-07	-4.256742e-06	-1.218327e-09	-2.962636e+01	-8.073908e+01
8.100000e-07	-4.226845e-06	-1.214278e-09	-2.941827e+01	-8.053319e+01
8.200000e-07	-4.196545e-06	-1.207931e-09	-2.920740e+01	-8.032454e+01
8.300000e-07	-4.165857e-06	-1.206097e-09	-2.899381e+01	-8.011296e+01
8.400000e-07	-4.134941e-06	-1.209893e-09	-2.877864e+01	-7.989831e+01
8.500000e-07	-4.103861e-06	-1.211660e-09	-2.856233e+01	-7.968044e+01
8.600000e-07	-4.072590e-06	-1.213651e-09	-2.834468e+01	-7.945920e+01
8.700000e-07	-4.041115e-06	-1.204941e-09	-2.812562e+01	-7.923444e+01
8.800000e-07	-4.009495e-06	-1.196086e-09	-2.790555e+01	-7.900602e+01
8.900000e-07	-3.977721e-06	-1.186076e-09	-2.768441e+01	-7.877381e+01
9.000000e-07	-3.945656e-06	-1.181854e-09	-2.746124e+01	-7.853770e+01
9.100000e-07	-3.913206e-06	-1.173351e-09	-2.723539e+01	-7.829757e+01
9.200000e-07	-3.880354e-06	-1.168735e-09	-2.700675e+01	-7.805335e+01
9.300000e-07	-3.847020e-06	-1.163969e-09	-2.677475e+01	-7.780496e+01
9.400000e-07	-3.813172e-06	-1.163456e-09	-2.653917e+01	-7.755236e+01
9.500000e-07	-3.778919e-06	-1.160106e-09	-2.630077e+01	-7.729552e+01
9.600000e-07	-3.744287e-06	-1.158307e-09	-2.605974e+01	-7.703447e+01
9.700000e-07	-3.709312e-06	-1.151058e-09	-2.581632e+01	-7.676923e+01
9.800000e-07	-3.674077e-06	-1.146065e-09	-2.557108e+01	-7.649987e+01
9.900000e-07	-3.638621e-06	-1.139583e-09	-2.532432e+01	-7.622649e+01
1.000000e-06	-3.603016e-06	-1.133956e-09	-2.507651e+01	-7.594922e+01
1.010000e-06	-3.567333e-06	-1.124688e-09	-2.482816e+01	-7.566821e+01
1.020000e-06	-3.531519e-06	-1.118878e-09	-2.457890e+01	-7.538366e+01
1.030000e-06	-3.495429e-06	-1.113130e-09	-2.432772e+01	-7.509578e+01
1.040000e-06	-3.459044e-06	-1.109685e-09	-2.407449e+01	-7.480481e+01
1.050000e-06	-3.422463e-06	-1.106691e-09	-2.381989e+01	-7.451101e+01
1.060000e-06	-3.385671e-06	-1.101908e-09	-2.356382e+01	-7.421467e+01
1.070000e-06	-3.348667e-06	-1.094165e-09	-2.330627e+01	-7.391607e+01
1.080000e-06	-3.311395e-06	-1.084945e-09	-2.304687e+01	-7.361551e+01
1.090000e-06	-3.273826e-06	-1.076491e-09	-2.278539e+01	-7.331329e+01
1.100000e-06	-3.236018e-06	-1.067583e-09	-2.252225e+01	-7.300972e+01
1.110000e-06	-3.197972e-06	-1.061300e-09	-2.225746e+01	-7.270509e+01
1.120000e-06	-3.159712e-06	-1.056604e-09	-2.199118e+01	-7.239965e+01
1.130000e-06	-3.121287e-06	-1.051812e-09	-2.172374e+01	-7.209365e+01
1.140000e-06	-3.082689e-06	-1.049641e-09	-2.145511e+01	-7.178732e+01
1.150000e-06	-3.043842e-06	-1.049649e-09	-2.118473e+01	-7.148082e+01
1.160000e-06	-3.004717e-06	-1.047602e-09	-2.091243e+01	-7.117430e+01
1.170000e-06	-2.965382e-06	-1.043348e-09	-2.063866e+01	-7.086783e+01
1.180000e-06	-2.925960e-06	-1.037572e-09	-2.036429e+01	-7.056145e+01
1.190000e-06	-2.886422e-06	-1.033746e-09	-2.008911e+01	-7.025512e+01
1.200000e-06	-2.846729e-06	-1.024739e-09	-1.981286e+01	-6.994876e+01
1.210000e-06	-2.806896e-06	-1.015217e-09	-1.953562e+01	-6.964219e+01
1.220000e-06	-2.766896e-06	-1.007403e-09	-1.925723e+01	-6.933520e+01
1.230000e-06	-2.726802e-06	-1.001848e-09	-1.897818e+01	-6.902748e+01
1.240000e-06	-2.686605e-06	-9.932945e-10	-1.869842e+01	-6.871868e+01
1.250000e-06	-2.646171e-06	-9.883877e-10	-1.841700e+01	-6.840834e+01
1.260000e-06	-2.605453e-06	-9.845546e-10	-1.813361e+01	-6.809599e+01
1.270000e-06	-2.564417e-06	-9.806892e-10	-1.784800e+01	-6.778105e+01
1.280000e-06	-2.523010e-06	-9.741637e-10	-1.755982e+01	-6.746292e+01
1.290000e-06	-2.481321e-06	-9.675208e-10	-1.726966e+01	-6.714092e+01
1.300000e-06	-2.439342e-06	-9.584869e-10	-1.697750e+01	-6.681435e+01
1.310000e-06	-2.396985e-06	-9.475617e-10	-1.668269e+01	-6.648246e+01
1.320000e-06	-2.354342e-06	-9.365697e-10	-1.638591e+01	-6.614449e+01
1.330000e-06	-2.311511e-06	-9.280996e-10	-1.608781e+01	-6.579964e+01
1.340000e-06	-2.268452e-06	-9.224162e-10	-1.578812e+01	-6.544712e+01
1.350000e-06	-2.225155e-06	-9.214116e-10	-1.548678e+01	-6.508612e+01
1.360000e-06	-2.181725e-06	-9.225194e-10	-1.518452e+01	-6.471587e+01
1.370000e-06	-2.138230e-06	-9.203683e-10	-1.488180e+01	-6.433560e+01
1.380000e-06	-2.094653e-06	-9.120319e-10	-1.457851e+01	-6.394457e+01
1.390000e-06	-2.050995e-06	-8.993992e-10	-1.427465e+01	-6.354209e+01
1.400000e-06	-2.007255e-06	-8.827478e-10	-1.397023e+01	-6.312751e+01
1.410000e-06	-1.963396e-06	-8.673963e-10	-1.366497e+01	-6.270022e+01
1.420000e-06	-1.919372e-06	-8.568895e-10	-1.335857e+01	-6.225969e+01
1.430000e-06	-1.875217e-06	-8.517409e-10	-1.305126e+01	-6.180546e+01
1.440000e-06	-1.831011e-06	-8.500744e-10	-1.274359e+01	-6.133709e+01
1.450000e-06	-1.786709e-06	-8.471718e-10	-1.243526e+01	-6.085427e+01
1.460000e-06	-1.742307e-06	-8.406215e-10	-1.212623e+01	-6.035672e+01
1.470000e-06	-1.697836e-06	-8.274821e-10	-1.181671e+01	-5.984423e+01
1.480000e-06	-1.653190e-06	-8.124437e-10	-1.150598e+01	-5.931667e+01
1.490000e-06	-1.608384e-06	-7.983827e-10	-1.119414e+01	-5.877395e+01
1.500000e-06	-1.563456e-06	-7.861569e-10	-1.088144e+01	-5.821605e+01
1.510000e-06	-1.518393e-06	-7.761937e-10	-1.056781e+01	-5.764299e+01
1.520000e-06	-1.473276e-06	-7.693463e-10	-1.025381e+01	-5.705482e+01
1.530000e-06	-1.428066e-06	-7.614291e-10	-9.939148e+00	-5.645163e+01
1.540000e-06	-1.382723e-06	-7.497275e-10	-9.623570e+00	-5.583350e+01
1.550000e-06	-1.337283e-06	-7.348753e-10	-9.307310e+00	-5.520054e+01
1.560000e-06	-1.291827e-06	-7.213070e-10	-8.990944e+00	-5.455283e+01
1.570000e-06	-1.246342e-06	-7.081410e-10	-8.674373e+00	-5.389044e+01
1.580000e-06	-1.200736e-06	-6.962415e-10	-8.356963e+00	-5.321340e+01
1.590000e-06	-1.155037e-06	-6.839876e-10	-8.038904e+00	-5.252168e+01
1.600000e-06	-1.109226e-06	-6.717078e-10	-7.720063e+00	-5.181521e+01
1.610000e-06	-1.063276e-06	-6.595758e-10	-7.400261e+00	-5.109382e+01
1.620000e-06	-1.017207e-06	-6.476714e-10	-7.079626e+00	-5.035729e+01
1.630000e-06	-9.710808e-07	-6.363748e-10	-6.758593e+00	-4.960527e+01
1.640000e-06	-9.249696e-07	-6.277372e-10	-6.437665e+00	-4.883734e+01
1.650000e-06	-8.787770e-07	-6.209426e-10	-6.116171e+00	-4.805295e+01
1.660000e-06	-8.324981e-07	-6.139086e-10	-5.794075e+00	-4.725145e+01
1.670000e-06	-7.862075e-07	-6.028678e-10	-5.471899e+00	-4.643208e+01
1.680000e-06	-7.398637e-07	-5.873326e-10	-5.149353e+00	-4.559397e+01
1.690000e-06	-6.934695e-07	-5.705751e-10	-4.826455e+00	-4.473611e+01
1.700000e-06	-6.469995e-07	-5.519030e-10	-4.503030e+00	-4.385743e+01
1.710000e-06	-6.005193e-07	-5.331311e-10	-4.179534e+00	-4.295673e+01
1.720000e-06	-5.539654e-07	-5.172756e-10	-3.855525e+00	-4.203274e+01
1.730000e-06	-5.073547e-07	-5.039992e-10	-3.531121e+00	-4.108409e+01
1.740000e-06	-4.607755e-07	-4.934121e-10	-3.206936e+00	-4.010936e+01
1.750000e-06	-4.141557e-07	-4.825899e-10	-2.882468e+00	-3.910710e+01
1.760000e-06	-3.675261e-07	-4.673277e-10	-2.557932e+00	-3.807580e+01
1.770000e-06	-3.208297e-07	-4.490277e-10	-2.232932e+00	-3.701396e+01
1.780000e-06	-2.740685e-07	-4.309646e-10	-1.907480e+00	-3.592009e+01
1.790000e-06	-2.273478e-07	-4.156512e-10	-1.582310e+00	-3.479273e+01
1.800000e-06	-1.806657e-07	-4.009789e-10	-1.257409e+00	-3.363045e+01
1.810000e-06	-1.339748e-07	-3.848339e-10	-9.324470e-01	-3.243193e+01
1.820000e-06	-8.724908e-08	-3.674868e-10	-6.072420e-01	-3.119594e+01
1.830000e-06	-4.056672e-08	-3.499057e-10	-2.823389e-01	-2.992135e+01
1.840000e-06	6.091025e-09	-3.311515e-10	4.239272e-02	-2.860719e+01
1.850000e-06	5.282312e-08	-3.134804e-10	3.676418e-01	-2.725265e+01
1.860000e-06	9.955132e-08	-2.974291e-10	6.928639e-01	-2.585709e+01
1.870000e-06	1.462352e-07	-2.808385e-10	1.017778e+00	-2.442006e+01
1.880000e-06	1.928811e-07	-2.626314e-10	1.342427e+00	-2.294133e+01
1.890000e-06	2.395268e-07	-2.413611e-10	1.667074e+00	-2.142091e+01
1.900000e-06	2.861842e-07	-2.161850e-10	1.991804e+00	-1.985901e+01
1.910000e-06	3.328303e-07	-1.907686e-10	2.316454e+00	-1.825609e+01
1.920000e-06	3.794976e-07	-1.667839e-10	2.641252e+00	-1.661288e+01
1.930000e-06	4.261735e-07	-1.451332e-10	2.966111e+00	-1.493031e+01
1.940000e-06	4.728135e-07	-1.254943e-10	3.290719e+00	-1.320959e+01
1.950000e-06	5.193699e-07	-1.057314e-10	3.614745e+00	-1.145216e+01
1.960000e-06	5.658580e-07	-8.398071e-11	3.938296e+00	-9.659694e+00
1.970000e-06	6.122998e-07	-5.984631e-11	4.261525e+00	-7.834082e+00
1.980000e-06	6.586789e-07	-3.384132e-11	4.584318e+00	-5.977434e+00
1.990000e-06	7.050732e-07	-5.089637e-12	4.907215e+00	-4.092049e+00
2.000000e-06	7.514327e-07	2.446143e-11	5.229871e+00	-2.180408e+00
2.010000e-06	7.977114e-07	5.329220e-11	5.551965e+00	-2.451509e-01
2.020000e-06	8.439963e-07	8.265292e-11	5.874102e+00	1.710946e+00
2.030000e-06	8.901620e-07	1.127849e-10	6.195408e+00	3.684989e+00
2.040000e-06	9.361313e-07	1.419245e-10	6.515349e+00	5.673992e+00
2.050000e-06	9.821058e-07	1.683705e-10	6.835325e+00	7.674901e+00
2.060000e-06	1.028080e-06	1.938184e-10	7.155299e+00	9.684615e+00
2.070000e-06	1.073908e-06	2.195280e-10	7.474254e+00	1.170002e+01
2.080000e-06	1.119654e-06	2.449745e-10	7.792645e+00	1.371799e+01
2.090000e-06	1.165338e-06	2.732577e-10	8.110596e+00	1.573545e+01
2.100000e-06	1.210966e-06	3.038503e-10	8.428163e+00	1.774935e+01
2.110000e-06	1.256494e-06	3.342073e-10	8.745033e+00	1.975674e+01
2.120000e-06	1.301944e-06	3.634119e-10	9.061358e+00	2.175473e+01
2.130000e-06	1.347377e-06	3.903754e-10	9.377567e+00	2.374057e+01
2.140000e-06	1.392750e-06	4.136179e-10	9.693352e+00	2.571160e+01
2.150000e-06	1.438050e-06	4.340139e-10	1.000864e+01	2.766533e+01
2.160000e-06	1.483178e-06	4.564568e-10	1.032272e+01	2.959941e+01
2.170000e-06	1.528123e-06	4.816118e-10	1.063553e+01	3.151165e+01
2.180000e-06	1.572945e-06	5.084937e-10	1.094749e+01	3.340002e+01
2.190000e-06	1.617680e-06	5.372299e-10	1.125884e+01	3.526267e+01
2.200000e-06	1.662299e-06	5.657018e-10	1.156938e+01	3.709794e+01
2.210000e-06	1.706792e-06	5.923382e-10	1.187905e+01	3.890432e+01
2.220000e-06	1.751155e-06	6.171920e-10	1.218780e+01	4.068048e+01
2.230000e-06	1.795358e-06	6.404860e-10	1.249545e+01	4.242527e+01
2.240000e-06	1.839443e-06	6.602879e-10	1.280228e+01	4.413771e+01
2.250000e-06	1.883429e-06	6.764694e-10	1.310841e+01	4.581696e+01
2.260000e-06	1.927343e-06	6.936177e-10	1.341405e+01	4.746233e+01
2.270000e-06	1.971196e-06	7.148325e-10	1.371926e+01	4.907330e+01
2.280000e-06	2.014928e-06	7.379647e-10	1.402363e+01	5.064944e+01
2.290000e-06	2.058547e-06	7.617199e-10	1.432721e+01	5.219047e+01
2.300000e-06	2.102116e-06	7.848974e-10	1.463045e+01	5.369620e+01
2.310000e-06	2.145631e-06	8.056979e-10	1.493330e+01	5.516656e+01
2.320000e-06	2.189054e-06	8.232584e-10	1.523553e+01	5.660153e+01
2.330000e-06	2.232329e-06	8.388296e-10	1.553671e+01	5.800119e+01
2.340000e-06	2.275491e-06	8.551259e-10	1.583711e+01	5.936569e+01
2.350000e-06	2.318533e-06	8.723766e-10	1.613668e+01	6.069521e+01
2.360000e-06	2.361371e-06	8.888265e-10	1.643483e+01	6.198999e+01
2.370000e-06	2.403878e-06	9.053645e-10	1.673067e+01	6.325030e+01
2.380000e-06	2.446027e-06	9.227313e-10	1.702402e+01	6.447644e+01
2.390000e-06	2.487923e-06	9.393620e-10	1.731562e+01	6.566875e+01
2.400000e-06	2.529489e-06	9.543573e-10	1.760491e+01	6.682755e+01
2.410000e-06	2.570757e-06	9.670354e-10	1.789213e+01	6.795322e+01
2.420000e-06	2.611807e-06	9.788640e-10	1.817783e+01	6.904611e+01
2.430000e-06	2.652548e-06	9.928763e-10	1.846138e+01	7.010660e+01
2.440000e-06	2.693052e-06	1.009625e-09	1.874328e+01	7.113507e+01
2.450000e-06	2.733352e-06	1.025417e-09	1.902377e+01	7.213192e+01
2.460000e-06	2.773419e-06	1.040000e-09	1.930263e+01	7.309755e+01
2.470000e-06	2.813282e-06	1.051091e-09	1.958007e+01	7.403237e+01
2.480000e-06	2.853016e-06	1.059394e-09	1.985661e+01	7.493680e+01
2.490000e-06	2.892638e-06	1.067829e-09	2.013237e+01	7.581129e+01
2.500000e-06	2.932153e-06	1.077487e-09	2.040739e+01	7.665627e+01
2.510000e-06	2.971566e-06	1.092269e-09	2.068170e+01	7.747224e+01
2.520000e-06	3.010792e-06	1.107358e-09	2.095471e+01	7.825969e+01
2.530000e-06	3.049806e-06	1.123033e-09	2.122624e+01	7.901913e+01
2.540000e-06	3.088611e-06	1.138293e-09	2.149632e+01	7.975113e+01
2.550000e-06	3.127181e-06	1.146477e-09	2.176476e+01	8.045624e+01
2.560000e-06	3.165515e-06	1.147948e-09	2.203157e+01	8.113510e+01
2.570000e-06	3.203615e-06	1.148149e-09	2.229673e+01	8.178832e+01
2.580000e-06	3.241455e-06	1.152222e-09	2.256009e+01	8.241658e+01
2.590000e-06	3.279026e-06	1.158912e-09	2.282159e+01	8.302057e+01
2.600000e-06	3.316390e-06	1.171384e-09	2.308163e+01	8.360102e+01
2.610000e-06	3.353620e-06	1.186454e-09	2.334075e+01	8.415868e+01
2.620000e-06	3.390678e-06	1.201297e-09	2.359866e+01	8.469432e+01
2.630000e-06	3.427479e-06	1.212672e-09	2.385480e+01	8.520874e+01
2.640000e-06	3.463934e-06	1.218866e-09	2.410852e+01	8.570274e+01
2.650000e-06	3.500080e-06	1.222063e-09	2.436009e+01	8.617714e+01
2.660000e-06	3.536034e-06	1.222653e-09	2.461033e+01	8.663275e+01
2.670000e-06	3.571851e-06	1.224676e-09	2.485960e+01	8.707041e+01
2.680000e-06	3.607560e-06	1.229990e-09	2.510814e+01	8.749092e+01
2.690000e-06	3.643132e-06	1.239614e-09	2.535571e+01	8.789510e+01
2.700000e-06	3.678522e-06	1.251473e-09	2.560202e+01	8.828372e+01
2.710000e-06	3.713724e-06	1.261606e-09	2.584702e+01	8.865754e+01
2.720000e-06	3.748677e-06	1.267352e-09	2.609029e+01	8.901731e+01
2.730000e-06	3.783258e-06	1.267954e-09	2.633097e+01	8.936371e+01
2.740000e-06	3.817385e-06	1.267224e-09	2.656849e+01	8.969742e+01
2.750000e-06	3.851120e-06	1.268273e-09	2.680328e+01	9.001903e+01
2.760000e-06	3.884376e-06	1.271090e-09	2.703474e+01	9.032914e+01
2.770000e-06	3.917127e-06	1.278059e-09	2.726268e+01	9.062825e+01
2.780000e-06	3.949491e-06	1.287600e-09	2.748793e+01	9.091684e+01
2.790000e-06	3.981574e-06	1.297267e-09	2.771123e+01	9.119534e+01
2.800000e-06	4.013496e-06	1.302583e-09	2.793340e+01	9.146410e+01
2.810000e-06	4.045231e-06	1.304526e-09	2.815427e+01	9.172346e+01
2.820000e-06	4.076775e-06	1.305414e-09	2.837381e+01	9.197367e+01
2.830000e-06	4.108143e-06	1.306306e-09	2.859213e+01	9.221496e+01
2.840000e-06	4.139290e-06	1.309164e-09	2.880891e+01	9.244750e+01
2.850000e-06	4.170136e-06	1.315977e-09	2.902359e+01	9.267142e+01
2.860000e-06	4.200644e-06	1.327157e-09	2.923592e+01	9.288684e+01
2.870000e-06	4.230857e-06	1.336282e-09	2.944620e+01	9.309380e+01
2.880000e-06	4.260695e-06	1.338687e-09	2.965387e+01	9.329236e+01
2.890000e-06	4.290182e-06	1.335871e-09	2.985910e+01	9.348253e+01
2.900000e-06	4.319439e-06	1.333534e-09	3.006272e+01	9.366432e+01
