# Temperatura_=_11.9
# Concentracion g/m^3_=_1620.0
# C_Vs_to_Am_M_A/Vsm_=_65563218390.804596
# pendiente_HvsI_1/m_=_3716.3
# ordenada_HvsI_A/m_=_1297.0
# frecuencia_Hz_=_135108.32113849936

Tiempo_(s)	Campo_(V.s)	Magnetizacion_(V.s)	Campo_(kA/m)	Magnetizacion_(A/m)
0.000000e+00	-5.520761e-06	-1.722318e-09	-3.835962e+01	-1.126094e+02
1.000000e-08	-5.521061e-06	-1.716752e-09	-3.836170e+01	-1.125276e+02
2.000000e-08	-5.521098e-06	-1.715281e-09	-3.836196e+01	-1.124431e+02
3.000000e-08	-5.520788e-06	-1.717188e-09	-3.835981e+01	-1.123562e+02
4.000000e-08	-5.519972e-06	-1.718278e-09	-3.835413e+01	-1.122676e+02
5.000000e-08	-5.518608e-06	-1.716375e-09	-3.834466e+01	-1.121777e+02
6.000000e-08	-5.516705e-06	-1.706628e-09	-3.833143e+01	-1.120871e+02
7.000000e-08	-5.514148e-06	-1.700619e-09	-3.831367e+01	-1.119961e+02
8.000000e-08	-5.510979e-06	-1.711081e-09	-3.829165e+01	-1.119052e+02
9.000000e-08	-5.507364e-06	-1.726640e-09	-3.826653e+01	-1.118148e+02
1.000000e-07	-5.503436e-06	-1.753305e-09	-3.823924e+01	-1.117252e+02
1.100000e-07	-5.499230e-06	-1.764479e-09	-3.821001e+01	-1.116367e+02
1.200000e-07	-5.494666e-06	-1.701646e-09	-3.817830e+01	-1.115493e+02
1.300000e-07	-5.489846e-06	-1.637405e-09	-3.814481e+01	-1.114633e+02
1.400000e-07	-5.484782e-06	-1.676058e-09	-3.810963e+01	-1.113787e+02
1.500000e-07	-5.479304e-06	-1.744130e-09	-3.807157e+01	-1.112954e+02
1.600000e-07	-5.473429e-06	-1.743185e-09	-3.803074e+01	-1.112133e+02
1.700000e-07	-5.467236e-06	-1.666669e-09	-3.798771e+01	-1.111323e+02
1.800000e-07	-5.460600e-06	-1.660417e-09	-3.794160e+01	-1.110520e+02
1.900000e-07	-5.453480e-06	-1.705039e-09	-3.789213e+01	-1.109723e+02
2.000000e-07	-5.446084e-06	-1.709477e-09	-3.784074e+01	-1.108925e+02
2.100000e-07	-5.438459e-06	-1.686521e-09	-3.778776e+01	-1.108124e+02
2.200000e-07	-5.430558e-06	-1.704096e-09	-3.773286e+01	-1.107314e+02
2.300000e-07	-5.422353e-06	-1.753147e-09	-3.767585e+01	-1.106490e+02
2.400000e-07	-5.413792e-06	-1.749151e-09	-3.761637e+01	-1.105647e+02
2.500000e-07	-5.404688e-06	-1.707190e-09	-3.755311e+01	-1.104777e+02
2.600000e-07	-5.394801e-06	-1.683996e-09	-3.748442e+01	-1.103877e+02
2.700000e-07	-5.384241e-06	-1.709719e-09	-3.741104e+01	-1.102939e+02
2.800000e-07	-5.373205e-06	-1.715800e-09	-3.733436e+01	-1.101958e+02
2.900000e-07	-5.361702e-06	-1.702342e-09	-3.725444e+01	-1.100929e+02
3.000000e-07	-5.349797e-06	-1.688534e-09	-3.717172e+01	-1.099846e+02
3.100000e-07	-5.337570e-06	-1.699104e-09	-3.708676e+01	-1.098705e+02
3.200000e-07	-5.324975e-06	-1.699403e-09	-3.699925e+01	-1.097501e+02
3.300000e-07	-5.311994e-06	-1.679899e-09	-3.690905e+01	-1.096232e+02
3.400000e-07	-5.298585e-06	-1.659074e-09	-3.681588e+01	-1.094893e+02
3.500000e-07	-5.284763e-06	-1.679931e-09	-3.671984e+01	-1.093484e+02
3.600000e-07	-5.270509e-06	-1.696311e-09	-3.662081e+01	-1.092002e+02
3.700000e-07	-5.255785e-06	-1.675970e-09	-3.651850e+01	-1.090447e+02
3.800000e-07	-5.240655e-06	-1.668496e-09	-3.641337e+01	-1.088819e+02
3.900000e-07	-5.224998e-06	-1.686484e-09	-3.630458e+01	-1.087119e+02
4.000000e-07	-5.208768e-06	-1.658491e-09	-3.619181e+01	-1.085349e+02
4.100000e-07	-5.192029e-06	-1.629671e-09	-3.607551e+01	-1.083510e+02
4.200000e-07	-5.175035e-06	-1.668615e-09	-3.595742e+01	-1.081607e+02
4.300000e-07	-5.157820e-06	-1.674238e-09	-3.583782e+01	-1.079642e+02
4.400000e-07	-5.140194e-06	-1.619840e-09	-3.571534e+01	-1.077620e+02
4.500000e-07	-5.122248e-06	-1.640031e-09	-3.559065e+01	-1.075546e+02
4.600000e-07	-5.103948e-06	-1.691335e-09	-3.546349e+01	-1.073424e+02
4.700000e-07	-5.085106e-06	-1.631369e-09	-3.533258e+01	-1.071260e+02
4.800000e-07	-5.065860e-06	-1.598155e-09	-3.519885e+01	-1.069058e+02
4.900000e-07	-5.046421e-06	-1.660625e-09	-3.506378e+01	-1.066826e+02
5.000000e-07	-5.026762e-06	-1.643858e-09	-3.492719e+01	-1.064566e+02
5.100000e-07	-5.006886e-06	-1.572243e-09	-3.478909e+01	-1.062286e+02
5.200000e-07	-4.986769e-06	-1.620060e-09	-3.464931e+01	-1.059990e+02
5.300000e-07	-4.966290e-06	-1.648388e-09	-3.450701e+01	-1.057683e+02
5.400000e-07	-4.945393e-06	-1.581282e-09	-3.436182e+01	-1.055368e+02
5.500000e-07	-4.924092e-06	-1.592411e-09	-3.421381e+01	-1.053050e+02
5.600000e-07	-4.902438e-06	-1.649712e-09	-3.406335e+01	-1.050732e+02
5.700000e-07	-4.880500e-06	-1.593124e-09	-3.391092e+01	-1.048416e+02
5.800000e-07	-4.858262e-06	-1.564391e-09	-3.375641e+01	-1.046104e+02
5.900000e-07	-4.835696e-06	-1.624509e-09	-3.359962e+01	-1.043798e+02
6.000000e-07	-4.812808e-06	-1.608495e-09	-3.344058e+01	-1.041498e+02
6.100000e-07	-4.789648e-06	-1.554310e-09	-3.327966e+01	-1.039205e+02
6.200000e-07	-4.766229e-06	-1.587803e-09	-3.311694e+01	-1.036916e+02
6.300000e-07	-4.742560e-06	-1.594346e-09	-3.295249e+01	-1.034632e+02
6.400000e-07	-4.718631e-06	-1.546162e-09	-3.278622e+01	-1.032349e+02
6.500000e-07	-4.694332e-06	-1.559745e-09	-3.261739e+01	-1.030066e+02
6.600000e-07	-4.669625e-06	-1.587160e-09	-3.244571e+01	-1.027779e+02
6.700000e-07	-4.644372e-06	-1.555198e-09	-3.227025e+01	-1.025486e+02
6.800000e-07	-4.618614e-06	-1.548674e-09	-3.209128e+01	-1.023181e+02
6.900000e-07	-4.592395e-06	-1.567809e-09	-3.190910e+01	-1.020861e+02
7.000000e-07	-4.565529e-06	-1.540650e-09	-3.172243e+01	-1.018522e+02
7.100000e-07	-4.538267e-06	-1.519469e-09	-3.153300e+01	-1.016159e+02
7.200000e-07	-4.510832e-06	-1.535594e-09	-3.134238e+01	-1.013767e+02
7.300000e-07	-4.483198e-06	-1.533106e-09	-3.115037e+01	-1.011342e+02
7.400000e-07	-4.455357e-06	-1.518851e-09	-3.095693e+01	-1.008879e+02
7.500000e-07	-4.427289e-06	-1.526295e-09	-3.076190e+01	-1.006375e+02
7.600000e-07	-4.399053e-06	-1.522902e-09	-3.056571e+01	-1.003824e+02
7.700000e-07	-4.370598e-06	-1.507737e-09	-3.036800e+01	-1.001224e+02
7.800000e-07	-4.341734e-06	-1.506058e-09	-3.016744e+01	-9.985696e+01
7.900000e-07	-4.312480e-06	-1.504583e-09	-2.996418e+01	-9.958587e+01
8.000000e-07	-4.282957e-06	-1.491769e-09	-2.975905e+01	-9.930884e+01
8.100000e-07	-4.253178e-06	-1.492187e-09	-2.955214e+01	-9.902561e+01
8.200000e-07	-4.223130e-06	-1.491232e-09	-2.934336e+01	-9.873599e+01
8.300000e-07	-4.192693e-06	-1.475751e-09	-2.913187e+01	-9.843983e+01
8.400000e-07	-4.161817e-06	-1.466446e-09	-2.891734e+01	-9.813702e+01
8.500000e-07	-4.130679e-06	-1.472452e-09	-2.870098e+01	-9.782749e+01
8.600000e-07	-4.099357e-06	-1.469551e-09	-2.848335e+01	-9.751123e+01
8.700000e-07	-4.067857e-06	-1.461276e-09	-2.826448e+01	-9.718824e+01
8.800000e-07	-4.036210e-06	-1.458766e-09	-2.804459e+01	-9.685858e+01
8.900000e-07	-4.004429e-06	-1.451381e-09	-2.782377e+01	-9.652234e+01
9.000000e-07	-3.972491e-06	-1.436360e-09	-2.760185e+01	-9.617964e+01
9.100000e-07	-3.940293e-06	-1.430820e-09	-2.737813e+01	-9.583062e+01
9.200000e-07	-3.907749e-06	-1.425751e-09	-2.715201e+01	-9.547545e+01
9.300000e-07	-3.874817e-06	-1.412404e-09	-2.692319e+01	-9.511433e+01
9.400000e-07	-3.841399e-06	-1.404993e-09	-2.669099e+01	-9.474745e+01
9.500000e-07	-3.807400e-06	-1.405172e-09	-2.645476e+01	-9.437504e+01
9.600000e-07	-3.772923e-06	-1.396768e-09	-2.621521e+01	-9.399733e+01
9.700000e-07	-3.738118e-06	-1.387231e-09	-2.597337e+01	-9.361454e+01
9.800000e-07	-3.703024e-06	-1.385536e-09	-2.572953e+01	-9.322691e+01
9.900000e-07	-3.667644e-06	-1.379925e-09	-2.548370e+01	-9.283466e+01
1.000000e-06	-3.632098e-06	-1.367810e-09	-2.523672e+01	-9.243804e+01
1.010000e-06	-3.596449e-06	-1.360517e-09	-2.498902e+01	-9.203725e+01
1.020000e-06	-3.560611e-06	-1.356216e-09	-2.474001e+01	-9.163250e+01
1.030000e-06	-3.524551e-06	-1.344003e-09	-2.448945e+01	-9.122400e+01
1.040000e-06	-3.488270e-06	-1.335040e-09	-2.423736e+01	-9.081192e+01
1.050000e-06	-3.451759e-06	-1.333288e-09	-2.398368e+01	-9.039643e+01
1.060000e-06	-3.415073e-06	-1.329876e-09	-2.372878e+01	-8.997769e+01
1.070000e-06	-3.378108e-06	-1.321985e-09	-2.347193e+01	-8.955581e+01
1.080000e-06	-3.340817e-06	-1.317005e-09	-2.321282e+01	-8.913092e+01
1.090000e-06	-3.303295e-06	-1.308103e-09	-2.295211e+01	-8.870309e+01
1.100000e-06	-3.265562e-06	-1.294584e-09	-2.268993e+01	-8.827238e+01
1.110000e-06	-3.227643e-06	-1.285132e-09	-2.242646e+01	-8.783884e+01
1.120000e-06	-3.189532e-06	-1.277528e-09	-2.216166e+01	-8.740247e+01
1.130000e-06	-3.151144e-06	-1.266074e-09	-2.189493e+01	-8.696326e+01
1.140000e-06	-3.112471e-06	-1.257774e-09	-2.162622e+01	-8.652116e+01
1.150000e-06	-3.073609e-06	-1.256755e-09	-2.135620e+01	-8.607610e+01
1.160000e-06	-3.034535e-06	-1.254714e-09	-2.108470e+01	-8.562796e+01
1.170000e-06	-2.995284e-06	-1.247506e-09	-2.081198e+01	-8.517662e+01
1.180000e-06	-2.955874e-06	-1.240564e-09	-2.053814e+01	-8.472189e+01
1.190000e-06	-2.916307e-06	-1.231505e-09	-2.026322e+01	-8.426358e+01
1.200000e-06	-2.876644e-06	-1.218652e-09	-1.998763e+01	-8.380145e+01
1.210000e-06	-2.836879e-06	-1.205451e-09	-1.971134e+01	-8.333523e+01
1.220000e-06	-2.796996e-06	-1.195919e-09	-1.943422e+01	-8.286462e+01
1.230000e-06	-2.757006e-06	-1.187750e-09	-1.915636e+01	-8.238928e+01
1.240000e-06	-2.716811e-06	-1.178662e-09	-1.887707e+01	-8.190885e+01
1.250000e-06	-2.676320e-06	-1.171566e-09	-1.859574e+01	-8.142294e+01
1.260000e-06	-2.635474e-06	-1.163709e-09	-1.831193e+01	-8.093112e+01
1.270000e-06	-2.594291e-06	-1.153936e-09	-1.802578e+01	-8.043296e+01
1.280000e-06	-2.552919e-06	-1.144248e-09	-1.773831e+01	-7.992799e+01
1.290000e-06	-2.511401e-06	-1.135821e-09	-1.744984e+01	-7.941573e+01
1.300000e-06	-2.469509e-06	-1.126159e-09	-1.715876e+01	-7.889568e+01
1.310000e-06	-2.427242e-06	-1.114462e-09	-1.686508e+01	-7.836735e+01
1.320000e-06	-2.384719e-06	-1.104402e-09	-1.656962e+01	-7.783024e+01
1.330000e-06	-2.341858e-06	-1.095014e-09	-1.627181e+01	-7.728384e+01
1.340000e-06	-2.298782e-06	-1.085402e-09	-1.597250e+01	-7.672765e+01
1.350000e-06	-2.255544e-06	-1.078791e-09	-1.567208e+01	-7.616121e+01
1.360000e-06	-2.212163e-06	-1.072956e-09	-1.537066e+01	-7.558404e+01
1.370000e-06	-2.168639e-06	-1.065740e-09	-1.506824e+01	-7.499570e+01
1.380000e-06	-2.125002e-06	-1.056431e-09	-1.476504e+01	-7.439580e+01
1.390000e-06	-2.081331e-06	-1.045334e-09	-1.446161e+01	-7.378395e+01
1.400000e-06	-2.037597e-06	-1.032130e-09	-1.415773e+01	-7.315982e+01
1.410000e-06	-1.993776e-06	-1.018230e-09	-1.385325e+01	-7.252310e+01
1.420000e-06	-1.949892e-06	-1.003829e-09	-1.354833e+01	-7.187355e+01
1.430000e-06	-1.905935e-06	-9.905113e-10	-1.324291e+01	-7.121094e+01
1.440000e-06	-1.861862e-06	-9.806398e-10	-1.293668e+01	-7.053512e+01
1.450000e-06	-1.817639e-06	-9.726746e-10	-1.262940e+01	-6.984596e+01
1.460000e-06	-1.773330e-06	-9.646234e-10	-1.232154e+01	-6.914337e+01
1.470000e-06	-1.728962e-06	-9.540644e-10	-1.201325e+01	-6.842731e+01
1.480000e-06	-1.684422e-06	-9.411883e-10	-1.170378e+01	-6.769777e+01
1.490000e-06	-1.639673e-06	-9.277504e-10	-1.139285e+01	-6.695477e+01
1.500000e-06	-1.594749e-06	-9.119288e-10	-1.108071e+01	-6.619833e+01
1.510000e-06	-1.549687e-06	-8.947033e-10	-1.076761e+01	-6.542852e+01
1.520000e-06	-1.504544e-06	-8.797329e-10	-1.045394e+01	-6.464537e+01
1.530000e-06	-1.459366e-06	-8.682185e-10	-1.014003e+01	-6.384894e+01
1.540000e-06	-1.414097e-06	-8.579923e-10	-9.825495e+00	-6.303924e+01
1.550000e-06	-1.368729e-06	-8.487066e-10	-9.510266e+00	-6.221627e+01
1.560000e-06	-1.323315e-06	-8.380904e-10	-9.194722e+00	-6.137998e+01
1.570000e-06	-1.277759e-06	-8.232638e-10	-8.878184e+00	-6.053026e+01
1.580000e-06	-1.232033e-06	-8.067970e-10	-8.560473e+00	-5.966696e+01
1.590000e-06	-1.186234e-06	-7.907331e-10	-8.242245e+00	-5.878982e+01
1.600000e-06	-1.140323e-06	-7.738569e-10	-7.923250e+00	-5.789851e+01
1.610000e-06	-1.094344e-06	-7.562080e-10	-7.603770e+00	-5.699260e+01
1.620000e-06	-1.048363e-06	-7.411283e-10	-7.284286e+00	-5.607157e+01
1.630000e-06	-1.002327e-06	-7.277488e-10	-6.964414e+00	-5.513475e+01
1.640000e-06	-9.562451e-07	-7.162314e-10	-6.644228e+00	-5.418139e+01
1.650000e-06	-9.101381e-07	-7.028610e-10	-6.323865e+00	-5.321060e+01
1.660000e-06	-8.639347e-07	-6.884493e-10	-6.002833e+00	-5.222138e+01
1.670000e-06	-8.176760e-07	-6.754775e-10	-5.681415e+00	-5.121259e+01
1.680000e-06	-7.713947e-07	-6.610420e-10	-5.359842e+00	-5.018300e+01
1.690000e-06	-7.250505e-07	-6.440369e-10	-5.037831e+00	-4.913126e+01
1.700000e-06	-6.786287e-07	-6.254311e-10	-4.715280e+00	-4.805590e+01
1.710000e-06	-6.321438e-07	-6.054725e-10	-4.392292e+00	-4.695539e+01
1.720000e-06	-5.856808e-07	-5.842343e-10	-4.069455e+00	-4.582809e+01
1.730000e-06	-5.391327e-07	-5.648381e-10	-3.746027e+00	-4.467234e+01
1.740000e-06	-4.924283e-07	-5.488127e-10	-3.421514e+00	-4.348640e+01
1.750000e-06	-4.457067e-07	-5.338876e-10	-3.096881e+00	-4.226853e+01
1.760000e-06	-3.989353e-07	-5.166237e-10	-2.771901e+00	-4.101698e+01
1.770000e-06	-3.521074e-07	-4.960386e-10	-2.446529e+00	-3.973003e+01
1.780000e-06	-3.053521e-07	-4.735150e-10	-2.121662e+00	-3.840599e+01
1.790000e-06	-2.586175e-07	-4.538253e-10	-1.796938e+00	-3.704326e+01
1.800000e-06	-2.118203e-07	-4.355129e-10	-1.471780e+00	-3.564034e+01
1.810000e-06	-1.649597e-07	-4.162353e-10	-1.146181e+00	-3.419583e+01
1.820000e-06	-1.181170e-07	-3.964915e-10	-8.207059e-01	-3.270851e+01
1.830000e-06	-7.129486e-08	-3.749398e-10	-4.953743e-01	-3.117730e+01
1.840000e-06	-2.437877e-08	-3.504365e-10	-1.693898e-01	-2.960134e+01
1.850000e-06	2.259382e-08	-3.264146e-10	1.569875e-01	-2.797997e+01
1.860000e-06	6.950044e-08	-3.062342e-10	4.829063e-01	-2.631278e+01
1.870000e-06	1.162764e-07	-2.865901e-10	8.079170e-01	-2.459959e+01
1.880000e-06	1.630189e-07	-2.651203e-10	1.132695e+00	-2.284051e+01
1.890000e-06	2.098378e-07	-2.407166e-10	1.458005e+00	-2.103592e+01
1.900000e-06	2.567295e-07	-2.123455e-10	1.783821e+00	-1.918648e+01
1.910000e-06	3.035712e-07	-1.812941e-10	2.109288e+00	-1.729315e+01
1.920000e-06	3.503399e-07	-1.504807e-10	2.434249e+00	-1.535717e+01
1.930000e-06	3.971742e-07	-1.218128e-10	2.759665e+00	-1.338008e+01
1.940000e-06	4.439651e-07	-9.621974e-11	3.084780e+00	-1.136371e+01
1.950000e-06	4.906390e-07	-7.291017e-11	3.409082e+00	-9.310139e+00
1.960000e-06	5.372200e-07	-4.880316e-11	3.732737e+00	-7.221738e+00
1.970000e-06	5.837610e-07	-2.084279e-11	4.056117e+00	-5.101106e+00
1.980000e-06	6.303009e-07	1.084367e-11	4.379487e+00	-2.951078e+00
1.990000e-06	6.767227e-07	4.442803e-11	4.702037e+00	-7.746891e-01
2.000000e-06	7.230414e-07	7.841381e-11	5.023871e+00	1.424840e+00
2.010000e-06	7.693740e-07	1.095311e-10	5.345801e+00	3.644134e+00
2.020000e-06	8.157486e-07	1.385095e-10	5.668023e+00	5.879690e+00
2.030000e-06	8.620539e-07	1.687282e-10	5.989764e+00	8.127907e+00
2.040000e-06	9.082505e-07	2.030957e-10	6.310749e+00	1.038511e+01
2.050000e-06	9.543975e-07	2.379849e-10	6.631391e+00	1.264760e+01
2.060000e-06	1.000397e-06	2.708709e-10	6.951003e+00	1.491166e+01
2.070000e-06	1.046300e-06	3.027369e-10	7.269951e+00	1.717359e+01
2.080000e-06	1.092236e-06	3.325447e-10	7.589123e+00	1.942975e+01
2.090000e-06	1.138109e-06	3.604117e-10	7.907863e+00	2.167659e+01
2.100000e-06	1.183822e-06	3.878493e-10	8.225488e+00	2.391064e+01
2.110000e-06	1.229412e-06	4.194433e-10	8.542258e+00	2.612858e+01
2.120000e-06	1.275009e-06	4.515298e-10	8.859079e+00	2.832724e+01
2.130000e-06	1.320564e-06	4.829988e-10	9.175605e+00	3.050364e+01
2.140000e-06	1.365989e-06	5.156779e-10	9.491233e+00	3.265495e+01
2.150000e-06	1.411271e-06	5.444258e-10	9.805859e+00	3.477859e+01
2.160000e-06	1.456452e-06	5.700522e-10	1.011979e+01	3.687216e+01
2.170000e-06	1.501556e-06	5.937753e-10	1.043318e+01	3.893351e+01
2.180000e-06	1.546600e-06	6.180339e-10	1.074616e+01	4.096071e+01
2.190000e-06	1.591587e-06	6.443669e-10	1.105874e+01	4.295206e+01
2.200000e-06	1.636390e-06	6.748140e-10	1.137005e+01	4.490612e+01
2.210000e-06	1.681026e-06	7.082697e-10	1.168018e+01	4.682163e+01
2.220000e-06	1.725532e-06	7.417906e-10	1.198942e+01	4.869761e+01
2.230000e-06	1.769922e-06	7.705590e-10	1.229786e+01	5.053326e+01
2.240000e-06	1.814224e-06	7.936588e-10	1.260568e+01	5.232799e+01
2.250000e-06	1.858388e-06	8.096893e-10	1.291254e+01	5.408143e+01
2.260000e-06	1.902400e-06	8.237889e-10	1.321835e+01	5.579337e+01
2.270000e-06	1.946341e-06	8.418677e-10	1.352366e+01	5.746377e+01
2.280000e-06	1.990196e-06	8.633176e-10	1.382838e+01	5.909275e+01
2.290000e-06	2.033929e-06	8.898662e-10	1.413224e+01	6.068057e+01
2.300000e-06	2.077615e-06	9.192641e-10	1.443578e+01	6.222761e+01
2.310000e-06	2.121264e-06	9.461426e-10	1.473907e+01	6.373435e+01
2.320000e-06	2.164850e-06	9.672022e-10	1.504192e+01	6.520136e+01
2.330000e-06	2.208364e-06	9.837368e-10	1.534426e+01	6.662928e+01
2.340000e-06	2.251771e-06	9.973586e-10	1.564586e+01	6.801883e+01
2.350000e-06	2.295027e-06	1.010941e-09	1.594641e+01	6.937075e+01
2.360000e-06	2.338077e-06	1.027142e-09	1.624554e+01	7.068583e+01
2.370000e-06	2.380907e-06	1.046623e-09	1.654313e+01	7.196488e+01
2.380000e-06	2.423437e-06	1.066396e-09	1.683864e+01	7.320872e+01
2.390000e-06	2.465577e-06	1.085812e-09	1.713144e+01	7.441818e+01
2.400000e-06	2.507383e-06	1.102209e-09	1.742192e+01	7.559407e+01
2.410000e-06	2.548858e-06	1.117334e-09	1.771009e+01	7.673720e+01
2.420000e-06	2.589949e-06	1.130643e-09	1.799561e+01	7.784839e+01
2.430000e-06	2.630776e-06	1.142396e-09	1.827929e+01	7.892839e+01
2.440000e-06	2.671418e-06	1.154924e-09	1.856168e+01	7.997798e+01
2.450000e-06	2.711865e-06	1.171032e-09	1.884271e+01	8.099789e+01
2.460000e-06	2.752069e-06	1.188553e-09	1.912206e+01	8.198885e+01
2.470000e-06	2.792055e-06	1.203313e-09	1.939989e+01	8.295156e+01
2.480000e-06	2.831891e-06	1.215425e-09	1.967668e+01	8.388669e+01
2.490000e-06	2.871593e-06	1.227043e-09	1.995254e+01	8.479491e+01
2.500000e-06	2.911185e-06	1.236890e-09	2.022764e+01	8.567688e+01
2.510000e-06	2.950697e-06	1.248298e-09	2.050217e+01	8.653324e+01
2.520000e-06	2.990060e-06	1.262395e-09	2.077568e+01	8.736461e+01
2.530000e-06	3.029219e-06	1.276188e-09	2.104776e+01	8.817162e+01
2.540000e-06	3.068143e-06	1.290543e-09	2.131822e+01	8.895488e+01
2.550000e-06	3.106851e-06	1.304438e-09	2.158717e+01	8.971502e+01
2.560000e-06	3.145467e-06	1.313744e-09	2.185549e+01	9.045265e+01
2.570000e-06	3.183813e-06	1.318930e-09	2.212192e+01	9.116838e+01
2.580000e-06	3.221824e-06	1.323349e-09	2.238603e+01	9.186284e+01
2.590000e-06	3.259631e-06	1.328135e-09	2.264872e+01	9.253664e+01
2.600000e-06	3.297241e-06	1.336838e-09	2.291005e+01	9.319039e+01
2.610000e-06	3.334714e-06	1.350867e-09	2.317042e+01	9.382472e+01
2.620000e-06	3.371955e-06	1.367662e-09	2.342918e+01	9.444025e+01
2.630000e-06	3.408877e-06	1.380988e-09	2.368572e+01	9.503759e+01
2.640000e-06	3.445593e-06	1.389512e-09	2.394083e+01	9.561736e+01
2.650000e-06	3.482042e-06	1.393941e-09	2.419409e+01	9.618015e+01
2.660000e-06	3.518179e-06	1.397824e-09	2.444518e+01	9.672657e+01
2.670000e-06	3.554141e-06	1.402608e-09	2.469505e+01	9.725720e+01
2.680000e-06	3.589938e-06	1.408609e-09	2.494378e+01	9.777261e+01
2.690000e-06	3.625577e-06	1.417090e-09	2.519141e+01	9.827336e+01
2.700000e-06	3.661142e-06	1.426381e-09	2.543852e+01	9.875997e+01
2.710000e-06	3.696535e-06	1.433122e-09	2.568444e+01	9.923296e+01
2.720000e-06	3.731675e-06	1.437491e-09	2.592861e+01	9.969283e+01
2.730000e-06	3.766601e-06	1.440677e-09	2.617128e+01	1.001400e+02
2.740000e-06	3.801228e-06	1.443741e-09	2.641187e+01	1.005750e+02
2.750000e-06	3.835421e-06	1.448439e-09	2.664946e+01	1.009982e+02
2.760000e-06	3.869109e-06	1.455544e-09	2.688353e+01	1.014100e+02
2.770000e-06	3.902244e-06	1.464661e-09	2.711376e+01	1.018107e+02
2.780000e-06	3.934927e-06	1.473033e-09	2.734085e+01	1.022007e+02
2.790000e-06	3.967291e-06	1.478804e-09	2.756572e+01	1.025803e+02
2.800000e-06	3.999361e-06	1.484324e-09	2.778855e+01	1.029497e+02
2.810000e-06	4.031166e-06	1.489136e-09	2.800954e+01	1.033093e+02
2.820000e-06	4.062839e-06	1.493632e-09	2.822961e+01	1.036592e+02
2.830000e-06	4.094462e-06	1.499966e-09	2.844934e+01	1.039997e+02
2.840000e-06	4.125868e-06	1.505823e-09	2.866755e+01	1.043310e+02
2.850000e-06	4.156923e-06	1.510159e-09	2.888333e+01	1.046532e+02
2.860000e-06	4.187686e-06	1.515402e-09	2.909708e+01	1.049666e+02
2.870000e-06	4.218139e-06	1.523202e-09	2.930868e+01	1.052713e+02
2.880000e-06	4.248204e-06	1.530177e-09	2.951757e+01	1.055675e+02
2.890000e-06	4.278017e-06	1.534423e-09	2.972472e+01	1.058552e+02
2.900000e-06	4.307625e-06	1.536703e-09	2.993044e+01	1.061347e+02
