# Temperatura_=_5.38
# Concentracion g/m^3_=_1620.0
# C_Vs_to_Am_M_A/Vsm_=_65563218390.804596
# pendiente_HvsI_1/m_=_3716.3
# ordenada_HvsI_A/m_=_1297.0
# frecuencia_Hz_=_135109.56508639784

Tiempo_(s)	Campo_(V.s)	Magnetizacion_(V.s)	Campo_(kA/m)	Magnetizacion_(A/m)
0.000000e+00	-5.516904e-06	-1.592457e-09	-3.836528e+01	-1.033186e+02
1.000000e-08	-5.517087e-06	-1.591681e-09	-3.836655e+01	-1.032572e+02
2.000000e-08	-5.516954e-06	-1.593781e-09	-3.836563e+01	-1.031917e+02
3.000000e-08	-5.516463e-06	-1.596480e-09	-3.836222e+01	-1.031224e+02
4.000000e-08	-5.515523e-06	-1.597976e-09	-3.835568e+01	-1.030497e+02
5.000000e-08	-5.514033e-06	-1.594792e-09	-3.834532e+01	-1.029739e+02
6.000000e-08	-5.511971e-06	-1.586558e-09	-3.833098e+01	-1.028953e+02
7.000000e-08	-5.509278e-06	-1.587424e-09	-3.831226e+01	-1.028144e+02
8.000000e-08	-5.505980e-06	-1.589235e-09	-3.828932e+01	-1.027317e+02
9.000000e-08	-5.502270e-06	-1.590194e-09	-3.826352e+01	-1.026475e+02
1.000000e-07	-5.498200e-06	-1.612769e-09	-3.823522e+01	-1.025624e+02
1.100000e-07	-5.493798e-06	-1.617403e-09	-3.820460e+01	-1.024768e+02
1.200000e-07	-5.489116e-06	-1.551669e-09	-3.817205e+01	-1.023911e+02
1.300000e-07	-5.484184e-06	-1.519996e-09	-3.813774e+01	-1.023057e+02
1.400000e-07	-5.478874e-06	-1.546255e-09	-3.810082e+01	-1.022211e+02
1.500000e-07	-5.473164e-06	-1.611150e-09	-3.806111e+01	-1.021375e+02
1.600000e-07	-5.467074e-06	-1.587562e-09	-3.801876e+01	-1.020551e+02
1.700000e-07	-5.460602e-06	-1.530250e-09	-3.797375e+01	-1.019743e+02
1.800000e-07	-5.453739e-06	-1.540862e-09	-3.792602e+01	-1.018950e+02
1.900000e-07	-5.446503e-06	-1.604086e-09	-3.787571e+01	-1.018175e+02
2.000000e-07	-5.439016e-06	-1.597638e-09	-3.782364e+01	-1.017416e+02
2.100000e-07	-5.431313e-06	-1.540712e-09	-3.777007e+01	-1.016673e+02
2.200000e-07	-5.423361e-06	-1.537676e-09	-3.771478e+01	-1.015944e+02
2.300000e-07	-5.415127e-06	-1.588564e-09	-3.765751e+01	-1.015227e+02
2.400000e-07	-5.406376e-06	-1.594338e-09	-3.759666e+01	-1.014519e+02
2.500000e-07	-5.396804e-06	-1.555436e-09	-3.753009e+01	-1.013815e+02
2.600000e-07	-5.386475e-06	-1.552026e-09	-3.745826e+01	-1.013111e+02
2.700000e-07	-5.375588e-06	-1.562936e-09	-3.738256e+01	-1.012402e+02
2.800000e-07	-5.364316e-06	-1.560976e-09	-3.730417e+01	-1.011684e+02
2.900000e-07	-5.352683e-06	-1.534761e-09	-3.722327e+01	-1.010949e+02
3.000000e-07	-5.340685e-06	-1.541517e-09	-3.713983e+01	-1.010192e+02
3.100000e-07	-5.328325e-06	-1.550674e-09	-3.705388e+01	-1.009407e+02
3.200000e-07	-5.315558e-06	-1.557818e-09	-3.696510e+01	-1.008588e+02
3.300000e-07	-5.302325e-06	-1.534837e-09	-3.687307e+01	-1.007728e+02
3.400000e-07	-5.288694e-06	-1.539843e-09	-3.677828e+01	-1.006822e+02
3.500000e-07	-5.274736e-06	-1.555792e-09	-3.668121e+01	-1.005864e+02
3.600000e-07	-5.260210e-06	-1.560461e-09	-3.658020e+01	-1.004849e+02
3.700000e-07	-5.245067e-06	-1.528287e-09	-3.647490e+01	-1.003773e+02
3.800000e-07	-5.229564e-06	-1.540947e-09	-3.636708e+01	-1.002632e+02
3.900000e-07	-5.213632e-06	-1.550297e-09	-3.625629e+01	-1.001422e+02
4.000000e-07	-5.197184e-06	-1.521077e-09	-3.614191e+01	-1.000140e+02
4.100000e-07	-5.180506e-06	-1.508667e-09	-3.602593e+01	-9.987862e+01
4.200000e-07	-5.163574e-06	-1.553516e-09	-3.590818e+01	-9.973585e+01
4.300000e-07	-5.146235e-06	-1.545144e-09	-3.578760e+01	-9.958573e+01
4.400000e-07	-5.128502e-06	-1.504667e-09	-3.566429e+01	-9.942832e+01
4.500000e-07	-5.110428e-06	-1.538124e-09	-3.553860e+01	-9.926382e+01
4.600000e-07	-5.091946e-06	-1.557615e-09	-3.541007e+01	-9.909246e+01
4.700000e-07	-5.072950e-06	-1.497990e-09	-3.527797e+01	-9.891458e+01
4.800000e-07	-5.053678e-06	-1.488976e-09	-3.514395e+01	-9.873057e+01
4.900000e-07	-5.034227e-06	-1.534064e-09	-3.500868e+01	-9.854088e+01
5.000000e-07	-5.014562e-06	-1.494955e-09	-3.487193e+01	-9.834604e+01
5.100000e-07	-4.994676e-06	-1.462714e-09	-3.473364e+01	-9.814659e+01
5.200000e-07	-4.974435e-06	-1.508606e-09	-3.459288e+01	-9.794313e+01
5.300000e-07	-4.953752e-06	-1.509932e-09	-3.444905e+01	-9.773627e+01
5.400000e-07	-4.932703e-06	-1.462357e-09	-3.430267e+01	-9.752663e+01
5.500000e-07	-4.911317e-06	-1.496204e-09	-3.415395e+01	-9.731483e+01
5.600000e-07	-4.889638e-06	-1.515164e-09	-3.400319e+01	-9.710149e+01
5.700000e-07	-4.867641e-06	-1.467140e-09	-3.385022e+01	-9.688719e+01
5.800000e-07	-4.845270e-06	-1.462774e-09	-3.369465e+01	-9.667249e+01
5.900000e-07	-4.822458e-06	-1.496342e-09	-3.353601e+01	-9.645790e+01
6.000000e-07	-4.799245e-06	-1.463212e-09	-3.337459e+01	-9.624388e+01
6.100000e-07	-4.775880e-06	-1.443461e-09	-3.321211e+01	-9.603084e+01
6.200000e-07	-4.752375e-06	-1.467502e-09	-3.304865e+01	-9.581910e+01
6.300000e-07	-4.728635e-06	-1.462131e-09	-3.288356e+01	-9.560892e+01
6.400000e-07	-4.704598e-06	-1.439656e-09	-3.271640e+01	-9.540050e+01
6.500000e-07	-4.680144e-06	-1.456831e-09	-3.254634e+01	-9.519392e+01
6.600000e-07	-4.655136e-06	-1.456366e-09	-3.237244e+01	-9.498922e+01
6.700000e-07	-4.629607e-06	-1.434617e-09	-3.219490e+01	-9.478633e+01
6.800000e-07	-4.603573e-06	-1.431394e-09	-3.201386e+01	-9.458511e+01
6.900000e-07	-4.577011e-06	-1.430554e-09	-3.182915e+01	-9.438535e+01
7.000000e-07	-4.549988e-06	-1.414587e-09	-3.164123e+01	-9.418675e+01
7.100000e-07	-4.522586e-06	-1.414939e-09	-3.145067e+01	-9.398896e+01
7.200000e-07	-4.494993e-06	-1.419907e-09	-3.125878e+01	-9.379155e+01
7.300000e-07	-4.467319e-06	-1.414419e-09	-3.106633e+01	-9.359406e+01
7.400000e-07	-4.439496e-06	-1.413564e-09	-3.087285e+01	-9.339596e+01
7.500000e-07	-4.411462e-06	-1.413372e-09	-3.067789e+01	-9.319669e+01
7.600000e-07	-4.383169e-06	-1.406321e-09	-3.048114e+01	-9.299568e+01
7.700000e-07	-4.354535e-06	-1.401746e-09	-3.028202e+01	-9.279230e+01
7.800000e-07	-4.325531e-06	-1.397871e-09	-3.008032e+01	-9.258595e+01
7.900000e-07	-4.296173e-06	-1.388764e-09	-2.987616e+01	-9.237602e+01
8.000000e-07	-4.266516e-06	-1.385977e-09	-2.966992e+01	-9.216190e+01
8.100000e-07	-4.236627e-06	-1.383374e-09	-2.946207e+01	-9.194302e+01
8.200000e-07	-4.206471e-06	-1.376369e-09	-2.925236e+01	-9.171881e+01
8.300000e-07	-4.175990e-06	-1.369017e-09	-2.904039e+01	-9.148877e+01
8.400000e-07	-4.145139e-06	-1.370540e-09	-2.882585e+01	-9.125241e+01
8.500000e-07	-4.113936e-06	-1.370338e-09	-2.860886e+01	-9.100933e+01
8.600000e-07	-4.082551e-06	-1.367728e-09	-2.839061e+01	-9.075916e+01
8.700000e-07	-4.051057e-06	-1.360834e-09	-2.817159e+01	-9.050158e+01
8.800000e-07	-4.019409e-06	-1.354299e-09	-2.795150e+01	-9.023638e+01
8.900000e-07	-3.987549e-06	-1.342281e-09	-2.772995e+01	-8.996337e+01
9.000000e-07	-3.955447e-06	-1.335206e-09	-2.750670e+01	-8.968246e+01
9.100000e-07	-3.923110e-06	-1.332061e-09	-2.728183e+01	-8.939361e+01
9.200000e-07	-3.890428e-06	-1.329219e-09	-2.705455e+01	-8.909688e+01
9.300000e-07	-3.857274e-06	-1.324301e-09	-2.682400e+01	-8.879235e+01
9.400000e-07	-3.823572e-06	-1.324023e-09	-2.658963e+01	-8.848022e+01
9.500000e-07	-3.789387e-06	-1.320259e-09	-2.635190e+01	-8.816070e+01
9.600000e-07	-3.754789e-06	-1.309830e-09	-2.611130e+01	-8.783408e+01
9.700000e-07	-3.719827e-06	-1.296306e-09	-2.586817e+01	-8.750071e+01
9.800000e-07	-3.684570e-06	-1.287108e-09	-2.562299e+01	-8.716097e+01
9.900000e-07	-3.649093e-06	-1.279906e-09	-2.537628e+01	-8.681528e+01
1.000000e-06	-3.613533e-06	-1.277351e-09	-2.512899e+01	-8.646409e+01
1.010000e-06	-3.577851e-06	-1.276304e-09	-2.488085e+01	-8.610787e+01
1.020000e-06	-3.541973e-06	-1.272126e-09	-2.463136e+01	-8.574712e+01
1.030000e-06	-3.505899e-06	-1.264788e-09	-2.438049e+01	-8.538231e+01
1.040000e-06	-3.469624e-06	-1.258746e-09	-2.412822e+01	-8.501395e+01
1.050000e-06	-3.433087e-06	-1.254471e-09	-2.387414e+01	-8.464251e+01
1.060000e-06	-3.396279e-06	-1.247262e-09	-2.361818e+01	-8.426844e+01
1.070000e-06	-3.359241e-06	-1.239518e-09	-2.336061e+01	-8.389219e+01
1.080000e-06	-3.321952e-06	-1.231381e-09	-2.310129e+01	-8.351414e+01
1.090000e-06	-3.284384e-06	-1.222394e-09	-2.284005e+01	-8.313464e+01
1.100000e-06	-3.246594e-06	-1.211911e-09	-2.257725e+01	-8.275400e+01
1.110000e-06	-3.208614e-06	-1.203043e-09	-2.231313e+01	-8.237246e+01
1.120000e-06	-3.170412e-06	-1.192270e-09	-2.204747e+01	-8.199020e+01
1.130000e-06	-3.131991e-06	-1.181826e-09	-2.178028e+01	-8.160735e+01
1.140000e-06	-3.093308e-06	-1.175291e-09	-2.151128e+01	-8.122395e+01
1.150000e-06	-3.054399e-06	-1.176400e-09	-2.124070e+01	-8.083997e+01
1.160000e-06	-3.015395e-06	-1.176182e-09	-2.096946e+01	-8.045533e+01
1.170000e-06	-2.976264e-06	-1.172767e-09	-2.069734e+01	-8.006984e+01
1.180000e-06	-2.936889e-06	-1.164751e-09	-2.042352e+01	-7.968327e+01
1.190000e-06	-2.897297e-06	-1.156148e-09	-2.014819e+01	-7.929528e+01
1.200000e-06	-2.857607e-06	-1.144062e-09	-1.987218e+01	-7.890548e+01
1.210000e-06	-2.817802e-06	-1.133464e-09	-1.959537e+01	-7.851343e+01
1.220000e-06	-2.777840e-06	-1.127231e-09	-1.931747e+01	-7.811860e+01
1.230000e-06	-2.737727e-06	-1.122935e-09	-1.903852e+01	-7.772040e+01
1.240000e-06	-2.697395e-06	-1.117243e-09	-1.875804e+01	-7.731822e+01
1.250000e-06	-2.656800e-06	-1.111748e-09	-1.847574e+01	-7.691137e+01
1.260000e-06	-2.615959e-06	-1.106893e-09	-1.819172e+01	-7.649916e+01
1.270000e-06	-2.574856e-06	-1.099182e-09	-1.790589e+01	-7.608085e+01
1.280000e-06	-2.533500e-06	-1.087096e-09	-1.761830e+01	-7.565568e+01
1.290000e-06	-2.491987e-06	-1.074649e-09	-1.732961e+01	-7.522290e+01
1.300000e-06	-2.450240e-06	-1.063250e-09	-1.703929e+01	-7.478175e+01
1.310000e-06	-2.408193e-06	-1.053527e-09	-1.674689e+01	-7.433147e+01
1.320000e-06	-2.365778e-06	-1.046196e-09	-1.645193e+01	-7.387135e+01
1.330000e-06	-2.322966e-06	-1.040124e-09	-1.615422e+01	-7.340070e+01
1.340000e-06	-2.279929e-06	-1.035116e-09	-1.585493e+01	-7.291884e+01
1.350000e-06	-2.236748e-06	-1.031003e-09	-1.555464e+01	-7.242519e+01
1.360000e-06	-2.193413e-06	-1.026347e-09	-1.525328e+01	-7.191918e+01
1.370000e-06	-2.149926e-06	-1.017901e-09	-1.495087e+01	-7.140033e+01
1.380000e-06	-2.106347e-06	-1.007092e-09	-1.464782e+01	-7.086821e+01
1.390000e-06	-2.062716e-06	-9.935716e-10	-1.434440e+01	-7.032249e+01
1.400000e-06	-2.019016e-06	-9.792167e-10	-1.404050e+01	-6.976289e+01
1.410000e-06	-1.975166e-06	-9.664469e-10	-1.373557e+01	-6.918921e+01
1.420000e-06	-1.931229e-06	-9.557370e-10	-1.343003e+01	-6.860133e+01
1.430000e-06	-1.887258e-06	-9.460522e-10	-1.312424e+01	-6.799923e+01
1.440000e-06	-1.843161e-06	-9.375779e-10	-1.281759e+01	-6.738293e+01
1.450000e-06	-1.798982e-06	-9.295234e-10	-1.251036e+01	-6.675253e+01
1.460000e-06	-1.754758e-06	-9.218067e-10	-1.220282e+01	-6.610820e+01
1.470000e-06	-1.710377e-06	-9.105731e-10	-1.189419e+01	-6.545015e+01
1.480000e-06	-1.665788e-06	-8.981142e-10	-1.158411e+01	-6.477864e+01
1.490000e-06	-1.620985e-06	-8.865825e-10	-1.127254e+01	-6.409398e+01
1.500000e-06	-1.576007e-06	-8.726059e-10	-1.095976e+01	-6.339646e+01
1.510000e-06	-1.530864e-06	-8.571560e-10	-1.064583e+01	-6.268643e+01
1.520000e-06	-1.485639e-06	-8.476393e-10	-1.033133e+01	-6.196419e+01
1.530000e-06	-1.440473e-06	-8.397609e-10	-1.001724e+01	-6.123004e+01
1.540000e-06	-1.395257e-06	-8.294376e-10	-9.702804e+00	-6.048425e+01
1.550000e-06	-1.349922e-06	-8.175461e-10	-9.387538e+00	-5.972703e+01
1.560000e-06	-1.304436e-06	-8.044046e-10	-9.071222e+00	-5.895851e+01
1.570000e-06	-1.258783e-06	-7.889295e-10	-8.753742e+00	-5.817878e+01
1.580000e-06	-1.213081e-06	-7.749149e-10	-8.435930e+00	-5.738780e+01
1.590000e-06	-1.167353e-06	-7.600554e-10	-8.117927e+00	-5.658543e+01
1.600000e-06	-1.121531e-06	-7.422512e-10	-7.799278e+00	-5.577142e+01
1.610000e-06	-1.075621e-06	-7.273205e-10	-7.480015e+00	-5.494540e+01
1.620000e-06	-1.029677e-06	-7.163063e-10	-7.160509e+00	-5.410685e+01
1.630000e-06	-9.836800e-07	-7.072744e-10	-6.840642e+00	-5.325510e+01
1.640000e-06	-9.376392e-07	-6.977686e-10	-6.520468e+00	-5.238937e+01
1.650000e-06	-8.914303e-07	-6.876145e-10	-6.199125e+00	-5.150869e+01
1.660000e-06	-8.450327e-07	-6.757115e-10	-5.876470e+00	-5.061199e+01
1.670000e-06	-7.986856e-07	-6.617405e-10	-5.554166e+00	-4.969803e+01
1.680000e-06	-7.523649e-07	-6.468082e-10	-5.232046e+00	-4.876544e+01
1.690000e-06	-7.059562e-07	-6.332194e-10	-4.909313e+00	-4.781273e+01
1.700000e-06	-6.594997e-07	-6.168823e-10	-4.586249e+00	-4.683832e+01
1.710000e-06	-6.130263e-07	-5.977578e-10	-4.263067e+00	-4.584050e+01
1.720000e-06	-5.665510e-07	-5.778037e-10	-3.939871e+00	-4.481749e+01
1.730000e-06	-5.200758e-07	-5.594775e-10	-3.616677e+00	-4.376748e+01
1.740000e-06	-4.735178e-07	-5.456866e-10	-3.292906e+00	-4.268857e+01
1.750000e-06	-4.268430e-07	-5.330652e-10	-2.968323e+00	-4.157889e+01
1.760000e-06	-3.801181e-07	-5.174465e-10	-2.643392e+00	-4.043655e+01
1.770000e-06	-3.334454e-07	-4.995065e-10	-2.318824e+00	-3.925972e+01
1.780000e-06	-2.868055e-07	-4.805909e-10	-1.994484e+00	-3.804662e+01
1.790000e-06	-2.400489e-07	-4.626965e-10	-1.669332e+00	-3.679554e+01
1.800000e-06	-1.932116e-07	-4.450419e-10	-1.343619e+00	-3.550492e+01
1.810000e-06	-1.464191e-07	-4.266820e-10	-1.018218e+00	-3.417330e+01
1.820000e-06	-9.965093e-08	-4.077906e-10	-6.929858e-01	-3.279942e+01
1.830000e-06	-5.283854e-08	-3.888391e-10	-3.674462e-01	-3.138218e+01
1.840000e-06	-6.021316e-09	-3.704423e-10	-4.187303e-02	-2.992072e+01
1.850000e-06	4.074650e-08	-3.521405e-10	2.833566e-01	-2.841437e+01
1.860000e-06	8.749549e-08	-3.336438e-10	6.084553e-01	-2.686275e+01
1.870000e-06	1.342981e-07	-3.126258e-10	9.339270e-01	-2.526571e+01
1.880000e-06	1.811083e-07	-2.891051e-10	1.259451e+00	-2.362338e+01
1.890000e-06	2.278593e-07	-2.632081e-10	1.584564e+00	-2.193618e+01
1.900000e-06	2.747006e-07	-2.347549e-10	1.910304e+00	-2.020480e+01
1.910000e-06	3.215888e-07	-2.062589e-10	2.236372e+00	-1.843023e+01
1.920000e-06	3.683162e-07	-1.794385e-10	2.561320e+00	-1.661375e+01
1.930000e-06	4.149206e-07	-1.557804e-10	2.885413e+00	-1.475691e+01
1.940000e-06	4.615856e-07	-1.337077e-10	3.209927e+00	-1.286153e+01
1.950000e-06	5.083400e-07	-1.105878e-10	3.535064e+00	-1.092970e+01
1.960000e-06	5.549738e-07	-8.575881e-11	3.859362e+00	-8.963742e+00
1.970000e-06	6.014686e-07	-5.998100e-11	4.182693e+00	-6.966210e+00
1.980000e-06	6.479254e-07	-3.138969e-11	4.505760e+00	-4.939865e+00
1.990000e-06	6.943234e-07	1.321202e-12	4.828418e+00	-2.887649e+00
2.000000e-06	7.407015e-07	3.429296e-11	5.150937e+00	-8.126615e-01
2.010000e-06	7.869960e-07	6.551608e-11	5.472875e+00	1.281865e+00
2.020000e-06	8.331565e-07	9.593210e-11	5.793881e+00	3.392597e+00
2.030000e-06	8.792891e-07	1.250716e-10	6.114693e+00	5.516122e+00
2.040000e-06	9.254053e-07	1.525785e-10	6.435392e+00	7.648984e+00
2.050000e-06	9.714512e-07	1.805090e-10	6.755601e+00	9.787706e+00
2.060000e-06	1.017419e-06	2.073738e-10	7.075270e+00	1.192882e+01
2.070000e-06	1.063295e-06	2.359477e-10	7.394292e+00	1.406891e+01
2.080000e-06	1.109141e-06	2.649905e-10	7.713116e+00	1.620459e+01
2.090000e-06	1.154929e-06	2.938338e-10	8.031529e+00	1.833259e+01
2.100000e-06	1.200586e-06	3.246564e-10	8.349033e+00	2.044974e+01
2.110000e-06	1.246084e-06	3.552550e-10	8.665433e+00	2.255301e+01
2.120000e-06	1.291514e-06	3.837645e-10	8.981363e+00	2.463949e+01
2.130000e-06	1.336968e-06	4.129824e-10	9.297452e+00	2.670648e+01
2.140000e-06	1.382359e-06	4.424919e-10	9.613107e+00	2.875141e+01
2.150000e-06	1.427645e-06	4.688525e-10	9.928034e+00	3.077192e+01
2.160000e-06	1.472798e-06	4.934452e-10	1.024204e+01	3.276585e+01
2.170000e-06	1.517751e-06	5.181715e-10	1.055464e+01	3.473123e+01
2.180000e-06	1.562527e-06	5.449932e-10	1.086602e+01	3.666629e+01
2.190000e-06	1.607224e-06	5.747289e-10	1.117685e+01	3.856946e+01
2.200000e-06	1.651840e-06	6.067264e-10	1.148711e+01	4.043937e+01
2.210000e-06	1.696323e-06	6.386826e-10	1.179646e+01	4.227486e+01
2.220000e-06	1.740685e-06	6.670766e-10	1.210495e+01	4.407493e+01
2.230000e-06	1.784932e-06	6.903629e-10	1.241266e+01	4.583877e+01
2.240000e-06	1.829086e-06	7.087962e-10	1.271970e+01	4.756575e+01
2.250000e-06	1.873178e-06	7.233898e-10	1.302633e+01	4.925537e+01
2.260000e-06	1.917139e-06	7.390800e-10	1.333204e+01	5.090732e+01
2.270000e-06	1.961020e-06	7.583339e-10	1.363720e+01	5.252137e+01
2.280000e-06	2.004852e-06	7.818478e-10	1.394201e+01	5.409746e+01
2.290000e-06	2.048548e-06	8.079031e-10	1.424588e+01	5.563559e+01
2.300000e-06	2.092155e-06	8.347005e-10	1.454913e+01	5.713591e+01
2.310000e-06	2.135737e-06	8.587182e-10	1.485220e+01	5.859862e+01
2.320000e-06	2.179228e-06	8.774576e-10	1.515464e+01	6.002399e+01
2.330000e-06	2.222547e-06	8.920395e-10	1.545589e+01	6.141236e+01
2.340000e-06	2.265727e-06	9.052883e-10	1.575617e+01	6.276413e+01
2.350000e-06	2.308753e-06	9.210421e-10	1.605537e+01	6.407975e+01
2.360000e-06	2.351586e-06	9.384663e-10	1.635324e+01	6.535967e+01
2.370000e-06	2.394176e-06	9.559962e-10	1.664942e+01	6.660442e+01
2.380000e-06	2.436453e-06	9.749248e-10	1.694342e+01	6.781451e+01
2.390000e-06	2.478418e-06	9.940454e-10	1.723525e+01	6.899050e+01
2.400000e-06	2.520104e-06	1.011591e-09	1.752514e+01	7.013296e+01
2.410000e-06	2.561505e-06	1.027312e-09	1.781305e+01	7.124247e+01
2.420000e-06	2.602612e-06	1.040597e-09	1.809891e+01	7.231964e+01
2.430000e-06	2.643430e-06	1.052850e-09	1.838276e+01	7.336507e+01
2.440000e-06	2.683954e-06	1.065629e-09	1.866457e+01	7.437939e+01
2.450000e-06	2.724212e-06	1.079047e-09	1.894453e+01	7.536324e+01
2.460000e-06	2.764300e-06	1.093841e-09	1.922331e+01	7.631728e+01
2.470000e-06	2.804283e-06	1.108147e-09	1.950136e+01	7.724217e+01
2.480000e-06	2.844143e-06	1.121629e-09	1.977855e+01	7.813859e+01
2.490000e-06	2.883892e-06	1.134651e-09	2.005497e+01	7.900725e+01
2.500000e-06	2.923499e-06	1.145308e-09	2.033040e+01	7.984886e+01
2.510000e-06	2.962911e-06	1.157742e-09	2.060448e+01	8.066416e+01
2.520000e-06	3.002137e-06	1.169216e-09	2.087726e+01	8.145388e+01
2.530000e-06	3.041202e-06	1.181059e-09	2.114892e+01	8.221879e+01
2.540000e-06	3.080066e-06	1.193517e-09	2.141919e+01	8.295965e+01
2.550000e-06	3.118659e-06	1.202267e-09	2.168757e+01	8.367724e+01
2.560000e-06	3.156959e-06	1.207850e-09	2.195391e+01	8.437235e+01
2.570000e-06	3.195058e-06	1.212599e-09	2.221886e+01	8.504576e+01
2.580000e-06	3.232999e-06	1.218265e-09	2.248270e+01	8.569826e+01
2.590000e-06	3.270758e-06	1.224932e-09	2.274529e+01	8.633061e+01
2.600000e-06	3.308317e-06	1.235801e-09	2.300648e+01	8.694358e+01
2.610000e-06	3.345610e-06	1.251061e-09	2.326581e+01	8.753792e+01
2.620000e-06	3.382681e-06	1.268246e-09	2.352361e+01	8.811436e+01
2.630000e-06	3.419510e-06	1.279502e-09	2.377973e+01	8.867358e+01
2.640000e-06	3.456064e-06	1.285170e-09	2.403393e+01	8.921626e+01
2.650000e-06	3.492371e-06	1.289049e-09	2.428641e+01	8.974303e+01
2.660000e-06	3.528418e-06	1.291684e-09	2.453709e+01	9.025447e+01
2.670000e-06	3.564315e-06	1.296272e-09	2.478672e+01	9.075114e+01
2.680000e-06	3.600101e-06	1.304522e-09	2.503558e+01	9.123354e+01
2.690000e-06	3.635786e-06	1.315615e-09	2.528374e+01	9.170211e+01
2.700000e-06	3.671326e-06	1.326666e-09	2.553089e+01	9.215728e+01
2.710000e-06	3.706643e-06	1.334741e-09	2.577649e+01	9.259939e+01
2.720000e-06	3.741767e-06	1.339889e-09	2.602075e+01	9.302877e+01
2.730000e-06	3.776559e-06	1.342399e-09	2.626269e+01	9.344567e+01
2.740000e-06	3.810860e-06	1.345071e-09	2.650123e+01	9.385032e+01
2.750000e-06	3.844662e-06	1.348200e-09	2.673629e+01	9.424292e+01
2.760000e-06	3.878036e-06	1.352811e-09	2.696838e+01	9.462362e+01
2.770000e-06	3.911039e-06	1.360831e-09	2.719788e+01	9.499253e+01
2.780000e-06	3.943591e-06	1.370469e-09	2.742426e+01	9.534978e+01
2.790000e-06	3.975773e-06	1.379715e-09	2.764806e+01	9.569545e+01
2.800000e-06	4.007731e-06	1.388197e-09	2.787029e+01	9.602962e+01
2.810000e-06	4.039492e-06	1.394733e-09	2.809116e+01	9.635237e+01
2.820000e-06	4.071146e-06	1.397658e-09	2.831129e+01	9.666379e+01
2.830000e-06	4.102681e-06	1.399990e-09	2.853059e+01	9.696396e+01
2.840000e-06	4.133941e-06	1.403400e-09	2.874798e+01	9.725300e+01
2.850000e-06	4.164801e-06	1.406681e-09	2.896258e+01	9.753105e+01
2.860000e-06	4.195321e-06	1.411480e-09	2.917482e+01	9.779827e+01
2.870000e-06	4.225559e-06	1.419774e-09	2.938510e+01	9.805486e+01
2.880000e-06	4.255497e-06	1.426222e-09	2.959329e+01	9.830104e+01
2.890000e-06	4.285197e-06	1.428779e-09	2.979983e+01	9.853709e+01
2.900000e-06	4.314688e-06	1.431756e-09	3.000491e+01	9.876331e+01
