# Temperatura_=_7.3
# Concentracion g/m^3_=_1620.0
# C_Vs_to_Am_M_A/Vsm_=_65563218390.804596
# pendiente_HvsI_1/m_=_3716.3
# ordenada_HvsI_A/m_=_1297.0
# frecuencia_Hz_=_135108.11310795663

Tiempo_(s)	Campo_(V.s)	Magnetizacion_(V.s)	Campo_(kA/m)	Magnetizacion_(A/m)
0.000000e+00	-5.519352e-06	-1.623070e-09	-3.837107e+01	-1.062042e+02
1.000000e-08	-5.519562e-06	-1.622966e-09	-3.837253e+01	-1.061388e+02
2.000000e-08	-5.519483e-06	-1.624564e-09	-3.837198e+01	-1.060730e+02
3.000000e-08	-5.518918e-06	-1.624694e-09	-3.836805e+01	-1.060070e+02
4.000000e-08	-5.517855e-06	-1.621380e-09	-3.836065e+01	-1.059409e+02
5.000000e-08	-5.516227e-06	-1.614114e-09	-3.834934e+01	-1.058746e+02
6.000000e-08	-5.513906e-06	-1.611810e-09	-3.833320e+01	-1.058083e+02
7.000000e-08	-5.511039e-06	-1.646645e-09	-3.831327e+01	-1.057418e+02
8.000000e-08	-5.507726e-06	-1.663213e-09	-3.829024e+01	-1.056752e+02
9.000000e-08	-5.503916e-06	-1.594200e-09	-3.826375e+01	-1.056084e+02
1.000000e-07	-5.499711e-06	-1.559579e-09	-3.823452e+01	-1.055413e+02
1.100000e-07	-5.495276e-06	-1.648588e-09	-3.820369e+01	-1.054736e+02
1.200000e-07	-5.490549e-06	-1.659828e-09	-3.817082e+01	-1.054054e+02
1.300000e-07	-5.485510e-06	-1.605154e-09	-3.813579e+01	-1.053365e+02
1.400000e-07	-5.480134e-06	-1.539272e-09	-3.809842e+01	-1.052665e+02
1.500000e-07	-5.474438e-06	-1.665243e-09	-3.805882e+01	-1.051954e+02
1.600000e-07	-5.468357e-06	-1.703819e-09	-3.801654e+01	-1.051229e+02
1.700000e-07	-5.461755e-06	-1.603670e-09	-3.797065e+01	-1.050488e+02
1.800000e-07	-5.454707e-06	-1.526464e-09	-3.792165e+01	-1.049728e+02
1.900000e-07	-5.447353e-06	-1.589998e-09	-3.787052e+01	-1.048948e+02
2.000000e-07	-5.439738e-06	-1.647406e-09	-3.781758e+01	-1.048144e+02
2.100000e-07	-5.431898e-06	-1.610128e-09	-3.776308e+01	-1.047314e+02
2.200000e-07	-5.423881e-06	-1.591123e-09	-3.770734e+01	-1.046456e+02
2.300000e-07	-5.415516e-06	-1.640625e-09	-3.764919e+01	-1.045567e+02
2.400000e-07	-5.406576e-06	-1.682375e-09	-3.758703e+01	-1.044646e+02
2.500000e-07	-5.396960e-06	-1.619653e-09	-3.752018e+01	-1.043689e+02
2.600000e-07	-5.386689e-06	-1.592408e-09	-3.744878e+01	-1.042696e+02
2.700000e-07	-5.375771e-06	-1.595842e-09	-3.737287e+01	-1.041664e+02
2.800000e-07	-5.364370e-06	-1.639204e-09	-3.729362e+01	-1.040591e+02
2.900000e-07	-5.352686e-06	-1.608090e-09	-3.721239e+01	-1.039476e+02
3.000000e-07	-5.340637e-06	-1.599381e-09	-3.712862e+01	-1.038318e+02
3.100000e-07	-5.328145e-06	-1.594360e-09	-3.704178e+01	-1.037115e+02
3.200000e-07	-5.315265e-06	-1.628174e-09	-3.695223e+01	-1.035866e+02
3.300000e-07	-5.302032e-06	-1.580974e-09	-3.686023e+01	-1.034571e+02
3.400000e-07	-5.288373e-06	-1.551683e-09	-3.676527e+01	-1.033228e+02
3.500000e-07	-5.274258e-06	-1.569330e-09	-3.666715e+01	-1.031839e+02
3.600000e-07	-5.259732e-06	-1.609628e-09	-3.656616e+01	-1.030403e+02
3.700000e-07	-5.244536e-06	-1.556938e-09	-3.646051e+01	-1.028919e+02
3.800000e-07	-5.228679e-06	-1.564976e-09	-3.635028e+01	-1.027389e+02
3.900000e-07	-5.212486e-06	-1.607159e-09	-3.623771e+01	-1.025813e+02
4.000000e-07	-5.196009e-06	-1.555994e-09	-3.612315e+01	-1.024191e+02
4.100000e-07	-5.179159e-06	-1.493768e-09	-3.600601e+01	-1.022525e+02
4.200000e-07	-5.161970e-06	-1.575902e-09	-3.588651e+01	-1.020817e+02
4.300000e-07	-5.144485e-06	-1.609206e-09	-3.576495e+01	-1.019067e+02
4.400000e-07	-5.126638e-06	-1.508710e-09	-3.564088e+01	-1.017277e+02
4.500000e-07	-5.108380e-06	-1.534669e-09	-3.551395e+01	-1.015449e+02
4.600000e-07	-5.089723e-06	-1.617462e-09	-3.538424e+01	-1.013586e+02
4.700000e-07	-5.070752e-06	-1.545525e-09	-3.525235e+01	-1.011688e+02
4.800000e-07	-5.051474e-06	-1.488778e-09	-3.511833e+01	-1.009759e+02
4.900000e-07	-5.031946e-06	-1.583313e-09	-3.498257e+01	-1.007801e+02
5.000000e-07	-5.012217e-06	-1.553802e-09	-3.484541e+01	-1.005816e+02
5.100000e-07	-4.992140e-06	-1.472631e-09	-3.470584e+01	-1.003807e+02
5.200000e-07	-4.971695e-06	-1.543383e-09	-3.456370e+01	-1.001777e+02
5.300000e-07	-4.950951e-06	-1.589525e-09	-3.441949e+01	-9.997266e+01
5.400000e-07	-4.929822e-06	-1.479436e-09	-3.427260e+01	-9.976601e+01
5.500000e-07	-4.908363e-06	-1.498979e-09	-3.412341e+01	-9.955793e+01
5.600000e-07	-4.886603e-06	-1.571461e-09	-3.397213e+01	-9.934866e+01
5.700000e-07	-4.864442e-06	-1.509587e-09	-3.381807e+01	-9.913843e+01
5.800000e-07	-4.841911e-06	-1.466716e-09	-3.366143e+01	-9.892743e+01
5.900000e-07	-4.819068e-06	-1.544682e-09	-3.350262e+01	-9.871585e+01
6.000000e-07	-4.795925e-06	-1.516854e-09	-3.334173e+01	-9.850386e+01
6.100000e-07	-4.772561e-06	-1.458700e-09	-3.317930e+01	-9.829159e+01
6.200000e-07	-4.749021e-06	-1.498259e-09	-3.301565e+01	-9.807914e+01
6.300000e-07	-4.725207e-06	-1.516098e-09	-3.285009e+01	-9.786659e+01
6.400000e-07	-4.701102e-06	-1.462699e-09	-3.268251e+01	-9.765397e+01
6.500000e-07	-4.676717e-06	-1.482804e-09	-3.251298e+01	-9.744129e+01
6.600000e-07	-4.651905e-06	-1.506299e-09	-3.234049e+01	-9.722851e+01
6.700000e-07	-4.626431e-06	-1.467766e-09	-3.216339e+01	-9.701555e+01
6.800000e-07	-4.600251e-06	-1.457563e-09	-3.198139e+01	-9.680229e+01
6.900000e-07	-4.573575e-06	-1.483396e-09	-3.179593e+01	-9.658857e+01
7.000000e-07	-4.546421e-06	-1.461686e-09	-3.160716e+01	-9.637418e+01
7.100000e-07	-4.518946e-06	-1.444868e-09	-3.141615e+01	-9.615888e+01
7.200000e-07	-4.491373e-06	-1.466448e-09	-3.122445e+01	-9.594240e+01
7.300000e-07	-4.463649e-06	-1.464693e-09	-3.103172e+01	-9.572440e+01
7.400000e-07	-4.435712e-06	-1.447115e-09	-3.083750e+01	-9.550454e+01
7.500000e-07	-4.407537e-06	-1.449484e-09	-3.064162e+01	-9.528243e+01
7.600000e-07	-4.379059e-06	-1.448733e-09	-3.044364e+01	-9.505768e+01
7.700000e-07	-4.350208e-06	-1.430654e-09	-3.024307e+01	-9.482986e+01
7.800000e-07	-4.321059e-06	-1.432049e-09	-3.004041e+01	-9.459851e+01
7.900000e-07	-4.291608e-06	-1.430772e-09	-2.983567e+01	-9.436321e+01
8.000000e-07	-4.261888e-06	-1.419233e-09	-2.962905e+01	-9.412348e+01
8.100000e-07	-4.232005e-06	-1.414506e-09	-2.942131e+01	-9.387890e+01
8.200000e-07	-4.201791e-06	-1.421688e-09	-2.921126e+01	-9.362901e+01
8.300000e-07	-4.171143e-06	-1.406695e-09	-2.899819e+01	-9.337341e+01
8.400000e-07	-4.140189e-06	-1.400061e-09	-2.878299e+01	-9.311171e+01
8.500000e-07	-4.108994e-06	-1.406726e-09	-2.856612e+01	-9.284354e+01
8.600000e-07	-4.077594e-06	-1.407060e-09	-2.834783e+01	-9.256860e+01
8.700000e-07	-4.046006e-06	-1.392342e-09	-2.812822e+01	-9.228660e+01
8.800000e-07	-4.014269e-06	-1.393975e-09	-2.790758e+01	-9.199732e+01
8.900000e-07	-3.982326e-06	-1.386048e-09	-2.768551e+01	-9.170060e+01
9.000000e-07	-3.950140e-06	-1.369284e-09	-2.746176e+01	-9.139634e+01
9.100000e-07	-3.917667e-06	-1.362911e-09	-2.723600e+01	-9.108448e+01
9.200000e-07	-3.884823e-06	-1.365413e-09	-2.700766e+01	-9.076505e+01
9.300000e-07	-3.851602e-06	-1.351184e-09	-2.677670e+01	-9.043814e+01
9.400000e-07	-3.817844e-06	-1.345322e-09	-2.654202e+01	-9.010390e+01
9.500000e-07	-3.783477e-06	-1.348251e-09	-2.630309e+01	-8.976255e+01
9.600000e-07	-3.748707e-06	-1.338926e-09	-2.606137e+01	-8.941438e+01
9.700000e-07	-3.713616e-06	-1.321626e-09	-2.581741e+01	-8.905973e+01
9.800000e-07	-3.678242e-06	-1.318853e-09	-2.557149e+01	-8.869898e+01
9.900000e-07	-3.642705e-06	-1.313702e-09	-2.532443e+01	-8.833259e+01
1.000000e-06	-3.607024e-06	-1.298659e-09	-2.507638e+01	-8.796103e+01
1.010000e-06	-3.571199e-06	-1.293365e-09	-2.482732e+01	-8.758481e+01
1.020000e-06	-3.535256e-06	-1.294964e-09	-2.457744e+01	-8.720448e+01
1.030000e-06	-3.499175e-06	-1.288313e-09	-2.432660e+01	-8.682058e+01
1.040000e-06	-3.462825e-06	-1.281071e-09	-2.407389e+01	-8.643367e+01
1.050000e-06	-3.426205e-06	-1.281802e-09	-2.381930e+01	-8.604429e+01
1.060000e-06	-3.389331e-06	-1.272315e-09	-2.356296e+01	-8.565297e+01
1.070000e-06	-3.352124e-06	-1.259758e-09	-2.330429e+01	-8.526019e+01
1.080000e-06	-3.314646e-06	-1.253565e-09	-2.304373e+01	-8.486643e+01
1.090000e-06	-3.276986e-06	-1.247175e-09	-2.278192e+01	-8.447207e+01
1.100000e-06	-3.239106e-06	-1.231447e-09	-2.251858e+01	-8.407747e+01
1.110000e-06	-3.200989e-06	-1.222357e-09	-2.225358e+01	-8.368289e+01
1.120000e-06	-3.162701e-06	-1.214009e-09	-2.198740e+01	-8.328854e+01
1.130000e-06	-3.124222e-06	-1.203443e-09	-2.171989e+01	-8.289451e+01
1.140000e-06	-3.085446e-06	-1.195970e-09	-2.145031e+01	-8.250082e+01
1.150000e-06	-3.046475e-06	-1.197742e-09	-2.117939e+01	-8.210741e+01
1.160000e-06	-3.007386e-06	-1.194681e-09	-2.090763e+01	-8.171410e+01
1.170000e-06	-2.968064e-06	-1.189817e-09	-2.063427e+01	-8.132062e+01
1.180000e-06	-2.928530e-06	-1.184490e-09	-2.035942e+01	-8.092661e+01
1.190000e-06	-2.888889e-06	-1.176700e-09	-2.008383e+01	-8.053159e+01
1.200000e-06	-2.849189e-06	-1.162382e-09	-1.980783e+01	-8.013504e+01
1.210000e-06	-2.809398e-06	-1.153857e-09	-1.953121e+01	-7.973630e+01
1.220000e-06	-2.769464e-06	-1.149516e-09	-1.925358e+01	-7.933467e+01
1.230000e-06	-2.729321e-06	-1.144708e-09	-1.897450e+01	-7.892938e+01
1.240000e-06	-2.688980e-06	-1.139147e-09	-1.869405e+01	-7.851959e+01
1.250000e-06	-2.648521e-06	-1.135522e-09	-1.841278e+01	-7.810444e+01
1.260000e-06	-2.607866e-06	-1.129251e-09	-1.813013e+01	-7.768301e+01
1.270000e-06	-2.566855e-06	-1.117922e-09	-1.784502e+01	-7.725438e+01
1.280000e-06	-2.525436e-06	-1.106265e-09	-1.755707e+01	-7.681761e+01
1.290000e-06	-2.483592e-06	-1.096787e-09	-1.726617e+01	-7.637180e+01
1.300000e-06	-2.441383e-06	-1.087068e-09	-1.697273e+01	-7.591604e+01
1.310000e-06	-2.398883e-06	-1.078871e-09	-1.667727e+01	-7.544948e+01
1.320000e-06	-2.356176e-06	-1.074399e-09	-1.638036e+01	-7.497132e+01
1.330000e-06	-2.313313e-06	-1.070070e-09	-1.608237e+01	-7.448080e+01
1.340000e-06	-2.270262e-06	-1.064116e-09	-1.578308e+01	-7.397727e+01
1.350000e-06	-2.227007e-06	-1.058554e-09	-1.548237e+01	-7.346013e+01
1.360000e-06	-2.183564e-06	-1.052548e-09	-1.518034e+01	-7.292889e+01
1.370000e-06	-2.139998e-06	-1.041682e-09	-1.487747e+01	-7.238317e+01
1.380000e-06	-2.096389e-06	-1.031165e-09	-1.457430e+01	-7.182266e+01
1.390000e-06	-2.052717e-06	-1.019769e-09	-1.427069e+01	-7.124719e+01
1.400000e-06	-2.008954e-06	-1.006848e-09	-1.396644e+01	-7.065668e+01
1.410000e-06	-1.965095e-06	-9.935578e-10	-1.366153e+01	-7.005113e+01
1.420000e-06	-1.921174e-06	-9.831107e-10	-1.335618e+01	-6.943069e+01
1.430000e-06	-1.877187e-06	-9.734767e-10	-1.305038e+01	-6.879555e+01
1.440000e-06	-1.833073e-06	-9.653406e-10	-1.274370e+01	-6.814602e+01
1.450000e-06	-1.788810e-06	-9.575575e-10	-1.243598e+01	-6.748246e+01
1.460000e-06	-1.744403e-06	-9.491834e-10	-1.212726e+01	-6.680530e+01
1.470000e-06	-1.699835e-06	-9.372336e-10	-1.181741e+01	-6.611500e+01
1.480000e-06	-1.655132e-06	-9.250490e-10	-1.150664e+01	-6.541207e+01
1.490000e-06	-1.610358e-06	-9.124039e-10	-1.119536e+01	-6.469703e+01
1.500000e-06	-1.565506e-06	-8.975307e-10	-1.088355e+01	-6.397036e+01
1.510000e-06	-1.520516e-06	-8.819971e-10	-1.057077e+01	-6.323256e+01
1.520000e-06	-1.475349e-06	-8.709854e-10	-1.025677e+01	-6.248407e+01
1.530000e-06	-1.430089e-06	-8.592557e-10	-9.942115e+00	-6.172525e+01
1.540000e-06	-1.384733e-06	-8.474467e-10	-9.626795e+00	-6.095640e+01
1.550000e-06	-1.339271e-06	-8.365112e-10	-9.310739e+00	-6.017772e+01
1.560000e-06	-1.293770e-06	-8.254890e-10	-8.994414e+00	-5.938929e+01
1.570000e-06	-1.248157e-06	-8.119119e-10	-8.677307e+00	-5.859107e+01
1.580000e-06	-1.202381e-06	-7.980600e-10	-8.359068e+00	-5.778288e+01
1.590000e-06	-1.156489e-06	-7.826645e-10	-8.040026e+00	-5.696438e+01
1.600000e-06	-1.110561e-06	-7.651141e-10	-7.720728e+00	-5.613508e+01
1.610000e-06	-1.064635e-06	-7.508588e-10	-7.401446e+00	-5.529432e+01
1.620000e-06	-1.018614e-06	-7.391177e-10	-7.081504e+00	-5.444128e+01
1.630000e-06	-9.724990e-07	-7.277396e-10	-6.760907e+00	-5.357496e+01
1.640000e-06	-9.262833e-07	-7.165234e-10	-6.439610e+00	-5.269422e+01
1.650000e-06	-8.800098e-07	-7.058580e-10	-6.117913e+00	-5.179773e+01
1.660000e-06	-8.337868e-07	-6.942977e-10	-5.796566e+00	-5.088403e+01
1.670000e-06	-7.875235e-07	-6.810836e-10	-5.474939e+00	-4.995153e+01
1.680000e-06	-7.411162e-07	-6.636343e-10	-5.152311e+00	-4.899849e+01
1.690000e-06	-6.946959e-07	-6.452375e-10	-4.829593e+00	-4.802310e+01
1.700000e-06	-6.482151e-07	-6.234776e-10	-4.506453e+00	-4.702344e+01
1.710000e-06	-6.015755e-07	-6.012047e-10	-4.182210e+00	-4.599753e+01
1.720000e-06	-5.549162e-07	-5.814374e-10	-3.857831e+00	-4.494335e+01
1.730000e-06	-5.082550e-07	-5.652845e-10	-3.533438e+00	-4.385887e+01
1.740000e-06	-4.615516e-07	-5.522265e-10	-3.208751e+00	-4.274207e+01
1.750000e-06	-4.148393e-07	-5.388308e-10	-2.884003e+00	-4.159095e+01
1.760000e-06	-3.681085e-07	-5.208366e-10	-2.559125e+00	-4.040361e+01
1.770000e-06	-3.212900e-07	-4.996300e-10	-2.233639e+00	-3.917821e+01
1.780000e-06	-2.744124e-07	-4.780237e-10	-1.907741e+00	-3.791304e+01
1.790000e-06	-2.275827e-07	-4.576041e-10	-1.582177e+00	-3.660653e+01
1.800000e-06	-1.807904e-07	-4.384069e-10	-1.256872e+00	-3.525729e+01
1.810000e-06	-1.339576e-07	-4.209842e-10	-9.312864e-01	-3.386412e+01
1.820000e-06	-8.712513e-08	-4.041977e-10	-6.057022e-01	-3.242602e+01
1.830000e-06	-4.034879e-08	-3.853913e-10	-2.805087e-01	-3.094223e+01
1.840000e-06	6.365363e-09	-3.638190e-10	4.425261e-02	-2.941224e+01
1.850000e-06	5.319940e-08	-3.421030e-10	3.698473e-01	-2.783581e+01
1.860000e-06	1.001491e-07	-3.220243e-10	6.962460e-01	-2.621296e+01
1.870000e-06	1.470329e-07	-3.003653e-10	1.022187e+00	-2.454399e+01
1.880000e-06	1.938480e-07	-2.763568e-10	1.347650e+00	-2.282949e+01
1.890000e-06	2.406412e-07	-2.506735e-10	1.672961e+00	-2.107033e+01
1.900000e-06	2.874197e-07	-2.232147e-10	1.998169e+00	-1.926768e+01
1.910000e-06	3.341994e-07	-1.944620e-10	2.323386e+00	-1.742296e+01
1.920000e-06	3.809910e-07	-1.663707e-10	2.648686e+00	-1.553788e+01
1.930000e-06	4.277506e-07	-1.413905e-10	2.973763e+00	-1.361440e+01
1.940000e-06	4.744173e-07	-1.185447e-10	3.298195e+00	-1.165472e+01
1.950000e-06	5.210144e-07	-9.462479e-11	3.622142e+00	-9.661285e+00
1.960000e-06	5.675957e-07	-6.946843e-11	3.945980e+00	-7.636720e+00
1.970000e-06	6.141281e-07	-4.285938e-11	4.269477e+00	-5.583853e+00
1.980000e-06	6.606315e-07	-1.481617e-11	4.592773e+00	-3.505674e+00
1.990000e-06	7.070608e-07	1.602844e-11	4.915555e+00	-1.405307e+00
2.000000e-06	7.534082e-07	4.794887e-11	5.237766e+00	7.140070e-01
2.010000e-06	7.997808e-07	7.892618e-11	5.560153e+00	2.848940e+00
2.020000e-06	8.460966e-07	1.111229e-10	5.882145e+00	4.996103e+00
2.030000e-06	8.922342e-07	1.445288e-10	6.202898e+00	7.152072e+00
2.040000e-06	9.383147e-07	1.751140e-10	6.523254e+00	9.313417e+00
2.050000e-06	9.844145e-07	2.009937e-10	6.843744e+00	1.147672e+01
2.060000e-06	1.030455e-06	2.241285e-10	7.163822e+00	1.363861e+01
2.070000e-06	1.076370e-06	2.483356e-10	7.483026e+00	1.579577e+01
2.080000e-06	1.122194e-06	2.756190e-10	7.801597e+00	1.794499e+01
2.090000e-06	1.167938e-06	3.074568e-10	8.119620e+00	2.008314e+01
2.100000e-06	1.213558e-06	3.444503e-10	8.436770e+00	2.220724e+01
2.110000e-06	1.259103e-06	3.799654e-10	8.753407e+00	2.431443e+01
2.120000e-06	1.304652e-06	4.122094e-10	9.070068e+00	2.640202e+01
2.130000e-06	1.350115e-06	4.396622e-10	9.386132e+00	2.846748e+01
2.140000e-06	1.395448e-06	4.628590e-10	9.701290e+00	3.050847e+01
2.150000e-06	1.440684e-06	4.842388e-10	1.001577e+01	3.252281e+01
2.160000e-06	1.485824e-06	5.069614e-10	1.032959e+01	3.450853e+01
2.170000e-06	1.530852e-06	5.335452e-10	1.064263e+01	3.646386e+01
2.180000e-06	1.575769e-06	5.632457e-10	1.095490e+01	3.838719e+01
2.190000e-06	1.620601e-06	5.955942e-10	1.126657e+01	4.027713e+01
2.200000e-06	1.665292e-06	6.266288e-10	1.157727e+01	4.213248e+01
2.210000e-06	1.709811e-06	6.539897e-10	1.188677e+01	4.395223e+01
2.220000e-06	1.754196e-06	6.754666e-10	1.219534e+01	4.573552e+01
2.230000e-06	1.798481e-06	6.949782e-10	1.250322e+01	4.748170e+01
2.240000e-06	1.842645e-06	7.123035e-10	1.281025e+01	4.919027e+01
2.250000e-06	1.886699e-06	7.293301e-10	1.311651e+01	5.086088e+01
2.260000e-06	1.930674e-06	7.511800e-10	1.342223e+01	5.249332e+01
2.270000e-06	1.974581e-06	7.763619e-10	1.372748e+01	5.408755e+01
2.280000e-06	2.018398e-06	8.016135e-10	1.403210e+01	5.564360e+01
2.290000e-06	2.062092e-06	8.251051e-10	1.433586e+01	5.716167e+01
2.300000e-06	2.105703e-06	8.460323e-10	1.463905e+01	5.864201e+01
2.310000e-06	2.149251e-06	8.654449e-10	1.494180e+01	6.008500e+01
2.320000e-06	2.192692e-06	8.824029e-10	1.524381e+01	6.149107e+01
2.330000e-06	2.235999e-06	8.992917e-10	1.554488e+01	6.286075e+01
2.340000e-06	2.279133e-06	9.181999e-10	1.584475e+01	6.419460e+01
2.350000e-06	2.322074e-06	9.391940e-10	1.614328e+01	6.549326e+01
2.360000e-06	2.364873e-06	9.591690e-10	1.644082e+01	6.675738e+01
2.370000e-06	2.407441e-06	9.772547e-10	1.673676e+01	6.798766e+01
2.380000e-06	2.449619e-06	9.932811e-10	1.702998e+01	6.918484e+01
2.390000e-06	2.491469e-06	1.006520e-09	1.732093e+01	7.034964e+01
2.400000e-06	2.533038e-06	1.020234e-09	1.760992e+01	7.148284e+01
2.410000e-06	2.574305e-06	1.035071e-09	1.789681e+01	7.258520e+01
2.420000e-06	2.615305e-06	1.051134e-09	1.818185e+01	7.365748e+01
2.430000e-06	2.656048e-06	1.066461e-09	1.846510e+01	7.470046e+01
2.440000e-06	2.696548e-06	1.082150e-09	1.874666e+01	7.571488e+01
2.450000e-06	2.736920e-06	1.098173e-09	1.902733e+01	7.670152e+01
2.460000e-06	2.777102e-06	1.111560e-09	1.930668e+01	7.766111e+01
2.470000e-06	2.817024e-06	1.121625e-09	1.958422e+01	7.859439e+01
2.480000e-06	2.856803e-06	1.132087e-09	1.986077e+01	7.950208e+01
2.490000e-06	2.896449e-06	1.142523e-09	2.013639e+01	8.038487e+01
2.500000e-06	2.935963e-06	1.154355e-09	2.041110e+01	8.124346e+01
2.510000e-06	2.975343e-06	1.170637e-09	2.068487e+01	8.207851e+01
2.520000e-06	3.014522e-06	1.185676e-09	2.095724e+01	8.289067e+01
2.530000e-06	3.053475e-06	1.199751e-09	2.122805e+01	8.368056e+01
2.540000e-06	3.092259e-06	1.213458e-09	2.149768e+01	8.444881e+01
2.550000e-06	3.130791e-06	1.221938e-09	2.176556e+01	8.519598e+01
2.560000e-06	3.169058e-06	1.225508e-09	2.203160e+01	8.592266e+01
2.570000e-06	3.207112e-06	1.227682e-09	2.229615e+01	8.662937e+01
2.580000e-06	3.244948e-06	1.232563e-09	2.255919e+01	8.731665e+01
2.590000e-06	3.282628e-06	1.240800e-09	2.282115e+01	8.798499e+01
2.600000e-06	3.320106e-06	1.254679e-09	2.308170e+01	8.863486e+01
2.610000e-06	3.357284e-06	1.271251e-09	2.334016e+01	8.926672e+01
2.620000e-06	3.394232e-06	1.286442e-09	2.359702e+01	8.988099e+01
2.630000e-06	3.430986e-06	1.296310e-09	2.385255e+01	9.047807e+01
2.640000e-06	3.467494e-06	1.300691e-09	2.410635e+01	9.105836e+01
2.650000e-06	3.503762e-06	1.303413e-09	2.435849e+01	9.162219e+01
2.660000e-06	3.539866e-06	1.305130e-09	2.460949e+01	9.216992e+01
2.670000e-06	3.575824e-06	1.308041e-09	2.485947e+01	9.270184e+01
2.680000e-06	3.611578e-06	1.316471e-09	2.510804e+01	9.321826e+01
2.690000e-06	3.647163e-06	1.329585e-09	2.535543e+01	9.371944e+01
2.700000e-06	3.682597e-06	1.341105e-09	2.560177e+01	9.420564e+01
2.710000e-06	3.717840e-06	1.347565e-09	2.584678e+01	9.467708e+01
2.720000e-06	3.752801e-06	1.351418e-09	2.608983e+01	9.513400e+01
2.730000e-06	3.787379e-06	1.353410e-09	2.633022e+01	9.557659e+01
2.740000e-06	3.821539e-06	1.354176e-09	2.656770e+01	9.600506e+01
2.750000e-06	3.855291e-06	1.356542e-09	2.680235e+01	9.641958e+01
2.760000e-06	3.888598e-06	1.361779e-09	2.703391e+01	9.682035e+01
2.770000e-06	3.921415e-06	1.369293e-09	2.726205e+01	9.720753e+01
2.780000e-06	3.953860e-06	1.377971e-09	2.748762e+01	9.758130e+01
2.790000e-06	3.986061e-06	1.386587e-09	2.771148e+01	9.794184e+01
2.800000e-06	4.018006e-06	1.392362e-09	2.793357e+01	9.828933e+01
2.810000e-06	4.049678e-06	1.396197e-09	2.815375e+01	9.862395e+01
2.820000e-06	4.081166e-06	1.401168e-09	2.837266e+01	9.894591e+01
2.830000e-06	4.112481e-06	1.406177e-09	2.859036e+01	9.925541e+01
2.840000e-06	4.143544e-06	1.409334e-09	2.880631e+01	9.955268e+01
2.850000e-06	4.174386e-06	1.414957e-09	2.902073e+01	9.983796e+01
2.860000e-06	4.204949e-06	1.422256e-09	2.923321e+01	1.001115e+02
2.870000e-06	4.235179e-06	1.428311e-09	2.944337e+01	1.003736e+02
2.880000e-06	4.265116e-06	1.431193e-09	2.965150e+01	1.006245e+02
2.890000e-06	4.294771e-06	1.434476e-09	2.985766e+01	1.008646e+02
2.900000e-06	4.324135e-06	1.440662e-09	3.006180e+01	1.010942e+02
