# Temperatura_=_13.6
# Concentracion g/m^3_=_1620.0
# C_Vs_to_Am_M_A/Vsm_=_65563218390.804596
# pendiente_HvsI_1/m_=_3716.3
# ordenada_HvsI_A/m_=_1297.0
# frecuencia_Hz_=_135106.48718932207

Tiempo_(s)	Campo_(V.s)	Magnetizacion_(V.s)	Campo_(kA/m)	Magnetizacion_(A/m)
0.000000e+00	-5.532248e-06	-1.835532e-09	-3.837486e+01	-1.185847e+02
1.000000e-08	-5.532405e-06	-1.839546e-09	-3.837595e+01	-1.185576e+02
2.000000e-08	-5.532267e-06	-1.843082e-09	-3.837499e+01	-1.185284e+02
3.000000e-08	-5.531807e-06	-1.841037e-09	-3.837180e+01	-1.184969e+02
4.000000e-08	-5.530743e-06	-1.835105e-09	-3.836442e+01	-1.184628e+02
5.000000e-08	-5.529009e-06	-1.830397e-09	-3.835239e+01	-1.184260e+02
6.000000e-08	-5.526736e-06	-1.834565e-09	-3.833663e+01	-1.183862e+02
7.000000e-08	-5.523964e-06	-1.843064e-09	-3.831740e+01	-1.183432e+02
8.000000e-08	-5.520716e-06	-1.834268e-09	-3.829486e+01	-1.182968e+02
9.000000e-08	-5.517015e-06	-1.816952e-09	-3.826919e+01	-1.182469e+02
1.000000e-07	-5.512927e-06	-1.834815e-09	-3.824084e+01	-1.181933e+02
1.100000e-07	-5.508500e-06	-1.856412e-09	-3.821013e+01	-1.181359e+02
1.200000e-07	-5.503839e-06	-1.854494e-09	-3.817780e+01	-1.180746e+02
1.300000e-07	-5.498917e-06	-1.817115e-09	-3.814365e+01	-1.180093e+02
1.400000e-07	-5.493594e-06	-1.803804e-09	-3.810673e+01	-1.179400e+02
1.500000e-07	-5.487875e-06	-1.832915e-09	-3.806706e+01	-1.178666e+02
1.600000e-07	-5.481834e-06	-1.844095e-09	-3.802516e+01	-1.177891e+02
1.700000e-07	-5.475404e-06	-1.805421e-09	-3.798055e+01	-1.177076e+02
1.800000e-07	-5.468541e-06	-1.779199e-09	-3.793295e+01	-1.176220e+02
1.900000e-07	-5.461327e-06	-1.810286e-09	-3.788291e+01	-1.175325e+02
2.000000e-07	-5.453809e-06	-1.845227e-09	-3.783076e+01	-1.174391e+02
2.100000e-07	-5.446061e-06	-1.830676e-09	-3.777702e+01	-1.173417e+02
2.200000e-07	-5.438096e-06	-1.813837e-09	-3.772177e+01	-1.172406e+02
2.300000e-07	-5.429742e-06	-1.819592e-09	-3.766382e+01	-1.171358e+02
2.400000e-07	-5.420813e-06	-1.821303e-09	-3.760188e+01	-1.170272e+02
2.500000e-07	-5.411220e-06	-1.805711e-09	-3.753533e+01	-1.169151e+02
2.600000e-07	-5.400904e-06	-1.795346e-09	-3.746378e+01	-1.167994e+02
2.700000e-07	-5.390014e-06	-1.791259e-09	-3.738824e+01	-1.166801e+02
2.800000e-07	-5.378682e-06	-1.791072e-09	-3.730963e+01	-1.165572e+02
2.900000e-07	-5.366944e-06	-1.792331e-09	-3.722822e+01	-1.164308e+02
3.000000e-07	-5.354851e-06	-1.776388e-09	-3.714433e+01	-1.163008e+02
3.100000e-07	-5.342390e-06	-1.767435e-09	-3.705789e+01	-1.161672e+02
3.200000e-07	-5.329504e-06	-1.765306e-09	-3.696850e+01	-1.160299e+02
3.300000e-07	-5.316174e-06	-1.760778e-09	-3.687604e+01	-1.158888e+02
3.400000e-07	-5.302489e-06	-1.747041e-09	-3.678112e+01	-1.157438e+02
3.500000e-07	-5.288404e-06	-1.754722e-09	-3.668341e+01	-1.155947e+02
3.600000e-07	-5.273756e-06	-1.760966e-09	-3.658181e+01	-1.154415e+02
3.700000e-07	-5.258649e-06	-1.758671e-09	-3.647702e+01	-1.152840e+02
3.800000e-07	-5.243197e-06	-1.757225e-09	-3.636983e+01	-1.151221e+02
3.900000e-07	-5.227134e-06	-1.752920e-09	-3.625841e+01	-1.149555e+02
4.000000e-07	-5.210524e-06	-1.730429e-09	-3.614319e+01	-1.147842e+02
4.100000e-07	-5.193659e-06	-1.725742e-09	-3.602621e+01	-1.146080e+02
4.200000e-07	-5.176540e-06	-1.748317e-09	-3.590746e+01	-1.144267e+02
4.300000e-07	-5.159124e-06	-1.753010e-09	-3.578666e+01	-1.142403e+02
4.400000e-07	-5.141367e-06	-1.733082e-09	-3.566348e+01	-1.140486e+02
4.500000e-07	-5.123210e-06	-1.738848e-09	-3.553753e+01	-1.138516e+02
4.600000e-07	-5.104593e-06	-1.748802e-09	-3.540840e+01	-1.136492e+02
4.700000e-07	-5.085580e-06	-1.731939e-09	-3.527651e+01	-1.134415e+02
4.800000e-07	-5.066235e-06	-1.720589e-09	-3.514232e+01	-1.132283e+02
4.900000e-07	-5.046618e-06	-1.727342e-09	-3.500625e+01	-1.130098e+02
5.000000e-07	-5.026870e-06	-1.715178e-09	-3.486927e+01	-1.127860e+02
5.100000e-07	-5.006945e-06	-1.701354e-09	-3.473105e+01	-1.125571e+02
5.200000e-07	-4.986701e-06	-1.707938e-09	-3.459063e+01	-1.123231e+02
5.300000e-07	-4.966027e-06	-1.710865e-09	-3.444722e+01	-1.120843e+02
5.400000e-07	-4.944949e-06	-1.699271e-09	-3.430102e+01	-1.118409e+02
5.500000e-07	-4.923515e-06	-1.698220e-09	-3.415234e+01	-1.115931e+02
5.600000e-07	-4.901685e-06	-1.703219e-09	-3.400091e+01	-1.113411e+02
5.700000e-07	-4.879640e-06	-1.699500e-09	-3.384799e+01	-1.110852e+02
5.800000e-07	-4.857315e-06	-1.691191e-09	-3.369313e+01	-1.108257e+02
5.900000e-07	-4.834537e-06	-1.680685e-09	-3.353513e+01	-1.105629e+02
6.000000e-07	-4.811441e-06	-1.672698e-09	-3.337492e+01	-1.102971e+02
6.100000e-07	-4.788123e-06	-1.662947e-09	-3.321318e+01	-1.100284e+02
6.200000e-07	-4.764534e-06	-1.653394e-09	-3.304955e+01	-1.097574e+02
6.300000e-07	-4.740701e-06	-1.654135e-09	-3.288423e+01	-1.094840e+02
6.400000e-07	-4.716644e-06	-1.663577e-09	-3.271736e+01	-1.092087e+02
6.500000e-07	-4.692115e-06	-1.658412e-09	-3.254721e+01	-1.089315e+02
6.600000e-07	-4.667008e-06	-1.648244e-09	-3.237305e+01	-1.086527e+02
6.700000e-07	-4.641479e-06	-1.643755e-09	-3.219597e+01	-1.083724e+02
6.800000e-07	-4.615547e-06	-1.631174e-09	-3.201609e+01	-1.080907e+02
6.900000e-07	-4.589088e-06	-1.615234e-09	-3.183256e+01	-1.078075e+02
7.000000e-07	-4.562139e-06	-1.616338e-09	-3.164562e+01	-1.075229e+02
7.100000e-07	-4.534784e-06	-1.616002e-09	-3.145588e+01	-1.072369e+02
7.200000e-07	-4.507191e-06	-1.607888e-09	-3.126447e+01	-1.069492e+02
7.300000e-07	-4.479502e-06	-1.609597e-09	-3.107240e+01	-1.066598e+02
7.400000e-07	-4.451601e-06	-1.613497e-09	-3.087887e+01	-1.063684e+02
7.500000e-07	-4.423450e-06	-1.594735e-09	-3.068359e+01	-1.060748e+02
7.600000e-07	-4.394979e-06	-1.582843e-09	-3.048610e+01	-1.057787e+02
7.700000e-07	-4.366092e-06	-1.586224e-09	-3.028573e+01	-1.054798e+02
7.800000e-07	-4.336844e-06	-1.579468e-09	-3.008285e+01	-1.051776e+02
7.900000e-07	-4.307339e-06	-1.568299e-09	-2.987819e+01	-1.048718e+02
8.000000e-07	-4.277560e-06	-1.570742e-09	-2.967162e+01	-1.045620e+02
8.100000e-07	-4.247486e-06	-1.567357e-09	-2.946301e+01	-1.042478e+02
8.200000e-07	-4.217132e-06	-1.552692e-09	-2.925246e+01	-1.039287e+02
8.300000e-07	-4.186471e-06	-1.547841e-09	-2.903977e+01	-1.036043e+02
8.400000e-07	-4.155513e-06	-1.547209e-09	-2.882503e+01	-1.032742e+02
8.500000e-07	-4.124246e-06	-1.542620e-09	-2.860815e+01	-1.029379e+02
8.600000e-07	-4.092734e-06	-1.543252e-09	-2.838956e+01	-1.025952e+02
8.700000e-07	-4.061105e-06	-1.544075e-09	-2.817016e+01	-1.022456e+02
8.800000e-07	-4.029390e-06	-1.533194e-09	-2.795017e+01	-1.018889e+02
8.900000e-07	-3.997494e-06	-1.520744e-09	-2.772892e+01	-1.015248e+02
9.000000e-07	-3.965332e-06	-1.513704e-09	-2.750583e+01	-1.011530e+02
9.100000e-07	-3.932826e-06	-1.503661e-09	-2.728035e+01	-1.007735e+02
9.200000e-07	-3.899894e-06	-1.494042e-09	-2.705191e+01	-1.003861e+02
9.300000e-07	-3.866548e-06	-1.492874e-09	-2.682061e+01	-9.999074e+01
9.400000e-07	-3.832784e-06	-1.489969e-09	-2.658640e+01	-9.958747e+01
9.500000e-07	-3.798506e-06	-1.483970e-09	-2.634862e+01	-9.917634e+01
9.600000e-07	-3.763776e-06	-1.477818e-09	-2.610772e+01	-9.875748e+01
9.700000e-07	-3.728688e-06	-1.469018e-09	-2.586433e+01	-9.833107e+01
9.800000e-07	-3.693324e-06	-1.455309e-09	-2.561902e+01	-9.789736e+01
9.900000e-07	-3.657764e-06	-1.446725e-09	-2.537236e+01	-9.745661e+01
1.000000e-06	-3.622072e-06	-1.440935e-09	-2.512477e+01	-9.700915e+01
1.010000e-06	-3.586273e-06	-1.429883e-09	-2.487645e+01	-9.655533e+01
1.020000e-06	-3.550326e-06	-1.421261e-09	-2.462710e+01	-9.609555e+01
1.030000e-06	-3.514214e-06	-1.418824e-09	-2.437661e+01	-9.563021e+01
1.040000e-06	-3.477919e-06	-1.412852e-09	-2.412485e+01	-9.515972e+01
1.050000e-06	-3.441409e-06	-1.405958e-09	-2.387159e+01	-9.468450e+01
1.060000e-06	-3.404620e-06	-1.400573e-09	-2.361641e+01	-9.420498e+01
1.070000e-06	-3.367462e-06	-1.391653e-09	-2.335865e+01	-9.372155e+01
1.080000e-06	-3.330015e-06	-1.380540e-09	-2.309890e+01	-9.323459e+01
1.090000e-06	-3.292357e-06	-1.371993e-09	-2.283768e+01	-9.274444e+01
1.100000e-06	-3.254488e-06	-1.362825e-09	-2.257500e+01	-9.225142e+01
1.110000e-06	-3.216386e-06	-1.350349e-09	-2.231070e+01	-9.175579e+01
1.120000e-06	-3.178119e-06	-1.338206e-09	-2.204526e+01	-9.125775e+01
1.130000e-06	-3.139690e-06	-1.330216e-09	-2.177870e+01	-9.075746e+01
1.140000e-06	-3.100992e-06	-1.321960e-09	-2.151027e+01	-9.025500e+01
1.150000e-06	-3.062069e-06	-1.317305e-09	-2.124027e+01	-8.975039e+01
1.160000e-06	-3.022899e-06	-1.314442e-09	-2.096857e+01	-8.924357e+01
1.170000e-06	-2.983495e-06	-1.304705e-09	-2.069524e+01	-8.873442e+01
1.180000e-06	-2.943915e-06	-1.291627e-09	-2.042069e+01	-8.822274e+01
1.190000e-06	-2.904249e-06	-1.281492e-09	-2.014554e+01	-8.770826e+01
1.200000e-06	-2.864487e-06	-1.269798e-09	-1.986973e+01	-8.719064e+01
1.210000e-06	-2.824552e-06	-1.255097e-09	-1.959272e+01	-8.666947e+01
1.220000e-06	-2.784473e-06	-1.244583e-09	-1.931471e+01	-8.614429e+01
1.230000e-06	-2.744205e-06	-1.238160e-09	-1.903539e+01	-8.561456e+01
1.240000e-06	-2.703741e-06	-1.230899e-09	-1.875470e+01	-8.507972e+01
1.250000e-06	-2.663156e-06	-1.222604e-09	-1.847318e+01	-8.453915e+01
1.260000e-06	-2.622354e-06	-1.216565e-09	-1.819016e+01	-8.399218e+01
1.270000e-06	-2.581258e-06	-1.207672e-09	-1.790509e+01	-8.343814e+01
1.280000e-06	-2.539793e-06	-1.194369e-09	-1.761747e+01	-8.287633e+01
1.290000e-06	-2.497947e-06	-1.181952e-09	-1.732720e+01	-8.230604e+01
1.300000e-06	-2.455841e-06	-1.170199e-09	-1.703513e+01	-8.172657e+01
1.310000e-06	-2.413399e-06	-1.155485e-09	-1.674073e+01	-8.113721e+01
1.320000e-06	-2.370653e-06	-1.141582e-09	-1.644422e+01	-8.053728e+01
1.330000e-06	-2.327647e-06	-1.131731e-09	-1.614590e+01	-7.992614e+01
1.340000e-06	-2.284396e-06	-1.124352e-09	-1.584588e+01	-7.930317e+01
1.350000e-06	-2.241074e-06	-1.118116e-09	-1.554538e+01	-7.866780e+01
1.360000e-06	-2.197641e-06	-1.112626e-09	-1.524411e+01	-7.801950e+01
1.370000e-06	-2.154069e-06	-1.103164e-09	-1.494187e+01	-7.735780e+01
1.380000e-06	-2.110417e-06	-1.090059e-09	-1.463907e+01	-7.668230e+01
1.390000e-06	-2.066704e-06	-1.075747e-09	-1.433585e+01	-7.599264e+01
1.400000e-06	-2.022929e-06	-1.061059e-09	-1.403220e+01	-7.528855e+01
1.410000e-06	-1.979063e-06	-1.045152e-09	-1.372792e+01	-7.456981e+01
1.420000e-06	-1.935107e-06	-1.030948e-09	-1.342301e+01	-7.383625e+01
1.430000e-06	-1.891017e-06	-1.020084e-09	-1.311718e+01	-7.308780e+01
1.440000e-06	-1.846811e-06	-1.010616e-09	-1.281054e+01	-7.232441e+01
1.450000e-06	-1.802512e-06	-1.001898e-09	-1.250326e+01	-7.154610e+01
1.460000e-06	-1.758083e-06	-9.922480e-10	-1.219507e+01	-7.075294e+01
1.470000e-06	-1.713529e-06	-9.774918e-10	-1.188602e+01	-6.994502e+01
1.480000e-06	-1.668824e-06	-9.598930e-10	-1.157592e+01	-6.912249e+01
1.490000e-06	-1.623947e-06	-9.436741e-10	-1.126463e+01	-6.828550e+01
1.500000e-06	-1.578938e-06	-9.270852e-10	-1.095242e+01	-6.743421e+01
1.510000e-06	-1.533798e-06	-9.093148e-10	-1.063931e+01	-6.656878e+01
1.520000e-06	-1.488506e-06	-8.934206e-10	-1.032513e+01	-6.568938e+01
1.530000e-06	-1.443071e-06	-8.806213e-10	-1.000997e+01	-6.479611e+01
1.540000e-06	-1.397544e-06	-8.689127e-10	-9.694171e+00	-6.388909e+01
1.550000e-06	-1.351979e-06	-8.575973e-10	-9.378101e+00	-6.296834e+01
1.560000e-06	-1.306363e-06	-8.445212e-10	-9.061687e+00	-6.203385e+01
1.570000e-06	-1.260645e-06	-8.280263e-10	-8.744562e+00	-6.108554e+01
1.580000e-06	-1.214843e-06	-8.110436e-10	-8.426852e+00	-6.012323e+01
1.590000e-06	-1.169020e-06	-7.950819e-10	-8.108998e+00	-5.914668e+01
1.600000e-06	-1.123135e-06	-7.775420e-10	-7.790713e+00	-5.815551e+01
1.610000e-06	-1.077214e-06	-7.602864e-10	-7.472177e+00	-5.714929e+01
1.620000e-06	-1.031161e-06	-7.455771e-10	-7.152723e+00	-5.612742e+01
1.630000e-06	-9.849332e-07	-7.329012e-10	-6.832063e+00	-5.508924e+01
1.640000e-06	-9.387291e-07	-7.196125e-10	-6.511566e+00	-5.403396e+01
1.650000e-06	-8.925490e-07	-7.055789e-10	-6.191234e+00	-5.296065e+01
1.660000e-06	-8.462665e-07	-6.923441e-10	-5.870192e+00	-5.186830e+01
1.670000e-06	-7.998481e-07	-6.763823e-10	-5.548207e+00	-5.075578e+01
1.680000e-06	-7.533173e-07	-6.566072e-10	-5.225442e+00	-4.962188e+01
1.690000e-06	-7.067129e-07	-6.365192e-10	-4.902168e+00	-4.846527e+01
1.700000e-06	-6.601138e-07	-6.144020e-10	-4.578929e+00	-4.728454e+01
1.710000e-06	-6.134729e-07	-5.913174e-10	-4.255401e+00	-4.607825e+01
1.720000e-06	-5.668278e-07	-5.695439e-10	-3.931844e+00	-4.484487e+01
1.730000e-06	-5.202444e-07	-5.505759e-10	-3.608715e+00	-4.358284e+01
1.740000e-06	-4.736495e-07	-5.344918e-10	-3.285505e+00	-4.229058e+01
1.750000e-06	-4.269843e-07	-5.183000e-10	-2.961809e+00	-4.096653e+01
1.760000e-06	-3.802052e-07	-4.979435e-10	-2.637322e+00	-3.960912e+01
1.770000e-06	-3.332931e-07	-4.734197e-10	-2.311913e+00	-3.821685e+01
1.780000e-06	-2.863091e-07	-4.487900e-10	-1.986005e+00	-3.678825e+01
1.790000e-06	-2.393336e-07	-4.271619e-10	-1.660156e+00	-3.532195e+01
1.800000e-06	-1.924155e-07	-4.066521e-10	-1.334705e+00	-3.381671e+01
1.810000e-06	-1.455431e-07	-3.859086e-10	-1.009571e+00	-3.227137e+01
1.820000e-06	-9.866228e-08	-3.661146e-10	-6.843784e-01	-3.068495e+01
1.830000e-06	-5.177447e-08	-3.448274e-10	-3.591375e-01	-2.905663e+01
1.840000e-06	-4.941651e-09	-3.212483e-10	-3.427814e-02	-2.738578e+01
1.850000e-06	4.189274e-08	-2.972623e-10	2.905921e-01	-2.567196e+01
1.860000e-06	8.878103e-08	-2.735484e-10	6.158364e-01	-2.391498e+01
1.870000e-06	1.356470e-07	-2.479767e-10	9.409259e-01	-2.211486e+01
1.880000e-06	1.825483e-07	-2.223538e-10	1.266260e+00	-2.027185e+01
1.890000e-06	2.293781e-07	-1.985765e-10	1.591099e+00	-1.838650e+01
1.900000e-06	2.761545e-07	-1.739646e-10	1.915566e+00	-1.645956e+01
1.910000e-06	3.230516e-07	-1.462622e-10	2.240872e+00	-1.449210e+01
1.920000e-06	3.699954e-07	-1.160957e-10	2.566501e+00	-1.248542e+01
1.930000e-06	4.168393e-07	-8.523965e-11	2.891437e+00	-1.044108e+01
1.940000e-06	4.636452e-07	-5.749232e-11	3.216110e+00	-8.360901e+00
1.950000e-06	5.104038e-07	-3.025515e-11	3.540455e+00	-6.246964e+00
1.960000e-06	5.569890e-07	-1.740918e-12	3.863596e+00	-4.101570e+00
1.970000e-06	6.035545e-07	2.744490e-11	4.186601e+00	-1.927249e+00
1.980000e-06	6.501692e-07	5.557799e-11	4.509948e+00	2.732638e-01
1.990000e-06	6.967431e-07	8.587714e-11	4.833011e+00	2.497045e+00
2.000000e-06	7.432404e-07	1.193352e-10	5.155543e+00	4.741005e+00
2.010000e-06	7.896631e-07	1.518726e-10	5.477558e+00	7.001910e+00
2.020000e-06	8.359894e-07	1.855294e-10	5.798904e+00	9.276405e+00
2.030000e-06	8.822741e-07	2.207187e-10	6.119961e+00	1.156104e+01
2.040000e-06	9.285282e-07	2.539976e-10	6.440806e+00	1.385231e+01
2.050000e-06	9.746934e-07	2.828532e-10	6.761034e+00	1.614664e+01
2.060000e-06	1.020790e-06	3.082249e-10	7.080790e+00	1.844048e+01
2.070000e-06	1.066783e-06	3.349039e-10	7.399824e+00	2.073027e+01
2.080000e-06	1.112670e-06	3.644656e-10	7.718121e+00	2.301249e+01
2.090000e-06	1.158469e-06	3.963867e-10	8.035808e+00	2.528370e+01
2.100000e-06	1.204176e-06	4.316854e-10	8.352856e+00	2.754055e+01
2.110000e-06	1.249911e-06	4.677283e-10	8.670101e+00	2.977981e+01
2.120000e-06	1.295634e-06	5.025165e-10	8.987263e+00	3.199838e+01
2.130000e-06	1.341176e-06	5.340656e-10	9.303169e+00	3.419332e+01
2.140000e-06	1.386576e-06	5.606281e-10	9.618089e+00	3.636189e+01
2.150000e-06	1.431895e-06	5.826497e-10	9.932450e+00	3.850152e+01
2.160000e-06	1.477146e-06	6.052832e-10	1.024634e+01	4.060985e+01
2.170000e-06	1.522272e-06	6.297000e-10	1.055936e+01	4.268475e+01
2.180000e-06	1.567262e-06	6.581577e-10	1.087143e+01	4.472430e+01
2.190000e-06	1.612118e-06	6.909777e-10	1.118258e+01	4.672682e+01
2.200000e-06	1.656871e-06	7.259764e-10	1.149301e+01	4.869085e+01
2.210000e-06	1.701536e-06	7.589280e-10	1.180283e+01	5.061519e+01
2.220000e-06	1.746055e-06	7.887603e-10	1.211164e+01	5.249885e+01
2.230000e-06	1.790458e-06	8.148995e-10	1.241965e+01	5.434106e+01
2.240000e-06	1.834714e-06	8.343399e-10	1.272663e+01	5.614129e+01
2.250000e-06	1.878814e-06	8.487892e-10	1.303254e+01	5.789919e+01
2.260000e-06	1.922813e-06	8.645429e-10	1.333774e+01	5.961462e+01
2.270000e-06	1.966741e-06	8.847631e-10	1.364244e+01	6.128763e+01
2.280000e-06	2.010560e-06	9.086241e-10	1.394640e+01	6.291844e+01
2.290000e-06	2.054269e-06	9.346419e-10	1.424959e+01	6.450740e+01
2.300000e-06	2.097942e-06	9.614074e-10	1.455253e+01	6.605501e+01
2.310000e-06	2.141586e-06	9.859627e-10	1.485528e+01	6.756191e+01
2.320000e-06	2.185139e-06	1.004340e-09	1.515738e+01	6.902882e+01
2.330000e-06	2.228573e-06	1.016684e-09	1.545867e+01	7.045655e+01
2.340000e-06	2.271918e-06	1.026942e-09	1.575933e+01	7.184598e+01
2.350000e-06	2.315164e-06	1.040518e-09	1.605931e+01	7.319805e+01
2.360000e-06	2.358221e-06	1.058050e-09	1.635798e+01	7.451374e+01
2.370000e-06	2.400944e-06	1.078790e-09	1.665433e+01	7.579404e+01
2.380000e-06	2.443408e-06	1.101186e-09	1.694888e+01	7.703996e+01
2.390000e-06	2.485654e-06	1.121820e-09	1.724193e+01	7.825251e+01
2.400000e-06	2.527571e-06	1.138773e-09	1.753268e+01	7.943269e+01
2.410000e-06	2.569106e-06	1.153594e-09	1.782080e+01	8.058148e+01
2.420000e-06	2.610310e-06	1.165442e-09	1.810662e+01	8.169983e+01
2.430000e-06	2.651186e-06	1.178491e-09	1.839015e+01	8.278865e+01
2.440000e-06	2.691798e-06	1.195802e-09	1.867186e+01	8.384883e+01
2.450000e-06	2.732285e-06	1.214793e-09	1.895270e+01	8.488119e+01
2.460000e-06	2.772560e-06	1.232706e-09	1.923207e+01	8.588655e+01
2.470000e-06	2.812563e-06	1.248050e-09	1.950956e+01	8.686564e+01
2.480000e-06	2.852363e-06	1.261730e-09	1.978563e+01	8.781919e+01
2.490000e-06	2.892098e-06	1.272589e-09	2.006126e+01	8.874787e+01
2.500000e-06	2.931762e-06	1.280279e-09	2.033639e+01	8.965231e+01
2.510000e-06	2.971283e-06	1.291744e-09	2.061053e+01	9.053312e+01
2.520000e-06	3.010631e-06	1.305081e-09	2.088347e+01	9.139087e+01
2.530000e-06	3.049784e-06	1.320656e-09	2.115506e+01	9.222611e+01
2.540000e-06	3.088694e-06	1.337700e-09	2.142496e+01	9.303938e+01
2.550000e-06	3.127304e-06	1.349861e-09	2.169278e+01	9.383117e+01
2.560000e-06	3.165697e-06	1.357780e-09	2.195909e+01	9.460199e+01
2.570000e-06	3.203889e-06	1.364346e-09	2.222402e+01	9.535234e+01
2.580000e-06	3.241853e-06	1.370337e-09	2.248736e+01	9.608270e+01
2.590000e-06	3.279611e-06	1.376487e-09	2.274927e+01	9.679356e+01
2.600000e-06	3.317153e-06	1.388130e-09	2.300968e+01	9.748540e+01
2.610000e-06	3.354518e-06	1.404096e-09	2.326887e+01	9.815871e+01
2.620000e-06	3.391710e-06	1.421079e-09	2.352685e+01	9.881399e+01
2.630000e-06	3.428615e-06	1.433887e-09	2.378285e+01	9.945173e+01
2.640000e-06	3.465216e-06	1.442715e-09	2.403673e+01	1.000724e+02
2.650000e-06	3.501595e-06	1.448019e-09	2.428908e+01	1.006766e+02
2.660000e-06	3.537759e-06	1.450315e-09	2.453993e+01	1.012647e+02
2.670000e-06	3.573744e-06	1.453161e-09	2.478954e+01	1.018372e+02
2.680000e-06	3.609624e-06	1.458241e-09	2.503843e+01	1.023947e+02
2.690000e-06	3.645330e-06	1.468634e-09	2.528611e+01	1.029376e+02
2.700000e-06	3.680859e-06	1.482795e-09	2.553256e+01	1.034664e+02
2.710000e-06	3.716254e-06	1.495016e-09	2.577807e+01	1.039816e+02
2.720000e-06	3.751368e-06	1.503876e-09	2.602165e+01	1.044835e+02
2.730000e-06	3.786172e-06	1.508841e-09	2.626307e+01	1.049725e+02
2.740000e-06	3.820629e-06	1.511269e-09	2.650208e+01	1.054491e+02
2.750000e-06	3.854673e-06	1.512123e-09	2.673823e+01	1.059136e+02
2.760000e-06	3.888261e-06	1.515471e-09	2.697121e+01	1.063664e+02
2.770000e-06	3.921344e-06	1.523617e-09	2.720070e+01	1.068076e+02
2.780000e-06	3.954045e-06	1.532491e-09	2.742753e+01	1.072376e+02
2.790000e-06	3.986450e-06	1.541776e-09	2.765231e+01	1.076566e+02
2.800000e-06	4.018549e-06	1.552125e-09	2.787497e+01	1.080647e+02
2.810000e-06	4.050404e-06	1.559749e-09	2.809594e+01	1.084620e+02
2.820000e-06	4.082067e-06	1.564165e-09	2.831557e+01	1.088488e+02
2.830000e-06	4.113532e-06	1.568455e-09	2.853383e+01	1.092251e+02
2.840000e-06	4.144826e-06	1.573016e-09	2.875090e+01	1.095909e+02
2.850000e-06	4.175866e-06	1.577434e-09	2.896621e+01	1.099463e+02
2.860000e-06	4.206598e-06	1.583888e-09	2.917938e+01	1.102914e+02
2.870000e-06	4.237015e-06	1.591911e-09	2.939038e+01	1.106260e+02
2.880000e-06	4.267097e-06	1.595708e-09	2.959904e+01	1.109502e+02
2.890000e-06	4.296886e-06	1.598620e-09	2.980567e+01	1.112641e+02
2.900000e-06	4.326386e-06	1.604127e-09	3.001030e+01	1.115676e+02
