# Temperatura_=_7.89
# Concentracion g/m^3_=_1620.0
# C_Vs_to_Am_M_A/Vsm_=_65563218390.804596
# pendiente_HvsI_1/m_=_3716.3
# ordenada_HvsI_A/m_=_1297.0
# frecuencia_Hz_=_135108.22443282927

Tiempo_(s)	Campo_(V.s)	Magnetizacion_(V.s)	Campo_(kA/m)	Magnetizacion_(A/m)
0.000000e+00	-5.530012e-06	-1.638263e-09	-3.836306e+01	-1.066277e+02
1.000000e-08	-5.530244e-06	-1.637069e-09	-3.836467e+01	-1.065920e+02
2.000000e-08	-5.530234e-06	-1.639430e-09	-3.836460e+01	-1.065560e+02
3.000000e-08	-5.529834e-06	-1.644728e-09	-3.836183e+01	-1.065195e+02
4.000000e-08	-5.528941e-06	-1.648634e-09	-3.835563e+01	-1.064824e+02
5.000000e-08	-5.527619e-06	-1.645078e-09	-3.834646e+01	-1.064441e+02
6.000000e-08	-5.525642e-06	-1.630541e-09	-3.833275e+01	-1.064045e+02
7.000000e-08	-5.522986e-06	-1.618518e-09	-3.831432e+01	-1.063631e+02
8.000000e-08	-5.519843e-06	-1.649170e-09	-3.829252e+01	-1.063196e+02
9.000000e-08	-5.516208e-06	-1.710524e-09	-3.826730e+01	-1.062736e+02
1.000000e-07	-5.512097e-06	-1.714838e-09	-3.823879e+01	-1.062248e+02
1.100000e-07	-5.507642e-06	-1.615983e-09	-3.820788e+01	-1.061727e+02
1.200000e-07	-5.503027e-06	-1.533556e-09	-3.817586e+01	-1.061170e+02
1.300000e-07	-5.498244e-06	-1.608956e-09	-3.814268e+01	-1.060574e+02
1.400000e-07	-5.493089e-06	-1.693170e-09	-3.810692e+01	-1.059937e+02
1.500000e-07	-5.487499e-06	-1.663469e-09	-3.806814e+01	-1.059255e+02
1.600000e-07	-5.481525e-06	-1.578251e-09	-3.802670e+01	-1.058527e+02
1.700000e-07	-5.475190e-06	-1.619807e-09	-3.798275e+01	-1.057751e+02
1.800000e-07	-5.468375e-06	-1.692543e-09	-3.793548e+01	-1.056926e+02
1.900000e-07	-5.461145e-06	-1.656227e-09	-3.788532e+01	-1.056052e+02
2.000000e-07	-5.453710e-06	-1.563610e-09	-3.783374e+01	-1.055129e+02
2.100000e-07	-5.446052e-06	-1.570490e-09	-3.778061e+01	-1.054156e+02
2.200000e-07	-5.438089e-06	-1.657122e-09	-3.772537e+01	-1.053136e+02
2.300000e-07	-5.429836e-06	-1.662746e-09	-3.766812e+01	-1.052069e+02
2.400000e-07	-5.421160e-06	-1.604842e-09	-3.760793e+01	-1.050957e+02
2.500000e-07	-5.411791e-06	-1.571535e-09	-3.754293e+01	-1.049804e+02
2.600000e-07	-5.401660e-06	-1.604869e-09	-3.747265e+01	-1.048610e+02
2.700000e-07	-5.390961e-06	-1.604446e-09	-3.739843e+01	-1.047380e+02
2.800000e-07	-5.379895e-06	-1.582434e-09	-3.732166e+01	-1.046116e+02
2.900000e-07	-5.368416e-06	-1.573688e-09	-3.724203e+01	-1.044821e+02
3.000000e-07	-5.356527e-06	-1.604060e-09	-3.715955e+01	-1.043499e+02
3.100000e-07	-5.344259e-06	-1.590309e-09	-3.707445e+01	-1.042152e+02
3.200000e-07	-5.331584e-06	-1.554483e-09	-3.698652e+01	-1.040784e+02
3.300000e-07	-5.318478e-06	-1.545026e-09	-3.689560e+01	-1.039398e+02
3.400000e-07	-5.305044e-06	-1.576452e-09	-3.680241e+01	-1.037996e+02
3.500000e-07	-5.291226e-06	-1.575313e-09	-3.670655e+01	-1.036580e+02
3.600000e-07	-5.276902e-06	-1.557706e-09	-3.660717e+01	-1.035153e+02
3.700000e-07	-5.262095e-06	-1.562125e-09	-3.650445e+01	-1.033715e+02
3.800000e-07	-5.246791e-06	-1.575508e-09	-3.639829e+01	-1.032269e+02
3.900000e-07	-5.230885e-06	-1.551519e-09	-3.628794e+01	-1.030813e+02
4.000000e-07	-5.214464e-06	-1.545400e-09	-3.617403e+01	-1.029350e+02
4.100000e-07	-5.197723e-06	-1.567658e-09	-3.605789e+01	-1.027877e+02
4.200000e-07	-5.180667e-06	-1.553903e-09	-3.593957e+01	-1.026394e+02
4.300000e-07	-5.163294e-06	-1.526917e-09	-3.581905e+01	-1.024901e+02
4.400000e-07	-5.145645e-06	-1.558173e-09	-3.569662e+01	-1.023394e+02
4.500000e-07	-5.127618e-06	-1.588810e-09	-3.557156e+01	-1.021873e+02
4.600000e-07	-5.109035e-06	-1.541841e-09	-3.544264e+01	-1.020334e+02
4.700000e-07	-5.090035e-06	-1.525099e-09	-3.531083e+01	-1.018775e+02
4.800000e-07	-5.070804e-06	-1.563354e-09	-3.517742e+01	-1.017193e+02
4.900000e-07	-5.051342e-06	-1.555749e-09	-3.504241e+01	-1.015585e+02
5.000000e-07	-5.031682e-06	-1.504717e-09	-3.490602e+01	-1.013948e+02
5.100000e-07	-5.011825e-06	-1.519495e-09	-3.476827e+01	-1.012278e+02
5.200000e-07	-4.991630e-06	-1.530072e-09	-3.462818e+01	-1.010573e+02
5.300000e-07	-4.971090e-06	-1.506890e-09	-3.448568e+01	-1.008830e+02
5.400000e-07	-4.950238e-06	-1.520333e-09	-3.434103e+01	-1.007047e+02
5.500000e-07	-4.928974e-06	-1.554285e-09	-3.419351e+01	-1.005221e+02
5.600000e-07	-4.907221e-06	-1.515361e-09	-3.404261e+01	-1.003350e+02
5.700000e-07	-4.885122e-06	-1.492669e-09	-3.388930e+01	-1.001433e+02
5.800000e-07	-4.862806e-06	-1.523696e-09	-3.373449e+01	-9.994692e+01
5.900000e-07	-4.840175e-06	-1.521177e-09	-3.357750e+01	-9.974576e+01
6.000000e-07	-4.817151e-06	-1.481790e-09	-3.341777e+01	-9.953984e+01
6.100000e-07	-4.793882e-06	-1.491972e-09	-3.325635e+01	-9.932920e+01
6.200000e-07	-4.770464e-06	-1.498825e-09	-3.309389e+01	-9.911393e+01
6.300000e-07	-4.746777e-06	-1.474728e-09	-3.292957e+01	-9.889418e+01
6.400000e-07	-4.722729e-06	-1.476773e-09	-3.276274e+01	-9.867012e+01
6.500000e-07	-4.698325e-06	-1.495629e-09	-3.259344e+01	-9.844199e+01
6.600000e-07	-4.673478e-06	-1.480853e-09	-3.242108e+01	-9.821003e+01
6.700000e-07	-4.648097e-06	-1.470512e-09	-3.224500e+01	-9.797453e+01
6.800000e-07	-4.622157e-06	-1.474517e-09	-3.206505e+01	-9.773579e+01
6.900000e-07	-4.595599e-06	-1.457235e-09	-3.188081e+01	-9.749413e+01
7.000000e-07	-4.568575e-06	-1.441944e-09	-3.169334e+01	-9.724987e+01
7.100000e-07	-4.541255e-06	-1.448063e-09	-3.150381e+01	-9.700332e+01
7.200000e-07	-4.513684e-06	-1.446648e-09	-3.131255e+01	-9.675480e+01
7.300000e-07	-4.485931e-06	-1.439426e-09	-3.112002e+01	-9.650458e+01
7.400000e-07	-4.458010e-06	-1.447542e-09	-3.092632e+01	-9.625293e+01
7.500000e-07	-4.429884e-06	-1.444710e-09	-3.073120e+01	-9.600007e+01
7.600000e-07	-4.401524e-06	-1.433306e-09	-3.053446e+01	-9.574618e+01
7.700000e-07	-4.372892e-06	-1.428891e-09	-3.033584e+01	-9.549141e+01
7.800000e-07	-4.343876e-06	-1.423021e-09	-3.013455e+01	-9.523583e+01
7.900000e-07	-4.314497e-06	-1.411278e-09	-2.993074e+01	-9.497949e+01
8.000000e-07	-4.284938e-06	-1.415579e-09	-2.972568e+01	-9.472236e+01
8.100000e-07	-4.255139e-06	-1.414402e-09	-2.951896e+01	-9.446435e+01
8.200000e-07	-4.224944e-06	-1.401583e-09	-2.930948e+01	-9.420535e+01
8.300000e-07	-4.194414e-06	-1.399135e-09	-2.909769e+01	-9.394515e+01
8.400000e-07	-4.163547e-06	-1.407362e-09	-2.888356e+01	-9.368351e+01
8.500000e-07	-4.132410e-06	-1.401700e-09	-2.866756e+01	-9.342016e+01
8.600000e-07	-4.101120e-06	-1.399109e-09	-2.845049e+01	-9.315475e+01
8.700000e-07	-4.069659e-06	-1.401272e-09	-2.823223e+01	-9.288692e+01
8.800000e-07	-4.038020e-06	-1.393132e-09	-2.801274e+01	-9.261629e+01
8.900000e-07	-4.006169e-06	-1.377244e-09	-2.779179e+01	-9.234244e+01
9.000000e-07	-3.974055e-06	-1.374903e-09	-2.756901e+01	-9.206496e+01
9.100000e-07	-3.941642e-06	-1.370961e-09	-2.734415e+01	-9.178341e+01
9.200000e-07	-3.908883e-06	-1.361267e-09	-2.711689e+01	-9.149739e+01
9.300000e-07	-3.875667e-06	-1.360952e-09	-2.688646e+01	-9.120650e+01
9.400000e-07	-3.841938e-06	-1.364659e-09	-2.665247e+01	-9.091036e+01
9.500000e-07	-3.807792e-06	-1.354214e-09	-2.641560e+01	-9.060863e+01
9.600000e-07	-3.773288e-06	-1.343232e-09	-2.617623e+01	-9.030102e+01
9.700000e-07	-3.738475e-06	-1.339033e-09	-2.593472e+01	-8.998728e+01
9.800000e-07	-3.703332e-06	-1.329353e-09	-2.569093e+01	-8.966719e+01
9.900000e-07	-3.667873e-06	-1.319586e-09	-2.544494e+01	-8.934063e+01
1.000000e-06	-3.632246e-06	-1.319622e-09	-2.519779e+01	-8.900751e+01
1.010000e-06	-3.596526e-06	-1.317125e-09	-2.494999e+01	-8.866781e+01
1.020000e-06	-3.560646e-06	-1.306833e-09	-2.470109e+01	-8.832157e+01
1.030000e-06	-3.524528e-06	-1.300912e-09	-2.445053e+01	-8.796890e+01
1.040000e-06	-3.488174e-06	-1.298241e-09	-2.419833e+01	-8.760994e+01
1.050000e-06	-3.451572e-06	-1.292475e-09	-2.394441e+01	-8.724491e+01
1.060000e-06	-3.414742e-06	-1.286894e-09	-2.368891e+01	-8.687406e+01
1.070000e-06	-3.377641e-06	-1.283718e-09	-2.343153e+01	-8.649769e+01
1.080000e-06	-3.340271e-06	-1.273702e-09	-2.317229e+01	-8.611613e+01
1.090000e-06	-3.302647e-06	-1.263510e-09	-2.291128e+01	-8.572972e+01
1.100000e-06	-3.264829e-06	-1.257598e-09	-2.264893e+01	-8.533882e+01
1.110000e-06	-3.226847e-06	-1.251761e-09	-2.238544e+01	-8.494379e+01
1.120000e-06	-3.188623e-06	-1.240844e-09	-2.212027e+01	-8.454498e+01
1.130000e-06	-3.150147e-06	-1.233797e-09	-2.185335e+01	-8.414272e+01
1.140000e-06	-3.111527e-06	-1.229135e-09	-2.158543e+01	-8.373731e+01
1.150000e-06	-3.072720e-06	-1.225975e-09	-2.131622e+01	-8.332901e+01
1.160000e-06	-3.033647e-06	-1.221977e-09	-2.104516e+01	-8.291802e+01
1.170000e-06	-2.994404e-06	-1.215710e-09	-2.077292e+01	-8.250449e+01
1.180000e-06	-2.955052e-06	-1.206317e-09	-2.049993e+01	-8.208850e+01
1.190000e-06	-2.915587e-06	-1.198081e-09	-2.022615e+01	-8.167006e+01
1.200000e-06	-2.876003e-06	-1.188079e-09	-1.995155e+01	-8.124908e+01
1.210000e-06	-2.836224e-06	-1.176547e-09	-1.967559e+01	-8.082542e+01
1.220000e-06	-2.796177e-06	-1.166691e-09	-1.939777e+01	-8.039883e+01
1.230000e-06	-2.755980e-06	-1.161492e-09	-1.911891e+01	-7.996899e+01
1.240000e-06	-2.715644e-06	-1.155425e-09	-1.883910e+01	-7.953550e+01
1.250000e-06	-2.675043e-06	-1.147040e-09	-1.855744e+01	-7.909789e+01
1.260000e-06	-2.634093e-06	-1.140817e-09	-1.827335e+01	-7.865558e+01
1.270000e-06	-2.592896e-06	-1.134519e-09	-1.798756e+01	-7.820797e+01
1.280000e-06	-2.551487e-06	-1.123983e-09	-1.770030e+01	-7.775439e+01
1.290000e-06	-2.509685e-06	-1.112064e-09	-1.741030e+01	-7.729410e+01
1.300000e-06	-2.467581e-06	-1.100293e-09	-1.711822e+01	-7.682636e+01
1.310000e-06	-2.425208e-06	-1.087665e-09	-1.682427e+01	-7.635038e+01
1.320000e-06	-2.382523e-06	-1.076236e-09	-1.652815e+01	-7.586538e+01
1.330000e-06	-2.339608e-06	-1.068327e-09	-1.623044e+01	-7.537055e+01
1.340000e-06	-2.296508e-06	-1.062858e-09	-1.593144e+01	-7.486514e+01
1.350000e-06	-2.253222e-06	-1.057141e-09	-1.563116e+01	-7.434838e+01
1.360000e-06	-2.209763e-06	-1.051141e-09	-1.532968e+01	-7.381958e+01
1.370000e-06	-2.166213e-06	-1.043935e-09	-1.502756e+01	-7.327807e+01
1.380000e-06	-2.122604e-06	-1.035537e-09	-1.472503e+01	-7.272327e+01
1.390000e-06	-2.078933e-06	-1.023256e-09	-1.442207e+01	-7.215465e+01
1.400000e-06	-2.035192e-06	-1.008635e-09	-1.411863e+01	-7.157175e+01
1.410000e-06	-1.991352e-06	-9.927545e-10	-1.381450e+01	-7.097424e+01
1.420000e-06	-1.947412e-06	-9.779598e-10	-1.350968e+01	-7.036182e+01
1.430000e-06	-1.903352e-06	-9.660159e-10	-1.320402e+01	-6.973432e+01
1.440000e-06	-1.859173e-06	-9.591179e-10	-1.289755e+01	-6.909164e+01
1.450000e-06	-1.814912e-06	-9.527403e-10	-1.259050e+01	-6.843378e+01
1.460000e-06	-1.770515e-06	-9.450247e-10	-1.228250e+01	-6.776082e+01
1.470000e-06	-1.725939e-06	-9.343745e-10	-1.197327e+01	-6.707290e+01
1.480000e-06	-1.681222e-06	-9.218273e-10	-1.166306e+01	-6.637024e+01
1.490000e-06	-1.636412e-06	-9.088515e-10	-1.135220e+01	-6.565312e+01
1.500000e-06	-1.591409e-06	-8.928299e-10	-1.104000e+01	-6.492186e+01
1.510000e-06	-1.546230e-06	-8.751396e-10	-1.072658e+01	-6.417679e+01
1.520000e-06	-1.500976e-06	-8.623629e-10	-1.041264e+01	-6.341827e+01
1.530000e-06	-1.455676e-06	-8.525459e-10	-1.009838e+01	-6.264665e+01
1.540000e-06	-1.410347e-06	-8.427012e-10	-9.783923e+00	-6.186227e+01
1.550000e-06	-1.364899e-06	-8.333041e-10	-9.468645e+00	-6.106542e+01
1.560000e-06	-1.319300e-06	-8.228828e-10	-9.152309e+00	-6.025634e+01
1.570000e-06	-1.273633e-06	-8.070537e-10	-8.835504e+00	-5.943519e+01
1.580000e-06	-1.227945e-06	-7.898632e-10	-8.518561e+00	-5.860204e+01
1.590000e-06	-1.182170e-06	-7.728820e-10	-8.201005e+00	-5.775687e+01
1.600000e-06	-1.136236e-06	-7.543572e-10	-7.882348e+00	-5.689952e+01
1.610000e-06	-1.090164e-06	-7.374066e-10	-7.562739e+00	-5.602971e+01
1.620000e-06	-1.043955e-06	-7.248538e-10	-7.242175e+00	-5.514702e+01
1.630000e-06	-9.977123e-07	-7.144959e-10	-6.921378e+00	-5.425088e+01
1.640000e-06	-9.515384e-07	-7.036043e-10	-6.601058e+00	-5.334057e+01
1.650000e-06	-9.053371e-07	-6.929147e-10	-6.280548e+00	-5.241520e+01
1.660000e-06	-8.590568e-07	-6.807515e-10	-5.959490e+00	-5.147374e+01
1.670000e-06	-8.126586e-07	-6.660301e-10	-5.637614e+00	-5.051499e+01
1.680000e-06	-7.661180e-07	-6.490539e-10	-5.314751e+00	-4.953764e+01
1.690000e-06	-7.195143e-07	-6.333799e-10	-4.991449e+00	-4.854019e+01
1.700000e-06	-6.728935e-07	-6.169087e-10	-4.668029e+00	-4.752107e+01
1.710000e-06	-6.262182e-07	-5.973054e-10	-4.344231e+00	-4.647856e+01
1.720000e-06	-5.795662e-07	-5.758439e-10	-4.020594e+00	-4.541088e+01
1.730000e-06	-5.329170e-07	-5.560841e-10	-3.696977e+00	-4.431616e+01
1.740000e-06	-4.861460e-07	-5.388442e-10	-3.372515e+00	-4.319249e+01
1.750000e-06	-4.393464e-07	-5.244825e-10	-3.047855e+00	-4.203793e+01
1.760000e-06	-3.925838e-07	-5.095946e-10	-2.723451e+00	-4.085056e+01
1.770000e-06	-3.457855e-07	-4.933693e-10	-2.398800e+00	-3.962846e+01
1.780000e-06	-2.988666e-07	-4.749735e-10	-2.073312e+00	-3.836981e+01
1.790000e-06	-2.519465e-07	-4.534047e-10	-1.747815e+00	-3.707282e+01
1.800000e-06	-2.050754e-07	-4.307304e-10	-1.422659e+00	-3.573586e+01
1.810000e-06	-1.581411e-07	-4.088933e-10	-1.097064e+00	-3.435741e+01
1.820000e-06	-1.111940e-07	-3.890953e-10	-7.713804e-01	-3.293614e+01
1.830000e-06	-6.426778e-08	-3.700871e-10	-4.458415e-01	-3.147089e+01
1.840000e-06	-1.733899e-08	-3.509141e-10	-1.202849e-01	-2.996073e+01
1.850000e-06	2.963204e-08	-3.329286e-10	2.055648e-01	-2.840494e+01
1.860000e-06	7.653922e-08	-3.153471e-10	5.309715e-01	-2.680308e+01
1.870000e-06	1.233717e-07	-2.942675e-10	8.558602e-01	-2.515497e+01
1.880000e-06	1.702437e-07	-2.711117e-10	1.181022e+00	-2.346071e+01
1.890000e-06	2.171184e-07	-2.460321e-10	1.506204e+00	-2.172069e+01
1.900000e-06	2.640048e-07	-2.174889e-10	1.831467e+00	-1.993559e+01
1.910000e-06	3.108864e-07	-1.892611e-10	2.156696e+00	-1.810640e+01
1.920000e-06	3.576704e-07	-1.618734e-10	2.481248e+00	-1.623440e+01
1.930000e-06	4.043236e-07	-1.338743e-10	2.804893e+00	-1.432117e+01
1.940000e-06	4.509992e-07	-1.072342e-10	3.128693e+00	-1.236857e+01
1.950000e-06	4.977216e-07	-8.171874e-11	3.452818e+00	-1.037872e+01
1.960000e-06	5.443311e-07	-5.614143e-11	3.776160e+00	-8.354023e+00
1.970000e-06	5.909214e-07	-2.916677e-11	4.099368e+00	-6.297104e+00
1.980000e-06	6.374901e-07	-1.089748e-12	4.422427e+00	-4.210816e+00
1.990000e-06	6.840502e-07	2.917826e-11	4.745426e+00	-2.098203e+00
2.000000e-06	7.305924e-07	6.185661e-11	5.068301e+00	3.751511e-02
2.010000e-06	7.770102e-07	9.305961e-11	5.390313e+00	2.192977e+00
2.020000e-06	8.234594e-07	1.232256e-10	5.712542e+00	4.364703e+00
2.030000e-06	8.698980e-07	1.550270e-10	6.034698e+00	6.549127e+00
2.040000e-06	9.161611e-07	1.863741e-10	6.355637e+00	8.742629e+00
2.050000e-06	9.622494e-07	2.154658e-10	6.675363e+00	1.094156e+01
2.060000e-06	1.008255e-06	2.425606e-10	6.994514e+00	1.314226e+01
2.070000e-06	1.054291e-06	2.700938e-10	7.313881e+00	1.534113e+01
2.080000e-06	1.100286e-06	2.986728e-10	7.632958e+00	1.753462e+01
2.090000e-06	1.146120e-06	3.286696e-10	7.950919e+00	1.971924e+01
2.100000e-06	1.191924e-06	3.607182e-10	8.268670e+00	2.189164e+01
2.110000e-06	1.237684e-06	3.927978e-10	8.586118e+00	2.404861e+01
2.120000e-06	1.283336e-06	4.231001e-10	8.902823e+00	2.618707e+01
2.130000e-06	1.328932e-06	4.523055e-10	9.219131e+00	2.830414e+01
2.140000e-06	1.374415e-06	4.800272e-10	9.534658e+00	3.039711e+01
2.150000e-06	1.419762e-06	5.046005e-10	9.849238e+00	3.246348e+01
2.160000e-06	1.465019e-06	5.282869e-10	1.016320e+01	3.450098e+01
2.170000e-06	1.510236e-06	5.526589e-10	1.047688e+01	3.650754e+01
2.180000e-06	1.555399e-06	5.787727e-10	1.079019e+01	3.848131e+01
2.190000e-06	1.600395e-06	6.078207e-10	1.110234e+01	4.042069e+01
2.200000e-06	1.645215e-06	6.386935e-10	1.141327e+01	4.232430e+01
2.210000e-06	1.689944e-06	6.697859e-10	1.172356e+01	4.419097e+01
2.220000e-06	1.734536e-06	6.971175e-10	1.203290e+01	4.601977e+01
2.230000e-06	1.778948e-06	7.199205e-10	1.234100e+01	4.780994e+01
2.240000e-06	1.823293e-06	7.398017e-10	1.264864e+01	4.956097e+01
2.250000e-06	1.867555e-06	7.571055e-10	1.295569e+01	5.127250e+01
2.260000e-06	1.911645e-06	7.759032e-10	1.326156e+01	5.294436e+01
2.270000e-06	1.955609e-06	7.968573e-10	1.356654e+01	5.457653e+01
2.280000e-06	1.999484e-06	8.203040e-10	1.387092e+01	5.616915e+01
2.290000e-06	2.043260e-06	8.440183e-10	1.417460e+01	5.772247e+01
2.300000e-06	2.086953e-06	8.670219e-10	1.447771e+01	5.923686e+01
2.310000e-06	2.130613e-06	8.882429e-10	1.478059e+01	6.071281e+01
2.320000e-06	2.174229e-06	9.072127e-10	1.508317e+01	6.215085e+01
2.330000e-06	2.217765e-06	9.240515e-10	1.538518e+01	6.355160e+01
2.340000e-06	2.261136e-06	9.396845e-10	1.568606e+01	6.491573e+01
2.350000e-06	2.304291e-06	9.561457e-10	1.598544e+01	6.624395e+01
2.360000e-06	2.347289e-06	9.728823e-10	1.628373e+01	6.753697e+01
2.370000e-06	2.390099e-06	9.915345e-10	1.658071e+01	6.879555e+01
2.380000e-06	2.432668e-06	1.010577e-09	1.687602e+01	7.002042e+01
2.390000e-06	2.474977e-06	1.027247e-09	1.716953e+01	7.121233e+01
2.400000e-06	2.516881e-06	1.043034e-09	1.746023e+01	7.237200e+01
2.410000e-06	2.558402e-06	1.059510e-09	1.774827e+01	7.350014e+01
2.420000e-06	2.599670e-06	1.077194e-09	1.803456e+01	7.459742e+01
2.430000e-06	2.640736e-06	1.092114e-09	1.831944e+01	7.566452e+01
2.440000e-06	2.681500e-06	1.104773e-09	1.860223e+01	7.670206e+01
2.450000e-06	2.721929e-06	1.117604e-09	1.888270e+01	7.771064e+01
2.460000e-06	2.762141e-06	1.130466e-09	1.916166e+01	7.869085e+01
2.470000e-06	2.802167e-06	1.142984e-09	1.943933e+01	7.964324e+01
2.480000e-06	2.842087e-06	1.155119e-09	1.971626e+01	8.056834e+01
2.490000e-06	2.881905e-06	1.168145e-09	1.999249e+01	8.146666e+01
2.500000e-06	2.921557e-06	1.179958e-09	2.026756e+01	8.233872e+01
2.510000e-06	2.961091e-06	1.192934e-09	2.054182e+01	8.318500e+01
2.520000e-06	3.000527e-06	1.206535e-09	2.081540e+01	8.400600e+01
2.530000e-06	3.039782e-06	1.219535e-09	2.108772e+01	8.480221e+01
2.540000e-06	3.078816e-06	1.232968e-09	2.135851e+01	8.557411e+01
2.550000e-06	3.117619e-06	1.244219e-09	2.162770e+01	8.632223e+01
2.560000e-06	3.156201e-06	1.251069e-09	2.189535e+01	8.704707e+01
2.570000e-06	3.194646e-06	1.256280e-09	2.216205e+01	8.774918e+01
2.580000e-06	3.232874e-06	1.262425e-09	2.242725e+01	8.842910e+01
2.590000e-06	3.270851e-06	1.270647e-09	2.269071e+01	8.908742e+01
2.600000e-06	3.308628e-06	1.282887e-09	2.295277e+01	8.972474e+01
2.610000e-06	3.346117e-06	1.297821e-09	2.321284e+01	9.034167e+01
2.620000e-06	3.383314e-06	1.313589e-09	2.347089e+01	9.093885e+01
2.630000e-06	3.420241e-06	1.325587e-09	2.372706e+01	9.151696e+01
2.640000e-06	3.456874e-06	1.330521e-09	2.398119e+01	9.207666e+01
2.650000e-06	3.493235e-06	1.331917e-09	2.423344e+01	9.261866e+01
2.660000e-06	3.529409e-06	1.333368e-09	2.448438e+01	9.314365e+01
2.670000e-06	3.565425e-06	1.337595e-09	2.473424e+01	9.365235e+01
2.680000e-06	3.601259e-06	1.343649e-09	2.498283e+01	9.414546e+01
2.690000e-06	3.636974e-06	1.354199e-09	2.523059e+01	9.462370e+01
2.700000e-06	3.672564e-06	1.366205e-09	2.547749e+01	9.508775e+01
2.710000e-06	3.707970e-06	1.373660e-09	2.572310e+01	9.553829e+01
2.720000e-06	3.743206e-06	1.377076e-09	2.596755e+01	9.597597e+01
2.730000e-06	3.778151e-06	1.378180e-09	2.620997e+01	9.640142e+01
2.740000e-06	3.812652e-06	1.379325e-09	2.644931e+01	9.681524e+01
2.750000e-06	3.846695e-06	1.381416e-09	2.668548e+01	9.721795e+01
2.760000e-06	3.880317e-06	1.388195e-09	2.691872e+01	9.761009e+01
2.770000e-06	3.913424e-06	1.397061e-09	2.714839e+01	9.799209e+01
2.780000e-06	3.946094e-06	1.406975e-09	2.737503e+01	9.836437e+01
2.790000e-06	3.978469e-06	1.417833e-09	2.759962e+01	9.872728e+01
2.800000e-06	4.010540e-06	1.427281e-09	2.782211e+01	9.908111e+01
2.810000e-06	4.042427e-06	1.431944e-09	2.804332e+01	9.942611e+01
2.820000e-06	4.074203e-06	1.431975e-09	2.826375e+01	9.976245e+01
2.830000e-06	4.105819e-06	1.433399e-09	2.848308e+01	1.000903e+02
2.840000e-06	4.137179e-06	1.439726e-09	2.870064e+01	1.004096e+02
2.850000e-06	4.168214e-06	1.448229e-09	2.891593e+01	1.007206e+02
2.860000e-06	4.198890e-06	1.457496e-09	2.912874e+01	1.010231e+02
2.870000e-06	4.229211e-06	1.465978e-09	2.933908e+01	1.013171e+02
2.880000e-06	4.259234e-06	1.470076e-09	2.954736e+01	1.016026e+02
2.890000e-06	4.288998e-06	1.470075e-09	2.975384e+01	1.018793e+02
2.900000e-06	4.318559e-06	1.470457e-09	2.995892e+01	1.021473e+02
