# Temperatura_=_-16.62
# Concentracion g/m^3_=_1620.0
# C_Vs_to_Am_M_A/Vsm_=_65563218390.804596
# pendiente_HvsI_1/m_=_3716.3
# ordenada_HvsI_A/m_=_1297.0
# frecuencia_Hz_=_135093.58111857818

Tiempo_(s)	Campo_(V.s)	Magnetizacion_(V.s)	Campo_(kA/m)	Magnetizacion_(A/m)
0.000000e+00	-5.526323e-06	-1.268058e-09	-3.837519e+01	-8.044119e+01
1.000000e-08	-5.526609e-06	-1.264217e-09	-3.837717e+01	-8.044804e+01
2.000000e-08	-5.526594e-06	-1.261135e-09	-3.837707e+01	-8.045125e+01
3.000000e-08	-5.526276e-06	-1.260351e-09	-3.837486e+01	-8.045064e+01
4.000000e-08	-5.525605e-06	-1.262483e-09	-3.837020e+01	-8.044611e+01
5.000000e-08	-5.524449e-06	-1.263927e-09	-3.836217e+01	-8.043761e+01
6.000000e-08	-5.522675e-06	-1.257086e-09	-3.834986e+01	-8.042519e+01
7.000000e-08	-5.520332e-06	-1.245162e-09	-3.833359e+01	-8.040897e+01
8.000000e-08	-5.517463e-06	-1.245530e-09	-3.831366e+01	-8.038915e+01
9.000000e-08	-5.514088e-06	-1.286436e-09	-3.829023e+01	-8.036600e+01
1.000000e-07	-5.510261e-06	-1.311561e-09	-3.826365e+01	-8.033985e+01
1.100000e-07	-5.506017e-06	-1.272963e-09	-3.823418e+01	-8.031112e+01
1.200000e-07	-5.501485e-06	-1.237468e-09	-3.820271e+01	-8.028025e+01
1.300000e-07	-5.496854e-06	-1.210425e-09	-3.817055e+01	-8.024776e+01
1.400000e-07	-5.491914e-06	-1.243889e-09	-3.813625e+01	-8.021418e+01
1.500000e-07	-5.486473e-06	-1.249257e-09	-3.809846e+01	-8.018010e+01
1.600000e-07	-5.480684e-06	-1.234405e-09	-3.805827e+01	-8.014608e+01
1.700000e-07	-5.474650e-06	-1.270540e-09	-3.801637e+01	-8.011272e+01
1.800000e-07	-5.468101e-06	-1.251963e-09	-3.797089e+01	-8.008059e+01
1.900000e-07	-5.460991e-06	-1.254472e-09	-3.792152e+01	-8.005024e+01
2.000000e-07	-5.453580e-06	-1.217953e-09	-3.787005e+01	-8.002219e+01
2.100000e-07	-5.445932e-06	-1.237737e-09	-3.781694e+01	-7.999690e+01
2.200000e-07	-5.438076e-06	-1.208552e-09	-3.776239e+01	-7.997479e+01
2.300000e-07	-5.429988e-06	-1.210737e-09	-3.770623e+01	-7.995621e+01
2.400000e-07	-5.421593e-06	-1.215003e-09	-3.764794e+01	-7.994141e+01
2.500000e-07	-5.412697e-06	-1.228013e-09	-3.758616e+01	-7.993060e+01
2.600000e-07	-5.403033e-06	-1.201804e-09	-3.751905e+01	-7.992387e+01
2.700000e-07	-5.392575e-06	-1.204016e-09	-3.744643e+01	-7.992124e+01
2.800000e-07	-5.381518e-06	-1.215206e-09	-3.736965e+01	-7.992263e+01
2.900000e-07	-5.370031e-06	-1.210377e-09	-3.728988e+01	-7.992787e+01
3.000000e-07	-5.358209e-06	-1.211794e-09	-3.720779e+01	-7.993671e+01
3.100000e-07	-5.345974e-06	-1.212361e-09	-3.712283e+01	-7.994880e+01
3.200000e-07	-5.333282e-06	-1.222211e-09	-3.703470e+01	-7.996373e+01
3.300000e-07	-5.320220e-06	-1.196070e-09	-3.694399e+01	-7.998102e+01
3.400000e-07	-5.306817e-06	-1.208444e-09	-3.685092e+01	-8.000011e+01
3.500000e-07	-5.293096e-06	-1.202945e-09	-3.675564e+01	-8.002041e+01
3.600000e-07	-5.278899e-06	-1.209370e-09	-3.665706e+01	-8.004129e+01
3.700000e-07	-5.264251e-06	-1.206733e-09	-3.655534e+01	-8.006209e+01
3.800000e-07	-5.249188e-06	-1.220389e-09	-3.645074e+01	-8.008213e+01
3.900000e-07	-5.233464e-06	-1.205569e-09	-3.634155e+01	-8.010075e+01
4.000000e-07	-5.217194e-06	-1.213395e-09	-3.622858e+01	-8.011728e+01
4.100000e-07	-5.200563e-06	-1.209395e-09	-3.611309e+01	-8.013110e+01
4.200000e-07	-5.183581e-06	-1.200264e-09	-3.599516e+01	-8.014162e+01
4.300000e-07	-5.166230e-06	-1.188378e-09	-3.587468e+01	-8.014829e+01
4.400000e-07	-5.148634e-06	-1.223433e-09	-3.575249e+01	-8.015065e+01
4.500000e-07	-5.130823e-06	-1.216323e-09	-3.562881e+01	-8.014828e+01
4.600000e-07	-5.112513e-06	-1.208647e-09	-3.550166e+01	-8.014085e+01
4.700000e-07	-5.093759e-06	-1.216886e-09	-3.537143e+01	-8.012812e+01
4.800000e-07	-5.074677e-06	-1.225478e-09	-3.523893e+01	-8.010993e+01
4.900000e-07	-5.055229e-06	-1.191272e-09	-3.510387e+01	-8.008622e+01
5.000000e-07	-5.035560e-06	-1.201105e-09	-3.496729e+01	-8.005702e+01
5.100000e-07	-5.015719e-06	-1.211417e-09	-3.482951e+01	-8.002244e+01
5.200000e-07	-4.995596e-06	-1.187294e-09	-3.468978e+01	-7.998268e+01
5.300000e-07	-4.975149e-06	-1.181965e-09	-3.454779e+01	-7.993802e+01
5.400000e-07	-4.954372e-06	-1.218722e-09	-3.440352e+01	-7.988883e+01
5.500000e-07	-4.933171e-06	-1.210616e-09	-3.425630e+01	-7.983552e+01
5.600000e-07	-4.911567e-06	-1.192358e-09	-3.410627e+01	-7.977857e+01
5.700000e-07	-4.889644e-06	-1.210436e-09	-3.395404e+01	-7.971851e+01
5.800000e-07	-4.867464e-06	-1.206395e-09	-3.380002e+01	-7.965587e+01
5.900000e-07	-4.844976e-06	-1.180336e-09	-3.364387e+01	-7.959125e+01
6.000000e-07	-4.822118e-06	-1.189779e-09	-3.348513e+01	-7.952521e+01
6.100000e-07	-4.798892e-06	-1.204249e-09	-3.332385e+01	-7.945834e+01
6.200000e-07	-4.775372e-06	-1.181917e-09	-3.316053e+01	-7.939118e+01
6.300000e-07	-4.751658e-06	-1.185672e-09	-3.299586e+01	-7.932426e+01
6.400000e-07	-4.727748e-06	-1.198316e-09	-3.282983e+01	-7.925806e+01
6.500000e-07	-4.703577e-06	-1.189923e-09	-3.266198e+01	-7.919299e+01
6.600000e-07	-4.678996e-06	-1.178951e-09	-3.249129e+01	-7.912944e+01
6.700000e-07	-4.653876e-06	-1.192340e-09	-3.231685e+01	-7.906767e+01
6.800000e-07	-4.628181e-06	-1.180625e-09	-3.213842e+01	-7.900791e+01
6.900000e-07	-4.602032e-06	-1.173444e-09	-3.195684e+01	-7.895028e+01
7.000000e-07	-4.575391e-06	-1.177779e-09	-3.177185e+01	-7.889483e+01
7.100000e-07	-4.548237e-06	-1.184262e-09	-3.158329e+01	-7.884151e+01
7.200000e-07	-4.520776e-06	-1.173347e-09	-3.139260e+01	-7.879018e+01
7.300000e-07	-4.493151e-06	-1.178873e-09	-3.120076e+01	-7.874064e+01
7.400000e-07	-4.465347e-06	-1.174845e-09	-3.100769e+01	-7.869257e+01
7.500000e-07	-4.437276e-06	-1.168591e-09	-3.081276e+01	-7.864562e+01
7.600000e-07	-4.408955e-06	-1.165491e-09	-3.061611e+01	-7.859935e+01
7.700000e-07	-4.380374e-06	-1.174161e-09	-3.041763e+01	-7.855325e+01
7.800000e-07	-4.351442e-06	-1.170664e-09	-3.021673e+01	-7.850680e+01
7.900000e-07	-4.322186e-06	-1.173072e-09	-3.001357e+01	-7.845940e+01
8.000000e-07	-4.292673e-06	-1.177029e-09	-2.980863e+01	-7.841045e+01
8.100000e-07	-4.262879e-06	-1.174472e-09	-2.960174e+01	-7.835934e+01
8.200000e-07	-4.232782e-06	-1.163085e-09	-2.939274e+01	-7.830545e+01
8.300000e-07	-4.202460e-06	-1.158455e-09	-2.918219e+01	-7.824816e+01
8.400000e-07	-4.171806e-06	-1.154436e-09	-2.896932e+01	-7.818690e+01
8.500000e-07	-4.140814e-06	-1.152573e-09	-2.875412e+01	-7.812112e+01
8.600000e-07	-4.109679e-06	-1.160059e-09	-2.853791e+01	-7.805032e+01
8.700000e-07	-4.078322e-06	-1.169086e-09	-2.832017e+01	-7.797405e+01
8.800000e-07	-4.046695e-06	-1.169431e-09	-2.810054e+01	-7.789193e+01
8.900000e-07	-4.014876e-06	-1.163312e-09	-2.787959e+01	-7.780364e+01
9.000000e-07	-3.982949e-06	-1.157786e-09	-2.765789e+01	-7.770896e+01
9.100000e-07	-3.950708e-06	-1.146053e-09	-2.743401e+01	-7.760773e+01
9.200000e-07	-3.918071e-06	-1.137304e-09	-2.720737e+01	-7.749988e+01
9.300000e-07	-3.885112e-06	-1.135238e-09	-2.697850e+01	-7.738542e+01
9.400000e-07	-3.851689e-06	-1.141214e-09	-2.674640e+01	-7.726445e+01
9.500000e-07	-3.817743e-06	-1.142152e-09	-2.651068e+01	-7.713713e+01
9.600000e-07	-3.783239e-06	-1.145693e-09	-2.627109e+01	-7.700372e+01
9.700000e-07	-3.748394e-06	-1.142082e-09	-2.602912e+01	-7.686454e+01
9.800000e-07	-3.713318e-06	-1.135532e-09	-2.578555e+01	-7.671996e+01
9.900000e-07	-3.677990e-06	-1.127057e-09	-2.554023e+01	-7.657042e+01
1.000000e-06	-3.642456e-06	-1.128020e-09	-2.529348e+01	-7.641638e+01
1.010000e-06	-3.606725e-06	-1.124226e-09	-2.504536e+01	-7.625836e+01
1.020000e-06	-3.570854e-06	-1.119825e-09	-2.479627e+01	-7.609689e+01
1.030000e-06	-3.534862e-06	-1.117733e-09	-2.454634e+01	-7.593250e+01
1.040000e-06	-3.498725e-06	-1.119585e-09	-2.429540e+01	-7.576573e+01
1.050000e-06	-3.462300e-06	-1.119486e-09	-2.404246e+01	-7.559711e+01
1.060000e-06	-3.425559e-06	-1.121895e-09	-2.378733e+01	-7.542712e+01
1.070000e-06	-3.388522e-06	-1.119475e-09	-2.353014e+01	-7.525623e+01
1.080000e-06	-3.351259e-06	-1.112167e-09	-2.327139e+01	-7.508486e+01
1.090000e-06	-3.313795e-06	-1.103471e-09	-2.301123e+01	-7.491337e+01
1.100000e-06	-3.276109e-06	-1.099229e-09	-2.274954e+01	-7.474205e+01
1.110000e-06	-3.238203e-06	-1.094543e-09	-2.248631e+01	-7.457112e+01
1.120000e-06	-3.200071e-06	-1.090270e-09	-2.222152e+01	-7.440074e+01
1.130000e-06	-3.161661e-06	-1.086106e-09	-2.195480e+01	-7.423097e+01
1.140000e-06	-3.123082e-06	-1.084260e-09	-2.168691e+01	-7.406180e+01
1.150000e-06	-3.084398e-06	-1.083368e-09	-2.141829e+01	-7.389312e+01
1.160000e-06	-3.045453e-06	-1.083388e-09	-2.114785e+01	-7.372474e+01
1.170000e-06	-3.006252e-06	-1.083238e-09	-2.087563e+01	-7.355640e+01
1.180000e-06	-2.966865e-06	-1.078839e-09	-2.060212e+01	-7.338775e+01
1.190000e-06	-2.927372e-06	-1.075250e-09	-2.032788e+01	-7.321836e+01
1.200000e-06	-2.887672e-06	-1.072557e-09	-2.005221e+01	-7.304774e+01
1.210000e-06	-2.847790e-06	-1.069943e-09	-1.977526e+01	-7.287532e+01
1.220000e-06	-2.807852e-06	-1.066489e-09	-1.949793e+01	-7.270050e+01
1.230000e-06	-2.767810e-06	-1.063419e-09	-1.921987e+01	-7.252262e+01
1.240000e-06	-2.727652e-06	-1.057719e-09	-1.894101e+01	-7.234099e+01
1.250000e-06	-2.687299e-06	-1.052495e-09	-1.866080e+01	-7.215489e+01
1.260000e-06	-2.646743e-06	-1.047641e-09	-1.837917e+01	-7.196358e+01
1.270000e-06	-2.605891e-06	-1.046708e-09	-1.809549e+01	-7.176633e+01
1.280000e-06	-2.564658e-06	-1.043079e-09	-1.780917e+01	-7.156241e+01
1.290000e-06	-2.523179e-06	-1.039548e-09	-1.752114e+01	-7.135109e+01
1.300000e-06	-2.481443e-06	-1.035716e-09	-1.723132e+01	-7.113169e+01
1.310000e-06	-2.439434e-06	-1.029998e-09	-1.693961e+01	-7.090357e+01
1.320000e-06	-2.397099e-06	-1.021135e-09	-1.664563e+01	-7.066610e+01
1.330000e-06	-2.354419e-06	-1.012736e-09	-1.634925e+01	-7.041872e+01
1.340000e-06	-2.311551e-06	-1.005078e-09	-1.605158e+01	-7.016096e+01
1.350000e-06	-2.268445e-06	-1.002924e-09	-1.575225e+01	-6.989235e+01
1.360000e-06	-2.225008e-06	-1.003037e-09	-1.545062e+01	-6.961255e+01
1.370000e-06	-2.181417e-06	-1.005878e-09	-1.514791e+01	-6.932126e+01
1.380000e-06	-2.137753e-06	-1.005668e-09	-1.484471e+01	-6.901825e+01
1.390000e-06	-2.094023e-06	-9.992876e-10	-1.454105e+01	-6.870339e+01
1.400000e-06	-2.050211e-06	-9.876697e-10	-1.423682e+01	-6.837658e+01
1.410000e-06	-2.006342e-06	-9.747684e-10	-1.393218e+01	-6.803783e+01
1.420000e-06	-1.962475e-06	-9.632047e-10	-1.362757e+01	-6.768720e+01
1.430000e-06	-1.918496e-06	-9.535559e-10	-1.332218e+01	-6.732482e+01
1.440000e-06	-1.874366e-06	-9.492509e-10	-1.301573e+01	-6.695085e+01
1.450000e-06	-1.830164e-06	-9.473317e-10	-1.270879e+01	-6.656552e+01
1.460000e-06	-1.785915e-06	-9.443083e-10	-1.240152e+01	-6.616911e+01
1.470000e-06	-1.741464e-06	-9.382933e-10	-1.209286e+01	-6.576190e+01
1.480000e-06	-1.696812e-06	-9.300451e-10	-1.178279e+01	-6.534421e+01
1.490000e-06	-1.652012e-06	-9.204907e-10	-1.147169e+01	-6.491635e+01
1.500000e-06	-1.607023e-06	-9.098527e-10	-1.115928e+01	-6.447867e+01
1.510000e-06	-1.561974e-06	-8.960768e-10	-1.084646e+01	-6.403146e+01
1.520000e-06	-1.516891e-06	-8.844044e-10	-1.053340e+01	-6.357501e+01
1.530000e-06	-1.471663e-06	-8.768538e-10	-1.021934e+01	-6.310956e+01
1.540000e-06	-1.426305e-06	-8.708645e-10	-9.904363e+00	-6.263533e+01
1.550000e-06	-1.380928e-06	-8.657793e-10	-9.589265e+00	-6.215245e+01
1.560000e-06	-1.335416e-06	-8.609757e-10	-9.273227e+00	-6.166099e+01
1.570000e-06	-1.289748e-06	-8.535250e-10	-8.956100e+00	-6.116095e+01
1.580000e-06	-1.244029e-06	-8.434900e-10	-8.638630e+00	-6.065224e+01
1.590000e-06	-1.198311e-06	-8.301988e-10	-8.321156e+00	-6.013467e+01
1.600000e-06	-1.152511e-06	-8.159471e-10	-8.003121e+00	-5.960793e+01
1.610000e-06	-1.106570e-06	-8.037064e-10	-7.684106e+00	-5.907164e+01
1.620000e-06	-1.060442e-06	-7.949113e-10	-7.363783e+00	-5.852528e+01
1.630000e-06	-1.014223e-06	-7.874289e-10	-7.042835e+00	-5.796821e+01
1.640000e-06	-9.680135e-07	-7.810438e-10	-6.721956e+00	-5.739968e+01
1.650000e-06	-9.217008e-07	-7.735813e-10	-6.400357e+00	-5.681882e+01
1.660000e-06	-8.754306e-07	-7.649174e-10	-6.079054e+00	-5.622466e+01
1.670000e-06	-8.290526e-07	-7.542495e-10	-5.757001e+00	-5.561609e+01
1.680000e-06	-7.825981e-07	-7.446918e-10	-5.434418e+00	-5.499191e+01
1.690000e-06	-7.361582e-07	-7.332032e-10	-5.111936e+00	-5.435081e+01
1.700000e-06	-6.896466e-07	-7.215033e-10	-4.788956e+00	-5.369139e+01
1.710000e-06	-6.431818e-07	-7.084478e-10	-4.466301e+00	-5.301216e+01
1.720000e-06	-5.966377e-07	-6.940774e-10	-4.143095e+00	-5.231158e+01
1.730000e-06	-5.499570e-07	-6.806670e-10	-3.818941e+00	-5.158802e+01
1.740000e-06	-5.032335e-07	-6.677769e-10	-3.494490e+00	-5.083982e+01
1.750000e-06	-4.564175e-07	-6.579839e-10	-3.169396e+00	-5.006530e+01
1.760000e-06	-4.095752e-07	-6.479564e-10	-2.844120e+00	-4.926274e+01
1.770000e-06	-3.627623e-07	-6.367063e-10	-2.519048e+00	-4.843046e+01
1.780000e-06	-3.159373e-07	-6.242056e-10	-2.193891e+00	-4.756677e+01
1.790000e-06	-2.691902e-07	-6.119071e-10	-1.869277e+00	-4.667002e+01
1.800000e-06	-2.224227e-07	-5.990396e-10	-1.544519e+00	-4.573865e+01
1.810000e-06	-1.756110e-07	-5.840295e-10	-1.219456e+00	-4.477114e+01
1.820000e-06	-1.287888e-07	-5.686664e-10	-8.943189e-01	-4.376608e+01
1.830000e-06	-8.188086e-08	-5.536029e-10	-5.685866e-01	-4.272218e+01
1.840000e-06	-3.501939e-08	-5.366480e-10	-2.431772e-01	-4.163828e+01
1.850000e-06	1.179679e-08	-5.197021e-10	8.191774e-02	-4.051336e+01
1.860000e-06	5.867958e-08	-5.038161e-10	4.074753e-01	-3.934657e+01
1.870000e-06	1.056336e-07	-4.910030e-10	7.335274e-01	-3.813723e+01
1.880000e-06	1.526151e-07	-4.774313e-10	1.059770e+00	-3.688486e+01
1.890000e-06	1.995321e-07	-4.607533e-10	1.385566e+00	-3.558917e+01
1.900000e-06	2.463668e-07	-4.388325e-10	1.710789e+00	-3.425011e+01
1.910000e-06	2.932753e-07	-4.150168e-10	2.036525e+00	-3.286782e+01
1.920000e-06	3.401518e-07	-3.918215e-10	2.362039e+00	-3.144269e+01
1.930000e-06	3.868402e-07	-3.695688e-10	2.686246e+00	-2.997530e+01
1.940000e-06	4.334813e-07	-3.511871e-10	3.010126e+00	-2.846650e+01
1.950000e-06	4.801427e-07	-3.353186e-10	3.334146e+00	-2.691736e+01
1.960000e-06	5.268420e-07	-3.173997e-10	3.658429e+00	-2.532915e+01
1.970000e-06	5.734864e-07	-2.974803e-10	3.982331e+00	-2.370338e+01
1.980000e-06	6.200717e-07	-2.758846e-10	4.305823e+00	-2.204178e+01
1.990000e-06	6.666216e-07	-2.525562e-10	4.629068e+00	-2.034626e+01
2.000000e-06	7.130670e-07	-2.279433e-10	4.951589e+00	-1.861893e+01
2.010000e-06	7.594489e-07	-2.017885e-10	5.273668e+00	-1.686207e+01
2.020000e-06	8.058178e-07	-1.755464e-10	5.595657e+00	-1.507812e+01
2.030000e-06	8.521203e-07	-1.477657e-10	5.917185e+00	-1.326966e+01
2.040000e-06	8.983526e-07	-1.209893e-10	6.238225e+00	-1.143940e+01
2.050000e-06	9.445890e-07	-9.681847e-11	6.559294e+00	-9.590151e+00
2.060000e-06	9.907017e-07	-7.341932e-11	6.879504e+00	-7.724795e+00
2.070000e-06	1.036701e-06	-4.981441e-11	7.198927e+00	-5.846288e+00
2.080000e-06	1.082668e-06	-2.584416e-11	7.518122e+00	-3.957623e+00
2.090000e-06	1.128588e-06	-1.380561e-12	7.836998e+00	-2.061810e+00
2.100000e-06	1.174410e-06	2.542444e-11	8.155190e+00	-1.618590e-01
2.110000e-06	1.220116e-06	5.377401e-11	8.472574e+00	1.739246e+00
2.120000e-06	1.265758e-06	8.150337e-11	8.789518e+00	3.638562e+00
2.130000e-06	1.311349e-06	1.097319e-10	9.106101e+00	5.533211e+00
2.140000e-06	1.356855e-06	1.363685e-10	9.422098e+00	7.420392e+00
2.150000e-06	1.402250e-06	1.607308e-10	9.737328e+00	9.297403e+00
2.160000e-06	1.447579e-06	1.848575e-10	1.005209e+01	1.116165e+01
2.170000e-06	1.492872e-06	2.076414e-10	1.036661e+01	1.301067e+01
2.180000e-06	1.537957e-06	2.297472e-10	1.067969e+01	1.484214e+01
2.190000e-06	1.582920e-06	2.545032e-10	1.099191e+01	1.665386e+01
2.200000e-06	1.627858e-06	2.805401e-10	1.130397e+01	1.844380e+01
2.210000e-06	1.672689e-06	3.073377e-10	1.161527e+01	2.021010e+01
2.220000e-06	1.717355e-06	3.349748e-10	1.192544e+01	2.195104e+01
2.230000e-06	1.761753e-06	3.618367e-10	1.223374e+01	2.366508e+01
2.240000e-06	1.805964e-06	3.845768e-10	1.254074e+01	2.535083e+01
2.250000e-06	1.850037e-06	4.012579e-10	1.284679e+01	2.700707e+01
2.260000e-06	1.894078e-06	4.165957e-10	1.315261e+01	2.863275e+01
2.270000e-06	1.938125e-06	4.364591e-10	1.345848e+01	3.022696e+01
2.280000e-06	1.982135e-06	4.565137e-10	1.376409e+01	3.178894e+01
2.290000e-06	2.026042e-06	4.787645e-10	1.406898e+01	3.331807e+01
2.300000e-06	2.069857e-06	5.005971e-10	1.437324e+01	3.481388e+01
2.310000e-06	2.113645e-06	5.206990e-10	1.467730e+01	3.627601e+01
2.320000e-06	2.157321e-06	5.401377e-10	1.498059e+01	3.770420e+01
2.330000e-06	2.200905e-06	5.581203e-10	1.528325e+01	3.909833e+01
2.340000e-06	2.244426e-06	5.757916e-10	1.558546e+01	4.045835e+01
2.350000e-06	2.287760e-06	5.925409e-10	1.588637e+01	4.178431e+01
2.360000e-06	2.330850e-06	6.111511e-10	1.618559e+01	4.307632e+01
2.370000e-06	2.373665e-06	6.291650e-10	1.648290e+01	4.433458e+01
2.380000e-06	2.416203e-06	6.470643e-10	1.677829e+01	4.555934e+01
2.390000e-06	2.458472e-06	6.619541e-10	1.707181e+01	4.675089e+01
2.400000e-06	2.500404e-06	6.760552e-10	1.736299e+01	4.790958e+01
2.410000e-06	2.541974e-06	6.909755e-10	1.765165e+01	4.903579e+01
2.420000e-06	2.583235e-06	7.058795e-10	1.793817e+01	5.012994e+01
2.430000e-06	2.624127e-06	7.210739e-10	1.822213e+01	5.119246e+01
2.440000e-06	2.664657e-06	7.358155e-10	1.850357e+01	5.222383e+01
2.450000e-06	2.705021e-06	7.508252e-10	1.878386e+01	5.322452e+01
2.460000e-06	2.745202e-06	7.647382e-10	1.906288e+01	5.419504e+01
2.470000e-06	2.785207e-06	7.762226e-10	1.934068e+01	5.513591e+01
2.480000e-06	2.825121e-06	7.885402e-10	1.961784e+01	5.604766e+01
2.490000e-06	2.864912e-06	8.004309e-10	1.989416e+01	5.693084e+01
2.500000e-06	2.904578e-06	8.130509e-10	2.016960e+01	5.778600e+01
2.510000e-06	2.944186e-06	8.261351e-10	2.044464e+01	5.861373e+01
2.520000e-06	2.983662e-06	8.407522e-10	2.071877e+01	5.941461e+01
2.530000e-06	3.022901e-06	8.542645e-10	2.099124e+01	6.018924e+01
2.540000e-06	3.061970e-06	8.679243e-10	2.126254e+01	6.093823e+01
2.550000e-06	3.100796e-06	8.811158e-10	2.153215e+01	6.166222e+01
2.560000e-06	3.139341e-06	8.888500e-10	2.179981e+01	6.236185e+01
2.570000e-06	3.177717e-06	8.952929e-10	2.206630e+01	6.303778e+01
2.580000e-06	3.215912e-06	9.008882e-10	2.233152e+01	6.369066e+01
2.590000e-06	3.253825e-06	9.062983e-10	2.259480e+01	6.432118e+01
2.600000e-06	3.291495e-06	9.127993e-10	2.285638e+01	6.493003e+01
2.610000e-06	3.328957e-06	9.236196e-10	2.311652e+01	6.551790e+01
2.620000e-06	3.366153e-06	9.379197e-10	2.337481e+01	6.608548e+01
2.630000e-06	3.403151e-06	9.514748e-10	2.363173e+01	6.663348e+01
2.640000e-06	3.439930e-06	9.620492e-10	2.388712e+01	6.716258e+01
2.650000e-06	3.476419e-06	9.686130e-10	2.414051e+01	6.767349e+01
2.660000e-06	3.512640e-06	9.709427e-10	2.439202e+01	6.816686e+01
2.670000e-06	3.548667e-06	9.721090e-10	2.464220e+01	6.864339e+01
2.680000e-06	3.584584e-06	9.742241e-10	2.489161e+01	6.910370e+01
2.690000e-06	3.620435e-06	9.801466e-10	2.514056e+01	6.954842e+01
2.700000e-06	3.656140e-06	9.904246e-10	2.538850e+01	6.997815e+01
2.710000e-06	3.691628e-06	1.000115e-09	2.563493e+01	7.039347e+01
2.720000e-06	3.726920e-06	1.005568e-09	2.588000e+01	7.079491e+01
2.730000e-06	3.761867e-06	1.009361e-09	2.612268e+01	7.118297e+01
2.740000e-06	3.796382e-06	1.012341e-09	2.636235e+01	7.155812e+01
2.750000e-06	3.830475e-06	1.015288e-09	2.659910e+01	7.192080e+01
2.760000e-06	3.864121e-06	1.018359e-09	2.683274e+01	7.227138e+01
2.770000e-06	3.897268e-06	1.023312e-09	2.706291e+01	7.261022e+01
2.780000e-06	3.929955e-06	1.030307e-09	2.728989e+01	7.293764e+01
2.790000e-06	3.962236e-06	1.037102e-09	2.751406e+01	7.325392e+01
2.800000e-06	3.994266e-06	1.043868e-09	2.773647e+01	7.355930e+01
2.810000e-06	4.026184e-06	1.050081e-09	2.795811e+01	7.385399e+01
2.820000e-06	4.057972e-06	1.053981e-09	2.817885e+01	7.413818e+01
2.830000e-06	4.089598e-06	1.058082e-09	2.839847e+01	7.441204e+01
2.840000e-06	4.121044e-06	1.062895e-09	2.861683e+01	7.467571e+01
2.850000e-06	4.152215e-06	1.067134e-09	2.883328e+01	7.492933e+01
2.860000e-06	4.183069e-06	1.071129e-09	2.904754e+01	7.517303e+01
2.870000e-06	4.213717e-06	1.075707e-09	2.926036e+01	7.540693e+01
2.880000e-06	4.244037e-06	1.079879e-09	2.947090e+01	7.563116e+01
2.890000e-06	4.273964e-06	1.083731e-09	2.967872e+01	7.584585e+01
2.900000e-06	4.303557e-06	1.086723e-09	2.988421e+01	7.605115e+01
