# Temperatura_=_8.68
# Concentracion g/m^3_=_1620.0
# C_Vs_to_Am_M_A/Vsm_=_65563218390.804596
# pendiente_HvsI_1/m_=_3716.3
# ordenada_HvsI_A/m_=_1297.0
# frecuencia_Hz_=_135109.34372391587

Tiempo_(s)	Campo_(V.s)	Magnetizacion_(V.s)	Campo_(kA/m)	Magnetizacion_(A/m)
0.000000e+00	-5.516073e-06	-1.685404e-09	-3.837132e+01	-1.107000e+02
1.000000e-08	-5.516413e-06	-1.684962e-09	-3.837369e+01	-1.106544e+02
2.000000e-08	-5.516402e-06	-1.688150e-09	-3.837361e+01	-1.106096e+02
3.000000e-08	-5.515977e-06	-1.692876e-09	-3.837066e+01	-1.105658e+02
4.000000e-08	-5.515137e-06	-1.693539e-09	-3.836481e+01	-1.105228e+02
5.000000e-08	-5.513812e-06	-1.690078e-09	-3.835559e+01	-1.104808e+02
6.000000e-08	-5.511867e-06	-1.685904e-09	-3.834206e+01	-1.104398e+02
7.000000e-08	-5.509341e-06	-1.694563e-09	-3.832449e+01	-1.103998e+02
8.000000e-08	-5.506306e-06	-1.715306e-09	-3.830338e+01	-1.103605e+02
9.000000e-08	-5.502798e-06	-1.686166e-09	-3.827898e+01	-1.103220e+02
1.000000e-07	-5.498852e-06	-1.624314e-09	-3.825153e+01	-1.102839e+02
1.100000e-07	-5.494559e-06	-1.660322e-09	-3.822166e+01	-1.102463e+02
1.200000e-07	-5.489976e-06	-1.766282e-09	-3.818979e+01	-1.102087e+02
1.300000e-07	-5.485096e-06	-1.701922e-09	-3.815584e+01	-1.101709e+02
1.400000e-07	-5.479939e-06	-1.606341e-09	-3.811997e+01	-1.101327e+02
1.500000e-07	-5.474476e-06	-1.627730e-09	-3.808197e+01	-1.100936e+02
1.600000e-07	-5.468681e-06	-1.760861e-09	-3.804165e+01	-1.100534e+02
1.700000e-07	-5.462419e-06	-1.724264e-09	-3.799809e+01	-1.100117e+02
1.800000e-07	-5.455686e-06	-1.568646e-09	-3.795125e+01	-1.099680e+02
1.900000e-07	-5.448644e-06	-1.601606e-09	-3.790226e+01	-1.099220e+02
2.000000e-07	-5.441272e-06	-1.720527e-09	-3.785098e+01	-1.098733e+02
2.100000e-07	-5.433557e-06	-1.755521e-09	-3.779731e+01	-1.098214e+02
2.200000e-07	-5.425677e-06	-1.651689e-09	-3.774250e+01	-1.097660e+02
2.300000e-07	-5.417500e-06	-1.645973e-09	-3.768562e+01	-1.097066e+02
2.400000e-07	-5.408740e-06	-1.696105e-09	-3.762468e+01	-1.096429e+02
2.500000e-07	-5.399230e-06	-1.717050e-09	-3.755853e+01	-1.095745e+02
2.600000e-07	-5.389061e-06	-1.644979e-09	-3.748779e+01	-1.095010e+02
2.700000e-07	-5.378534e-06	-1.655137e-09	-3.741456e+01	-1.094222e+02
2.800000e-07	-5.367541e-06	-1.698175e-09	-3.733809e+01	-1.093377e+02
2.900000e-07	-5.356007e-06	-1.710925e-09	-3.725786e+01	-1.092473e+02
3.000000e-07	-5.344071e-06	-1.655791e-09	-3.717483e+01	-1.091507e+02
3.100000e-07	-5.331767e-06	-1.646492e-09	-3.708924e+01	-1.090479e+02
3.200000e-07	-5.319108e-06	-1.679667e-09	-3.700118e+01	-1.089386e+02
3.300000e-07	-5.306122e-06	-1.677730e-09	-3.691084e+01	-1.088227e+02
3.400000e-07	-5.292699e-06	-1.634836e-09	-3.681747e+01	-1.087002e+02
3.500000e-07	-5.278806e-06	-1.637808e-09	-3.672083e+01	-1.085712e+02
3.600000e-07	-5.264498e-06	-1.699968e-09	-3.662130e+01	-1.084355e+02
3.700000e-07	-5.249634e-06	-1.687505e-09	-3.651790e+01	-1.082934e+02
3.800000e-07	-5.234150e-06	-1.635721e-09	-3.641019e+01	-1.081448e+02
3.900000e-07	-5.218251e-06	-1.658867e-09	-3.629959e+01	-1.079900e+02
4.000000e-07	-5.202074e-06	-1.689318e-09	-3.618706e+01	-1.078292e+02
4.100000e-07	-5.185474e-06	-1.609455e-09	-3.607158e+01	-1.076625e+02
4.200000e-07	-5.168439e-06	-1.612406e-09	-3.595308e+01	-1.074902e+02
4.300000e-07	-5.151124e-06	-1.700629e-09	-3.583264e+01	-1.073126e+02
4.400000e-07	-5.133511e-06	-1.670755e-09	-3.571012e+01	-1.071300e+02
4.500000e-07	-5.115509e-06	-1.573348e-09	-3.558489e+01	-1.069427e+02
4.600000e-07	-5.097077e-06	-1.659238e-09	-3.545667e+01	-1.067510e+02
4.700000e-07	-5.078217e-06	-1.697182e-09	-3.532547e+01	-1.065552e+02
4.800000e-07	-5.059044e-06	-1.592250e-09	-3.519210e+01	-1.063557e+02
4.900000e-07	-5.039633e-06	-1.585548e-09	-3.505707e+01	-1.061527e+02
5.000000e-07	-5.019975e-06	-1.676145e-09	-3.492033e+01	-1.059467e+02
5.100000e-07	-5.000088e-06	-1.597131e-09	-3.478199e+01	-1.057379e+02
5.200000e-07	-4.979885e-06	-1.557350e-09	-3.464145e+01	-1.055266e+02
5.300000e-07	-4.959379e-06	-1.655997e-09	-3.449880e+01	-1.053132e+02
5.400000e-07	-4.938643e-06	-1.637303e-09	-3.435456e+01	-1.050977e+02
5.500000e-07	-4.917490e-06	-1.540403e-09	-3.420741e+01	-1.048806e+02
5.600000e-07	-4.895893e-06	-1.624506e-09	-3.405718e+01	-1.046619e+02
5.700000e-07	-4.873934e-06	-1.667893e-09	-3.390443e+01	-1.044420e+02
5.800000e-07	-4.851631e-06	-1.562588e-09	-3.374928e+01	-1.042208e+02
5.900000e-07	-4.829034e-06	-1.563211e-09	-3.359209e+01	-1.039986e+02
6.000000e-07	-4.806165e-06	-1.634203e-09	-3.343301e+01	-1.037754e+02
6.100000e-07	-4.782939e-06	-1.566334e-09	-3.327144e+01	-1.035513e+02
6.200000e-07	-4.759405e-06	-1.531225e-09	-3.310773e+01	-1.033263e+02
6.300000e-07	-4.735711e-06	-1.604245e-09	-3.294291e+01	-1.031003e+02
6.400000e-07	-4.711750e-06	-1.588582e-09	-3.277623e+01	-1.028733e+02
6.500000e-07	-4.687426e-06	-1.542029e-09	-3.260702e+01	-1.026453e+02
6.600000e-07	-4.662737e-06	-1.582838e-09	-3.243528e+01	-1.024161e+02
6.700000e-07	-4.637599e-06	-1.587266e-09	-3.226042e+01	-1.021856e+02
6.800000e-07	-4.611848e-06	-1.529983e-09	-3.208128e+01	-1.019536e+02
6.900000e-07	-4.585449e-06	-1.543972e-09	-3.189765e+01	-1.017199e+02
7.000000e-07	-4.558623e-06	-1.557524e-09	-3.171104e+01	-1.014843e+02
7.100000e-07	-4.531568e-06	-1.526198e-09	-3.152284e+01	-1.012465e+02
7.200000e-07	-4.504219e-06	-1.529626e-09	-3.133259e+01	-1.010064e+02
7.300000e-07	-4.476585e-06	-1.559321e-09	-3.114035e+01	-1.007635e+02
7.400000e-07	-4.448763e-06	-1.531713e-09	-3.094682e+01	-1.005178e+02
7.500000e-07	-4.420778e-06	-1.516343e-09	-3.075215e+01	-1.002687e+02
7.600000e-07	-4.392536e-06	-1.527825e-09	-3.055569e+01	-1.000162e+02
7.700000e-07	-4.363915e-06	-1.521080e-09	-3.035659e+01	-9.975975e+01
7.800000e-07	-4.334940e-06	-1.504699e-09	-3.015503e+01	-9.949916e+01
7.900000e-07	-4.305645e-06	-1.516537e-09	-2.995125e+01	-9.923412e+01
8.000000e-07	-4.276090e-06	-1.508165e-09	-2.974566e+01	-9.896432e+01
8.100000e-07	-4.246336e-06	-1.493610e-09	-2.953868e+01	-9.868947e+01
8.200000e-07	-4.216261e-06	-1.497663e-09	-2.932947e+01	-9.840930e+01
8.300000e-07	-4.185789e-06	-1.499042e-09	-2.911750e+01	-9.812354e+01
8.400000e-07	-4.155041e-06	-1.478564e-09	-2.890361e+01	-9.783195e+01
8.500000e-07	-4.124131e-06	-1.483062e-09	-2.868859e+01	-9.753430e+01
8.600000e-07	-4.092985e-06	-1.494647e-09	-2.847193e+01	-9.723040e+01
8.700000e-07	-4.061582e-06	-1.480811e-09	-2.825348e+01	-9.692005e+01
8.800000e-07	-4.030046e-06	-1.466359e-09	-2.803411e+01	-9.660313e+01
8.900000e-07	-3.998342e-06	-1.467334e-09	-2.781357e+01	-9.627950e+01
9.000000e-07	-3.966305e-06	-1.451857e-09	-2.759071e+01	-9.594909e+01
9.100000e-07	-3.933880e-06	-1.433839e-09	-2.736515e+01	-9.561185e+01
9.200000e-07	-3.901174e-06	-1.438151e-09	-2.713764e+01	-9.526776e+01
9.300000e-07	-3.868163e-06	-1.436590e-09	-2.690801e+01	-9.491684e+01
9.400000e-07	-3.834770e-06	-1.423073e-09	-2.667572e+01	-9.455915e+01
9.500000e-07	-3.800863e-06	-1.422718e-09	-2.643985e+01	-9.419480e+01
9.600000e-07	-3.766453e-06	-1.423221e-09	-2.620049e+01	-9.382391e+01
9.700000e-07	-3.731649e-06	-1.402156e-09	-2.595838e+01	-9.344667e+01
9.800000e-07	-3.696501e-06	-1.390706e-09	-2.571388e+01	-9.306327e+01
9.900000e-07	-3.661120e-06	-1.390556e-09	-2.546776e+01	-9.267396e+01
1.000000e-06	-3.625586e-06	-1.382073e-09	-2.522057e+01	-9.227901e+01
1.010000e-06	-3.589916e-06	-1.368391e-09	-2.497244e+01	-9.187872e+01
1.020000e-06	-3.554106e-06	-1.368331e-09	-2.472334e+01	-9.147342e+01
1.030000e-06	-3.518159e-06	-1.360927e-09	-2.447328e+01	-9.106347e+01
1.040000e-06	-3.481976e-06	-1.349039e-09	-2.422158e+01	-9.064921e+01
1.050000e-06	-3.445540e-06	-1.347472e-09	-2.396812e+01	-9.023103e+01
1.060000e-06	-3.408845e-06	-1.352850e-09	-2.371287e+01	-8.980931e+01
1.070000e-06	-3.371801e-06	-1.342664e-09	-2.345518e+01	-8.938442e+01
1.080000e-06	-3.334474e-06	-1.334616e-09	-2.319552e+01	-8.895675e+01
1.090000e-06	-3.296981e-06	-1.328814e-09	-2.293471e+01	-8.852664e+01
1.100000e-06	-3.259285e-06	-1.315708e-09	-2.267249e+01	-8.809445e+01
1.110000e-06	-3.221400e-06	-1.299623e-09	-2.240895e+01	-8.766048e+01
1.120000e-06	-3.183317e-06	-1.292476e-09	-2.214403e+01	-8.722502e+01
1.130000e-06	-3.144998e-06	-1.284509e-09	-2.187747e+01	-8.678830e+01
1.140000e-06	-3.106450e-06	-1.278089e-09	-2.160932e+01	-8.635053e+01
1.150000e-06	-3.067628e-06	-1.278791e-09	-2.133927e+01	-8.591185e+01
1.160000e-06	-3.028584e-06	-1.278797e-09	-2.106767e+01	-8.547234e+01
1.170000e-06	-2.989424e-06	-1.268578e-09	-2.079525e+01	-8.503203e+01
1.180000e-06	-2.950179e-06	-1.256710e-09	-2.052226e+01	-8.459088e+01
1.190000e-06	-2.910761e-06	-1.246935e-09	-2.024805e+01	-8.414880e+01
1.200000e-06	-2.871159e-06	-1.233862e-09	-1.997257e+01	-8.370559e+01
1.210000e-06	-2.831441e-06	-1.222906e-09	-1.969628e+01	-8.326102e+01
1.220000e-06	-2.791637e-06	-1.218045e-09	-1.941940e+01	-8.281476e+01
1.230000e-06	-2.751697e-06	-1.214538e-09	-1.914156e+01	-8.236644e+01
1.240000e-06	-2.711455e-06	-1.206799e-09	-1.886162e+01	-8.191559e+01
1.250000e-06	-2.670887e-06	-1.200561e-09	-1.857943e+01	-8.146170e+01
1.260000e-06	-2.630168e-06	-1.193151e-09	-1.829617e+01	-8.100419e+01
1.270000e-06	-2.589264e-06	-1.183408e-09	-1.801163e+01	-8.054243e+01
1.280000e-06	-2.548047e-06	-1.171401e-09	-1.772492e+01	-8.007574e+01
1.290000e-06	-2.506497e-06	-1.161934e-09	-1.743588e+01	-7.960341e+01
1.300000e-06	-2.464653e-06	-1.153692e-09	-1.714480e+01	-7.912469e+01
1.310000e-06	-2.422577e-06	-1.145125e-09	-1.685211e+01	-7.863879e+01
1.320000e-06	-2.380200e-06	-1.136324e-09	-1.655733e+01	-7.814494e+01
1.330000e-06	-2.337520e-06	-1.128740e-09	-1.626043e+01	-7.764236e+01
1.340000e-06	-2.294569e-06	-1.120136e-09	-1.596165e+01	-7.713024e+01
1.350000e-06	-2.251393e-06	-1.112332e-09	-1.566131e+01	-7.660783e+01
1.360000e-06	-2.208062e-06	-1.103823e-09	-1.535988e+01	-7.607438e+01
1.370000e-06	-2.164592e-06	-1.094576e-09	-1.505750e+01	-7.552918e+01
1.380000e-06	-2.121020e-06	-1.083271e-09	-1.475440e+01	-7.497156e+01
1.390000e-06	-2.077403e-06	-1.071167e-09	-1.445098e+01	-7.440091e+01
1.400000e-06	-2.033726e-06	-1.056103e-09	-1.414716e+01	-7.381665e+01
1.410000e-06	-1.989942e-06	-1.041714e-09	-1.384258e+01	-7.321830e+01
1.420000e-06	-1.946117e-06	-1.028542e-09	-1.353773e+01	-7.260541e+01
1.430000e-06	-1.902260e-06	-1.017458e-09	-1.323264e+01	-7.197761e+01
1.440000e-06	-1.858300e-06	-1.006704e-09	-1.292685e+01	-7.133461e+01
1.450000e-06	-1.814255e-06	-9.979463e-10	-1.262046e+01	-7.067617e+01
1.460000e-06	-1.770125e-06	-9.910481e-10	-1.231348e+01	-7.000214e+01
1.470000e-06	-1.725712e-06	-9.827725e-10	-1.200453e+01	-6.931240e+01
1.480000e-06	-1.681074e-06	-9.723054e-10	-1.169401e+01	-6.860692e+01
1.490000e-06	-1.636416e-06	-9.615530e-10	-1.138336e+01	-6.788570e+01
1.500000e-06	-1.591560e-06	-9.481882e-10	-1.107133e+01	-6.714879e+01
1.510000e-06	-1.546521e-06	-9.306308e-10	-1.075803e+01	-6.639626e+01
1.520000e-06	-1.501410e-06	-9.139719e-10	-1.044422e+01	-6.562823e+01
1.530000e-06	-1.456245e-06	-9.012898e-10	-1.013004e+01	-6.484479e+01
1.540000e-06	-1.411029e-06	-8.908422e-10	-9.815503e+00	-6.404607e+01
1.550000e-06	-1.365683e-06	-8.804521e-10	-9.500068e+00	-6.323215e+01
1.560000e-06	-1.320221e-06	-8.682910e-10	-9.183822e+00	-6.240309e+01
1.570000e-06	-1.274635e-06	-8.522129e-10	-8.866709e+00	-6.155891e+01
1.580000e-06	-1.228949e-06	-8.354590e-10	-8.548910e+00	-6.069959e+01
1.590000e-06	-1.183207e-06	-8.197095e-10	-8.230714e+00	-5.982502e+01
1.600000e-06	-1.137472e-06	-8.036712e-10	-7.912567e+00	-5.893501e+01
1.610000e-06	-1.091717e-06	-7.856336e-10	-7.594287e+00	-5.802930e+01
1.620000e-06	-1.045778e-06	-7.683686e-10	-7.274720e+00	-5.710751e+01
1.630000e-06	-9.997296e-07	-7.536060e-10	-6.954394e+00	-5.616917e+01
1.640000e-06	-9.536598e-07	-7.416839e-10	-6.633920e+00	-5.521368e+01
1.650000e-06	-9.075082e-07	-7.298421e-10	-6.312877e+00	-5.424034e+01
1.660000e-06	-8.613239e-07	-7.171742e-10	-5.991606e+00	-5.324833e+01
1.670000e-06	-8.151289e-07	-7.017826e-10	-5.670261e+00	-5.223671e+01
1.680000e-06	-7.688338e-07	-6.850252e-10	-5.348220e+00	-5.120442e+01
1.690000e-06	-7.224195e-07	-6.665567e-10	-5.025349e+00	-5.015031e+01
1.700000e-06	-6.759648e-07	-6.471013e-10	-4.702197e+00	-4.907312e+01
1.710000e-06	-6.295257e-07	-6.264361e-10	-4.379154e+00	-4.797150e+01
1.720000e-06	-5.830862e-07	-6.059191e-10	-4.056108e+00	-4.684403e+01
1.730000e-06	-5.366176e-07	-5.863488e-10	-3.732859e+00	-4.568924e+01
1.740000e-06	-4.901109e-07	-5.701996e-10	-3.409347e+00	-4.450558e+01
1.750000e-06	-4.435335e-07	-5.563672e-10	-3.085341e+00	-4.329152e+01
1.760000e-06	-3.968195e-07	-5.404363e-10	-2.760386e+00	-4.204549e+01
1.770000e-06	-3.500847e-07	-5.215938e-10	-2.435285e+00	-4.076597e+01
1.780000e-06	-3.034049e-07	-4.999626e-10	-2.110568e+00	-3.945144e+01
1.790000e-06	-2.566683e-07	-4.777770e-10	-1.785455e+00	-3.810047e+01
1.800000e-06	-2.098831e-07	-4.567860e-10	-1.460004e+00	-3.671171e+01
1.810000e-06	-1.630881e-07	-4.365529e-10	-1.134486e+00	-3.528392e+01
1.820000e-06	-1.163389e-07	-4.148288e-10	-8.092853e-01	-3.381599e+01
1.830000e-06	-6.952281e-08	-3.932307e-10	-4.836198e-01	-3.230695e+01
1.840000e-06	-2.263407e-08	-3.743622e-10	-1.574488e-01	-3.075603e+01
1.850000e-06	2.422024e-08	-3.556373e-10	1.684826e-01	-2.916262e+01
1.860000e-06	7.103781e-08	-3.353513e-10	4.941586e-01	-2.752635e+01
1.870000e-06	1.178314e-07	-3.144615e-10	8.196676e-01	-2.584706e+01
1.880000e-06	1.645807e-07	-2.921388e-10	1.144869e+00	-2.412483e+01
1.890000e-06	2.111974e-07	-2.668868e-10	1.469147e+00	-2.235999e+01
1.900000e-06	2.578036e-07	-2.387206e-10	1.793353e+00	-2.055311e+01
1.910000e-06	3.045128e-07	-2.109722e-10	2.118275e+00	-1.870504e+01
1.920000e-06	3.512252e-07	-1.833803e-10	2.443219e+00	-1.681688e+01
1.930000e-06	3.979233e-07	-1.566846e-10	2.768064e+00	-1.488998e+01
1.940000e-06	4.446255e-07	-1.316995e-10	3.092937e+00	-1.292597e+01
1.950000e-06	4.912399e-07	-1.066638e-10	3.417200e+00	-1.092670e+01
1.960000e-06	5.377455e-07	-7.966242e-11	3.740706e+00	-8.894264e+00
1.970000e-06	5.841725e-07	-5.223871e-11	4.063664e+00	-6.830981e+00
1.980000e-06	6.305959e-07	-2.515487e-11	4.386598e+00	-4.739374e+00
1.990000e-06	6.770528e-07	6.154267e-12	4.709766e+00	-2.622154e+00
2.000000e-06	7.234454e-07	4.118024e-11	5.032485e+00	-4.821974e-01
2.010000e-06	7.697204e-07	7.469076e-11	5.354387e+00	1.677471e+00
2.020000e-06	8.159387e-07	1.070981e-10	5.675894e+00	3.853708e+00
2.030000e-06	8.620733e-07	1.390096e-10	5.996819e+00	6.043270e+00
2.040000e-06	9.081036e-07	1.693012e-10	6.317019e+00	8.242844e+00
2.050000e-06	9.540752e-07	1.976235e-10	6.636810e+00	1.044907e+01
2.060000e-06	1.000009e-06	2.267048e-10	6.956337e+00	1.265857e+01
2.070000e-06	1.045870e-06	2.570287e-10	7.275362e+00	1.486798e+01
2.080000e-06	1.091647e-06	2.863293e-10	7.593795e+00	1.707394e+01
2.090000e-06	1.137359e-06	3.154060e-10	7.911785e+00	1.927318e+01
2.100000e-06	1.183032e-06	3.459926e-10	8.229499e+00	2.146249e+01
2.110000e-06	1.228720e-06	3.778495e-10	8.547312e+00	2.363876e+01
2.120000e-06	1.274376e-06	4.089820e-10	8.864907e+00	2.579900e+01
2.130000e-06	1.319896e-06	4.393571e-10	9.181560e+00	2.794036e+01
2.140000e-06	1.365305e-06	4.686188e-10	9.497438e+00	3.006015e+01
2.150000e-06	1.410653e-06	4.948444e-10	9.812893e+00	3.215583e+01
2.160000e-06	1.455897e-06	5.178504e-10	1.012762e+01	3.422506e+01
2.170000e-06	1.501012e-06	5.408425e-10	1.044145e+01	3.626566e+01
2.180000e-06	1.546011e-06	5.675621e-10	1.075448e+01	3.827566e+01
2.190000e-06	1.590915e-06	5.975280e-10	1.106684e+01	4.025330e+01
2.200000e-06	1.635676e-06	6.283937e-10	1.137821e+01	4.219699e+01
2.210000e-06	1.680282e-06	6.604373e-10	1.168850e+01	4.410535e+01
2.220000e-06	1.724729e-06	6.904179e-10	1.199769e+01	4.597721e+01
2.230000e-06	1.768985e-06	7.151932e-10	1.230554e+01	4.781158e+01
2.240000e-06	1.813158e-06	7.351191e-10	1.261283e+01	4.960766e+01
2.250000e-06	1.857237e-06	7.517672e-10	1.291945e+01	5.136482e+01
2.260000e-06	1.901211e-06	7.689583e-10	1.322535e+01	5.308260e+01
2.270000e-06	1.945081e-06	7.898237e-10	1.353052e+01	5.476073e+01
2.280000e-06	1.988830e-06	8.132844e-10	1.383485e+01	5.639904e+01
2.290000e-06	2.032540e-06	8.379365e-10	1.413891e+01	5.799753e+01
2.300000e-06	2.076189e-06	8.634171e-10	1.444255e+01	5.955632e+01
2.310000e-06	2.119768e-06	8.886785e-10	1.474569e+01	6.107565e+01
2.320000e-06	2.163267e-06	9.105143e-10	1.504828e+01	6.255583e+01
2.330000e-06	2.206661e-06	9.272254e-10	1.535014e+01	6.399731e+01
2.340000e-06	2.249932e-06	9.411081e-10	1.565114e+01	6.540057e+01
2.350000e-06	2.293042e-06	9.561285e-10	1.595103e+01	6.676618e+01
2.360000e-06	2.335938e-06	9.729440e-10	1.624943e+01	6.809477e+01
2.370000e-06	2.378577e-06	9.912452e-10	1.654603e+01	6.938700e+01
2.380000e-06	2.420966e-06	1.012356e-09	1.684090e+01	7.064358e+01
2.390000e-06	2.463105e-06	1.033442e-09	1.713404e+01	7.186526e+01
2.400000e-06	2.504866e-06	1.052439e-09	1.742454e+01	7.305278e+01
2.410000e-06	2.546326e-06	1.068217e-09	1.771294e+01	7.420693e+01
2.420000e-06	2.587592e-06	1.080744e-09	1.800000e+01	7.532848e+01
2.430000e-06	2.628533e-06	1.091242e-09	1.828480e+01	7.641825e+01
2.440000e-06	2.669165e-06	1.104427e-09	1.856745e+01	7.747701e+01
2.450000e-06	2.709548e-06	1.122057e-09	1.884836e+01	7.850557e+01
2.460000e-06	2.749740e-06	1.140158e-09	1.912795e+01	7.950472e+01
2.470000e-06	2.789761e-06	1.155978e-09	1.940634e+01	8.047525e+01
2.480000e-06	2.829589e-06	1.167465e-09	1.968340e+01	8.141794e+01
2.490000e-06	2.869294e-06	1.175488e-09	1.995960e+01	8.233357e+01
2.500000e-06	2.908879e-06	1.182557e-09	2.023496e+01	8.322291e+01
2.510000e-06	2.948298e-06	1.194439e-09	2.050917e+01	8.408673e+01
2.520000e-06	2.987502e-06	1.209648e-09	2.078188e+01	8.492579e+01
2.530000e-06	3.026607e-06	1.226345e-09	2.105391e+01	8.574082e+01
2.540000e-06	3.065587e-06	1.243626e-09	2.132507e+01	8.653258e+01
2.550000e-06	3.104259e-06	1.258284e-09	2.159408e+01	8.730180e+01
2.560000e-06	3.142666e-06	1.266194e-09	2.186125e+01	8.804921e+01
2.570000e-06	3.180826e-06	1.269171e-09	2.212670e+01	8.877552e+01
2.580000e-06	3.218795e-06	1.273192e-09	2.239082e+01	8.948144e+01
2.590000e-06	3.256592e-06	1.279830e-09	2.265375e+01	9.016768e+01
2.600000e-06	3.294163e-06	1.291840e-09	2.291510e+01	9.083490e+01
2.610000e-06	3.331545e-06	1.307921e-09	2.317514e+01	9.148379e+01
2.620000e-06	3.368693e-06	1.327457e-09	2.343356e+01	9.211500e+01
2.630000e-06	3.405520e-06	1.343512e-09	2.368973e+01	9.272916e+01
2.640000e-06	3.442071e-06	1.350487e-09	2.394400e+01	9.332691e+01
2.650000e-06	3.478385e-06	1.354085e-09	2.419661e+01	9.390882e+01
2.660000e-06	3.514461e-06	1.355515e-09	2.444756e+01	9.447549e+01
2.670000e-06	3.550379e-06	1.357838e-09	2.469741e+01	9.502745e+01
2.680000e-06	3.586188e-06	1.364773e-09	2.494651e+01	9.556522e+01
2.690000e-06	3.621890e-06	1.376139e-09	2.519486e+01	9.608931e+01
2.700000e-06	3.657452e-06	1.390493e-09	2.544224e+01	9.660016e+01
2.710000e-06	3.692857e-06	1.401394e-09	2.568853e+01	9.709821e+01
2.720000e-06	3.728063e-06	1.410468e-09	2.593343e+01	9.758386e+01
2.730000e-06	3.762966e-06	1.415898e-09	2.617622e+01	9.805747e+01
2.740000e-06	3.797488e-06	1.418154e-09	2.641637e+01	9.851937e+01
2.750000e-06	3.831498e-06	1.421925e-09	2.665295e+01	9.896986e+01
2.760000e-06	3.864961e-06	1.426303e-09	2.688573e+01	9.940921e+01
2.770000e-06	3.897985e-06	1.433213e-09	2.711546e+01	9.983765e+01
2.780000e-06	3.930561e-06	1.443356e-09	2.734207e+01	1.002554e+02
2.790000e-06	3.962773e-06	1.454049e-09	2.756614e+01	1.006626e+02
2.800000e-06	3.994748e-06	1.463182e-09	2.778857e+01	1.010594e+02
2.810000e-06	4.026584e-06	1.470004e-09	2.801003e+01	1.014460e+02
2.820000e-06	4.058207e-06	1.474048e-09	2.823001e+01	1.018225e+02
2.830000e-06	4.089606e-06	1.476850e-09	2.844842e+01	1.021890e+02
2.840000e-06	4.120812e-06	1.479561e-09	2.866550e+01	1.025455e+02
2.850000e-06	4.151754e-06	1.482006e-09	2.888074e+01	1.028922e+02
2.860000e-06	4.182454e-06	1.487868e-09	2.909430e+01	1.032291e+02
2.870000e-06	4.212863e-06	1.496341e-09	2.930583e+01	1.035562e+02
2.880000e-06	4.242969e-06	1.503192e-09	2.951526e+01	1.038738e+02
2.890000e-06	4.272782e-06	1.506466e-09	2.972265e+01	1.041817e+02
2.900000e-06	4.302261e-06	1.508488e-09	2.992771e+01	1.044802e+02
