# Temperatura_=_-8.1
# Concentracion g/m^3_=_1620.0
# C_Vs_to_Am_M_A/Vsm_=_65563218390.804596
# pendiente_HvsI_1/m_=_3716.3
# ordenada_HvsI_A/m_=_1297.0
# frecuencia_Hz_=_135113.70253988658

Tiempo_(s)	Campo_(V.s)	Magnetizacion_(V.s)	Campo_(kA/m)	Magnetizacion_(A/m)
0.000000e+00	-5.498990e-06	-1.454129e-09	-3.836189e+01	-9.339237e+01
1.000000e-08	-5.499139e-06	-1.453349e-09	-3.836292e+01	-9.333873e+01
2.000000e-08	-5.499067e-06	-1.456247e-09	-3.836242e+01	-9.328690e+01
3.000000e-08	-5.498752e-06	-1.461012e-09	-3.836023e+01	-9.323665e+01
4.000000e-08	-5.498068e-06	-1.464118e-09	-3.835546e+01	-9.318772e+01
5.000000e-08	-5.496898e-06	-1.460346e-09	-3.834730e+01	-9.313977e+01
6.000000e-08	-5.495107e-06	-1.444103e-09	-3.833480e+01	-9.309243e+01
7.000000e-08	-5.492638e-06	-1.425649e-09	-3.831757e+01	-9.304529e+01
8.000000e-08	-5.489580e-06	-1.450673e-09	-3.829624e+01	-9.299789e+01
9.000000e-08	-5.486088e-06	-1.492399e-09	-3.827188e+01	-9.294973e+01
1.000000e-07	-5.482212e-06	-1.458121e-09	-3.824484e+01	-9.290031e+01
1.100000e-07	-5.477931e-06	-1.412286e-09	-3.821497e+01	-9.284909e+01
1.200000e-07	-5.473443e-06	-1.453527e-09	-3.818367e+01	-9.279552e+01
1.300000e-07	-5.468720e-06	-1.426751e-09	-3.815072e+01	-9.273907e+01
1.400000e-07	-5.463626e-06	-1.399120e-09	-3.811518e+01	-9.267920e+01
1.500000e-07	-5.458183e-06	-1.371992e-09	-3.807721e+01	-9.261539e+01
1.600000e-07	-5.452432e-06	-1.457383e-09	-3.803709e+01	-9.254714e+01
1.700000e-07	-5.446287e-06	-1.484459e-09	-3.799422e+01	-9.247398e+01
1.800000e-07	-5.439678e-06	-1.398483e-09	-3.794811e+01	-9.239549e+01
1.900000e-07	-5.432660e-06	-1.384979e-09	-3.789916e+01	-9.231129e+01
2.000000e-07	-5.425179e-06	-1.419564e-09	-3.784697e+01	-9.222104e+01
2.100000e-07	-5.417364e-06	-1.469582e-09	-3.779245e+01	-9.212447e+01
2.200000e-07	-5.409389e-06	-1.408542e-09	-3.773682e+01	-9.202137e+01
2.300000e-07	-5.401211e-06	-1.397885e-09	-3.767976e+01	-9.191159e+01
2.400000e-07	-5.392693e-06	-1.411585e-09	-3.762034e+01	-9.179504e+01
2.500000e-07	-5.383663e-06	-1.445829e-09	-3.755734e+01	-9.167172e+01
2.600000e-07	-5.373954e-06	-1.379474e-09	-3.748962e+01	-9.154167e+01
2.700000e-07	-5.363536e-06	-1.361730e-09	-3.741693e+01	-9.140501e+01
2.800000e-07	-5.352495e-06	-1.377907e-09	-3.733991e+01	-9.126193e+01
2.900000e-07	-5.340990e-06	-1.405322e-09	-3.725965e+01	-9.111268e+01
3.000000e-07	-5.329177e-06	-1.368220e-09	-3.717724e+01	-9.095756e+01
3.100000e-07	-5.317062e-06	-1.353424e-09	-3.709273e+01	-9.079692e+01
3.200000e-07	-5.304467e-06	-1.370849e-09	-3.700486e+01	-9.063117e+01
3.300000e-07	-5.291435e-06	-1.381602e-09	-3.691395e+01	-9.046075e+01
3.400000e-07	-5.278050e-06	-1.349527e-09	-3.682057e+01	-9.028615e+01
3.500000e-07	-5.264229e-06	-1.326768e-09	-3.672416e+01	-9.010785e+01
3.600000e-07	-5.250036e-06	-1.374663e-09	-3.662514e+01	-8.992639e+01
3.700000e-07	-5.235501e-06	-1.390474e-09	-3.652374e+01	-8.974230e+01
3.800000e-07	-5.220448e-06	-1.346282e-09	-3.641873e+01	-8.955611e+01
3.900000e-07	-5.204756e-06	-1.342567e-09	-3.630926e+01	-8.936834e+01
4.000000e-07	-5.188510e-06	-1.396135e-09	-3.619593e+01	-8.917952e+01
4.100000e-07	-5.171903e-06	-1.344308e-09	-3.608007e+01	-8.899015e+01
4.200000e-07	-5.154949e-06	-1.305783e-09	-3.596179e+01	-8.880068e+01
4.300000e-07	-5.137624e-06	-1.372132e-09	-3.584093e+01	-8.861156e+01
4.400000e-07	-5.120108e-06	-1.401729e-09	-3.571874e+01	-8.842319e+01
4.500000e-07	-5.102360e-06	-1.309158e-09	-3.559493e+01	-8.823592e+01
4.600000e-07	-5.084187e-06	-1.346359e-09	-3.546815e+01	-8.805006e+01
4.700000e-07	-5.065521e-06	-1.405531e-09	-3.533793e+01	-8.786587e+01
4.800000e-07	-5.046432e-06	-1.335721e-09	-3.520476e+01	-8.768355e+01
4.900000e-07	-5.027019e-06	-1.289618e-09	-3.506934e+01	-8.750326e+01
5.000000e-07	-5.007368e-06	-1.375105e-09	-3.493224e+01	-8.732510e+01
5.100000e-07	-4.987488e-06	-1.329893e-09	-3.479356e+01	-8.714911e+01
5.200000e-07	-4.967290e-06	-1.264874e-09	-3.465266e+01	-8.697529e+01
5.300000e-07	-4.946762e-06	-1.345356e-09	-3.450945e+01	-8.680359e+01
5.400000e-07	-4.925971e-06	-1.380363e-09	-3.436441e+01	-8.663390e+01
5.500000e-07	-4.904832e-06	-1.280916e-09	-3.421694e+01	-8.646608e+01
5.600000e-07	-4.883285e-06	-1.314715e-09	-3.406663e+01	-8.629995e+01
5.700000e-07	-4.861446e-06	-1.376045e-09	-3.391427e+01	-8.613528e+01
5.800000e-07	-4.839339e-06	-1.300374e-09	-3.376005e+01	-8.597183e+01
5.900000e-07	-4.816885e-06	-1.274378e-09	-3.360340e+01	-8.580932e+01
6.000000e-07	-4.794077e-06	-1.347317e-09	-3.344429e+01	-8.564745e+01
6.100000e-07	-4.770872e-06	-1.306132e-09	-3.328241e+01	-8.548592e+01
6.200000e-07	-4.747320e-06	-1.253003e-09	-3.311811e+01	-8.532440e+01
6.300000e-07	-4.723591e-06	-1.309586e-09	-3.295257e+01	-8.516257e+01
6.400000e-07	-4.699718e-06	-1.315077e-09	-3.278603e+01	-8.500009e+01
6.500000e-07	-4.675616e-06	-1.272855e-09	-3.261789e+01	-8.483665e+01
6.600000e-07	-4.651228e-06	-1.305337e-09	-3.244776e+01	-8.467193e+01
6.700000e-07	-4.626437e-06	-1.323195e-09	-3.227481e+01	-8.450563e+01
6.800000e-07	-4.601021e-06	-1.271724e-09	-3.209750e+01	-8.433744e+01
6.900000e-07	-4.575075e-06	-1.273567e-09	-3.191650e+01	-8.416711e+01
7.000000e-07	-4.548626e-06	-1.284696e-09	-3.173199e+01	-8.399437e+01
7.100000e-07	-4.521596e-06	-1.254377e-09	-3.154342e+01	-8.381899e+01
7.200000e-07	-4.494175e-06	-1.251324e-09	-3.135213e+01	-8.364075e+01
7.300000e-07	-4.466513e-06	-1.287072e-09	-3.115915e+01	-8.345948e+01
7.400000e-07	-4.438677e-06	-1.275030e-09	-3.096496e+01	-8.327499e+01
7.500000e-07	-4.410698e-06	-1.267541e-09	-3.076978e+01	-8.308714e+01
7.600000e-07	-4.382563e-06	-1.274320e-09	-3.057350e+01	-8.289581e+01
7.700000e-07	-4.354110e-06	-1.261558e-09	-3.037501e+01	-8.270090e+01
7.800000e-07	-4.325284e-06	-1.236473e-09	-3.017391e+01	-8.250232e+01
7.900000e-07	-4.296220e-06	-1.244690e-09	-2.997116e+01	-8.230001e+01
8.000000e-07	-4.266873e-06	-1.238792e-09	-2.976643e+01	-8.209392e+01
8.100000e-07	-4.237169e-06	-1.226447e-09	-2.955921e+01	-8.188402e+01
8.200000e-07	-4.207164e-06	-1.231292e-09	-2.934989e+01	-8.167030e+01
8.300000e-07	-4.176880e-06	-1.237775e-09	-2.913862e+01	-8.145275e+01
8.400000e-07	-4.146361e-06	-1.219598e-09	-2.892572e+01	-8.123138e+01
8.500000e-07	-4.115574e-06	-1.219381e-09	-2.871094e+01	-8.100621e+01
8.600000e-07	-4.084440e-06	-1.228233e-09	-2.849375e+01	-8.077726e+01
8.700000e-07	-4.053064e-06	-1.217637e-09	-2.827486e+01	-8.054457e+01
8.800000e-07	-4.021512e-06	-1.202463e-09	-2.805475e+01	-8.030818e+01
8.900000e-07	-3.989819e-06	-1.207073e-09	-2.783365e+01	-8.006815e+01
9.000000e-07	-3.957966e-06	-1.197474e-09	-2.761144e+01	-7.982451e+01
9.100000e-07	-3.925858e-06	-1.179634e-09	-2.738745e+01	-7.957734e+01
9.200000e-07	-3.893505e-06	-1.182740e-09	-2.716175e+01	-7.932670e+01
9.300000e-07	-3.860806e-06	-1.184461e-09	-2.693364e+01	-7.907265e+01
9.400000e-07	-3.827670e-06	-1.171995e-09	-2.670248e+01	-7.881529e+01
9.500000e-07	-3.794120e-06	-1.168824e-09	-2.646842e+01	-7.855467e+01
9.600000e-07	-3.760110e-06	-1.172523e-09	-2.623116e+01	-7.829091e+01
9.700000e-07	-3.725596e-06	-1.155541e-09	-2.599039e+01	-7.802407e+01
9.800000e-07	-3.690619e-06	-1.143383e-09	-2.574638e+01	-7.775427e+01
9.900000e-07	-3.655346e-06	-1.144180e-09	-2.550031e+01	-7.748159e+01
1.000000e-06	-3.619859e-06	-1.138491e-09	-2.525275e+01	-7.720615e+01
1.010000e-06	-3.584183e-06	-1.126111e-09	-2.500387e+01	-7.692806e+01
1.020000e-06	-3.548355e-06	-1.131078e-09	-2.475393e+01	-7.664742e+01
1.030000e-06	-3.512385e-06	-1.132034e-09	-2.450299e+01	-7.636435e+01
1.040000e-06	-3.476303e-06	-1.124088e-09	-2.425128e+01	-7.607896e+01
1.050000e-06	-3.440054e-06	-1.120466e-09	-2.399840e+01	-7.579137e+01
1.060000e-06	-3.403586e-06	-1.124992e-09	-2.374399e+01	-7.550168e+01
1.070000e-06	-3.366852e-06	-1.115228e-09	-2.348773e+01	-7.520999e+01
1.080000e-06	-3.329774e-06	-1.105758e-09	-2.322907e+01	-7.491641e+01
1.090000e-06	-3.292417e-06	-1.100458e-09	-2.296846e+01	-7.462102e+01
1.100000e-06	-3.254806e-06	-1.091594e-09	-2.270608e+01	-7.432389e+01
1.110000e-06	-3.216913e-06	-1.077946e-09	-2.244173e+01	-7.402509e+01
1.120000e-06	-3.178792e-06	-1.074008e-09	-2.217579e+01	-7.372464e+01
1.130000e-06	-3.140515e-06	-1.068867e-09	-2.190876e+01	-7.342258e+01
1.140000e-06	-3.102044e-06	-1.062112e-09	-2.164038e+01	-7.311890e+01
1.150000e-06	-3.063382e-06	-1.063382e-09	-2.137067e+01	-7.281357e+01
1.160000e-06	-3.024612e-06	-1.068612e-09	-2.110020e+01	-7.250654e+01
1.170000e-06	-2.985607e-06	-1.064758e-09	-2.082810e+01	-7.219771e+01
1.180000e-06	-2.946305e-06	-1.057532e-09	-2.055392e+01	-7.188697e+01
1.190000e-06	-2.906830e-06	-1.050119e-09	-2.027854e+01	-7.157417e+01
1.200000e-06	-2.867212e-06	-1.038002e-09	-2.000216e+01	-7.125912e+01
1.210000e-06	-2.827424e-06	-1.024580e-09	-1.972459e+01	-7.094160e+01
1.220000e-06	-2.787495e-06	-1.018292e-09	-1.944604e+01	-7.062137e+01
1.230000e-06	-2.747521e-06	-1.015525e-09	-1.916717e+01	-7.029813e+01
1.240000e-06	-2.707463e-06	-1.010811e-09	-1.888772e+01	-6.997158e+01
1.250000e-06	-2.667247e-06	-1.009447e-09	-1.860717e+01	-6.964135e+01
1.260000e-06	-2.626865e-06	-1.007134e-09	-1.832545e+01	-6.930709e+01
1.270000e-06	-2.586243e-06	-1.003043e-09	-1.804207e+01	-6.896840e+01
1.280000e-06	-2.545367e-06	-9.930782e-10	-1.775691e+01	-6.862486e+01
1.290000e-06	-2.504250e-06	-9.815499e-10	-1.747007e+01	-6.827603e+01
1.300000e-06	-2.462779e-06	-9.692946e-10	-1.718076e+01	-6.792147e+01
1.310000e-06	-2.420988e-06	-9.589823e-10	-1.688922e+01	-6.756073e+01
1.320000e-06	-2.379007e-06	-9.516738e-10	-1.659635e+01	-6.719334e+01
1.330000e-06	-2.336721e-06	-9.484579e-10	-1.630136e+01	-6.681887e+01
1.340000e-06	-2.294010e-06	-9.452782e-10	-1.600340e+01	-6.643685e+01
1.350000e-06	-2.250973e-06	-9.424946e-10	-1.570317e+01	-6.604685e+01
1.360000e-06	-2.207750e-06	-9.389889e-10	-1.540164e+01	-6.564845e+01
1.370000e-06	-2.164357e-06	-9.342321e-10	-1.509892e+01	-6.524124e+01
1.380000e-06	-2.120775e-06	-9.256113e-10	-1.479489e+01	-6.482486e+01
1.390000e-06	-2.077078e-06	-9.148771e-10	-1.449005e+01	-6.439894e+01
1.400000e-06	-2.033308e-06	-8.995426e-10	-1.418470e+01	-6.396318e+01
1.410000e-06	-1.989447e-06	-8.842057e-10	-1.387872e+01	-6.351727e+01
1.420000e-06	-1.945517e-06	-8.717524e-10	-1.357225e+01	-6.306095e+01
1.430000e-06	-1.901588e-06	-8.632081e-10	-1.326580e+01	-6.259401e+01
1.440000e-06	-1.857602e-06	-8.581978e-10	-1.295894e+01	-6.211625e+01
1.450000e-06	-1.813522e-06	-8.554057e-10	-1.265143e+01	-6.162750e+01
1.460000e-06	-1.769340e-06	-8.513434e-10	-1.234322e+01	-6.112762e+01
1.470000e-06	-1.725027e-06	-8.434434e-10	-1.203408e+01	-6.061651e+01
1.480000e-06	-1.680678e-06	-8.322436e-10	-1.172469e+01	-6.009407e+01
1.490000e-06	-1.636274e-06	-8.196960e-10	-1.141493e+01	-5.956023e+01
1.500000e-06	-1.591670e-06	-8.044030e-10	-1.110376e+01	-5.901491e+01
1.510000e-06	-1.546877e-06	-7.880428e-10	-1.079127e+01	-5.845805e+01
1.520000e-06	-1.501968e-06	-7.756966e-10	-1.047798e+01	-5.788958e+01
1.530000e-06	-1.456949e-06	-7.687612e-10	-1.016392e+01	-5.730942e+01
1.540000e-06	-1.411838e-06	-7.651142e-10	-9.849224e+00	-5.671746e+01
1.550000e-06	-1.366671e-06	-7.612128e-10	-9.534127e+00	-5.611358e+01
1.560000e-06	-1.321376e-06	-7.536736e-10	-9.218143e+00	-5.549760e+01
1.570000e-06	-1.275878e-06	-7.404678e-10	-8.900740e+00	-5.486931e+01
1.580000e-06	-1.230332e-06	-7.247697e-10	-8.583006e+00	-5.422846e+01
1.590000e-06	-1.184817e-06	-7.080918e-10	-8.265487e+00	-5.357471e+01
1.600000e-06	-1.139198e-06	-6.910106e-10	-7.947239e+00	-5.290769e+01
1.610000e-06	-1.093460e-06	-6.747756e-10	-7.628162e+00	-5.222692e+01
1.620000e-06	-1.047677e-06	-6.630560e-10	-7.308772e+00	-5.153188e+01
1.630000e-06	-1.001819e-06	-6.547423e-10	-6.988861e+00	-5.082195e+01
1.640000e-06	-9.558196e-07	-6.475220e-10	-6.667960e+00	-5.009643e+01
1.650000e-06	-9.097092e-07	-6.382433e-10	-6.346285e+00	-4.935453e+01
1.660000e-06	-8.636330e-07	-6.281922e-10	-6.024850e+00	-4.859539e+01
1.670000e-06	-8.176062e-07	-6.168392e-10	-5.703759e+00	-4.781805e+01
1.680000e-06	-7.714721e-07	-6.034046e-10	-5.381920e+00	-4.702149e+01
1.690000e-06	-7.252338e-07	-5.884111e-10	-5.059354e+00	-4.620460e+01
1.700000e-06	-6.789443e-07	-5.726937e-10	-4.736431e+00	-4.536620e+01
1.710000e-06	-6.326032e-07	-5.555204e-10	-4.413147e+00	-4.450506e+01
1.720000e-06	-5.862850e-07	-5.382061e-10	-4.090023e+00	-4.361988e+01
1.730000e-06	-5.399522e-07	-5.227864e-10	-3.766798e+00	-4.270935e+01
1.740000e-06	-4.935106e-07	-5.111388e-10	-3.442814e+00	-4.177208e+01
1.750000e-06	-4.470108e-07	-5.007646e-10	-3.118423e+00	-4.080671e+01
1.760000e-06	-4.005203e-07	-4.884382e-10	-2.794098e+00	-3.981184e+01
1.770000e-06	-3.539743e-07	-4.739002e-10	-2.469384e+00	-3.878612e+01
1.780000e-06	-3.073842e-07	-4.576719e-10	-2.144364e+00	-3.772818e+01
1.790000e-06	-2.607423e-07	-4.408291e-10	-1.818983e+00	-3.663673e+01
1.800000e-06	-2.140898e-07	-4.234398e-10	-1.493527e+00	-3.551052e+01
1.810000e-06	-1.674954e-07	-4.058694e-10	-1.168476e+00	-3.434839e+01
1.820000e-06	-1.209095e-07	-3.882480e-10	-8.434851e-01	-3.314925e+01
1.830000e-06	-7.435226e-08	-3.716951e-10	-5.186940e-01	-3.191213e+01
1.840000e-06	-2.772241e-08	-3.573319e-10	-1.933962e-01	-3.063620e+01
1.850000e-06	1.900155e-08	-3.426818e-10	1.325580e-01	-2.932074e+01
1.860000e-06	6.570456e-08	-3.276837e-10	4.583661e-01	-2.796518e+01
1.870000e-06	1.123788e-07	-3.113475e-10	7.839738e-01	-2.656915e+01
1.880000e-06	1.591013e-07	-2.910968e-10	1.109918e+00	-2.513242e+01
1.890000e-06	2.057795e-07	-2.685871e-10	1.435553e+00	-2.365496e+01
1.900000e-06	2.523696e-07	-2.449789e-10	1.760573e+00	-2.213692e+01
1.910000e-06	2.988504e-07	-2.210623e-10	2.084831e+00	-2.057868e+01
1.920000e-06	3.452424e-07	-1.960570e-10	2.408469e+00	-1.898079e+01
1.930000e-06	3.917191e-07	-1.720357e-10	2.732699e+00	-1.734403e+01
1.940000e-06	4.382015e-07	-1.517792e-10	3.056968e+00	-1.566937e+01
1.950000e-06	4.846527e-07	-1.333005e-10	3.381020e+00	-1.395799e+01
1.960000e-06	5.310558e-07	-1.134143e-10	3.704736e+00	-1.221129e+01
1.970000e-06	5.774004e-07	-9.144842e-11	4.028043e+00	-1.043085e+01
1.980000e-06	6.237916e-07	-6.712315e-11	4.351676e+00	-8.618431e+00
1.990000e-06	6.701492e-07	-3.907026e-11	4.675075e+00	-6.775997e+00
2.000000e-06	7.163842e-07	-8.165490e-12	4.997617e+00	-4.905667e+00
2.010000e-06	7.625880e-07	2.199849e-11	5.319943e+00	-3.009719e+00
2.020000e-06	8.087385e-07	5.037798e-11	5.641897e+00	-1.090574e+00
2.030000e-06	8.548849e-07	7.762995e-11	5.963822e+00	8.492193e-01
2.040000e-06	9.010231e-07	1.038463e-10	6.285690e+00	2.807002e+00
2.050000e-06	9.470104e-07	1.277082e-10	6.606505e+00	4.780024e+00
2.060000e-06	9.928782e-07	1.511819e-10	6.926487e+00	6.765457e+00
2.070000e-06	1.038676e-06	1.767203e-10	7.245982e+00	8.760419e+00
2.080000e-06	1.084450e-06	2.049069e-10	7.565309e+00	1.076199e+01
2.090000e-06	1.130205e-06	2.352791e-10	7.884503e+00	1.276724e+01
2.100000e-06	1.175893e-06	2.662145e-10	8.203231e+00	1.477322e+01
2.110000e-06	1.221484e-06	2.972320e-10	8.521281e+00	1.677702e+01
2.120000e-06	1.266942e-06	3.264162e-10	8.838403e+00	1.877577e+01
2.130000e-06	1.312283e-06	3.535556e-10	9.154708e+00	2.076665e+01
2.140000e-06	1.357524e-06	3.797192e-10	9.470319e+00	2.274690e+01
2.150000e-06	1.402675e-06	4.030706e-10	9.785300e+00	2.471388e+01
2.160000e-06	1.447734e-06	4.242257e-10	1.009964e+01	2.666501e+01
2.170000e-06	1.492695e-06	4.451674e-10	1.041329e+01	2.859788e+01
2.180000e-06	1.537493e-06	4.703120e-10	1.072581e+01	3.051015e+01
2.190000e-06	1.582158e-06	5.009601e-10	1.103741e+01	3.239967e+01
2.200000e-06	1.626762e-06	5.330733e-10	1.134857e+01	3.426440e+01
2.210000e-06	1.671219e-06	5.641695e-10	1.165871e+01	3.610246e+01
2.220000e-06	1.715518e-06	5.925615e-10	1.196774e+01	3.791216e+01
2.230000e-06	1.759666e-06	6.171853e-10	1.227573e+01	3.969193e+01
2.240000e-06	1.803733e-06	6.376113e-10	1.258314e+01	4.144039e+01
2.250000e-06	1.847774e-06	6.542165e-10	1.289039e+01	4.315632e+01
2.260000e-06	1.891785e-06	6.683045e-10	1.319741e+01	4.483866e+01
2.270000e-06	1.935695e-06	6.862143e-10	1.350374e+01	4.648651e+01
2.280000e-06	1.979494e-06	7.104191e-10	1.380928e+01	4.809914e+01
2.290000e-06	2.023271e-06	7.370141e-10	1.411468e+01	4.967596e+01
2.300000e-06	2.067011e-06	7.639046e-10	1.441982e+01	5.121654e+01
2.310000e-06	2.110638e-06	7.894385e-10	1.472417e+01	5.272056e+01
2.320000e-06	2.154163e-06	8.108217e-10	1.502780e+01	5.418787e+01
2.330000e-06	2.197551e-06	8.264904e-10	1.533049e+01	5.561840e+01
2.340000e-06	2.240779e-06	8.385052e-10	1.563205e+01	5.701224e+01
2.350000e-06	2.283783e-06	8.522982e-10	1.593206e+01	5.836954e+01
2.360000e-06	2.326415e-06	8.689905e-10	1.622947e+01	5.969055e+01
2.370000e-06	2.368718e-06	8.869371e-10	1.652458e+01	6.097564e+01
2.380000e-06	2.410815e-06	9.066770e-10	1.681826e+01	6.222520e+01
2.390000e-06	2.452675e-06	9.251060e-10	1.711028e+01	6.343971e+01
2.400000e-06	2.494067e-06	9.407467e-10	1.739903e+01	6.461970e+01
2.410000e-06	2.535095e-06	9.563036e-10	1.768525e+01	6.576575e+01
2.420000e-06	2.575967e-06	9.706500e-10	1.797039e+01	6.687845e+01
2.430000e-06	2.616648e-06	9.835117e-10	1.825418e+01	6.795844e+01
2.440000e-06	2.657118e-06	9.962350e-10	1.853651e+01	6.900637e+01
2.450000e-06	2.697380e-06	1.009172e-09	1.881738e+01	7.002291e+01
2.460000e-06	2.737491e-06	1.021280e-09	1.909720e+01	7.100872e+01
2.470000e-06	2.777515e-06	1.032282e-09	1.937641e+01	7.196446e+01
2.480000e-06	2.817458e-06	1.043891e-09	1.965507e+01	7.289082e+01
2.490000e-06	2.857277e-06	1.056649e-09	1.993285e+01	7.378844e+01
2.500000e-06	2.896928e-06	1.069480e-09	2.020946e+01	7.465797e+01
2.510000e-06	2.936398e-06	1.083830e-09	2.048481e+01	7.550005e+01
2.520000e-06	2.975677e-06	1.098813e-09	2.075883e+01	7.631530e+01
2.530000e-06	3.014761e-06	1.110265e-09	2.103148e+01	7.710433e+01
2.540000e-06	3.053579e-06	1.120166e-09	2.130228e+01	7.786774e+01
2.550000e-06	3.092127e-06	1.129844e-09	2.157120e+01	7.860609e+01
2.560000e-06	3.130520e-06	1.136272e-09	2.183904e+01	7.931997e+01
2.570000e-06	3.168738e-06	1.139863e-09	2.210565e+01	8.000992e+01
2.580000e-06	3.206682e-06	1.144817e-09	2.237036e+01	8.067649e+01
2.590000e-06	3.244392e-06	1.152487e-09	2.263343e+01	8.132022e+01
2.600000e-06	3.281935e-06	1.163905e-09	2.289534e+01	8.194164e+01
2.610000e-06	3.319344e-06	1.178561e-09	2.315631e+01	8.254127e+01
2.620000e-06	3.356484e-06	1.195013e-09	2.341540e+01	8.311964e+01
2.630000e-06	3.393238e-06	1.209494e-09	2.367180e+01	8.367726e+01
2.640000e-06	3.429705e-06	1.217066e-09	2.392621e+01	8.421467e+01
2.650000e-06	3.465980e-06	1.220371e-09	2.417926e+01	8.473238e+01
2.660000e-06	3.502101e-06	1.222274e-09	2.443125e+01	8.523092e+01
2.670000e-06	3.538060e-06	1.223600e-09	2.468210e+01	8.571083e+01
2.680000e-06	3.573892e-06	1.228654e-09	2.493207e+01	8.617263e+01
2.690000e-06	3.609626e-06	1.237699e-09	2.518136e+01	8.661686e+01
2.700000e-06	3.645253e-06	1.247537e-09	2.542991e+01	8.704408e+01
2.710000e-06	3.680726e-06	1.257719e-09	2.567737e+01	8.745481e+01
2.720000e-06	3.715841e-06	1.265928e-09	2.592233e+01	8.784961e+01
2.730000e-06	3.750504e-06	1.269480e-09	2.616415e+01	8.822902e+01
2.740000e-06	3.784750e-06	1.269634e-09	2.640306e+01	8.859359e+01
2.750000e-06	3.818528e-06	1.268424e-09	2.663870e+01	8.894385e+01
2.760000e-06	3.851823e-06	1.268504e-09	2.687097e+01	8.928035e+01
2.770000e-06	3.884676e-06	1.272691e-09	2.710016e+01	8.960360e+01
2.780000e-06	3.917162e-06	1.280409e-09	2.732678e+01	8.991413e+01
2.790000e-06	3.949366e-06	1.290287e-09	2.755145e+01	9.021243e+01
2.800000e-06	3.981358e-06	1.300790e-09	2.777462e+01	9.049899e+01
2.810000e-06	4.013192e-06	1.308171e-09	2.799671e+01	9.077429e+01
2.820000e-06	4.044925e-06	1.312271e-09	2.821808e+01	9.103876e+01
2.830000e-06	4.076425e-06	1.316014e-09	2.843783e+01	9.129285e+01
2.840000e-06	4.107618e-06	1.318371e-09	2.865544e+01	9.153694e+01
2.850000e-06	4.138569e-06	1.319580e-09	2.887136e+01	9.177143e+01
2.860000e-06	4.169175e-06	1.322441e-09	2.908487e+01	9.199666e+01
2.870000e-06	4.199397e-06	1.327947e-09	2.929571e+01	9.221297e+01
2.880000e-06	4.229375e-06	1.333729e-09	2.950484e+01	9.242064e+01
2.890000e-06	4.259124e-06	1.337369e-09	2.971237e+01	9.261997e+01
2.900000e-06	4.288590e-06	1.341140e-09	2.991793e+01	9.281119e+01
