# Temperatura_=_12.8
# Concentracion g/m^3_=_1620.0
# C_Vs_to_Am_M_A/Vsm_=_65563218390.804596
# pendiente_HvsI_1/m_=_3716.3
# ordenada_HvsI_A/m_=_1297.0
# frecuencia_Hz_=_135108.0516096612

Tiempo_(s)	Campo_(V.s)	Magnetizacion_(V.s)	Campo_(kA/m)	Magnetizacion_(A/m)
0.000000e+00	-5.522909e-06	-1.831163e-09	-3.836323e+01	-1.178458e+02
1.000000e-08	-5.523239e-06	-1.834548e-09	-3.836552e+01	-1.178136e+02
2.000000e-08	-5.523363e-06	-1.841145e-09	-3.836638e+01	-1.177803e+02
3.000000e-08	-5.523148e-06	-1.844697e-09	-3.836489e+01	-1.177458e+02
4.000000e-08	-5.522503e-06	-1.843488e-09	-3.836040e+01	-1.177100e+02
5.000000e-08	-5.521355e-06	-1.839311e-09	-3.835243e+01	-1.176727e+02
6.000000e-08	-5.519591e-06	-1.829450e-09	-3.834018e+01	-1.176338e+02
7.000000e-08	-5.517256e-06	-1.835049e-09	-3.832396e+01	-1.175929e+02
8.000000e-08	-5.514398e-06	-1.864254e-09	-3.830411e+01	-1.175500e+02
9.000000e-08	-5.510984e-06	-1.841290e-09	-3.828039e+01	-1.175046e+02
1.000000e-07	-5.507124e-06	-1.789221e-09	-3.825358e+01	-1.174566e+02
1.100000e-07	-5.503044e-06	-1.857371e-09	-3.822524e+01	-1.174054e+02
1.200000e-07	-5.498681e-06	-1.915804e-09	-3.819494e+01	-1.173510e+02
1.300000e-07	-5.494011e-06	-1.848083e-09	-3.816249e+01	-1.172928e+02
1.400000e-07	-5.489039e-06	-1.762992e-09	-3.812796e+01	-1.172307e+02
1.500000e-07	-5.483608e-06	-1.782451e-09	-3.809023e+01	-1.171643e+02
1.600000e-07	-5.477789e-06	-1.892779e-09	-3.804981e+01	-1.170932e+02
1.700000e-07	-5.471645e-06	-1.828449e-09	-3.800713e+01	-1.170173e+02
1.800000e-07	-5.465043e-06	-1.756160e-09	-3.796128e+01	-1.169362e+02
1.900000e-07	-5.457998e-06	-1.791592e-09	-3.791234e+01	-1.168499e+02
2.000000e-07	-5.450589e-06	-1.889792e-09	-3.786088e+01	-1.167580e+02
2.100000e-07	-5.442951e-06	-1.876438e-09	-3.780782e+01	-1.166605e+02
2.200000e-07	-5.435163e-06	-1.811568e-09	-3.775373e+01	-1.165573e+02
2.300000e-07	-5.427062e-06	-1.811325e-09	-3.769746e+01	-1.164483e+02
2.400000e-07	-5.418489e-06	-1.841554e-09	-3.763791e+01	-1.163334e+02
2.500000e-07	-5.409336e-06	-1.833550e-09	-3.757432e+01	-1.162129e+02
2.600000e-07	-5.399602e-06	-1.780040e-09	-3.750671e+01	-1.160866e+02
2.700000e-07	-5.389224e-06	-1.779886e-09	-3.743462e+01	-1.159547e+02
2.800000e-07	-5.378279e-06	-1.796407e-09	-3.735860e+01	-1.158173e+02
2.900000e-07	-5.366930e-06	-1.793795e-09	-3.727976e+01	-1.156747e+02
3.000000e-07	-5.355130e-06	-1.743359e-09	-3.719780e+01	-1.155270e+02
3.100000e-07	-5.342889e-06	-1.743350e-09	-3.711277e+01	-1.153744e+02
3.200000e-07	-5.330325e-06	-1.762754e-09	-3.702550e+01	-1.152171e+02
3.300000e-07	-5.317365e-06	-1.769729e-09	-3.693548e+01	-1.150555e+02
3.400000e-07	-5.303899e-06	-1.717134e-09	-3.684194e+01	-1.148896e+02
3.500000e-07	-5.290025e-06	-1.728597e-09	-3.674557e+01	-1.147198e+02
3.600000e-07	-5.275793e-06	-1.772633e-09	-3.664671e+01	-1.145463e+02
3.700000e-07	-5.261098e-06	-1.747008e-09	-3.654463e+01	-1.143692e+02
3.800000e-07	-5.245849e-06	-1.698083e-09	-3.643871e+01	-1.141889e+02
3.900000e-07	-5.230242e-06	-1.755283e-09	-3.633030e+01	-1.140053e+02
4.000000e-07	-5.214279e-06	-1.763774e-09	-3.621942e+01	-1.138187e+02
4.100000e-07	-5.197717e-06	-1.681002e-09	-3.610438e+01	-1.136293e+02
4.200000e-07	-5.180730e-06	-1.711738e-09	-3.598638e+01	-1.134369e+02
4.300000e-07	-5.163530e-06	-1.802600e-09	-3.586691e+01	-1.132418e+02
4.400000e-07	-5.146007e-06	-1.718826e-09	-3.574519e+01	-1.130439e+02
4.500000e-07	-5.128106e-06	-1.659346e-09	-3.562084e+01	-1.128432e+02
4.600000e-07	-5.109828e-06	-1.773824e-09	-3.549388e+01	-1.126396e+02
4.700000e-07	-5.091080e-06	-1.762416e-09	-3.536366e+01	-1.124331e+02
4.800000e-07	-5.071910e-06	-1.646391e-09	-3.523050e+01	-1.122235e+02
4.900000e-07	-5.052523e-06	-1.718398e-09	-3.509583e+01	-1.120108e+02
5.000000e-07	-5.032975e-06	-1.781949e-09	-3.496005e+01	-1.117947e+02
5.100000e-07	-5.013129e-06	-1.651558e-09	-3.482219e+01	-1.115752e+02
5.200000e-07	-4.993031e-06	-1.660603e-09	-3.468259e+01	-1.113521e+02
5.300000e-07	-4.972648e-06	-1.775306e-09	-3.454101e+01	-1.111252e+02
5.400000e-07	-4.951805e-06	-1.690585e-09	-3.439622e+01	-1.108944e+02
5.500000e-07	-4.930596e-06	-1.619610e-09	-3.424890e+01	-1.106596e+02
5.600000e-07	-4.909124e-06	-1.743056e-09	-3.409975e+01	-1.104206e+02
5.700000e-07	-4.887306e-06	-1.726919e-09	-3.394820e+01	-1.101775e+02
5.800000e-07	-4.865146e-06	-1.618701e-09	-3.379427e+01	-1.099300e+02
5.900000e-07	-4.842652e-06	-1.683113e-09	-3.363803e+01	-1.096783e+02
6.000000e-07	-4.819772e-06	-1.725795e-09	-3.347910e+01	-1.094223e+02
6.100000e-07	-4.796496e-06	-1.621041e-09	-3.331741e+01	-1.091620e+02
6.200000e-07	-4.772998e-06	-1.633800e-09	-3.315419e+01	-1.088975e+02
6.300000e-07	-4.749369e-06	-1.695553e-09	-3.299006e+01	-1.086291e+02
6.400000e-07	-4.725525e-06	-1.637714e-09	-3.282444e+01	-1.083567e+02
6.500000e-07	-4.701424e-06	-1.615663e-09	-3.265703e+01	-1.080807e+02
6.600000e-07	-4.676923e-06	-1.673916e-09	-3.248684e+01	-1.078011e+02
6.700000e-07	-4.651925e-06	-1.641765e-09	-3.231320e+01	-1.075184e+02
6.800000e-07	-4.626383e-06	-1.603537e-09	-3.213578e+01	-1.072326e+02
6.900000e-07	-4.600371e-06	-1.639741e-09	-3.195510e+01	-1.069442e+02
7.000000e-07	-4.573821e-06	-1.636054e-09	-3.177068e+01	-1.066534e+02
7.100000e-07	-4.546731e-06	-1.599162e-09	-3.158250e+01	-1.063604e+02
7.200000e-07	-4.519379e-06	-1.621968e-09	-3.139251e+01	-1.060656e+02
7.300000e-07	-4.491821e-06	-1.634493e-09	-3.120108e+01	-1.057691e+02
7.400000e-07	-4.464044e-06	-1.605386e-09	-3.100814e+01	-1.054713e+02
7.500000e-07	-4.436036e-06	-1.603644e-09	-3.081359e+01	-1.051723e+02
7.600000e-07	-4.407783e-06	-1.610938e-09	-3.061734e+01	-1.048723e+02
7.700000e-07	-4.379209e-06	-1.592776e-09	-3.041886e+01	-1.045714e+02
7.800000e-07	-4.350283e-06	-1.586880e-09	-3.021793e+01	-1.042696e+02
7.900000e-07	-4.321116e-06	-1.594566e-09	-3.001533e+01	-1.039669e+02
8.000000e-07	-4.291711e-06	-1.578440e-09	-2.981108e+01	-1.036633e+02
8.100000e-07	-4.261979e-06	-1.569921e-09	-2.960456e+01	-1.033587e+02
8.200000e-07	-4.231871e-06	-1.578144e-09	-2.939542e+01	-1.030529e+02
8.300000e-07	-4.201447e-06	-1.569443e-09	-2.918409e+01	-1.027456e+02
8.400000e-07	-4.170772e-06	-1.550769e-09	-2.897101e+01	-1.024365e+02
8.500000e-07	-4.139848e-06	-1.559212e-09	-2.875621e+01	-1.021253e+02
8.600000e-07	-4.108676e-06	-1.561829e-09	-2.853969e+01	-1.018116e+02
8.700000e-07	-4.077320e-06	-1.545940e-09	-2.832187e+01	-1.014948e+02
8.800000e-07	-4.045785e-06	-1.540474e-09	-2.810283e+01	-1.011745e+02
8.900000e-07	-4.013991e-06	-1.543073e-09	-2.788198e+01	-1.008501e+02
9.000000e-07	-3.981941e-06	-1.523263e-09	-2.765936e+01	-1.005211e+02
9.100000e-07	-3.949664e-06	-1.514233e-09	-2.743515e+01	-1.001869e+02
9.200000e-07	-3.917055e-06	-1.520269e-09	-2.720865e+01	-9.984695e+01
9.300000e-07	-3.884079e-06	-1.510645e-09	-2.697959e+01	-9.950066e+01
9.400000e-07	-3.850661e-06	-1.493594e-09	-2.674746e+01	-9.914749e+01
9.500000e-07	-3.816809e-06	-1.495909e-09	-2.651231e+01	-9.878693e+01
9.600000e-07	-3.782445e-06	-1.490029e-09	-2.627362e+01	-9.841852e+01
9.700000e-07	-3.747593e-06	-1.471680e-09	-2.603153e+01	-9.804182e+01
9.800000e-07	-3.712568e-06	-1.468167e-09	-2.578824e+01	-9.765647e+01
9.900000e-07	-3.677329e-06	-1.470746e-09	-2.554346e+01	-9.726218e+01
1.000000e-06	-3.641855e-06	-1.458144e-09	-2.529705e+01	-9.685872e+01
1.010000e-06	-3.606230e-06	-1.449669e-09	-2.504959e+01	-9.644595e+01
1.020000e-06	-3.570444e-06	-1.449975e-09	-2.480101e+01	-9.602381e+01
1.030000e-06	-3.534523e-06	-1.439524e-09	-2.455150e+01	-9.559230e+01
1.040000e-06	-3.498442e-06	-1.426364e-09	-2.430087e+01	-9.515152e+01
1.050000e-06	-3.462067e-06	-1.424999e-09	-2.404821e+01	-9.470166e+01
1.060000e-06	-3.425385e-06	-1.420289e-09	-2.379341e+01	-9.424297e+01
1.070000e-06	-3.388443e-06	-1.403874e-09	-2.353680e+01	-9.377576e+01
1.080000e-06	-3.351290e-06	-1.392614e-09	-2.327873e+01	-9.330042e+01
1.090000e-06	-3.313885e-06	-1.381697e-09	-2.301891e+01	-9.281739e+01
1.100000e-06	-3.276185e-06	-1.363058e-09	-2.275704e+01	-9.232716e+01
1.110000e-06	-3.238274e-06	-1.348858e-09	-2.249370e+01	-9.183022e+01
1.120000e-06	-3.200162e-06	-1.345362e-09	-2.222896e+01	-9.132712e+01
1.130000e-06	-3.161781e-06	-1.337549e-09	-2.196236e+01	-9.081840e+01
1.140000e-06	-3.123111e-06	-1.328624e-09	-2.169375e+01	-9.030458e+01
1.150000e-06	-3.084240e-06	-1.325954e-09	-2.142375e+01	-8.978618e+01
1.160000e-06	-3.045170e-06	-1.322194e-09	-2.115236e+01	-8.926368e+01
1.170000e-06	-3.005931e-06	-1.308066e-09	-2.087979e+01	-8.873751e+01
1.180000e-06	-2.966535e-06	-1.296649e-09	-2.060615e+01	-8.820805e+01
1.190000e-06	-2.927013e-06	-1.288414e-09	-2.033161e+01	-8.767560e+01
1.200000e-06	-2.887415e-06	-1.278482e-09	-2.005656e+01	-8.714041e+01
1.210000e-06	-2.847683e-06	-1.268609e-09	-1.978057e+01	-8.660260e+01
1.220000e-06	-2.807819e-06	-1.263631e-09	-1.950367e+01	-8.606224e+01
1.230000e-06	-2.767790e-06	-1.256111e-09	-1.922562e+01	-8.551928e+01
1.240000e-06	-2.727585e-06	-1.245407e-09	-1.894635e+01	-8.497359e+01
1.250000e-06	-2.687142e-06	-1.234914e-09	-1.866542e+01	-8.442491e+01
1.260000e-06	-2.646372e-06	-1.224265e-09	-1.838223e+01	-8.387291e+01
1.270000e-06	-2.605376e-06	-1.213238e-09	-1.809746e+01	-8.331716e+01
1.280000e-06	-2.564156e-06	-1.202844e-09	-1.781114e+01	-8.275714e+01
1.290000e-06	-2.522616e-06	-1.193885e-09	-1.752260e+01	-8.219226e+01
1.300000e-06	-2.480771e-06	-1.185898e-09	-1.723193e+01	-8.162184e+01
1.310000e-06	-2.438602e-06	-1.176603e-09	-1.693902e+01	-8.104516e+01
1.320000e-06	-2.396145e-06	-1.166987e-09	-1.664410e+01	-8.046145e+01
1.330000e-06	-2.353450e-06	-1.156999e-09	-1.634754e+01	-7.986990e+01
1.340000e-06	-2.310463e-06	-1.145706e-09	-1.604893e+01	-7.926967e+01
1.350000e-06	-2.267260e-06	-1.135882e-09	-1.574884e+01	-7.865994e+01
1.360000e-06	-2.223906e-06	-1.128407e-09	-1.544769e+01	-7.803989e+01
1.370000e-06	-2.180400e-06	-1.119809e-09	-1.514549e+01	-7.740872e+01
1.380000e-06	-2.136790e-06	-1.108601e-09	-1.484257e+01	-7.676566e+01
1.390000e-06	-2.093103e-06	-1.095725e-09	-1.453911e+01	-7.610999e+01
1.400000e-06	-2.049373e-06	-1.079294e-09	-1.423535e+01	-7.544108e+01
1.410000e-06	-2.005538e-06	-1.061719e-09	-1.393087e+01	-7.475834e+01
1.420000e-06	-1.961617e-06	-1.047360e-09	-1.362578e+01	-7.406126e+01
1.430000e-06	-1.917659e-06	-1.037242e-09	-1.332044e+01	-7.334944e+01
1.440000e-06	-1.873657e-06	-1.027117e-09	-1.301480e+01	-7.262254e+01
1.450000e-06	-1.829532e-06	-1.018145e-09	-1.270830e+01	-7.188032e+01
1.460000e-06	-1.785274e-06	-1.009743e-09	-1.240087e+01	-7.112264e+01
1.470000e-06	-1.740899e-06	-9.984012e-10	-1.209263e+01	-7.034944e+01
1.480000e-06	-1.696376e-06	-9.830112e-10	-1.178337e+01	-6.956073e+01
1.490000e-06	-1.651682e-06	-9.697796e-10	-1.147292e+01	-6.875661e+01
1.500000e-06	-1.606818e-06	-9.564810e-10	-1.116128e+01	-6.793723e+01
1.510000e-06	-1.561829e-06	-9.393668e-10	-1.084878e+01	-6.710279e+01
1.520000e-06	-1.516702e-06	-9.227619e-10	-1.053531e+01	-6.625353e+01
1.530000e-06	-1.471492e-06	-9.108526e-10	-1.022127e+01	-6.538972e+01
1.540000e-06	-1.426209e-06	-8.993486e-10	-9.906729e+00	-6.451161e+01
1.550000e-06	-1.380828e-06	-8.858869e-10	-9.591505e+00	-6.361945e+01
1.560000e-06	-1.335339e-06	-8.692684e-10	-9.275534e+00	-6.271345e+01
1.570000e-06	-1.289727e-06	-8.494571e-10	-8.958702e+00	-6.179379e+01
1.580000e-06	-1.244009e-06	-8.281716e-10	-8.641131e+00	-6.086057e+01
1.590000e-06	-1.198203e-06	-8.091389e-10	-8.322958e+00	-5.991378e+01
1.600000e-06	-1.152357e-06	-7.917992e-10	-8.004502e+00	-5.895335e+01
1.610000e-06	-1.106482e-06	-7.743287e-10	-7.685842e+00	-5.797907e+01
1.620000e-06	-1.060533e-06	-7.580154e-10	-7.366674e+00	-5.699062e+01
1.630000e-06	-1.014530e-06	-7.437591e-10	-7.047128e+00	-5.598750e+01
1.640000e-06	-9.684219e-07	-7.300401e-10	-6.726852e+00	-5.496913e+01
1.650000e-06	-9.222265e-07	-7.147204e-10	-6.405969e+00	-5.393472e+01
1.660000e-06	-8.759466e-07	-6.994013e-10	-6.084500e+00	-5.288335e+01
1.670000e-06	-8.295893e-07	-6.827892e-10	-5.762493e+00	-5.181397e+01
1.680000e-06	-7.831538e-07	-6.639297e-10	-5.439942e+00	-5.072534e+01
1.690000e-06	-7.366550e-07	-6.446976e-10	-5.116952e+00	-4.961612e+01
1.700000e-06	-6.901533e-07	-6.262056e-10	-4.793942e+00	-4.848481e+01
1.710000e-06	-6.435967e-07	-6.061639e-10	-4.470551e+00	-4.732983e+01
1.720000e-06	-5.970221e-07	-5.861872e-10	-4.147035e+00	-4.614946e+01
1.730000e-06	-5.504459e-07	-5.663981e-10	-3.823507e+00	-4.494193e+01
1.740000e-06	-5.038069e-07	-5.465119e-10	-3.499543e+00	-4.370541e+01
1.750000e-06	-4.571443e-07	-5.276653e-10	-3.175415e+00	-4.243804e+01
1.760000e-06	-4.104208e-07	-5.085978e-10	-2.850864e+00	-4.113795e+01
1.770000e-06	-3.636955e-07	-4.890462e-10	-2.526301e+00	-3.980329e+01
1.780000e-06	-3.170059e-07	-4.698454e-10	-2.201986e+00	-3.843226e+01
1.790000e-06	-2.702417e-07	-4.505335e-10	-1.877153e+00	-3.702315e+01
1.800000e-06	-2.233892e-07	-4.309687e-10	-1.551706e+00	-3.557434e+01
1.810000e-06	-1.764551e-07	-4.113245e-10	-1.225692e+00	-3.408436e+01
1.820000e-06	-1.295675e-07	-3.919892e-10	-9.000013e-01	-3.255189e+01
1.830000e-06	-8.275061e-08	-3.710494e-10	-5.748022e-01	-3.097582e+01
1.840000e-06	-3.593007e-08	-3.486294e-10	-2.495774e-01	-2.935523e+01
1.850000e-06	1.089891e-08	-3.243661e-10	7.570597e-02	-2.768947e+01
1.860000e-06	5.773781e-08	-2.996838e-10	4.010583e-01	-2.597810e+01
1.870000e-06	1.046113e-07	-2.758258e-10	7.266512e-01	-2.422100e+01
1.880000e-06	1.514985e-07	-2.525641e-10	1.052339e+00	-2.241829e+01
1.890000e-06	1.983934e-07	-2.283140e-10	1.378080e+00	-2.057042e+01
1.900000e-06	2.453040e-07	-2.013472e-10	1.703930e+00	-1.867813e+01
1.910000e-06	2.922425e-07	-1.732523e-10	2.029974e+00	-1.674246e+01
1.920000e-06	3.390903e-07	-1.446577e-10	2.355389e+00	-1.476475e+01
1.930000e-06	3.857585e-07	-1.151327e-10	2.679556e+00	-1.274665e+01
1.940000e-06	4.325003e-07	-8.677359e-11	3.004233e+00	-1.069010e+01
1.950000e-06	4.792449e-07	-5.985399e-11	3.328931e+00	-8.597294e+00
1.960000e-06	5.258289e-07	-3.216527e-11	3.652512e+00	-6.470713e+00
1.970000e-06	5.724102e-07	-4.022292e-12	3.976075e+00	-4.313067e+00
1.980000e-06	6.190071e-07	2.503220e-11	4.299747e+00	-2.127287e+00
1.990000e-06	6.655439e-07	5.623984e-11	4.623001e+00	8.349565e-02
2.000000e-06	7.119822e-07	8.947181e-11	4.945570e+00	2.315984e+00
2.010000e-06	7.583365e-07	1.228507e-10	5.267556e+00	4.566738e+00
2.020000e-06	8.046264e-07	1.556002e-10	5.589095e+00	6.832205e+00
2.030000e-06	8.508648e-07	1.889975e-10	5.910276e+00	9.108752e+00
2.040000e-06	8.971047e-07	2.229750e-10	6.231468e+00	1.139270e+01
2.050000e-06	9.433263e-07	2.549520e-10	6.552533e+00	1.368033e+01
2.060000e-06	9.894370e-07	2.862474e-10	6.872827e+00	1.596797e+01
2.070000e-06	1.035478e-06	3.182770e-10	7.192636e+00	1.825195e+01
2.080000e-06	1.081402e-06	3.491110e-10	7.511637e+00	2.052870e+01
2.090000e-06	1.127157e-06	3.784548e-10	7.829458e+00	2.279473e+01
2.100000e-06	1.172859e-06	4.089893e-10	8.146909e+00	2.504668e+01
2.110000e-06	1.218557e-06	4.408847e-10	8.464341e+00	2.728132e+01
2.120000e-06	1.264256e-06	4.706491e-10	8.781775e+00	2.949561e+01
2.130000e-06	1.309871e-06	5.013474e-10	9.098623e+00	3.168667e+01
2.140000e-06	1.355387e-06	5.336872e-10	9.414791e+00	3.385183e+01
2.150000e-06	1.400844e-06	5.630986e-10	9.730538e+00	3.598863e+01
2.160000e-06	1.446183e-06	5.891319e-10	1.004548e+01	3.809484e+01
2.170000e-06	1.491386e-06	6.151720e-10	1.035947e+01	4.016844e+01
2.180000e-06	1.536464e-06	6.413382e-10	1.067258e+01	4.220765e+01
2.190000e-06	1.581377e-06	6.690973e-10	1.098456e+01	4.421092e+01
2.200000e-06	1.626125e-06	6.993023e-10	1.129539e+01	4.617693e+01
2.210000e-06	1.670753e-06	7.296665e-10	1.160538e+01	4.810460e+01
2.220000e-06	1.715313e-06	7.582462e-10	1.191491e+01	4.999304e+01
2.230000e-06	1.759793e-06	7.852457e-10	1.222387e+01	5.184160e+01
2.240000e-06	1.804108e-06	8.095997e-10	1.253169e+01	5.364982e+01
2.250000e-06	1.848269e-06	8.282243e-10	1.283845e+01	5.541743e+01
2.260000e-06	1.892303e-06	8.443677e-10	1.314431e+01	5.714432e+01
2.270000e-06	1.936240e-06	8.630188e-10	1.344951e+01	5.883057e+01
2.280000e-06	1.980119e-06	8.864197e-10	1.375430e+01	6.047637e+01
2.290000e-06	2.023977e-06	9.126461e-10	1.405895e+01	6.208207e+01
2.300000e-06	2.067783e-06	9.375924e-10	1.436323e+01	6.364813e+01
2.310000e-06	2.111473e-06	9.604498e-10	1.466671e+01	6.517509e+01
2.320000e-06	2.155109e-06	9.822512e-10	1.496982e+01	6.666358e+01
2.330000e-06	2.198680e-06	1.001213e-09	1.527247e+01	6.811432e+01
2.340000e-06	2.242106e-06	1.017694e-09	1.557411e+01	6.952805e+01
2.350000e-06	2.285350e-06	1.033714e-09	1.587450e+01	7.090557e+01
2.360000e-06	2.328373e-06	1.053068e-09	1.617334e+01	7.224770e+01
2.370000e-06	2.371159e-06	1.072763e-09	1.647054e+01	7.355529e+01
2.380000e-06	2.413736e-06	1.091848e-09	1.676629e+01	7.482918e+01
2.390000e-06	2.456046e-06	1.110819e-09	1.706018e+01	7.607021e+01
2.400000e-06	2.497899e-06	1.128670e-09	1.735091e+01	7.727923e+01
2.410000e-06	2.539334e-06	1.144547e-09	1.763872e+01	7.845704e+01
2.420000e-06	2.580557e-06	1.159494e-09	1.792506e+01	7.960445e+01
2.430000e-06	2.621648e-06	1.173626e-09	1.821049e+01	8.072223e+01
2.440000e-06	2.662518e-06	1.188230e-09	1.849438e+01	8.181112e+01
2.450000e-06	2.703084e-06	1.203138e-09	1.877616e+01	8.287185e+01
2.460000e-06	2.743326e-06	1.217181e-09	1.905569e+01	8.390511e+01
2.470000e-06	2.783338e-06	1.232260e-09	1.933362e+01	8.491154e+01
2.480000e-06	2.823250e-06	1.247618e-09	1.961086e+01	8.589180e+01
2.490000e-06	2.863038e-06	1.262202e-09	1.988723e+01	8.684647e+01
2.500000e-06	2.902688e-06	1.276007e-09	2.016265e+01	8.777615e+01
2.510000e-06	2.942238e-06	1.289202e-09	2.043737e+01	8.868139e+01
2.520000e-06	2.981685e-06	1.301244e-09	2.071138e+01	8.956274e+01
2.530000e-06	3.020998e-06	1.310951e-09	2.098445e+01	9.042072e+01
2.540000e-06	3.060082e-06	1.321111e-09	2.125594e+01	9.125585e+01
2.550000e-06	3.098844e-06	1.333381e-09	2.152519e+01	9.206863e+01
2.560000e-06	3.137316e-06	1.344717e-09	2.179242e+01	9.285955e+01
2.570000e-06	3.175610e-06	1.355382e-09	2.205842e+01	9.362911e+01
2.580000e-06	3.213747e-06	1.365295e-09	2.232333e+01	9.437780e+01
2.590000e-06	3.251723e-06	1.374121e-09	2.258712e+01	9.510609e+01
2.600000e-06	3.289538e-06	1.382964e-09	2.284979e+01	9.581448e+01
2.610000e-06	3.327106e-06	1.395437e-09	2.311074e+01	9.650345e+01
2.620000e-06	3.364361e-06	1.409422e-09	2.336952e+01	9.717348e+01
2.630000e-06	3.401327e-06	1.422195e-09	2.362630e+01	9.782507e+01
2.640000e-06	3.438065e-06	1.432833e-09	2.388148e+01	9.845869e+01
2.650000e-06	3.474539e-06	1.440609e-09	2.413484e+01	9.907484e+01
2.660000e-06	3.510741e-06	1.444771e-09	2.438631e+01	9.967400e+01
2.670000e-06	3.546733e-06	1.447712e-09	2.463631e+01	1.002566e+02
2.680000e-06	3.582580e-06	1.453376e-09	2.488531e+01	1.008233e+02
2.690000e-06	3.618319e-06	1.461817e-09	2.513356e+01	1.013743e+02
2.700000e-06	3.653988e-06	1.472233e-09	2.538133e+01	1.019103e+02
2.710000e-06	3.689558e-06	1.483051e-09	2.562840e+01	1.024316e+02
2.720000e-06	3.724838e-06	1.490308e-09	2.587347e+01	1.029386e+02
2.730000e-06	3.759827e-06	1.494633e-09	2.611651e+01	1.034319e+02
2.740000e-06	3.794491e-06	1.498032e-09	2.635729e+01	1.039118e+02
2.750000e-06	3.828669e-06	1.500327e-09	2.659470e+01	1.043787e+02
2.760000e-06	3.862348e-06	1.503046e-09	2.682864e+01	1.048330e+02
2.770000e-06	3.895554e-06	1.509849e-09	2.705929e+01	1.052749e+02
2.780000e-06	3.928317e-06	1.518941e-09	2.728687e+01	1.057050e+02
2.790000e-06	3.960737e-06	1.528051e-09	2.751207e+01	1.061233e+02
2.800000e-06	3.992869e-06	1.537859e-09	2.773526e+01	1.065303e+02
2.810000e-06	4.024748e-06	1.545693e-09	2.795670e+01	1.069262e+02
2.820000e-06	4.056454e-06	1.549603e-09	2.817694e+01	1.073112e+02
2.830000e-06	4.087983e-06	1.552480e-09	2.839594e+01	1.076856e+02
2.840000e-06	4.119322e-06	1.558160e-09	2.861363e+01	1.080495e+02
2.850000e-06	4.150439e-06	1.564786e-09	2.882978e+01	1.084031e+02
2.860000e-06	4.181267e-06	1.570212e-09	2.904391e+01	1.087466e+02
2.870000e-06	4.211767e-06	1.578966e-09	2.925577e+01	1.090801e+02
2.880000e-06	4.241920e-06	1.588520e-09	2.946522e+01	1.094039e+02
2.890000e-06	4.271761e-06	1.593423e-09	2.967250e+01	1.097179e+02
2.900000e-06	4.301338e-06	1.596627e-09	2.987795e+01	1.100224e+02
