# Temperatura_=_-9.73
# Concentracion g/m^3_=_1620.0
# C_Vs_to_Am_M_A/Vsm_=_65563218390.804596
# pendiente_HvsI_1/m_=_3716.3
# ordenada_HvsI_A/m_=_1297.0
# frecuencia_Hz_=_135107.62386811513

Tiempo_(s)	Campo_(V.s)	Magnetizacion_(V.s)	Campo_(kA/m)	Magnetizacion_(A/m)
0.000000e+00	-5.519129e-06	-1.339103e-09	-3.837215e+01	-8.836809e+01
1.000000e-08	-5.519118e-06	-1.339429e-09	-3.837207e+01	-8.829556e+01
2.000000e-08	-5.518840e-06	-1.342330e-09	-3.837014e+01	-8.822268e+01
3.000000e-08	-5.518249e-06	-1.343854e-09	-3.836603e+01	-8.814964e+01
4.000000e-08	-5.517221e-06	-1.340087e-09	-3.835888e+01	-8.807663e+01
5.000000e-08	-5.515708e-06	-1.327890e-09	-3.834837e+01	-8.800379e+01
6.000000e-08	-5.513657e-06	-1.307393e-09	-3.833410e+01	-8.793127e+01
7.000000e-08	-5.510937e-06	-1.321759e-09	-3.831519e+01	-8.785914e+01
8.000000e-08	-5.507626e-06	-1.388772e-09	-3.829217e+01	-8.778749e+01
9.000000e-08	-5.503822e-06	-1.392356e-09	-3.826573e+01	-8.771635e+01
1.000000e-07	-5.499635e-06	-1.276221e-09	-3.823661e+01	-8.764571e+01
1.100000e-07	-5.495245e-06	-1.262110e-09	-3.820610e+01	-8.757556e+01
1.200000e-07	-5.490626e-06	-1.363901e-09	-3.817398e+01	-8.750584e+01
1.300000e-07	-5.485589e-06	-1.398227e-09	-3.813896e+01	-8.743646e+01
1.400000e-07	-5.480137e-06	-1.287585e-09	-3.810105e+01	-8.736732e+01
1.500000e-07	-5.474375e-06	-1.264670e-09	-3.806099e+01	-8.729828e+01
1.600000e-07	-5.468263e-06	-1.388551e-09	-3.801850e+01	-8.722918e+01
1.700000e-07	-5.461709e-06	-1.392339e-09	-3.797293e+01	-8.715983e+01
1.800000e-07	-5.454738e-06	-1.255892e-09	-3.792446e+01	-8.709006e+01
1.900000e-07	-5.447445e-06	-1.228942e-09	-3.787376e+01	-8.701964e+01
2.000000e-07	-5.439835e-06	-1.359176e-09	-3.782085e+01	-8.694837e+01
2.100000e-07	-5.431953e-06	-1.414227e-09	-3.776605e+01	-8.687600e+01
2.200000e-07	-5.423871e-06	-1.342348e-09	-3.770986e+01	-8.680232e+01
2.300000e-07	-5.415433e-06	-1.302115e-09	-3.765119e+01	-8.672709e+01
2.400000e-07	-5.406476e-06	-1.355155e-09	-3.758892e+01	-8.665009e+01
2.500000e-07	-5.396892e-06	-1.371416e-09	-3.752229e+01	-8.657110e+01
2.600000e-07	-5.386671e-06	-1.326514e-09	-3.745123e+01	-8.648991e+01
2.700000e-07	-5.375935e-06	-1.306125e-09	-3.737658e+01	-8.640631e+01
2.800000e-07	-5.364599e-06	-1.348388e-09	-3.729777e+01	-8.632014e+01
2.900000e-07	-5.352753e-06	-1.363142e-09	-3.721540e+01	-8.623123e+01
3.000000e-07	-5.340663e-06	-1.326712e-09	-3.713135e+01	-8.613944e+01
3.100000e-07	-5.328200e-06	-1.304619e-09	-3.704470e+01	-8.604465e+01
3.200000e-07	-5.315289e-06	-1.337569e-09	-3.695493e+01	-8.594678e+01
3.300000e-07	-5.302090e-06	-1.344853e-09	-3.686317e+01	-8.584575e+01
3.400000e-07	-5.288506e-06	-1.296177e-09	-3.676872e+01	-8.574153e+01
3.500000e-07	-5.274405e-06	-1.283649e-09	-3.667069e+01	-8.563411e+01
3.600000e-07	-5.260044e-06	-1.352567e-09	-3.657084e+01	-8.552352e+01
3.700000e-07	-5.245359e-06	-1.341987e-09	-3.646874e+01	-8.540981e+01
3.800000e-07	-5.229873e-06	-1.271402e-09	-3.636107e+01	-8.529305e+01
3.900000e-07	-5.213703e-06	-1.303736e-09	-3.624865e+01	-8.517335e+01
4.000000e-07	-5.197265e-06	-1.358615e-09	-3.613437e+01	-8.505085e+01
4.100000e-07	-5.180422e-06	-1.275852e-09	-3.601726e+01	-8.492570e+01
4.200000e-07	-5.163068e-06	-1.247386e-09	-3.589661e+01	-8.479809e+01
4.300000e-07	-5.145496e-06	-1.355394e-09	-3.577444e+01	-8.466821e+01
4.400000e-07	-5.127767e-06	-1.331942e-09	-3.565117e+01	-8.453630e+01
4.500000e-07	-5.109554e-06	-1.226007e-09	-3.552455e+01	-8.440258e+01
4.600000e-07	-5.090808e-06	-1.294424e-09	-3.539422e+01	-8.426731e+01
4.700000e-07	-5.071783e-06	-1.363016e-09	-3.526194e+01	-8.413072e+01
4.800000e-07	-5.052469e-06	-1.257623e-09	-3.512766e+01	-8.399309e+01
4.900000e-07	-5.032838e-06	-1.254949e-09	-3.499118e+01	-8.385468e+01
5.000000e-07	-5.012983e-06	-1.340636e-09	-3.485313e+01	-8.371572e+01
5.100000e-07	-4.992906e-06	-1.271273e-09	-3.471355e+01	-8.357648e+01
5.200000e-07	-4.972498e-06	-1.220266e-09	-3.457166e+01	-8.343718e+01
5.300000e-07	-4.951781e-06	-1.326842e-09	-3.442762e+01	-8.329804e+01
5.400000e-07	-4.930748e-06	-1.303831e-09	-3.428138e+01	-8.315925e+01
5.500000e-07	-4.909260e-06	-1.205386e-09	-3.413199e+01	-8.302100e+01
5.600000e-07	-4.887446e-06	-1.280866e-09	-3.398032e+01	-8.288343e+01
5.700000e-07	-4.865406e-06	-1.333122e-09	-3.382709e+01	-8.274665e+01
5.800000e-07	-4.842968e-06	-1.230619e-09	-3.367109e+01	-8.261075e+01
5.900000e-07	-4.820144e-06	-1.237378e-09	-3.351240e+01	-8.247577e+01
6.000000e-07	-4.797126e-06	-1.303904e-09	-3.335237e+01	-8.234174e+01
6.100000e-07	-4.773797e-06	-1.237525e-09	-3.319017e+01	-8.220861e+01
6.200000e-07	-4.750087e-06	-1.206857e-09	-3.302533e+01	-8.207633e+01
6.300000e-07	-4.726170e-06	-1.280749e-09	-3.285905e+01	-8.194481e+01
6.400000e-07	-4.701989e-06	-1.263715e-09	-3.269092e+01	-8.181388e+01
6.500000e-07	-4.677535e-06	-1.219211e-09	-3.252091e+01	-8.168339e+01
6.600000e-07	-4.652809e-06	-1.264597e-09	-3.234899e+01	-8.155312e+01
6.700000e-07	-4.627557e-06	-1.263465e-09	-3.217343e+01	-8.142284e+01
6.800000e-07	-4.601655e-06	-1.203923e-09	-3.199334e+01	-8.129226e+01
6.900000e-07	-4.575178e-06	-1.218280e-09	-3.180926e+01	-8.116110e+01
7.000000e-07	-4.548258e-06	-1.238450e-09	-3.162210e+01	-8.102904e+01
7.100000e-07	-4.520947e-06	-1.204797e-09	-3.143222e+01	-8.089575e+01
7.200000e-07	-4.493315e-06	-1.217745e-09	-3.124010e+01	-8.076088e+01
7.300000e-07	-4.465513e-06	-1.248918e-09	-3.104681e+01	-8.062410e+01
7.400000e-07	-4.437522e-06	-1.221866e-09	-3.085219e+01	-8.048504e+01
7.500000e-07	-4.409290e-06	-1.204132e-09	-3.065591e+01	-8.034337e+01
7.600000e-07	-4.380852e-06	-1.221922e-09	-3.045820e+01	-8.019876e+01
7.700000e-07	-4.352051e-06	-1.204868e-09	-3.025795e+01	-8.005088e+01
7.800000e-07	-4.322819e-06	-1.187440e-09	-3.005471e+01	-7.989944e+01
7.900000e-07	-4.293277e-06	-1.207022e-09	-2.984932e+01	-7.974418e+01
8.000000e-07	-4.263456e-06	-1.207595e-09	-2.964199e+01	-7.958486e+01
8.100000e-07	-4.233373e-06	-1.187930e-09	-2.943284e+01	-7.942127e+01
8.200000e-07	-4.203056e-06	-1.202041e-09	-2.922206e+01	-7.925326e+01
8.300000e-07	-4.172490e-06	-1.207671e-09	-2.900954e+01	-7.908070e+01
8.400000e-07	-4.141632e-06	-1.184365e-09	-2.879500e+01	-7.890352e+01
8.500000e-07	-4.110450e-06	-1.183843e-09	-2.857821e+01	-7.872168e+01
8.600000e-07	-4.079016e-06	-1.198787e-09	-2.835966e+01	-7.853520e+01
8.700000e-07	-4.047491e-06	-1.182297e-09	-2.814047e+01	-7.834413e+01
8.800000e-07	-4.015816e-06	-1.172216e-09	-2.792025e+01	-7.814860e+01
8.900000e-07	-3.983899e-06	-1.183013e-09	-2.769835e+01	-7.794873e+01
9.000000e-07	-3.951760e-06	-1.174672e-09	-2.747490e+01	-7.774473e+01
9.100000e-07	-3.919358e-06	-1.159234e-09	-2.724962e+01	-7.753682e+01
9.200000e-07	-3.886604e-06	-1.167808e-09	-2.702190e+01	-7.732524e+01
9.300000e-07	-3.853506e-06	-1.166466e-09	-2.679178e+01	-7.711030e+01
9.400000e-07	-3.819937e-06	-1.147366e-09	-2.655839e+01	-7.689228e+01
9.500000e-07	-3.785704e-06	-1.147590e-09	-2.632039e+01	-7.667153e+01
9.600000e-07	-3.751102e-06	-1.152222e-09	-2.607981e+01	-7.644836e+01
9.700000e-07	-3.716288e-06	-1.138831e-09	-2.583776e+01	-7.622312e+01
9.800000e-07	-3.681142e-06	-1.134174e-09	-2.559341e+01	-7.599613e+01
9.900000e-07	-3.645692e-06	-1.143579e-09	-2.534694e+01	-7.576771e+01
1.000000e-06	-3.609990e-06	-1.135558e-09	-2.509872e+01	-7.553816e+01
1.010000e-06	-3.574099e-06	-1.119622e-09	-2.484918e+01	-7.530777e+01
1.020000e-06	-3.538094e-06	-1.117439e-09	-2.459886e+01	-7.507677e+01
1.030000e-06	-3.501998e-06	-1.113701e-09	-2.434790e+01	-7.484539e+01
1.040000e-06	-3.465701e-06	-1.106413e-09	-2.409554e+01	-7.461377e+01
1.050000e-06	-3.429139e-06	-1.111480e-09	-2.384134e+01	-7.438206e+01
1.060000e-06	-3.392239e-06	-1.116056e-09	-2.358479e+01	-7.415031e+01
1.070000e-06	-3.355066e-06	-1.105489e-09	-2.332634e+01	-7.391856e+01
1.080000e-06	-3.317706e-06	-1.095418e-09	-2.306659e+01	-7.368675e+01
1.090000e-06	-3.280097e-06	-1.093414e-09	-2.280511e+01	-7.345479e+01
1.100000e-06	-3.242257e-06	-1.082926e-09	-2.254203e+01	-7.322254e+01
1.110000e-06	-3.204191e-06	-1.074313e-09	-2.227737e+01	-7.298979e+01
1.120000e-06	-3.165886e-06	-1.074187e-09	-2.201105e+01	-7.275627e+01
1.130000e-06	-3.127391e-06	-1.072326e-09	-2.174341e+01	-7.252167e+01
1.140000e-06	-3.088660e-06	-1.066975e-09	-2.147413e+01	-7.228563e+01
1.150000e-06	-3.049691e-06	-1.070354e-09	-2.120320e+01	-7.204774e+01
1.160000e-06	-3.010524e-06	-1.069815e-09	-2.093089e+01	-7.180756e+01
1.170000e-06	-2.971124e-06	-1.058717e-09	-2.065696e+01	-7.156460e+01
1.180000e-06	-2.931569e-06	-1.047768e-09	-2.038195e+01	-7.131836e+01
1.190000e-06	-2.891888e-06	-1.041754e-09	-2.010607e+01	-7.106830e+01
1.200000e-06	-2.852042e-06	-1.033994e-09	-1.982903e+01	-7.081389e+01
1.210000e-06	-2.812088e-06	-1.029779e-09	-1.955124e+01	-7.055458e+01
1.220000e-06	-2.772088e-06	-1.030878e-09	-1.927315e+01	-7.028981e+01
1.230000e-06	-2.731981e-06	-1.027641e-09	-1.899430e+01	-7.001904e+01
1.240000e-06	-2.691701e-06	-1.021700e-09	-1.871425e+01	-6.974175e+01
1.250000e-06	-2.651222e-06	-1.016738e-09	-1.843282e+01	-6.945742e+01
1.260000e-06	-2.610496e-06	-1.009716e-09	-1.814967e+01	-6.916558e+01
1.270000e-06	-2.569468e-06	-9.970954e-10	-1.786441e+01	-6.886578e+01
1.280000e-06	-2.528203e-06	-9.852256e-10	-1.757752e+01	-6.855760e+01
1.290000e-06	-2.486752e-06	-9.797502e-10	-1.728933e+01	-6.824068e+01
1.300000e-06	-2.444871e-06	-9.748491e-10	-1.699815e+01	-6.791469e+01
1.310000e-06	-2.402620e-06	-9.689811e-10	-1.670439e+01	-6.757934e+01
1.320000e-06	-2.360145e-06	-9.653078e-10	-1.640908e+01	-6.723442e+01
1.330000e-06	-2.317407e-06	-9.593281e-10	-1.611194e+01	-6.687974e+01
1.340000e-06	-2.274363e-06	-9.511761e-10	-1.581267e+01	-6.651517e+01
1.350000e-06	-2.230997e-06	-9.440249e-10	-1.551117e+01	-6.614062e+01
1.360000e-06	-2.187538e-06	-9.396030e-10	-1.520902e+01	-6.575606e+01
1.370000e-06	-2.144009e-06	-9.338708e-10	-1.490638e+01	-6.536149e+01
1.380000e-06	-2.100340e-06	-9.282256e-10	-1.460277e+01	-6.495695e+01
1.390000e-06	-2.056565e-06	-9.208309e-10	-1.429842e+01	-6.454253e+01
1.400000e-06	-2.012664e-06	-9.116567e-10	-1.399319e+01	-6.411832e+01
1.410000e-06	-1.968669e-06	-9.027137e-10	-1.368732e+01	-6.368445e+01
1.420000e-06	-1.924632e-06	-8.972538e-10	-1.338114e+01	-6.324107e+01
1.430000e-06	-1.880536e-06	-8.911638e-10	-1.307456e+01	-6.278834e+01
1.440000e-06	-1.836336e-06	-8.805701e-10	-1.276726e+01	-6.232641e+01
1.450000e-06	-1.792011e-06	-8.695034e-10	-1.245909e+01	-6.185542e+01
1.460000e-06	-1.747565e-06	-8.612851e-10	-1.215007e+01	-6.137553e+01
1.470000e-06	-1.703014e-06	-8.551177e-10	-1.184033e+01	-6.088684e+01
1.480000e-06	-1.658335e-06	-8.520957e-10	-1.152969e+01	-6.038946e+01
1.490000e-06	-1.613434e-06	-8.475253e-10	-1.121752e+01	-5.988343e+01
1.500000e-06	-1.568386e-06	-8.366772e-10	-1.090432e+01	-5.936877e+01
1.510000e-06	-1.523267e-06	-8.223581e-10	-1.059063e+01	-5.884545e+01
1.520000e-06	-1.478031e-06	-8.082151e-10	-1.027612e+01	-5.831339e+01
1.530000e-06	-1.432679e-06	-7.954796e-10	-9.960808e+00	-5.777243e+01
1.540000e-06	-1.387318e-06	-7.852904e-10	-9.645433e+00	-5.722237e+01
1.550000e-06	-1.341899e-06	-7.796886e-10	-9.329649e+00	-5.666293e+01
1.560000e-06	-1.296299e-06	-7.772936e-10	-9.012613e+00	-5.609375e+01
1.570000e-06	-1.250615e-06	-7.733699e-10	-8.694989e+00	-5.551442e+01
1.580000e-06	-1.204924e-06	-7.655496e-10	-8.377323e+00	-5.492442e+01
1.590000e-06	-1.159201e-06	-7.524926e-10	-8.059428e+00	-5.432318e+01
1.600000e-06	-1.113415e-06	-7.344534e-10	-7.741100e+00	-5.371003e+01
1.610000e-06	-1.067516e-06	-7.174429e-10	-7.421986e+00	-5.308423e+01
1.620000e-06	-1.021467e-06	-7.045727e-10	-7.101827e+00	-5.244497e+01
1.630000e-06	-9.752663e-07	-6.955840e-10	-6.780610e+00	-5.179134e+01
1.640000e-06	-9.290019e-07	-6.911314e-10	-6.458954e+00	-5.112238e+01
1.650000e-06	-8.827758e-07	-6.900243e-10	-6.137563e+00	-5.043706e+01
1.660000e-06	-8.365611e-07	-6.849250e-10	-5.816252e+00	-4.973426e+01
1.670000e-06	-7.902415e-07	-6.728107e-10	-5.494212e+00	-4.901283e+01
1.680000e-06	-7.438134e-07	-6.555300e-10	-5.171417e+00	-4.827153e+01
1.690000e-06	-6.973167e-07	-6.384668e-10	-4.848145e+00	-4.750911e+01
1.700000e-06	-6.508088e-07	-6.211024e-10	-4.524796e+00	-4.672426e+01
1.710000e-06	-6.042512e-07	-6.046559e-10	-4.201101e+00	-4.591562e+01
1.720000e-06	-5.575978e-07	-5.925182e-10	-3.876739e+00	-4.508183e+01
1.730000e-06	-5.109843e-07	-5.846742e-10	-3.552656e+00	-4.422151e+01
1.740000e-06	-4.643549e-07	-5.784307e-10	-3.228461e+00	-4.333326e+01
1.750000e-06	-4.176734e-07	-5.676171e-10	-2.903905e+00	-4.241570e+01
1.760000e-06	-3.709320e-07	-5.490687e-10	-2.578932e+00	-4.146746e+01
1.770000e-06	-3.241185e-07	-5.263379e-10	-2.253458e+00	-4.048718e+01
1.780000e-06	-2.772848e-07	-5.051355e-10	-1.927843e+00	-3.947357e+01
1.790000e-06	-2.303796e-07	-4.878463e-10	-1.601731e+00	-3.842536e+01
1.800000e-06	-1.833984e-07	-4.727503e-10	-1.275091e+00	-3.734136e+01
1.810000e-06	-1.364319e-07	-4.592172e-10	-9.485529e-01	-3.622044e+01
1.820000e-06	-8.955759e-08	-4.458173e-10	-6.226557e-01	-3.506158e+01
1.830000e-06	-4.277702e-08	-4.302792e-10	-2.974104e-01	-3.386384e+01
1.840000e-06	4.019683e-09	-4.121601e-10	2.794714e-02	-3.262639e+01
1.850000e-06	5.092027e-08	-3.924849e-10	3.540269e-01	-3.134854e+01
1.860000e-06	9.783480e-08	-3.726777e-10	6.802036e-01	-3.002973e+01
1.870000e-06	1.446796e-07	-3.531775e-10	1.005896e+00	-2.866954e+01
1.880000e-06	1.915274e-07	-3.356335e-10	1.331608e+00	-2.726771e+01
1.890000e-06	2.384421e-07	-3.179129e-10	1.657786e+00	-2.582416e+01
1.900000e-06	2.853317e-07	-2.972588e-10	1.983790e+00	-2.433897e+01
1.910000e-06	3.321040e-07	-2.730826e-10	2.308977e+00	-2.281242e+01
1.920000e-06	3.788132e-07	-2.466986e-10	2.633726e+00	-2.124498e+01
1.930000e-06	4.255050e-07	-2.217121e-10	2.958354e+00	-1.963731e+01
1.940000e-06	4.721453e-07	-1.998812e-10	3.282625e+00	-1.799027e+01
1.950000e-06	5.187507e-07	-1.790744e-10	3.606652e+00	-1.630494e+01
1.960000e-06	5.653346e-07	-1.575729e-10	3.930530e+00	-1.458259e+01
1.970000e-06	6.119238e-07	-1.353119e-10	4.254445e+00	-1.282470e+01
1.980000e-06	6.584955e-07	-1.116834e-10	4.578238e+00	-1.103295e+01
1.990000e-06	7.048961e-07	-8.529259e-11	4.900842e+00	-9.209226e+00
2.000000e-06	7.511957e-07	-5.687141e-11	5.222743e+00	-7.355596e+00
2.010000e-06	7.975129e-07	-2.737159e-11	5.544767e+00	-5.474311e+00
2.020000e-06	8.438264e-07	2.704386e-12	5.866765e+00	-3.567799e+00
2.030000e-06	8.900465e-07	3.200398e-11	6.188114e+00	-1.638646e+00
2.040000e-06	9.361840e-07	5.781395e-11	6.508888e+00	3.104175e-01
2.050000e-06	9.822406e-07	8.093244e-11	6.829099e+00	2.276526e+00
2.060000e-06	1.028209e-06	1.040843e-10	7.148697e+00	4.256702e+00
2.070000e-06	1.074146e-06	1.285415e-10	7.468079e+00	6.247872e+00
2.080000e-06	1.120009e-06	1.552137e-10	7.786947e+00	8.246888e+00
2.090000e-06	1.165828e-06	1.862344e-10	8.105503e+00	1.025054e+01
2.100000e-06	1.211576e-06	2.202710e-10	8.423569e+00	1.225560e+01
2.110000e-06	1.257250e-06	2.516019e-10	8.741123e+00	1.425882e+01
2.120000e-06	1.302837e-06	2.791927e-10	9.058068e+00	1.625695e+01
2.130000e-06	1.348282e-06	3.043822e-10	9.374027e+00	1.824680e+01
2.140000e-06	1.393591e-06	3.265987e-10	9.689042e+00	2.022521e+01
2.150000e-06	1.438759e-06	3.478184e-10	1.000308e+01	2.218912e+01
2.160000e-06	1.483862e-06	3.712733e-10	1.031666e+01	2.413555e+01
2.170000e-06	1.528922e-06	3.978882e-10	1.062994e+01	2.606166e+01
2.180000e-06	1.573857e-06	4.266756e-10	1.094236e+01	2.796474e+01
2.190000e-06	1.618606e-06	4.553037e-10	1.125348e+01	2.984222e+01
2.200000e-06	1.663233e-06	4.829826e-10	1.156375e+01	3.169173e+01
2.210000e-06	1.707805e-06	5.091224e-10	1.187364e+01	3.351106e+01
2.220000e-06	1.752240e-06	5.339912e-10	1.218257e+01	3.529822e+01
2.230000e-06	1.796535e-06	5.569235e-10	1.249054e+01	3.705141e+01
2.240000e-06	1.840721e-06	5.768183e-10	1.279775e+01	3.876904e+01
2.250000e-06	1.884799e-06	5.956927e-10	1.310420e+01	4.044977e+01
2.260000e-06	1.928785e-06	6.155486e-10	1.341002e+01	4.209245e+01
2.270000e-06	1.972734e-06	6.361288e-10	1.371557e+01	4.369616e+01
2.280000e-06	2.016668e-06	6.581909e-10	1.402103e+01	4.526020e+01
2.290000e-06	2.060565e-06	6.825264e-10	1.432623e+01	4.678410e+01
2.300000e-06	2.104359e-06	7.072419e-10	1.463071e+01	4.826756e+01
2.310000e-06	2.148046e-06	7.292965e-10	1.493444e+01	4.971051e+01
2.320000e-06	2.191613e-06	7.471427e-10	1.523735e+01	5.111307e+01
2.330000e-06	2.234987e-06	7.615843e-10	1.553891e+01	5.247550e+01
2.340000e-06	2.278188e-06	7.732523e-10	1.583927e+01	5.379825e+01
2.350000e-06	2.321204e-06	7.869665e-10	1.613834e+01	5.508191e+01
2.360000e-06	2.363994e-06	8.025559e-10	1.643584e+01	5.632718e+01
2.370000e-06	2.406518e-06	8.189889e-10	1.673149e+01	5.753489e+01
2.380000e-06	2.448645e-06	8.369118e-10	1.702439e+01	5.870596e+01
2.390000e-06	2.490280e-06	8.544553e-10	1.731385e+01	5.984137e+01
2.400000e-06	2.531574e-06	8.719416e-10	1.760095e+01	6.094217e+01
2.410000e-06	2.572621e-06	8.888496e-10	1.788634e+01	6.200944e+01
2.420000e-06	2.613457e-06	9.041714e-10	1.817025e+01	6.304430e+01
2.430000e-06	2.654103e-06	9.175390e-10	1.845284e+01	6.404786e+01
2.440000e-06	2.694499e-06	9.309673e-10	1.873370e+01	6.502122e+01
2.450000e-06	2.734726e-06	9.442994e-10	1.901338e+01	6.596546e+01
2.460000e-06	2.774842e-06	9.579413e-10	1.929229e+01	6.688165e+01
2.470000e-06	2.814849e-06	9.710262e-10	1.957044e+01	6.777078e+01
2.480000e-06	2.854764e-06	9.839421e-10	1.984795e+01	6.863381e+01
2.490000e-06	2.894566e-06	9.972391e-10	2.012468e+01	6.947163e+01
2.500000e-06	2.934203e-06	1.010270e-09	2.040026e+01	7.028507e+01
2.510000e-06	2.973641e-06	1.024890e-09	2.067446e+01	7.107489e+01
2.520000e-06	3.012870e-06	1.037283e-09	2.094720e+01	7.184177e+01
2.530000e-06	3.051825e-06	1.048683e-09	2.121804e+01	7.258634e+01
2.540000e-06	3.090571e-06	1.060369e-09	2.148742e+01	7.330915e+01
2.550000e-06	3.129137e-06	1.068761e-09	2.175555e+01	7.401068e+01
2.560000e-06	3.167469e-06	1.075977e-09	2.202206e+01	7.469135e+01
2.570000e-06	3.205615e-06	1.084630e-09	2.228727e+01	7.535154e+01
2.580000e-06	3.243605e-06	1.094863e-09	2.255140e+01	7.599156e+01
2.590000e-06	3.281384e-06	1.104353e-09	2.281406e+01	7.661169e+01
2.600000e-06	3.318961e-06	1.115358e-09	2.307532e+01	7.721218e+01
2.610000e-06	3.356312e-06	1.126873e-09	2.333500e+01	7.779323e+01
2.620000e-06	3.393375e-06	1.136149e-09	2.359269e+01	7.835506e+01
2.630000e-06	3.430143e-06	1.142244e-09	2.384832e+01	7.889786e+01
2.640000e-06	3.466660e-06	1.147502e-09	2.410221e+01	7.942180e+01
2.650000e-06	3.503016e-06	1.154141e-09	2.435498e+01	7.992710e+01
2.660000e-06	3.539206e-06	1.161048e-09	2.460659e+01	8.041396e+01
2.670000e-06	3.575242e-06	1.167303e-09	2.485713e+01	8.088261e+01
2.680000e-06	3.611120e-06	1.171876e-09	2.510658e+01	8.133329e+01
2.690000e-06	3.646837e-06	1.178016e-09	2.535490e+01	8.176630e+01
2.700000e-06	3.682360e-06	1.186432e-09	2.560188e+01	8.218193e+01
2.710000e-06	3.717653e-06	1.192150e-09	2.584725e+01	8.258054e+01
2.720000e-06	3.752636e-06	1.195317e-09	2.609047e+01	8.296250e+01
2.730000e-06	3.787200e-06	1.198481e-09	2.633078e+01	8.332823e+01
2.740000e-06	3.821283e-06	1.200898e-09	2.656775e+01	8.367817e+01
2.750000e-06	3.854803e-06	1.202376e-09	2.680080e+01	8.401280e+01
2.760000e-06	3.887820e-06	1.206855e-09	2.703035e+01	8.433261e+01
2.770000e-06	3.920475e-06	1.213709e-09	2.725739e+01	8.463814e+01
2.780000e-06	3.952860e-06	1.219270e-09	2.748255e+01	8.492992e+01
2.790000e-06	3.985046e-06	1.224595e-09	2.770633e+01	8.520852e+01
2.800000e-06	4.017089e-06	1.229073e-09	2.792911e+01	8.547448e+01
2.810000e-06	4.048985e-06	1.233215e-09	2.815086e+01	8.572839e+01
2.820000e-06	4.080740e-06	1.236745e-09	2.837164e+01	8.597080e+01
2.830000e-06	4.112282e-06	1.238888e-09	2.859094e+01	8.620225e+01
2.840000e-06	4.143441e-06	1.239622e-09	2.880758e+01	8.642329e+01
2.850000e-06	4.174219e-06	1.241659e-09	2.902156e+01	8.663441e+01
2.860000e-06	4.204681e-06	1.247342e-09	2.923335e+01	8.683611e+01
2.870000e-06	4.234862e-06	1.253306e-09	2.944319e+01	8.702885e+01
2.880000e-06	4.264809e-06	1.255285e-09	2.965140e+01	8.721303e+01
2.890000e-06	4.294495e-06	1.256128e-09	2.985779e+01	8.738904e+01
2.900000e-06	4.323836e-06	1.259158e-09	3.006179e+01	8.755724e+01
