# Temperatura_=_-16.31
# Concentracion g/m^3_=_1620.0
# C_Vs_to_Am_M_A/Vsm_=_65563218390.804596
# pendiente_HvsI_1/m_=_3716.3
# ordenada_HvsI_A/m_=_1297.0
# frecuencia_Hz_=_135094.48413243552

Tiempo_(s)	Campo_(V.s)	Magnetizacion_(V.s)	Campo_(kA/m)	Magnetizacion_(A/m)
0.000000e+00	-5.522401e-06	-1.217998e-09	-3.837595e+01	-7.803425e+01
1.000000e-08	-5.522601e-06	-1.216172e-09	-3.837734e+01	-7.804616e+01
2.000000e-08	-5.522558e-06	-1.217787e-09	-3.837704e+01	-7.805698e+01
3.000000e-08	-5.522223e-06	-1.221360e-09	-3.837471e+01	-7.806635e+01
4.000000e-08	-5.521598e-06	-1.223505e-09	-3.837037e+01	-7.807392e+01
5.000000e-08	-5.520457e-06	-1.221663e-09	-3.836244e+01	-7.807935e+01
6.000000e-08	-5.518724e-06	-1.208546e-09	-3.835039e+01	-7.808233e+01
7.000000e-08	-5.516409e-06	-1.192689e-09	-3.833431e+01	-7.808257e+01
8.000000e-08	-5.513399e-06	-1.234211e-09	-3.831339e+01	-7.807986e+01
9.000000e-08	-5.509898e-06	-1.274150e-09	-3.828906e+01	-7.807401e+01
1.000000e-07	-5.505916e-06	-1.231335e-09	-3.826139e+01	-7.806489e+01
1.100000e-07	-5.501579e-06	-1.163126e-09	-3.823125e+01	-7.805241e+01
1.200000e-07	-5.497093e-06	-1.198101e-09	-3.820008e+01	-7.803658e+01
1.300000e-07	-5.492336e-06	-1.233320e-09	-3.816702e+01	-7.801744e+01
1.400000e-07	-5.487205e-06	-1.221552e-09	-3.813137e+01	-7.799509e+01
1.500000e-07	-5.481652e-06	-1.130625e-09	-3.809278e+01	-7.796970e+01
1.600000e-07	-5.475845e-06	-1.214476e-09	-3.805242e+01	-7.794147e+01
1.700000e-07	-5.469604e-06	-1.251295e-09	-3.800906e+01	-7.791069e+01
1.800000e-07	-5.462899e-06	-1.249248e-09	-3.796246e+01	-7.787766e+01
1.900000e-07	-5.455911e-06	-1.144345e-09	-3.791390e+01	-7.784271e+01
2.000000e-07	-5.448588e-06	-1.188000e-09	-3.786301e+01	-7.780622e+01
2.100000e-07	-5.440966e-06	-1.213204e-09	-3.781004e+01	-7.776858e+01
2.200000e-07	-5.433065e-06	-1.215077e-09	-3.775514e+01	-7.773018e+01
2.300000e-07	-5.424895e-06	-1.168621e-09	-3.769836e+01	-7.769143e+01
2.400000e-07	-5.416464e-06	-1.183229e-09	-3.763977e+01	-7.765271e+01
2.500000e-07	-5.407408e-06	-1.206177e-09	-3.757685e+01	-7.761439e+01
2.600000e-07	-5.397519e-06	-1.179863e-09	-3.750813e+01	-7.757681e+01
2.700000e-07	-5.387001e-06	-1.169014e-09	-3.743504e+01	-7.754029e+01
2.800000e-07	-5.375980e-06	-1.157260e-09	-3.735845e+01	-7.750509e+01
2.900000e-07	-5.364533e-06	-1.192470e-09	-3.727890e+01	-7.747143e+01
3.000000e-07	-5.352707e-06	-1.162339e-09	-3.719672e+01	-7.743948e+01
3.100000e-07	-5.340475e-06	-1.174897e-09	-3.711172e+01	-7.740935e+01
3.200000e-07	-5.327750e-06	-1.144695e-09	-3.702329e+01	-7.738110e+01
3.300000e-07	-5.314622e-06	-1.201448e-09	-3.693206e+01	-7.735471e+01
3.400000e-07	-5.301178e-06	-1.161326e-09	-3.683864e+01	-7.733013e+01
3.500000e-07	-5.287401e-06	-1.170814e-09	-3.674290e+01	-7.730725e+01
3.600000e-07	-5.273141e-06	-1.150602e-09	-3.664381e+01	-7.728588e+01
3.700000e-07	-5.258442e-06	-1.196648e-09	-3.654166e+01	-7.726582e+01
3.800000e-07	-5.243252e-06	-1.147952e-09	-3.643610e+01	-7.724681e+01
3.900000e-07	-5.227404e-06	-1.169952e-09	-3.632597e+01	-7.722855e+01
4.000000e-07	-5.211074e-06	-1.186582e-09	-3.621250e+01	-7.721075e+01
4.100000e-07	-5.194457e-06	-1.177643e-09	-3.609702e+01	-7.719305e+01
4.200000e-07	-5.177461e-06	-1.123235e-09	-3.597891e+01	-7.717512e+01
4.300000e-07	-5.160222e-06	-1.176770e-09	-3.585912e+01	-7.715661e+01
4.400000e-07	-5.142669e-06	-1.198754e-09	-3.573714e+01	-7.713719e+01
4.500000e-07	-5.124663e-06	-1.150613e-09	-3.561201e+01	-7.711655e+01
4.600000e-07	-5.106256e-06	-1.147073e-09	-3.548410e+01	-7.709438e+01
4.700000e-07	-5.087427e-06	-1.204338e-09	-3.535325e+01	-7.707044e+01
4.800000e-07	-5.068227e-06	-1.169531e-09	-3.521983e+01	-7.704450e+01
4.900000e-07	-5.048817e-06	-1.131882e-09	-3.508495e+01	-7.701639e+01
5.000000e-07	-5.029212e-06	-1.174753e-09	-3.494871e+01	-7.698598e+01
5.100000e-07	-5.009376e-06	-1.162019e-09	-3.481087e+01	-7.695319e+01
5.200000e-07	-4.989303e-06	-1.116041e-09	-3.467137e+01	-7.691801e+01
5.300000e-07	-4.968915e-06	-1.159098e-09	-3.452969e+01	-7.688046e+01
5.400000e-07	-4.948121e-06	-1.204551e-09	-3.438520e+01	-7.684063e+01
5.500000e-07	-4.926850e-06	-1.145291e-09	-3.423738e+01	-7.679865e+01
5.600000e-07	-4.905267e-06	-1.150836e-09	-3.408740e+01	-7.675470e+01
5.700000e-07	-4.883478e-06	-1.190426e-09	-3.393598e+01	-7.670900e+01
5.800000e-07	-4.861346e-06	-1.165814e-09	-3.378218e+01	-7.666180e+01
5.900000e-07	-4.838848e-06	-1.124983e-09	-3.362584e+01	-7.661338e+01
6.000000e-07	-4.815986e-06	-1.167977e-09	-3.346697e+01	-7.656404e+01
6.100000e-07	-4.792711e-06	-1.152680e-09	-3.330523e+01	-7.651408e+01
6.200000e-07	-4.769094e-06	-1.126211e-09	-3.314111e+01	-7.646382e+01
6.300000e-07	-4.745254e-06	-1.141521e-09	-3.297544e+01	-7.641355e+01
6.400000e-07	-4.721297e-06	-1.166199e-09	-3.280896e+01	-7.636357e+01
6.500000e-07	-4.697117e-06	-1.131195e-09	-3.264093e+01	-7.631413e+01
6.600000e-07	-4.672564e-06	-1.144535e-09	-3.247031e+01	-7.626545e+01
6.700000e-07	-4.647436e-06	-1.153354e-09	-3.229569e+01	-7.621773e+01
6.800000e-07	-4.621714e-06	-1.139479e-09	-3.211695e+01	-7.617110e+01
6.900000e-07	-4.595457e-06	-1.123198e-09	-3.193448e+01	-7.612564e+01
7.000000e-07	-4.568702e-06	-1.144806e-09	-3.174856e+01	-7.608138e+01
7.100000e-07	-4.541601e-06	-1.128818e-09	-3.156023e+01	-7.603829e+01
7.200000e-07	-4.514161e-06	-1.121983e-09	-3.136954e+01	-7.599628e+01
7.300000e-07	-4.486451e-06	-1.131449e-09	-3.117698e+01	-7.595518e+01
7.400000e-07	-4.458606e-06	-1.138389e-09	-3.098349e+01	-7.591478e+01
7.500000e-07	-4.430569e-06	-1.125330e-09	-3.078865e+01	-7.587481e+01
7.600000e-07	-4.402292e-06	-1.130309e-09	-3.059215e+01	-7.583494e+01
7.700000e-07	-4.373804e-06	-1.130258e-09	-3.039418e+01	-7.579479e+01
7.800000e-07	-4.345041e-06	-1.119057e-09	-3.019431e+01	-7.575395e+01
7.900000e-07	-4.315898e-06	-1.117512e-09	-2.999179e+01	-7.571196e+01
8.000000e-07	-4.286432e-06	-1.120531e-09	-2.978703e+01	-7.566835e+01
8.100000e-07	-4.256662e-06	-1.113171e-09	-2.958015e+01	-7.562263e+01
8.200000e-07	-4.226583e-06	-1.107595e-09	-2.937112e+01	-7.557431e+01
8.300000e-07	-4.196236e-06	-1.115125e-09	-2.916024e+01	-7.552287e+01
8.400000e-07	-4.165626e-06	-1.107723e-09	-2.894753e+01	-7.546786e+01
8.500000e-07	-4.134737e-06	-1.106117e-09	-2.873288e+01	-7.540880e+01
8.600000e-07	-4.103533e-06	-1.112085e-09	-2.851603e+01	-7.534528e+01
8.700000e-07	-4.072098e-06	-1.117297e-09	-2.829759e+01	-7.527691e+01
8.800000e-07	-4.040469e-06	-1.103890e-09	-2.807779e+01	-7.520336e+01
8.900000e-07	-4.008629e-06	-1.106971e-09	-2.785653e+01	-7.512435e+01
9.000000e-07	-3.976580e-06	-1.103625e-09	-2.763382e+01	-7.503967e+01
9.100000e-07	-3.944350e-06	-1.097190e-09	-2.740985e+01	-7.494916e+01
9.200000e-07	-3.911827e-06	-1.088632e-09	-2.718384e+01	-7.485275e+01
9.300000e-07	-3.878845e-06	-1.095778e-09	-2.695464e+01	-7.475044e+01
9.400000e-07	-3.845437e-06	-1.089548e-09	-2.672249e+01	-7.464228e+01
9.500000e-07	-3.811626e-06	-1.092969e-09	-2.648753e+01	-7.452841e+01
9.600000e-07	-3.777338e-06	-1.095163e-09	-2.624926e+01	-7.440904e+01
9.700000e-07	-3.742632e-06	-1.095968e-09	-2.600808e+01	-7.428442e+01
9.800000e-07	-3.707554e-06	-1.082860e-09	-2.576432e+01	-7.415488e+01
9.900000e-07	-3.672138e-06	-1.085245e-09	-2.551821e+01	-7.402081e+01
1.000000e-06	-3.636517e-06	-1.085381e-09	-2.527067e+01	-7.388261e+01
1.010000e-06	-3.600791e-06	-1.079480e-09	-2.502241e+01	-7.374074e+01
1.020000e-06	-3.564945e-06	-1.073666e-09	-2.477331e+01	-7.359567e+01
1.030000e-06	-3.528910e-06	-1.074126e-09	-2.452290e+01	-7.344792e+01
1.040000e-06	-3.492625e-06	-1.069341e-09	-2.427075e+01	-7.329796e+01
1.050000e-06	-3.456133e-06	-1.067496e-09	-2.401716e+01	-7.314631e+01
1.060000e-06	-3.419473e-06	-1.073578e-09	-2.376240e+01	-7.299344e+01
1.070000e-06	-3.382523e-06	-1.073832e-09	-2.350564e+01	-7.283980e+01
1.080000e-06	-3.345291e-06	-1.065173e-09	-2.324690e+01	-7.268581e+01
1.090000e-06	-3.307793e-06	-1.059873e-09	-2.298632e+01	-7.253186e+01
1.100000e-06	-3.270034e-06	-1.056438e-09	-2.272393e+01	-7.237825e+01
1.110000e-06	-3.232010e-06	-1.046670e-09	-2.245969e+01	-7.222527e+01
1.120000e-06	-3.193760e-06	-1.041532e-09	-2.219389e+01	-7.207310e+01
1.130000e-06	-3.155428e-06	-1.038336e-09	-2.192751e+01	-7.192187e+01
1.140000e-06	-3.116772e-06	-1.036464e-09	-2.165889e+01	-7.177164e+01
1.150000e-06	-3.077758e-06	-1.035914e-09	-2.138777e+01	-7.162239e+01
1.160000e-06	-3.038696e-06	-1.042653e-09	-2.111633e+01	-7.147402e+01
1.170000e-06	-2.999533e-06	-1.040584e-09	-2.084418e+01	-7.132635e+01
1.180000e-06	-2.960137e-06	-1.039652e-09	-2.057041e+01	-7.117913e+01
1.190000e-06	-2.920532e-06	-1.036824e-09	-2.029519e+01	-7.103204e+01
1.200000e-06	-2.880780e-06	-1.033545e-09	-2.001895e+01	-7.088470e+01
1.210000e-06	-2.840900e-06	-1.022577e-09	-1.974182e+01	-7.073664e+01
1.220000e-06	-2.800892e-06	-1.016275e-09	-1.946380e+01	-7.058736e+01
1.230000e-06	-2.760764e-06	-1.009237e-09	-1.918494e+01	-7.043631e+01
1.240000e-06	-2.720494e-06	-1.003751e-09	-1.890510e+01	-7.028288e+01
1.250000e-06	-2.680122e-06	-9.991420e-10	-1.862455e+01	-7.012645e+01
1.260000e-06	-2.639464e-06	-1.003712e-09	-1.834201e+01	-6.996635e+01
1.270000e-06	-2.598524e-06	-1.004700e-09	-1.805751e+01	-6.980192e+01
1.280000e-06	-2.557388e-06	-9.995870e-10	-1.777165e+01	-6.963247e+01
1.290000e-06	-2.515907e-06	-9.905792e-10	-1.748340e+01	-6.945734e+01
1.300000e-06	-2.474223e-06	-9.814457e-10	-1.719373e+01	-6.927586e+01
1.310000e-06	-2.432295e-06	-9.716951e-10	-1.690236e+01	-6.908737e+01
1.320000e-06	-2.390047e-06	-9.654091e-10	-1.660877e+01	-6.889127e+01
1.330000e-06	-2.347527e-06	-9.637422e-10	-1.631330e+01	-6.868697e+01
1.340000e-06	-2.304713e-06	-9.650444e-10	-1.601578e+01	-6.847391e+01
1.350000e-06	-2.261573e-06	-9.666726e-10	-1.571599e+01	-6.825160e+01
1.360000e-06	-2.218179e-06	-9.680234e-10	-1.541444e+01	-6.801958e+01
1.370000e-06	-2.174709e-06	-9.669737e-10	-1.511236e+01	-6.777745e+01
1.380000e-06	-2.131092e-06	-9.616343e-10	-1.480926e+01	-6.752485e+01
1.390000e-06	-2.087343e-06	-9.547849e-10	-1.450524e+01	-6.726150e+01
1.400000e-06	-2.043498e-06	-9.459927e-10	-1.420056e+01	-6.698714e+01
1.410000e-06	-1.999565e-06	-9.365150e-10	-1.389526e+01	-6.670160e+01
1.420000e-06	-1.955593e-06	-9.270804e-10	-1.358970e+01	-6.640473e+01
1.430000e-06	-1.911543e-06	-9.231187e-10	-1.328359e+01	-6.609644e+01
1.440000e-06	-1.867473e-06	-9.199222e-10	-1.297734e+01	-6.577668e+01
1.450000e-06	-1.823377e-06	-9.181295e-10	-1.267091e+01	-6.544544e+01
1.460000e-06	-1.779126e-06	-9.158587e-10	-1.236340e+01	-6.510275e+01
1.470000e-06	-1.734725e-06	-9.130808e-10	-1.205485e+01	-6.474864e+01
1.480000e-06	-1.690255e-06	-9.051149e-10	-1.174583e+01	-6.438319e+01
1.490000e-06	-1.645586e-06	-8.951930e-10	-1.143541e+01	-6.400646e+01
1.500000e-06	-1.600760e-06	-8.845792e-10	-1.112391e+01	-6.361853e+01
1.510000e-06	-1.555816e-06	-8.738845e-10	-1.081159e+01	-6.321947e+01
1.520000e-06	-1.510666e-06	-8.637863e-10	-1.049784e+01	-6.280934e+01
1.530000e-06	-1.465307e-06	-8.585566e-10	-1.018263e+01	-6.238816e+01
1.540000e-06	-1.419903e-06	-8.539214e-10	-9.867107e+00	-6.195594e+01
1.550000e-06	-1.374536e-06	-8.497218e-10	-9.551844e+00	-6.151264e+01
1.560000e-06	-1.329074e-06	-8.424790e-10	-9.235926e+00	-6.105815e+01
1.570000e-06	-1.283460e-06	-8.308269e-10	-8.918943e+00	-6.059236e+01
1.580000e-06	-1.237754e-06	-8.183584e-10	-8.601326e+00	-6.011503e+01
1.590000e-06	-1.191971e-06	-8.085556e-10	-8.283174e+00	-5.962591e+01
1.600000e-06	-1.146102e-06	-7.986154e-10	-7.964428e+00	-5.912464e+01
1.610000e-06	-1.100155e-06	-7.900661e-10	-7.645131e+00	-5.861080e+01
1.620000e-06	-1.054110e-06	-7.817928e-10	-7.325157e+00	-5.808387e+01
1.630000e-06	-1.008011e-06	-7.734904e-10	-7.004808e+00	-5.754326e+01
1.640000e-06	-9.618589e-07	-7.657325e-10	-6.684094e+00	-5.698829e+01
1.650000e-06	-9.156501e-07	-7.588668e-10	-6.362982e+00	-5.641819e+01
1.660000e-06	-8.693784e-07	-7.535805e-10	-6.041434e+00	-5.583209e+01
1.670000e-06	-8.230616e-07	-7.487661e-10	-5.719572e+00	-5.522907e+01
1.680000e-06	-7.767442e-07	-7.427532e-10	-5.397705e+00	-5.460808e+01
1.690000e-06	-7.304098e-07	-7.345022e-10	-5.075721e+00	-5.396804e+01
1.700000e-06	-6.840719e-07	-7.232171e-10	-4.753712e+00	-5.330776e+01
1.710000e-06	-6.377143e-07	-7.076321e-10	-4.431567e+00	-5.262601e+01
1.720000e-06	-5.912395e-07	-6.885888e-10	-4.108607e+00	-5.192148e+01
1.730000e-06	-5.446190e-07	-6.706102e-10	-3.784635e+00	-5.119282e+01
1.740000e-06	-4.979133e-07	-6.584972e-10	-3.460070e+00	-5.043867e+01
1.750000e-06	-4.511944e-07	-6.521833e-10	-3.135414e+00	-4.965759e+01
1.760000e-06	-4.044471e-07	-6.474342e-10	-2.810560e+00	-4.884816e+01
1.770000e-06	-3.576501e-07	-6.372280e-10	-2.485361e+00	-4.800896e+01
1.780000e-06	-3.108907e-07	-6.230264e-10	-2.160424e+00	-4.713858e+01
1.790000e-06	-2.641767e-07	-6.066228e-10	-1.835801e+00	-4.623562e+01
1.800000e-06	-2.173470e-07	-5.903609e-10	-1.510375e+00	-4.529874e+01
1.810000e-06	-1.704362e-07	-5.740625e-10	-1.184385e+00	-4.432666e+01
1.820000e-06	-1.235695e-07	-5.609301e-10	-8.587021e-01	-4.331818e+01
1.830000e-06	-7.671824e-08	-5.483388e-10	-5.331260e-01	-4.227216e+01
1.840000e-06	-2.990996e-08	-5.359958e-10	-2.078485e-01	-4.118760e+01
1.850000e-06	1.686290e-08	-5.227089e-10	1.171827e-01	-4.006361e+01
1.860000e-06	6.370769e-08	-5.083152e-10	4.427138e-01	-3.889944e+01
1.870000e-06	1.105312e-07	-4.918783e-10	7.680969e-01	-3.769447e+01
1.880000e-06	1.573265e-07	-4.747683e-10	1.093284e+00	-3.644827e+01
1.890000e-06	2.042008e-07	-4.561051e-10	1.419020e+00	-3.516057e+01
1.900000e-06	2.510585e-07	-4.362970e-10	1.744641e+00	-3.383129e+01
1.910000e-06	2.978066e-07	-4.161701e-10	2.069501e+00	-3.246055e+01
1.920000e-06	3.445581e-07	-3.956555e-10	2.394383e+00	-3.104866e+01
1.930000e-06	3.913699e-07	-3.752835e-10	2.719685e+00	-2.959614e+01
1.940000e-06	4.380950e-07	-3.552600e-10	3.044384e+00	-2.810372e+01
1.950000e-06	4.847581e-07	-3.364982e-10	3.368653e+00	-2.657235e+01
1.960000e-06	5.313737e-07	-3.175682e-10	3.692592e+00	-2.500318e+01
1.970000e-06	5.779381e-07	-2.983286e-10	4.016174e+00	-2.339758e+01
1.980000e-06	6.244297e-07	-2.788005e-10	4.339250e+00	-2.175712e+01
1.990000e-06	6.708361e-07	-2.554700e-10	4.661735e+00	-2.008355e+01
2.000000e-06	7.171964e-07	-2.290082e-10	4.983899e+00	-1.837882e+01
2.010000e-06	7.634934e-07	-2.025366e-10	5.305624e+00	-1.664507e+01
2.020000e-06	8.097883e-07	-1.766831e-10	5.627334e+00	-1.488457e+01
2.030000e-06	8.560887e-07	-1.518489e-10	5.949082e+00	-1.309976e+01
2.040000e-06	9.022731e-07	-1.254170e-10	6.270024e+00	-1.129320e+01
2.050000e-06	9.484010e-07	-9.953103e-11	6.590573e+00	-9.467577e+00
2.060000e-06	9.944753e-07	-7.591147e-11	6.910750e+00	-7.625652e+00
2.070000e-06	1.040423e-06	-5.518551e-11	7.230049e+00	-5.770271e+00
2.080000e-06	1.086348e-06	-3.323904e-11	7.549184e+00	-3.904330e+00
2.090000e-06	1.132175e-06	-8.570208e-12	7.867644e+00	-2.030756e+00
2.100000e-06	1.177922e-06	1.873720e-11	8.185544e+00	-1.524883e-01
2.110000e-06	1.223639e-06	4.928032e-11	8.503244e+00	1.727547e+00
2.120000e-06	1.269275e-06	8.036059e-11	8.820371e+00	3.606452e+00
2.130000e-06	1.314859e-06	1.078686e-10	9.137139e+00	5.481381e+00
2.140000e-06	1.360414e-06	1.318450e-10	9.453712e+00	7.349558e+00
2.150000e-06	1.405826e-06	1.519716e-10	9.769286e+00	9.208293e+00
2.160000e-06	1.451099e-06	1.699819e-10	1.008389e+01	1.105500e+01
2.170000e-06	1.496277e-06	1.880585e-10	1.039784e+01	1.288721e+01
2.180000e-06	1.541275e-06	2.100038e-10	1.071054e+01	1.470259e+01
2.190000e-06	1.586161e-06	2.374259e-10	1.102245e+01	1.649894e+01
2.200000e-06	1.631008e-06	2.686897e-10	1.133411e+01	1.827421e+01
2.210000e-06	1.675692e-06	3.009139e-10	1.164462e+01	2.002651e+01
2.220000e-06	1.720125e-06	3.315990e-10	1.195339e+01	2.175411e+01
2.230000e-06	1.764512e-06	3.560442e-10	1.226185e+01	2.345544e+01
2.240000e-06	1.808816e-06	3.730430e-10	1.256972e+01	2.512909e+01
2.250000e-06	1.852913e-06	3.874430e-10	1.287616e+01	2.677383e+01
2.260000e-06	1.896911e-06	4.023531e-10	1.318190e+01	2.838857e+01
2.270000e-06	1.940813e-06	4.208092e-10	1.348699e+01	2.997237e+01
2.280000e-06	1.984702e-06	4.423132e-10	1.379197e+01	3.152444e+01
2.290000e-06	2.028567e-06	4.661193e-10	1.409680e+01	3.304415e+01
2.300000e-06	2.072364e-06	4.896528e-10	1.440115e+01	3.453096e+01
2.310000e-06	2.116121e-06	5.113069e-10	1.470523e+01	3.598448e+01
2.320000e-06	2.159783e-06	5.308290e-10	1.500864e+01	3.740440e+01
2.330000e-06	2.203330e-06	5.456258e-10	1.531125e+01	3.879055e+01
2.340000e-06	2.246688e-06	5.577843e-10	1.561255e+01	4.014281e+01
2.350000e-06	2.289926e-06	5.721438e-10	1.591302e+01	4.146115e+01
2.360000e-06	2.333001e-06	5.878238e-10	1.621235e+01	4.274560e+01
2.370000e-06	2.375761e-06	6.036950e-10	1.650950e+01	4.399626e+01
2.380000e-06	2.418298e-06	6.207667e-10	1.680510e+01	4.521326e+01
2.390000e-06	2.460588e-06	6.384674e-10	1.709897e+01	4.639678e+01
2.400000e-06	2.502453e-06	6.539761e-10	1.738990e+01	4.754703e+01
2.410000e-06	2.543942e-06	6.693818e-10	1.767822e+01	4.866426e+01
2.420000e-06	2.585124e-06	6.847634e-10	1.796440e+01	4.974872e+01
2.430000e-06	2.625950e-06	6.986536e-10	1.824810e+01	5.080069e+01
2.440000e-06	2.666576e-06	7.129852e-10	1.853041e+01	5.182048e+01
2.450000e-06	2.707020e-06	7.279107e-10	1.881147e+01	5.280840e+01
2.460000e-06	2.747230e-06	7.417478e-10	1.909089e+01	5.376478e+01
2.470000e-06	2.787315e-06	7.533003e-10	1.936945e+01	5.468997e+01
2.480000e-06	2.827290e-06	7.626356e-10	1.964724e+01	5.558435e+01
2.490000e-06	2.867078e-06	7.719409e-10	1.992373e+01	5.644832e+01
2.500000e-06	2.906785e-06	7.829765e-10	2.019966e+01	5.728229e+01
2.510000e-06	2.946389e-06	7.967896e-10	2.047487e+01	5.808674e+01
2.520000e-06	2.985796e-06	8.125598e-10	2.074872e+01	5.886214e+01
2.530000e-06	3.024990e-06	8.277370e-10	2.102109e+01	5.960903e+01
2.540000e-06	3.063985e-06	8.416373e-10	2.129207e+01	6.032799e+01
2.550000e-06	3.102735e-06	8.520476e-10	2.156134e+01	6.101963e+01
2.560000e-06	3.141192e-06	8.568258e-10	2.182859e+01	6.168463e+01
2.570000e-06	3.179448e-06	8.605111e-10	2.209444e+01	6.232371e+01
2.580000e-06	3.217625e-06	8.676733e-10	2.235973e+01	6.293764e+01
2.590000e-06	3.255699e-06	8.770477e-10	2.262431e+01	6.352723e+01
2.600000e-06	3.293470e-06	8.878664e-10	2.288679e+01	6.409337e+01
2.610000e-06	3.331024e-06	9.005296e-10	2.314776e+01	6.463695e+01
2.620000e-06	3.368404e-06	9.128683e-10	2.340752e+01	6.515896e+01
2.630000e-06	3.405519e-06	9.236633e-10	2.366543e+01	6.566036e+01
2.640000e-06	3.442286e-06	9.326377e-10	2.392093e+01	6.614220e+01
2.650000e-06	3.478700e-06	9.383868e-10	2.417398e+01	6.660551e+01
2.660000e-06	3.514886e-06	9.423116e-10	2.442544e+01	6.705135e+01
2.670000e-06	3.550934e-06	9.450130e-10	2.467594e+01	6.748079e+01
2.680000e-06	3.586877e-06	9.479494e-10	2.492572e+01	6.789487e+01
2.690000e-06	3.622676e-06	9.536559e-10	2.517449e+01	6.829464e+01
2.700000e-06	3.658327e-06	9.605509e-10	2.542223e+01	6.868111e+01
2.710000e-06	3.693858e-06	9.682932e-10	2.566914e+01	6.905524e+01
2.720000e-06	3.729175e-06	9.750458e-10	2.591457e+01	6.941795e+01
2.730000e-06	3.764048e-06	9.788433e-10	2.615691e+01	6.977011e+01
2.740000e-06	3.798433e-06	9.839879e-10	2.639585e+01	7.011250e+01
2.750000e-06	3.832330e-06	9.900744e-10	2.663140e+01	7.044583e+01
2.760000e-06	3.865725e-06	9.953544e-10	2.686347e+01	7.077074e+01
2.770000e-06	3.898704e-06	9.995341e-10	2.709265e+01	7.108776e+01
2.780000e-06	3.931327e-06	1.002197e-09	2.731935e+01	7.139732e+01
2.790000e-06	3.963627e-06	1.004684e-09	2.754381e+01	7.169977e+01
2.800000e-06	3.995695e-06	1.012166e-09	2.776665e+01	7.199536e+01
2.810000e-06	4.027619e-06	1.018739e-09	2.798850e+01	7.228423e+01
2.820000e-06	4.059436e-06	1.024716e-09	2.820960e+01	7.256642e+01
2.830000e-06	4.091027e-06	1.031264e-09	2.842913e+01	7.284190e+01
2.840000e-06	4.122329e-06	1.037640e-09	2.864665e+01	7.311054e+01
2.850000e-06	4.153421e-06	1.042337e-09	2.886271e+01	7.337214e+01
2.860000e-06	4.184206e-06	1.046342e-09	2.907664e+01	7.362643e+01
2.870000e-06	4.214616e-06	1.052531e-09	2.928797e+01	7.387309e+01
2.880000e-06	4.244722e-06	1.058048e-09	2.949718e+01	7.411174e+01
2.890000e-06	4.274566e-06	1.060987e-09	2.970457e+01	7.434200e+01
2.900000e-06	4.304178e-06	1.061363e-09	2.991035e+01	7.456344e+01
