# Temperatura_=_-4.55
# Concentracion g/m^3_=_1620.0
# C_Vs_to_Am_M_A/Vsm_=_65563218390.804596
# pendiente_HvsI_1/m_=_3716.3
# ordenada_HvsI_A/m_=_1297.0
# frecuencia_Hz_=_135109.638420446

Tiempo_(s)	Campo_(V.s)	Magnetizacion_(V.s)	Campo_(kA/m)	Magnetizacion_(A/m)
0.000000e+00	-5.517580e-06	-1.382194e-09	-3.836523e+01	-9.006571e+01
1.000000e-08	-5.517771e-06	-1.381086e-09	-3.836656e+01	-9.000943e+01
2.000000e-08	-5.517657e-06	-1.384341e-09	-3.836577e+01	-8.995627e+01
3.000000e-08	-5.517085e-06	-1.388830e-09	-3.836179e+01	-8.990626e+01
4.000000e-08	-5.515948e-06	-1.391055e-09	-3.835389e+01	-8.985935e+01
5.000000e-08	-5.514213e-06	-1.385146e-09	-3.834182e+01	-8.981541e+01
6.000000e-08	-5.511860e-06	-1.371880e-09	-3.832546e+01	-8.977421e+01
7.000000e-08	-5.508912e-06	-1.373079e-09	-3.830496e+01	-8.973549e+01
8.000000e-08	-5.505491e-06	-1.395464e-09	-3.828117e+01	-8.969888e+01
9.000000e-08	-5.501699e-06	-1.444027e-09	-3.825481e+01	-8.966397e+01
1.000000e-07	-5.497543e-06	-1.475978e-09	-3.822591e+01	-8.963029e+01
1.100000e-07	-5.493054e-06	-1.413395e-09	-3.819470e+01	-8.959732e+01
1.200000e-07	-5.488390e-06	-1.318426e-09	-3.816227e+01	-8.956451e+01
1.300000e-07	-5.483510e-06	-1.345369e-09	-3.812834e+01	-8.953129e+01
1.400000e-07	-5.478072e-06	-1.402047e-09	-3.809052e+01	-8.949707e+01
1.500000e-07	-5.472153e-06	-1.420183e-09	-3.804937e+01	-8.946124e+01
1.600000e-07	-5.465984e-06	-1.336589e-09	-3.800647e+01	-8.942323e+01
1.700000e-07	-5.459563e-06	-1.368425e-09	-3.796183e+01	-8.938247e+01
1.800000e-07	-5.452656e-06	-1.408828e-09	-3.791380e+01	-8.933841e+01
1.900000e-07	-5.445351e-06	-1.415371e-09	-3.786301e+01	-8.929054e+01
2.000000e-07	-5.437802e-06	-1.333848e-09	-3.781051e+01	-8.923841e+01
2.100000e-07	-5.429978e-06	-1.349268e-09	-3.775611e+01	-8.918159e+01
2.200000e-07	-5.421839e-06	-1.395448e-09	-3.769952e+01	-8.911975e+01
2.300000e-07	-5.413368e-06	-1.418920e-09	-3.764062e+01	-8.905259e+01
2.400000e-07	-5.404514e-06	-1.374479e-09	-3.757905e+01	-8.897988e+01
2.500000e-07	-5.394974e-06	-1.345935e-09	-3.751272e+01	-8.890148e+01
2.600000e-07	-5.384677e-06	-1.374854e-09	-3.744112e+01	-8.881729e+01
2.700000e-07	-5.373816e-06	-1.371265e-09	-3.736560e+01	-8.872730e+01
2.800000e-07	-5.362465e-06	-1.350812e-09	-3.728668e+01	-8.863156e+01
2.900000e-07	-5.350668e-06	-1.332423e-09	-3.720465e+01	-8.853019e+01
3.000000e-07	-5.338561e-06	-1.366371e-09	-3.712047e+01	-8.842336e+01
3.100000e-07	-5.326112e-06	-1.336853e-09	-3.703390e+01	-8.831132e+01
3.200000e-07	-5.313209e-06	-1.319779e-09	-3.694419e+01	-8.819432e+01
3.300000e-07	-5.299846e-06	-1.291581e-09	-3.685127e+01	-8.807271e+01
3.400000e-07	-5.286204e-06	-1.337652e-09	-3.675641e+01	-8.794684e+01
3.500000e-07	-5.272210e-06	-1.322541e-09	-3.665911e+01	-8.781709e+01
3.600000e-07	-5.257612e-06	-1.319804e-09	-3.655761e+01	-8.768387e+01
3.700000e-07	-5.242426e-06	-1.313181e-09	-3.645201e+01	-8.754759e+01
3.800000e-07	-5.226863e-06	-1.353657e-09	-3.634380e+01	-8.740867e+01
3.900000e-07	-5.210792e-06	-1.309703e-09	-3.623205e+01	-8.726752e+01
4.000000e-07	-5.194215e-06	-1.293047e-09	-3.611679e+01	-8.712454e+01
4.100000e-07	-5.177390e-06	-1.320040e-09	-3.599980e+01	-8.698011e+01
4.200000e-07	-5.160331e-06	-1.333381e-09	-3.588119e+01	-8.683457e+01
4.300000e-07	-5.142886e-06	-1.284036e-09	-3.575988e+01	-8.668826e+01
4.400000e-07	-5.125110e-06	-1.316073e-09	-3.563628e+01	-8.654146e+01
4.500000e-07	-5.106946e-06	-1.360811e-09	-3.550998e+01	-8.639441e+01
4.600000e-07	-5.088280e-06	-1.314304e-09	-3.538020e+01	-8.624732e+01
4.700000e-07	-5.069261e-06	-1.283525e-09	-3.524795e+01	-8.610035e+01
4.800000e-07	-5.049915e-06	-1.340293e-09	-3.511343e+01	-8.595363e+01
4.900000e-07	-5.030327e-06	-1.327756e-09	-3.497723e+01	-8.580722e+01
5.000000e-07	-5.010659e-06	-1.268462e-09	-3.484048e+01	-8.566116e+01
5.100000e-07	-4.990839e-06	-1.301833e-09	-3.470266e+01	-8.551545e+01
5.200000e-07	-4.970583e-06	-1.318202e-09	-3.456181e+01	-8.537004e+01
5.300000e-07	-4.949767e-06	-1.270509e-09	-3.441707e+01	-8.522487e+01
5.400000e-07	-4.928579e-06	-1.288138e-09	-3.426975e+01	-8.507982e+01
5.500000e-07	-4.907120e-06	-1.338479e-09	-3.412054e+01	-8.493477e+01
5.600000e-07	-4.885297e-06	-1.287229e-09	-3.396880e+01	-8.478959e+01
5.700000e-07	-4.863175e-06	-1.272408e-09	-3.381498e+01	-8.464411e+01
5.800000e-07	-4.840690e-06	-1.319778e-09	-3.365863e+01	-8.449817e+01
5.900000e-07	-4.817784e-06	-1.306825e-09	-3.349936e+01	-8.435160e+01
6.000000e-07	-4.794593e-06	-1.255371e-09	-3.333811e+01	-8.420424e+01
6.100000e-07	-4.771146e-06	-1.284082e-09	-3.317507e+01	-8.405593e+01
6.200000e-07	-4.747484e-06	-1.281751e-09	-3.301054e+01	-8.390651e+01
6.300000e-07	-4.723675e-06	-1.251268e-09	-3.284500e+01	-8.375586e+01
6.400000e-07	-4.699558e-06	-1.259898e-09	-3.267731e+01	-8.360385e+01
6.500000e-07	-4.674915e-06	-1.285206e-09	-3.250595e+01	-8.345038e+01
6.600000e-07	-4.649813e-06	-1.258419e-09	-3.233141e+01	-8.329537e+01
6.700000e-07	-4.624290e-06	-1.260063e-09	-3.215395e+01	-8.313876e+01
6.800000e-07	-4.598212e-06	-1.266680e-09	-3.197262e+01	-8.298050e+01
6.900000e-07	-4.571605e-06	-1.252815e-09	-3.178761e+01	-8.282056e+01
7.000000e-07	-4.544595e-06	-1.239334e-09	-3.159981e+01	-8.265895e+01
7.100000e-07	-4.517291e-06	-1.252996e-09	-3.140995e+01	-8.249566e+01
7.200000e-07	-4.489752e-06	-1.246642e-09	-3.121847e+01	-8.233073e+01
7.300000e-07	-4.462040e-06	-1.245879e-09	-3.102578e+01	-8.216416e+01
7.400000e-07	-4.434205e-06	-1.250281e-09	-3.083223e+01	-8.199601e+01
7.500000e-07	-4.406167e-06	-1.247038e-09	-3.063728e+01	-8.182630e+01
7.600000e-07	-4.377756e-06	-1.239241e-09	-3.043973e+01	-8.165507e+01
7.700000e-07	-4.348970e-06	-1.243541e-09	-3.023957e+01	-8.148234e+01
7.800000e-07	-4.319889e-06	-1.239955e-09	-3.003736e+01	-8.130814e+01
7.900000e-07	-4.290494e-06	-1.233323e-09	-2.983297e+01	-8.113247e+01
8.000000e-07	-4.260841e-06	-1.236153e-09	-2.962679e+01	-8.095532e+01
8.100000e-07	-4.230894e-06	-1.228658e-09	-2.941855e+01	-8.077666e+01
8.200000e-07	-4.200514e-06	-1.214945e-09	-2.920731e+01	-8.059644e+01
8.300000e-07	-4.169866e-06	-1.212618e-09	-2.899421e+01	-8.041460e+01
8.400000e-07	-4.139066e-06	-1.218818e-09	-2.878005e+01	-8.023103e+01
8.500000e-07	-4.107996e-06	-1.211994e-09	-2.856402e+01	-8.004563e+01
8.600000e-07	-4.076660e-06	-1.213025e-09	-2.834613e+01	-7.985826e+01
8.700000e-07	-4.045125e-06	-1.214562e-09	-2.812686e+01	-7.966877e+01
8.800000e-07	-4.013405e-06	-1.209893e-09	-2.790629e+01	-7.947696e+01
8.900000e-07	-3.981490e-06	-1.197854e-09	-2.768438e+01	-7.928267e+01
9.000000e-07	-3.949343e-06	-1.199249e-09	-2.746086e+01	-7.908568e+01
9.100000e-07	-3.916797e-06	-1.188367e-09	-2.723456e+01	-7.888579e+01
9.200000e-07	-3.883818e-06	-1.178012e-09	-2.700524e+01	-7.868278e+01
9.300000e-07	-3.850431e-06	-1.177468e-09	-2.677310e+01	-7.847643e+01
9.400000e-07	-3.816658e-06	-1.182333e-09	-2.653826e+01	-7.826654e+01
9.500000e-07	-3.782447e-06	-1.172519e-09	-2.630038e+01	-7.805290e+01
9.600000e-07	-3.747735e-06	-1.168919e-09	-2.605902e+01	-7.783533e+01
9.700000e-07	-3.712750e-06	-1.166657e-09	-2.581576e+01	-7.761367e+01
9.800000e-07	-3.677578e-06	-1.160402e-09	-2.557120e+01	-7.738777e+01
9.900000e-07	-3.642154e-06	-1.150908e-09	-2.532489e+01	-7.715751e+01
1.000000e-06	-3.606583e-06	-1.150808e-09	-2.507755e+01	-7.692280e+01
1.010000e-06	-3.570918e-06	-1.144324e-09	-2.482956e+01	-7.668360e+01
1.020000e-06	-3.535054e-06	-1.133423e-09	-2.458019e+01	-7.643986e+01
1.030000e-06	-3.498922e-06	-1.128070e-09	-2.432896e+01	-7.619162e+01
1.040000e-06	-3.462564e-06	-1.128488e-09	-2.407615e+01	-7.593891e+01
1.050000e-06	-3.425939e-06	-1.124236e-09	-2.382149e+01	-7.568181e+01
1.060000e-06	-3.389023e-06	-1.121050e-09	-2.356480e+01	-7.542044e+01
1.070000e-06	-3.351817e-06	-1.118379e-09	-2.330609e+01	-7.515494e+01
1.080000e-06	-3.314339e-06	-1.112316e-09	-2.304550e+01	-7.488547e+01
1.090000e-06	-3.276647e-06	-1.106134e-09	-2.278341e+01	-7.461223e+01
1.100000e-06	-3.238777e-06	-1.099850e-09	-2.252010e+01	-7.433542e+01
1.110000e-06	-3.200710e-06	-1.090319e-09	-2.225541e+01	-7.405525e+01
1.120000e-06	-3.162377e-06	-1.075915e-09	-2.198887e+01	-7.377195e+01
1.130000e-06	-3.123877e-06	-1.068890e-09	-2.172116e+01	-7.348573e+01
1.140000e-06	-3.085227e-06	-1.067181e-09	-2.145242e+01	-7.319680e+01
1.150000e-06	-3.046348e-06	-1.067702e-09	-2.118209e+01	-7.290536e+01
1.160000e-06	-3.007245e-06	-1.065663e-09	-2.091019e+01	-7.261158e+01
1.170000e-06	-2.967938e-06	-1.064230e-09	-2.063688e+01	-7.231561e+01
1.180000e-06	-2.928486e-06	-1.059170e-09	-2.036256e+01	-7.201754e+01
1.190000e-06	-2.888918e-06	-1.054938e-09	-2.008743e+01	-7.171744e+01
1.200000e-06	-2.849235e-06	-1.046428e-09	-1.981150e+01	-7.141534e+01
1.210000e-06	-2.809431e-06	-1.037453e-09	-1.953474e+01	-7.111120e+01
1.220000e-06	-2.769445e-06	-1.028294e-09	-1.925670e+01	-7.080495e+01
1.230000e-06	-2.729237e-06	-1.023981e-09	-1.897713e+01	-7.049643e+01
1.240000e-06	-2.688813e-06	-1.017543e-09	-1.869605e+01	-7.018545e+01
1.250000e-06	-2.648101e-06	-1.012085e-09	-1.841297e+01	-6.987175e+01
1.260000e-06	-2.607096e-06	-1.008488e-09	-1.812785e+01	-6.955502e+01
1.270000e-06	-2.565897e-06	-1.005716e-09	-1.784138e+01	-6.923488e+01
1.280000e-06	-2.524426e-06	-9.999648e-10	-1.755302e+01	-6.891092e+01
1.290000e-06	-2.482567e-06	-9.942464e-10	-1.726197e+01	-6.858266e+01
1.300000e-06	-2.440450e-06	-9.866217e-10	-1.696911e+01	-6.824959e+01
1.310000e-06	-2.398117e-06	-9.774409e-10	-1.667476e+01	-6.791116e+01
1.320000e-06	-2.355469e-06	-9.682244e-10	-1.637821e+01	-6.756677e+01
1.330000e-06	-2.312588e-06	-9.614126e-10	-1.608006e+01	-6.721584e+01
1.340000e-06	-2.269534e-06	-9.555646e-10	-1.578069e+01	-6.685773e+01
1.350000e-06	-2.226277e-06	-9.518584e-10	-1.547991e+01	-6.649181e+01
1.360000e-06	-2.182820e-06	-9.505897e-10	-1.517774e+01	-6.611746e+01
1.370000e-06	-2.139290e-06	-9.469642e-10	-1.487506e+01	-6.573405e+01
1.380000e-06	-2.095696e-06	-9.390297e-10	-1.457195e+01	-6.534098e+01
1.390000e-06	-2.051976e-06	-9.281106e-10	-1.426795e+01	-6.493766e+01
1.400000e-06	-2.008222e-06	-9.143988e-10	-1.396371e+01	-6.452356e+01
1.410000e-06	-1.964433e-06	-8.992193e-10	-1.365924e+01	-6.409815e+01
1.420000e-06	-1.920544e-06	-8.876926e-10	-1.335406e+01	-6.366097e+01
1.430000e-06	-1.876552e-06	-8.799433e-10	-1.304818e+01	-6.321159e+01
1.440000e-06	-1.832440e-06	-8.739180e-10	-1.274145e+01	-6.274962e+01
1.450000e-06	-1.788250e-06	-8.681687e-10	-1.243419e+01	-6.227476e+01
1.460000e-06	-1.743944e-06	-8.620282e-10	-1.212612e+01	-6.178671e+01
1.470000e-06	-1.699401e-06	-8.546181e-10	-1.181640e+01	-6.128525e+01
1.480000e-06	-1.654787e-06	-8.492506e-10	-1.150618e+01	-6.077021e+01
1.490000e-06	-1.610026e-06	-8.410911e-10	-1.119495e+01	-6.024143e+01
1.500000e-06	-1.565031e-06	-8.301688e-10	-1.088209e+01	-5.969882e+01
1.510000e-06	-1.519979e-06	-8.170930e-10	-1.056883e+01	-5.914230e+01
1.520000e-06	-1.474826e-06	-8.056943e-10	-1.025487e+01	-5.857183e+01
1.530000e-06	-1.429619e-06	-7.928349e-10	-9.940529e+00	-5.798737e+01
1.540000e-06	-1.384286e-06	-7.841421e-10	-9.625317e+00	-5.738887e+01
1.550000e-06	-1.338744e-06	-7.784351e-10	-9.308652e+00	-5.677632e+01
1.560000e-06	-1.293163e-06	-7.719022e-10	-8.991717e+00	-5.614964e+01
1.570000e-06	-1.247559e-06	-7.611382e-10	-8.674618e+00	-5.550874e+01
1.580000e-06	-1.201889e-06	-7.492395e-10	-8.357061e+00	-5.485352e+01
1.590000e-06	-1.156120e-06	-7.345048e-10	-8.038815e+00	-5.418378e+01
1.600000e-06	-1.110264e-06	-7.169622e-10	-7.719968e+00	-5.349929e+01
1.610000e-06	-1.064350e-06	-7.000521e-10	-7.400718e+00	-5.279975e+01
1.620000e-06	-1.018337e-06	-6.860732e-10	-7.080776e+00	-5.208476e+01
1.630000e-06	-9.722422e-07	-6.762386e-10	-6.760264e+00	-5.135386e+01
1.640000e-06	-9.261901e-07	-6.680115e-10	-6.440051e+00	-5.060648e+01
1.650000e-06	-8.800820e-07	-6.601440e-10	-6.119450e+00	-4.984195e+01
1.660000e-06	-8.338249e-07	-6.514868e-10	-5.797811e+00	-4.905953e+01
1.670000e-06	-7.874961e-07	-6.402981e-10	-5.475675e+00	-4.825834e+01
1.680000e-06	-7.411921e-07	-6.258611e-10	-5.153710e+00	-4.743742e+01
1.690000e-06	-6.948591e-07	-6.107696e-10	-4.831544e+00	-4.659571e+01
1.700000e-06	-6.484261e-07	-5.922675e-10	-4.508683e+00	-4.573207e+01
1.710000e-06	-6.019813e-07	-5.721985e-10	-4.185739e+00	-4.484526e+01
1.720000e-06	-5.554174e-07	-5.545995e-10	-3.861968e+00	-4.393398e+01
1.730000e-06	-5.087995e-07	-5.400534e-10	-3.537821e+00	-4.299686e+01
1.740000e-06	-4.622026e-07	-5.269197e-10	-3.213821e+00	-4.203247e+01
1.750000e-06	-4.155985e-07	-5.135179e-10	-2.889769e+00	-4.103937e+01
1.760000e-06	-3.689880e-07	-4.976610e-10	-2.565674e+00	-4.001608e+01
1.770000e-06	-3.222228e-07	-4.804163e-10	-2.240503e+00	-3.896114e+01
1.780000e-06	-2.753898e-07	-4.622575e-10	-1.914860e+00	-3.787308e+01
1.790000e-06	-2.286058e-07	-4.468613e-10	-1.589558e+00	-3.675051e+01
1.800000e-06	-1.817850e-07	-4.318445e-10	-1.264000e+00	-3.559207e+01
1.810000e-06	-1.349714e-07	-4.169991e-10	-9.384927e-01	-3.439648e+01
1.820000e-06	-8.814586e-08	-4.017350e-10	-6.129022e-01	-3.316259e+01
1.830000e-06	-4.126208e-08	-3.858213e-10	-2.869064e-01	-3.188933e+01
1.840000e-06	5.633790e-09	-3.685676e-10	3.917327e-02	-3.057581e+01
1.850000e-06	5.255882e-08	-3.507870e-10	3.654557e-01	-2.922129e+01
1.860000e-06	9.943757e-08	-3.327188e-10	6.914165e-01	-2.782518e+01
1.870000e-06	1.462114e-07	-3.138415e-10	1.016648e+00	-2.638713e+01
1.880000e-06	1.929782e-07	-2.949342e-10	1.341830e+00	-2.490698e+01
1.890000e-06	2.397277e-07	-2.762530e-10	1.666892e+00	-2.338477e+01
1.900000e-06	2.864468e-07	-2.559970e-10	1.991743e+00	-2.182080e+01
1.910000e-06	3.331360e-07	-2.329102e-10	2.316385e+00	-2.021560e+01
1.920000e-06	3.797707e-07	-2.072464e-10	2.640649e+00	-1.856994e+01
1.930000e-06	4.263698e-07	-1.822357e-10	2.964665e+00	-1.688484e+01
1.940000e-06	4.729787e-07	-1.596906e-10	3.288750e+00	-1.516157e+01
1.950000e-06	5.195674e-07	-1.390052e-10	3.612693e+00	-1.340164e+01
1.960000e-06	5.660489e-07	-1.189879e-10	3.935892e+00	-1.160678e+01
1.970000e-06	6.124471e-07	-9.691980e-11	4.258511e+00	-9.778979e+00
1.980000e-06	6.587519e-07	-7.304415e-11	4.580481e+00	-7.920424e+00
1.990000e-06	7.050336e-07	-4.686687e-11	4.902290e+00	-6.033509e+00
2.000000e-06	7.513324e-07	-1.768307e-11	5.224218e+00	-4.120817e+00
2.010000e-06	7.975705e-07	1.418607e-11	5.545725e+00	-2.185099e+00
2.020000e-06	8.437430e-07	4.654988e-11	5.866774e+00	-2.292555e-01
2.030000e-06	8.899179e-07	7.608531e-11	6.187841e+00	1.743684e+00
2.040000e-06	9.360651e-07	1.015919e-10	6.508715e+00	3.730588e+00
2.050000e-06	9.820599e-07	1.245142e-10	6.828529e+00	5.728242e+00
2.060000e-06	1.027965e-06	1.487855e-10	7.147719e+00	7.733378e+00
2.070000e-06	1.073834e-06	1.758504e-10	7.466657e+00	9.742697e+00
2.080000e-06	1.119618e-06	2.052343e-10	7.785007e+00	1.175290e+01
2.090000e-06	1.165314e-06	2.361305e-10	8.102744e+00	1.376069e+01
2.100000e-06	1.210969e-06	2.660373e-10	8.420196e+00	1.576284e+01
2.110000e-06	1.256574e-06	2.938783e-10	8.737301e+00	1.775618e+01
2.120000e-06	1.302117e-06	3.203438e-10	9.053970e+00	1.973763e+01
2.130000e-06	1.347613e-06	3.478342e-10	9.370322e+00	2.170423e+01
2.140000e-06	1.392936e-06	3.761990e-10	9.685460e+00	2.365314e+01
2.150000e-06	1.438089e-06	4.027715e-10	9.999422e+00	2.558167e+01
2.160000e-06	1.483163e-06	4.270144e-10	1.031284e+01	2.748731e+01
2.170000e-06	1.528130e-06	4.497533e-10	1.062550e+01	2.936772e+01
2.180000e-06	1.573025e-06	4.730187e-10	1.093767e+01	3.122075e+01
2.190000e-06	1.617815e-06	4.986669e-10	1.124910e+01	3.304445e+01
2.200000e-06	1.662506e-06	5.260219e-10	1.155986e+01	3.483707e+01
2.210000e-06	1.707098e-06	5.570353e-10	1.186992e+01	3.659707e+01
2.220000e-06	1.751517e-06	5.869119e-10	1.217877e+01	3.832313e+01
2.230000e-06	1.795746e-06	6.117175e-10	1.248631e+01	4.001411e+01
2.240000e-06	1.839785e-06	6.307942e-10	1.279252e+01	4.166911e+01
2.250000e-06	1.883754e-06	6.466638e-10	1.309825e+01	4.328740e+01
2.260000e-06	1.927678e-06	6.634912e-10	1.340367e+01	4.486846e+01
2.270000e-06	1.971515e-06	6.840261e-10	1.370848e+01	4.641195e+01
2.280000e-06	2.015263e-06	7.065622e-10	1.401267e+01	4.791767e+01
2.290000e-06	2.058900e-06	7.297862e-10	1.431609e+01	4.938563e+01
2.300000e-06	2.102472e-06	7.526080e-10	1.461906e+01	5.081594e+01
2.310000e-06	2.145993e-06	7.730441e-10	1.492167e+01	5.220886e+01
2.320000e-06	2.189456e-06	7.927356e-10	1.522388e+01	5.356476e+01
2.330000e-06	2.232819e-06	8.092598e-10	1.552540e+01	5.488411e+01
2.340000e-06	2.276044e-06	8.246434e-10	1.582595e+01	5.616746e+01
2.350000e-06	2.319184e-06	8.397426e-10	1.612592e+01	5.741544e+01
2.360000e-06	2.362146e-06	8.554303e-10	1.642464e+01	5.862871e+01
2.370000e-06	2.404741e-06	8.723184e-10	1.672082e+01	5.980799e+01
2.380000e-06	2.446967e-06	8.895759e-10	1.701443e+01	6.095401e+01
2.390000e-06	2.488911e-06	9.055348e-10	1.730607e+01	6.206753e+01
2.400000e-06	2.530628e-06	9.196016e-10	1.759615e+01	6.314929e+01
2.410000e-06	2.571981e-06	9.326417e-10	1.788369e+01	6.420003e+01
2.420000e-06	2.612954e-06	9.443022e-10	1.816858e+01	6.522048e+01
2.430000e-06	2.653704e-06	9.582924e-10	1.845192e+01	6.621132e+01
2.440000e-06	2.694200e-06	9.740007e-10	1.873350e+01	6.717322e+01
2.450000e-06	2.734481e-06	9.900416e-10	1.901359e+01	6.810682e+01
2.460000e-06	2.774596e-06	1.005647e-09	1.929252e+01	6.901269e+01
2.470000e-06	2.814505e-06	1.017892e-09	1.957002e+01	6.989140e+01
2.480000e-06	2.854238e-06	1.028156e-09	1.984629e+01	7.074346e+01
2.490000e-06	2.893864e-06	1.036671e-09	2.012183e+01	7.156933e+01
2.500000e-06	2.933399e-06	1.043155e-09	2.039672e+01	7.236947e+01
2.510000e-06	2.972860e-06	1.053978e-09	2.067111e+01	7.314427e+01
2.520000e-06	3.012164e-06	1.068185e-09	2.094440e+01	7.389412e+01
2.530000e-06	3.051272e-06	1.086410e-09	2.121632e+01	7.461937e+01
2.540000e-06	3.090129e-06	1.102293e-09	2.148651e+01	7.532038e+01
2.550000e-06	3.128748e-06	1.110992e-09	2.175504e+01	7.599749e+01
2.560000e-06	3.167156e-06	1.115094e-09	2.202210e+01	7.665101e+01
2.570000e-06	3.205260e-06	1.116960e-09	2.228704e+01	7.728130e+01
2.580000e-06	3.243093e-06	1.119470e-09	2.255010e+01	7.788869e+01
2.590000e-06	3.280727e-06	1.124408e-09	2.281178e+01	7.847356e+01
2.600000e-06	3.318245e-06	1.133709e-09	2.307266e+01	7.903628e+01
2.610000e-06	3.355565e-06	1.146192e-09	2.333216e+01	7.957726e+01
2.620000e-06	3.392599e-06	1.160412e-09	2.358966e+01	8.009696e+01
2.630000e-06	3.429371e-06	1.172153e-09	2.384535e+01	8.059583e+01
2.640000e-06	3.465858e-06	1.181105e-09	2.409905e+01	8.107439e+01
2.650000e-06	3.502081e-06	1.186705e-09	2.435092e+01	8.153318e+01
2.660000e-06	3.538101e-06	1.188516e-09	2.460138e+01	8.197277e+01
2.670000e-06	3.573992e-06	1.188468e-09	2.485093e+01	8.239379e+01
2.680000e-06	3.609745e-06	1.190130e-09	2.509954e+01	8.279688e+01
2.690000e-06	3.645314e-06	1.196337e-09	2.534686e+01	8.318271e+01
2.700000e-06	3.680744e-06	1.205248e-09	2.559322e+01	8.355199e+01
2.710000e-06	3.716023e-06	1.213059e-09	2.583852e+01	8.390543e+01
2.720000e-06	3.751048e-06	1.219710e-09	2.608206e+01	8.424377e+01
2.730000e-06	3.785709e-06	1.223623e-09	2.632307e+01	8.456776e+01
2.740000e-06	3.819975e-06	1.226092e-09	2.656132e+01	8.487814e+01
2.750000e-06	3.853770e-06	1.229030e-09	2.679631e+01	8.517564e+01
2.760000e-06	3.887109e-06	1.233365e-09	2.702812e+01	8.546101e+01
2.770000e-06	3.919985e-06	1.239305e-09	2.725672e+01	8.573495e+01
2.780000e-06	3.952404e-06	1.245960e-09	2.748214e+01	8.599814e+01
2.790000e-06	3.984518e-06	1.253160e-09	2.770543e+01	8.625123e+01
2.800000e-06	4.016401e-06	1.259740e-09	2.792713e+01	8.649484e+01
2.810000e-06	4.048087e-06	1.263873e-09	2.814745e+01	8.672952e+01
2.820000e-06	4.079595e-06	1.266943e-09	2.836653e+01	8.695581e+01
2.830000e-06	4.110963e-06	1.271129e-09	2.858464e+01	8.717417e+01
2.840000e-06	4.142086e-06	1.275995e-09	2.880105e+01	8.738500e+01
2.850000e-06	4.172861e-06	1.280699e-09	2.901504e+01	8.758866e+01
2.860000e-06	4.203326e-06	1.286840e-09	2.922687e+01	8.778545e+01
2.870000e-06	4.233486e-06	1.292592e-09	2.943658e+01	8.797560e+01
2.880000e-06	4.263339e-06	1.294291e-09	2.964416e+01	8.815931e+01
2.890000e-06	4.292903e-06	1.294253e-09	2.984972e+01	8.833669e+01
2.900000e-06	4.322216e-06	1.294363e-09	3.005354e+01	8.850783e+01
