# Temperatura_=_-10.02
# Concentracion g/m^3_=_1620.0
# C_Vs_to_Am_M_A/Vsm_=_65563218390.804596
# pendiente_HvsI_1/m_=_3716.3
# ordenada_HvsI_A/m_=_1297.0
# frecuencia_Hz_=_135107.05437982158

Tiempo_(s)	Campo_(V.s)	Magnetizacion_(V.s)	Campo_(kA/m)	Magnetizacion_(A/m)
0.000000e+00	-5.522905e-06	-1.357936e-09	-3.836361e+01	-8.736225e+01
1.000000e-08	-5.523146e-06	-1.350808e-09	-3.836529e+01	-8.729495e+01
2.000000e-08	-5.523155e-06	-1.346406e-09	-3.836535e+01	-8.723120e+01
3.000000e-08	-5.522912e-06	-1.345015e-09	-3.836366e+01	-8.717111e+01
4.000000e-08	-5.522222e-06	-1.346157e-09	-3.835887e+01	-8.711473e+01
5.000000e-08	-5.520957e-06	-1.347775e-09	-3.835008e+01	-8.706202e+01
6.000000e-08	-5.519112e-06	-1.340584e-09	-3.833726e+01	-8.701290e+01
7.000000e-08	-5.516726e-06	-1.326798e-09	-3.832069e+01	-8.696716e+01
8.000000e-08	-5.513821e-06	-1.336084e-09	-3.830051e+01	-8.692455e+01
9.000000e-08	-5.510438e-06	-1.367234e-09	-3.827701e+01	-8.688473e+01
1.000000e-07	-5.506513e-06	-1.381912e-09	-3.824975e+01	-8.684733e+01
1.100000e-07	-5.502158e-06	-1.365666e-09	-3.821950e+01	-8.681187e+01
1.200000e-07	-5.497588e-06	-1.321672e-09	-3.818775e+01	-8.677784e+01
1.300000e-07	-5.492876e-06	-1.270209e-09	-3.815503e+01	-8.674470e+01
1.400000e-07	-5.487955e-06	-1.303313e-09	-3.812084e+01	-8.671184e+01
1.500000e-07	-5.482600e-06	-1.335214e-09	-3.808364e+01	-8.667867e+01
1.600000e-07	-5.476791e-06	-1.349783e-09	-3.804329e+01	-8.664454e+01
1.700000e-07	-5.470543e-06	-1.308473e-09	-3.799989e+01	-8.660882e+01
1.800000e-07	-5.463856e-06	-1.307949e-09	-3.795344e+01	-8.657090e+01
1.900000e-07	-5.456770e-06	-1.373181e-09	-3.790422e+01	-8.653015e+01
2.000000e-07	-5.449372e-06	-1.371608e-09	-3.785283e+01	-8.648600e+01
2.100000e-07	-5.441727e-06	-1.316975e-09	-3.779973e+01	-8.643792e+01
2.200000e-07	-5.433779e-06	-1.277357e-09	-3.774452e+01	-8.638540e+01
2.300000e-07	-5.425623e-06	-1.330026e-09	-3.768786e+01	-8.632801e+01
2.400000e-07	-5.417172e-06	-1.353815e-09	-3.762916e+01	-8.626537e+01
2.500000e-07	-5.408061e-06	-1.335507e-09	-3.756587e+01	-8.619719e+01
2.600000e-07	-5.398222e-06	-1.298205e-09	-3.749753e+01	-8.612323e+01
2.700000e-07	-5.387782e-06	-1.319349e-09	-3.742501e+01	-8.604333e+01
2.800000e-07	-5.376785e-06	-1.314903e-09	-3.734862e+01	-8.595743e+01
2.900000e-07	-5.365266e-06	-1.301911e-09	-3.726861e+01	-8.586552e+01
3.000000e-07	-5.353351e-06	-1.288520e-09	-3.718584e+01	-8.576768e+01
3.100000e-07	-5.341135e-06	-1.305459e-09	-3.710099e+01	-8.566406e+01
3.200000e-07	-5.328489e-06	-1.300315e-09	-3.701315e+01	-8.555490e+01
3.300000e-07	-5.315373e-06	-1.283782e-09	-3.692204e+01	-8.544047e+01
3.400000e-07	-5.301885e-06	-1.278648e-09	-3.682835e+01	-8.532112e+01
3.500000e-07	-5.288119e-06	-1.288093e-09	-3.673273e+01	-8.519724e+01
3.600000e-07	-5.273979e-06	-1.297622e-09	-3.663450e+01	-8.506927e+01
3.700000e-07	-5.259385e-06	-1.286322e-09	-3.653313e+01	-8.493768e+01
3.800000e-07	-5.244290e-06	-1.278858e-09	-3.642827e+01	-8.480294e+01
3.900000e-07	-5.228570e-06	-1.289464e-09	-3.631908e+01	-8.466556e+01
4.000000e-07	-5.212275e-06	-1.295769e-09	-3.620589e+01	-8.452603e+01
4.100000e-07	-5.195578e-06	-1.269284e-09	-3.608991e+01	-8.438486e+01
4.200000e-07	-5.178580e-06	-1.269759e-09	-3.597184e+01	-8.424251e+01
4.300000e-07	-5.161321e-06	-1.288678e-09	-3.585195e+01	-8.409943e+01
4.400000e-07	-5.143838e-06	-1.282620e-09	-3.573051e+01	-8.395604e+01
4.500000e-07	-5.126039e-06	-1.262758e-09	-3.560687e+01	-8.381272e+01
4.600000e-07	-5.107768e-06	-1.296140e-09	-3.547996e+01	-8.366978e+01
4.700000e-07	-5.089022e-06	-1.292346e-09	-3.534974e+01	-8.352751e+01
4.800000e-07	-5.069915e-06	-1.255696e-09	-3.521702e+01	-8.338612e+01
4.900000e-07	-5.050512e-06	-1.260245e-09	-3.508224e+01	-8.324579e+01
5.000000e-07	-5.030881e-06	-1.290025e-09	-3.494588e+01	-8.310662e+01
5.100000e-07	-5.011062e-06	-1.249925e-09	-3.480821e+01	-8.296865e+01
5.200000e-07	-4.991047e-06	-1.239040e-09	-3.466918e+01	-8.283189e+01
5.300000e-07	-4.970686e-06	-1.272374e-09	-3.452775e+01	-8.269628e+01
5.400000e-07	-4.949867e-06	-1.266940e-09	-3.438313e+01	-8.256172e+01
5.500000e-07	-4.928671e-06	-1.242605e-09	-3.423590e+01	-8.242805e+01
5.600000e-07	-4.907112e-06	-1.278378e-09	-3.408614e+01	-8.229509e+01
5.700000e-07	-4.885231e-06	-1.274723e-09	-3.393415e+01	-8.216263e+01
5.800000e-07	-4.863079e-06	-1.232148e-09	-3.378028e+01	-8.203043e+01
5.900000e-07	-4.840589e-06	-1.245718e-09	-3.362406e+01	-8.189824e+01
6.000000e-07	-4.817702e-06	-1.269415e-09	-3.346508e+01	-8.176580e+01
6.100000e-07	-4.794432e-06	-1.229865e-09	-3.330344e+01	-8.163283e+01
6.200000e-07	-4.770918e-06	-1.222591e-09	-3.314010e+01	-8.149909e+01
6.300000e-07	-4.747199e-06	-1.252511e-09	-3.297535e+01	-8.136433e+01
6.400000e-07	-4.723272e-06	-1.236981e-09	-3.280914e+01	-8.122830e+01
6.500000e-07	-4.699074e-06	-1.222585e-09	-3.264106e+01	-8.109082e+01
6.600000e-07	-4.674497e-06	-1.245962e-09	-3.247034e+01	-8.095170e+01
6.700000e-07	-4.649454e-06	-1.241552e-09	-3.229639e+01	-8.081078e+01
6.800000e-07	-4.623883e-06	-1.213398e-09	-3.211876e+01	-8.066795e+01
6.900000e-07	-4.597676e-06	-1.222637e-09	-3.193672e+01	-8.052313e+01
7.000000e-07	-4.570822e-06	-1.227667e-09	-3.175018e+01	-8.037627e+01
7.100000e-07	-4.543589e-06	-1.213644e-09	-3.156102e+01	-8.022733e+01
7.200000e-07	-4.516140e-06	-1.218071e-09	-3.137035e+01	-8.007634e+01
7.300000e-07	-4.488537e-06	-1.230919e-09	-3.117861e+01	-7.992333e+01
7.400000e-07	-4.460794e-06	-1.216393e-09	-3.098590e+01	-7.976835e+01
7.500000e-07	-4.432834e-06	-1.210063e-09	-3.079168e+01	-7.961150e+01
7.600000e-07	-4.404567e-06	-1.213115e-09	-3.059533e+01	-7.945286e+01
7.700000e-07	-4.376015e-06	-1.207905e-09	-3.039700e+01	-7.929253e+01
7.800000e-07	-4.347109e-06	-1.198500e-09	-3.019621e+01	-7.913061e+01
7.900000e-07	-4.317814e-06	-1.209195e-09	-2.999272e+01	-7.896721e+01
8.000000e-07	-4.288266e-06	-1.211466e-09	-2.978747e+01	-7.880241e+01
8.100000e-07	-4.258478e-06	-1.204479e-09	-2.958056e+01	-7.863630e+01
8.200000e-07	-4.228417e-06	-1.195090e-09	-2.937174e+01	-7.846893e+01
8.300000e-07	-4.197995e-06	-1.185503e-09	-2.916042e+01	-7.830034e+01
8.400000e-07	-4.167164e-06	-1.170442e-09	-2.894627e+01	-7.813054e+01
8.500000e-07	-4.136052e-06	-1.171860e-09	-2.873015e+01	-7.795950e+01
8.600000e-07	-4.104707e-06	-1.181896e-09	-2.851242e+01	-7.778718e+01
8.700000e-07	-4.073134e-06	-1.186549e-09	-2.829310e+01	-7.761351e+01
8.800000e-07	-4.041431e-06	-1.187279e-09	-2.807289e+01	-7.743836e+01
8.900000e-07	-4.009593e-06	-1.188380e-09	-2.785173e+01	-7.726160e+01
9.000000e-07	-3.977580e-06	-1.176643e-09	-2.762936e+01	-7.708306e+01
9.100000e-07	-3.945350e-06	-1.157687e-09	-2.740548e+01	-7.690255e+01
9.200000e-07	-3.912800e-06	-1.143375e-09	-2.717938e+01	-7.671985e+01
9.300000e-07	-3.879899e-06	-1.133752e-09	-2.695084e+01	-7.653476e+01
9.400000e-07	-3.846561e-06	-1.130767e-09	-2.671927e+01	-7.634702e+01
9.500000e-07	-3.812705e-06	-1.139104e-09	-2.648409e+01	-7.615641e+01
9.600000e-07	-3.778431e-06	-1.148338e-09	-2.624602e+01	-7.596270e+01
9.700000e-07	-3.743742e-06	-1.145538e-09	-2.600506e+01	-7.576566e+01
9.800000e-07	-3.708660e-06	-1.137475e-09	-2.576137e+01	-7.556508e+01
9.900000e-07	-3.673336e-06	-1.126604e-09	-2.551600e+01	-7.536079e+01
1.000000e-06	-3.637832e-06	-1.114255e-09	-2.526938e+01	-7.515262e+01
1.010000e-06	-3.602188e-06	-1.102438e-09	-2.502178e+01	-7.494045e+01
1.020000e-06	-3.566417e-06	-1.099888e-09	-2.477331e+01	-7.472420e+01
1.030000e-06	-3.530503e-06	-1.098835e-09	-2.452384e+01	-7.450383e+01
1.040000e-06	-3.494411e-06	-1.101832e-09	-2.427314e+01	-7.427932e+01
1.050000e-06	-3.458038e-06	-1.107637e-09	-2.402048e+01	-7.405071e+01
1.060000e-06	-3.421309e-06	-1.108430e-09	-2.376535e+01	-7.381810e+01
1.070000e-06	-3.384285e-06	-1.096088e-09	-2.350817e+01	-7.358160e+01
1.080000e-06	-3.346983e-06	-1.084095e-09	-2.324906e+01	-7.334137e+01
1.090000e-06	-3.309507e-06	-1.074690e-09	-2.298875e+01	-7.309762e+01
1.100000e-06	-3.271884e-06	-1.067315e-09	-2.272741e+01	-7.285057e+01
1.110000e-06	-3.234029e-06	-1.062018e-09	-2.246445e+01	-7.260046e+01
1.120000e-06	-3.195950e-06	-1.061052e-09	-2.219995e+01	-7.234758e+01
1.130000e-06	-3.157700e-06	-1.057062e-09	-2.193425e+01	-7.209218e+01
1.140000e-06	-3.119262e-06	-1.053016e-09	-2.166725e+01	-7.183456e+01
1.150000e-06	-3.080529e-06	-1.052095e-09	-2.139820e+01	-7.157496e+01
1.160000e-06	-3.041489e-06	-1.052188e-09	-2.112702e+01	-7.131364e+01
1.170000e-06	-3.002155e-06	-1.047768e-09	-2.085379e+01	-7.105081e+01
1.180000e-06	-2.962687e-06	-1.041977e-09	-2.057964e+01	-7.078666e+01
1.190000e-06	-2.923178e-06	-1.035975e-09	-2.030520e+01	-7.052132e+01
1.200000e-06	-2.883536e-06	-1.029186e-09	-2.002983e+01	-7.025487e+01
1.210000e-06	-2.843774e-06	-1.021671e-09	-1.975363e+01	-6.998735e+01
1.220000e-06	-2.803883e-06	-1.017359e-09	-1.947654e+01	-6.971870e+01
1.230000e-06	-2.763813e-06	-1.014560e-09	-1.919820e+01	-6.944881e+01
1.240000e-06	-2.723555e-06	-1.009082e-09	-1.891856e+01	-6.917751e+01
1.250000e-06	-2.683070e-06	-1.003467e-09	-1.863734e+01	-6.890453e+01
1.260000e-06	-2.642342e-06	-9.977851e-10	-1.835443e+01	-6.862953e+01
1.270000e-06	-2.601403e-06	-9.933158e-10	-1.807006e+01	-6.835212e+01
1.280000e-06	-2.560202e-06	-9.881230e-10	-1.778386e+01	-6.807181e+01
1.290000e-06	-2.518714e-06	-9.842561e-10	-1.749568e+01	-6.778806e+01
1.300000e-06	-2.476947e-06	-9.795260e-10	-1.720555e+01	-6.750029e+01
1.310000e-06	-2.434852e-06	-9.727459e-10	-1.691315e+01	-6.720783e+01
1.320000e-06	-2.392433e-06	-9.627223e-10	-1.661849e+01	-6.691001e+01
1.330000e-06	-2.349680e-06	-9.526204e-10	-1.632152e+01	-6.660610e+01
1.340000e-06	-2.306678e-06	-9.435114e-10	-1.602282e+01	-6.629536e+01
1.350000e-06	-2.263481e-06	-9.390319e-10	-1.572276e+01	-6.597705e+01
1.360000e-06	-2.220029e-06	-9.389188e-10	-1.542093e+01	-6.565042e+01
1.370000e-06	-2.176416e-06	-9.388386e-10	-1.511798e+01	-6.531475e+01
1.380000e-06	-2.132787e-06	-9.352848e-10	-1.481492e+01	-6.496933e+01
1.390000e-06	-2.089108e-06	-9.284312e-10	-1.451152e+01	-6.461351e+01
1.400000e-06	-2.045320e-06	-9.149700e-10	-1.420736e+01	-6.424665e+01
1.410000e-06	-2.001429e-06	-8.995015e-10	-1.390247e+01	-6.386822e+01
1.420000e-06	-1.957487e-06	-8.872992e-10	-1.359724e+01	-6.347771e+01
1.430000e-06	-1.913475e-06	-8.794704e-10	-1.329152e+01	-6.307471e+01
1.440000e-06	-1.869334e-06	-8.747509e-10	-1.298491e+01	-6.265886e+01
1.450000e-06	-1.825131e-06	-8.724986e-10	-1.267786e+01	-6.222991e+01
1.460000e-06	-1.780900e-06	-8.694586e-10	-1.237062e+01	-6.178767e+01
1.470000e-06	-1.736565e-06	-8.636033e-10	-1.206266e+01	-6.133203e+01
1.480000e-06	-1.692107e-06	-8.559052e-10	-1.175384e+01	-6.086295e+01
1.490000e-06	-1.647448e-06	-8.478658e-10	-1.144363e+01	-6.038046e+01
1.500000e-06	-1.602486e-06	-8.379800e-10	-1.113130e+01	-5.988466e+01
1.510000e-06	-1.557386e-06	-8.257443e-10	-1.081803e+01	-5.937570e+01
1.520000e-06	-1.512232e-06	-8.134303e-10	-1.050438e+01	-5.885376e+01
1.530000e-06	-1.466943e-06	-8.037140e-10	-1.018979e+01	-5.831904e+01
1.540000e-06	-1.421533e-06	-7.959891e-10	-9.874355e+00	-5.777177e+01
1.550000e-06	-1.376059e-06	-7.894339e-10	-9.558481e+00	-5.721217e+01
1.560000e-06	-1.330485e-06	-7.818723e-10	-9.241913e+00	-5.664044e+01
1.570000e-06	-1.284889e-06	-7.709759e-10	-8.925189e+00	-5.605674e+01
1.580000e-06	-1.239324e-06	-7.574484e-10	-8.608685e+00	-5.546119e+01
1.590000e-06	-1.193601e-06	-7.425655e-10	-8.291081e+00	-5.485383e+01
1.600000e-06	-1.147727e-06	-7.265262e-10	-7.972424e+00	-5.423462e+01
1.610000e-06	-1.101762e-06	-7.106610e-10	-7.653139e+00	-5.360343e+01
1.620000e-06	-1.055697e-06	-6.987828e-10	-7.333163e+00	-5.296002e+01
1.630000e-06	-1.009546e-06	-6.895895e-10	-7.012586e+00	-5.230401e+01
1.640000e-06	-9.633683e-07	-6.816144e-10	-6.691821e+00	-5.163492e+01
1.650000e-06	-9.171734e-07	-6.723324e-10	-6.370938e+00	-5.095210e+01
1.660000e-06	-8.708637e-07	-6.623075e-10	-6.049258e+00	-5.025479e+01
1.670000e-06	-8.244654e-07	-6.509114e-10	-5.726963e+00	-4.954206e+01
1.680000e-06	-7.780265e-07	-6.388134e-10	-5.404385e+00	-4.881286e+01
1.690000e-06	-7.315406e-07	-6.258375e-10	-5.081481e+00	-4.806600e+01
1.700000e-06	-6.850234e-07	-6.121220e-10	-4.758361e+00	-4.730014e+01
1.710000e-06	-6.385030e-07	-5.965449e-10	-4.435217e+00	-4.651383e+01
1.720000e-06	-5.919688e-07	-5.815078e-10	-4.111978e+00	-4.570552e+01
1.730000e-06	-5.453888e-07	-5.678094e-10	-3.788420e+00	-4.487357e+01
1.740000e-06	-4.986918e-07	-5.556678e-10	-3.464050e+00	-4.401623e+01
1.750000e-06	-4.518754e-07	-5.448987e-10	-3.138851e+00	-4.313173e+01
1.760000e-06	-4.050553e-07	-5.324841e-10	-2.813625e+00	-4.221826e+01
1.770000e-06	-3.582425e-07	-5.172715e-10	-2.488450e+00	-4.127398e+01
1.780000e-06	-3.113751e-07	-5.020526e-10	-2.162897e+00	-4.029707e+01
1.790000e-06	-2.645262e-07	-4.881738e-10	-1.837471e+00	-3.928577e+01
1.800000e-06	-2.176938e-07	-4.747181e-10	-1.512161e+00	-3.823835e+01
1.810000e-06	-1.708088e-07	-4.601300e-10	-1.186485e+00	-3.715318e+01
1.820000e-06	-1.239145e-07	-4.445232e-10	-8.607440e-01	-3.602876e+01
1.830000e-06	-7.696505e-08	-4.290888e-10	-5.346204e-01	-3.486372e+01
1.840000e-06	-3.004450e-08	-4.130322e-10	-2.086973e-01	-3.365683e+01
1.850000e-06	1.679761e-08	-3.970324e-10	1.166808e-01	-3.240708e+01
1.860000e-06	6.365512e-08	-3.805359e-10	4.421659e-01	-3.111363e+01
1.870000e-06	1.105437e-07	-3.640220e-10	7.678666e-01	-2.977589e+01
1.880000e-06	1.574403e-07	-3.465737e-10	1.093624e+00	-2.839348e+01
1.890000e-06	2.043452e-07	-3.263102e-10	1.419438e+00	-2.696629e+01
1.900000e-06	2.512486e-07	-3.046243e-10	1.745242e+00	-2.549443e+01
1.910000e-06	2.980002e-07	-2.820446e-10	2.069991e+00	-2.397832e+01
1.920000e-06	3.447364e-07	-2.583550e-10	2.394633e+00	-2.241862e+01
1.930000e-06	3.915600e-07	-2.362418e-10	2.719883e+00	-2.081626e+01
1.940000e-06	4.383865e-07	-2.148745e-10	3.045153e+00	-1.917242e+01
1.950000e-06	4.850919e-07	-1.970922e-10	3.369582e+00	-1.748856e+01
1.960000e-06	5.317290e-07	-1.781752e-10	3.693536e+00	-1.576637e+01
1.970000e-06	5.783254e-07	-1.558548e-10	4.017207e+00	-1.400779e+01
1.980000e-06	6.247860e-07	-1.320343e-10	4.339935e+00	-1.221495e+01
1.990000e-06	6.712066e-07	-1.063333e-10	4.662385e+00	-1.039022e+01
2.000000e-06	7.176041e-07	-7.866629e-11	4.984675e+00	-8.536125e+00
2.010000e-06	7.639560e-07	-5.100994e-11	5.306648e+00	-6.655369e+00
2.020000e-06	8.102170e-07	-2.434000e-11	5.627989e+00	-4.750788e+00
2.030000e-06	8.564091e-07	4.675168e-12	5.948852e+00	-2.825340e+00
2.040000e-06	9.025639e-07	3.355973e-11	6.269456e+00	-8.820730e-01
2.050000e-06	9.486865e-07	5.986099e-11	6.589836e+00	1.075897e+00
2.060000e-06	9.947851e-07	8.417892e-11	6.910050e+00	3.045408e+00
2.070000e-06	1.040822e-06	1.078591e-10	7.229835e+00	5.023283e+00
2.080000e-06	1.086780e-06	1.317854e-10	7.549072e+00	7.006344e+00
2.090000e-06	1.132650e-06	1.582293e-10	7.867699e+00	8.991446e+00
2.100000e-06	1.178420e-06	1.883835e-10	8.185632e+00	1.097549e+01
2.110000e-06	1.224080e-06	2.191018e-10	8.502795e+00	1.295545e+01
2.120000e-06	1.269647e-06	2.485650e-10	8.819313e+00	1.492837e+01
2.130000e-06	1.315149e-06	2.771813e-10	9.135386e+00	1.689143e+01
2.140000e-06	1.360543e-06	3.027397e-10	9.450704e+00	1.884192e+01
2.150000e-06	1.405865e-06	3.255923e-10	9.765523e+00	2.077723e+01
2.160000e-06	1.451128e-06	3.475877e-10	1.007993e+01	2.269494e+01
2.170000e-06	1.496286e-06	3.710198e-10	1.039361e+01	2.459276e+01
2.180000e-06	1.541327e-06	3.958361e-10	1.070648e+01	2.646856e+01
2.190000e-06	1.586191e-06	4.224008e-10	1.101811e+01	2.832038e+01
2.200000e-06	1.630904e-06	4.507895e-10	1.132870e+01	3.014641e+01
2.210000e-06	1.675506e-06	4.814910e-10	1.163852e+01	3.194503e+01
2.220000e-06	1.719977e-06	5.096038e-10	1.194743e+01	3.371477e+01
2.230000e-06	1.764410e-06	5.348840e-10	1.225608e+01	3.545433e+01
2.240000e-06	1.808788e-06	5.590245e-10	1.256434e+01	3.716258e+01
2.250000e-06	1.853044e-06	5.804413e-10	1.287175e+01	3.883852e+01
2.260000e-06	1.897151e-06	5.988758e-10	1.317813e+01	4.048131e+01
2.270000e-06	1.941089e-06	6.149900e-10	1.348334e+01	4.209027e+01
2.280000e-06	1.984979e-06	6.316663e-10	1.378821e+01	4.366482e+01
2.290000e-06	2.028817e-06	6.500129e-10	1.409272e+01	4.520454e+01
2.300000e-06	2.072528e-06	6.725231e-10	1.439635e+01	4.670909e+01
2.310000e-06	2.116161e-06	6.985907e-10	1.469943e+01	4.817827e+01
2.320000e-06	2.159772e-06	7.254824e-10	1.500237e+01	4.961196e+01
2.330000e-06	2.203372e-06	7.481379e-10	1.530523e+01	5.101013e+01
2.340000e-06	2.246869e-06	7.648953e-10	1.560737e+01	5.237284e+01
2.350000e-06	2.290140e-06	7.774116e-10	1.590794e+01	5.370022e+01
2.360000e-06	2.333166e-06	7.890887e-10	1.620681e+01	5.499247e+01
2.370000e-06	2.375902e-06	8.026936e-10	1.650366e+01	5.624982e+01
2.380000e-06	2.418367e-06	8.198291e-10	1.679864e+01	5.747260e+01
2.390000e-06	2.460534e-06	8.401918e-10	1.709155e+01	5.866114e+01
2.400000e-06	2.502361e-06	8.615879e-10	1.738208e+01	5.981584e+01
2.410000e-06	2.543923e-06	8.815418e-10	1.767079e+01	6.093712e+01
2.420000e-06	2.585220e-06	8.962439e-10	1.795765e+01	6.202544e+01
2.430000e-06	2.626220e-06	9.049739e-10	1.824245e+01	6.308126e+01
2.440000e-06	2.666939e-06	9.135110e-10	1.852529e+01	6.410510e+01
2.450000e-06	2.707471e-06	9.252434e-10	1.880684e+01	6.509749e+01
2.460000e-06	2.747802e-06	9.398949e-10	1.908698e+01	6.605895e+01
2.470000e-06	2.787873e-06	9.554123e-10	1.936533e+01	6.699004e+01
2.480000e-06	2.827783e-06	9.699166e-10	1.964255e+01	6.789135e+01
2.490000e-06	2.867591e-06	9.837008e-10	1.991907e+01	6.876344e+01
2.500000e-06	2.907288e-06	9.950463e-10	2.019482e+01	6.960692e+01
2.510000e-06	2.946826e-06	1.005317e-09	2.046946e+01	7.042239e+01
2.520000e-06	2.986162e-06	1.016297e-09	2.074270e+01	7.121047e+01
2.530000e-06	3.025295e-06	1.025179e-09	2.101453e+01	7.197176e+01
2.540000e-06	3.064239e-06	1.034435e-09	2.128504e+01	7.270691e+01
2.550000e-06	3.102998e-06	1.046233e-09	2.155428e+01	7.341655e+01
2.560000e-06	3.141495e-06	1.057577e-09	2.182169e+01	7.410132e+01
2.570000e-06	3.179746e-06	1.067237e-09	2.208739e+01	7.476186e+01
2.580000e-06	3.217901e-06	1.074464e-09	2.235242e+01	7.539882e+01
2.590000e-06	3.255919e-06	1.079083e-09	2.261650e+01	7.601285e+01
2.600000e-06	3.293691e-06	1.081933e-09	2.287888e+01	7.660459e+01
2.610000e-06	3.331221e-06	1.088276e-09	2.313957e+01	7.717471e+01
2.620000e-06	3.368470e-06	1.099958e-09	2.339832e+01	7.772385e+01
2.630000e-06	3.405433e-06	1.113510e-09	2.365507e+01	7.825265e+01
2.640000e-06	3.442126e-06	1.125312e-09	2.390995e+01	7.876175e+01
2.650000e-06	3.478627e-06	1.135651e-09	2.416350e+01	7.925180e+01
2.660000e-06	3.514900e-06	1.142139e-09	2.441546e+01	7.972341e+01
2.670000e-06	3.550908e-06	1.143600e-09	2.466558e+01	8.017722e+01
2.680000e-06	3.586794e-06	1.144085e-09	2.491485e+01	8.061383e+01
2.690000e-06	3.622572e-06	1.147472e-09	2.516338e+01	8.103384e+01
2.700000e-06	3.658196e-06	1.154794e-09	2.541083e+01	8.143784e+01
2.710000e-06	3.693671e-06	1.163328e-09	2.565726e+01	8.182641e+01
2.720000e-06	3.728939e-06	1.170553e-09	2.590223e+01	8.220011e+01
2.730000e-06	3.763890e-06	1.176556e-09	2.614501e+01	8.255947e+01
2.740000e-06	3.798365e-06	1.180468e-09	2.638449e+01	8.290505e+01
2.750000e-06	3.832346e-06	1.181402e-09	2.662053e+01	8.323734e+01
2.760000e-06	3.865932e-06	1.181480e-09	2.685382e+01	8.355684e+01
2.770000e-06	3.899070e-06	1.184960e-09	2.708401e+01	8.386403e+01
2.780000e-06	3.931793e-06	1.191127e-09	2.731131e+01	8.415938e+01
2.790000e-06	3.964152e-06	1.197291e-09	2.753609e+01	8.444332e+01
2.800000e-06	3.996183e-06	1.203383e-09	2.775858e+01	8.471627e+01
2.810000e-06	4.028061e-06	1.207699e-09	2.798001e+01	8.497864e+01
2.820000e-06	4.059814e-06	1.211406e-09	2.820058e+01	8.523081e+01
2.830000e-06	4.091349e-06	1.215851e-09	2.841963e+01	8.547313e+01
2.840000e-06	4.122588e-06	1.220814e-09	2.863662e+01	8.570596e+01
2.850000e-06	4.153573e-06	1.226300e-09	2.885185e+01	8.592960e+01
2.860000e-06	4.184351e-06	1.231115e-09	2.906565e+01	8.614437e+01
2.870000e-06	4.214816e-06	1.236593e-09	2.927727e+01	8.635055e+01
2.880000e-06	4.244934e-06	1.239475e-09	2.948648e+01	8.654840e+01
2.890000e-06	4.274781e-06	1.238410e-09	2.969380e+01	8.673816e+01
2.900000e-06	4.304391e-06	1.239712e-09	2.989948e+01	8.692007e+01
