# Temperatura_=_-8.3
# Concentracion g/m^3_=_1620.0
# C_Vs_to_Am_M_A/Vsm_=_65563218390.804596
# pendiente_HvsI_1/m_=_3716.3
# ordenada_HvsI_A/m_=_1297.0
# frecuencia_Hz_=_135112.33791917542

Tiempo_(s)	Campo_(V.s)	Magnetizacion_(V.s)	Campo_(kA/m)	Magnetizacion_(A/m)
0.000000e+00	-5.512866e-06	-1.424856e-09	-3.837285e+01	-9.249432e+01
1.000000e-08	-5.513158e-06	-1.423589e-09	-3.837487e+01	-9.239540e+01
2.000000e-08	-5.513218e-06	-1.426034e-09	-3.837529e+01	-9.229646e+01
3.000000e-08	-5.512950e-06	-1.430268e-09	-3.837343e+01	-9.219804e+01
4.000000e-08	-5.512256e-06	-1.432496e-09	-3.836860e+01	-9.210064e+01
5.000000e-08	-5.511102e-06	-1.429517e-09	-3.836057e+01	-9.200472e+01
6.000000e-08	-5.509381e-06	-1.417900e-09	-3.834859e+01	-9.191073e+01
7.000000e-08	-5.506959e-06	-1.405627e-09	-3.833173e+01	-9.181905e+01
8.000000e-08	-5.504005e-06	-1.416702e-09	-3.831117e+01	-9.172999e+01
9.000000e-08	-5.500634e-06	-1.456519e-09	-3.828770e+01	-9.164383e+01
1.000000e-07	-5.496760e-06	-1.470473e-09	-3.826074e+01	-9.156075e+01
1.100000e-07	-5.492429e-06	-1.423062e-09	-3.823059e+01	-9.148085e+01
1.200000e-07	-5.487797e-06	-1.355810e-09	-3.819835e+01	-9.140417e+01
1.300000e-07	-5.483012e-06	-1.372212e-09	-3.816504e+01	-9.133066e+01
1.400000e-07	-5.477976e-06	-1.438286e-09	-3.812999e+01	-9.126020e+01
1.500000e-07	-5.472528e-06	-1.430087e-09	-3.809207e+01	-9.119256e+01
1.600000e-07	-5.466724e-06	-1.378687e-09	-3.805167e+01	-9.112748e+01
1.700000e-07	-5.460619e-06	-1.398816e-09	-3.800917e+01	-9.106460e+01
1.800000e-07	-5.454075e-06	-1.433020e-09	-3.796362e+01	-9.100350e+01
1.900000e-07	-5.447022e-06	-1.431199e-09	-3.791453e+01	-9.094372e+01
2.000000e-07	-5.439589e-06	-1.358333e-09	-3.786279e+01	-9.088474e+01
2.100000e-07	-5.431945e-06	-1.380950e-09	-3.780959e+01	-9.082601e+01
2.200000e-07	-5.424090e-06	-1.432362e-09	-3.775491e+01	-9.076695e+01
2.300000e-07	-5.415942e-06	-1.463865e-09	-3.769819e+01	-9.070697e+01
2.400000e-07	-5.407427e-06	-1.429925e-09	-3.763892e+01	-9.064550e+01
2.500000e-07	-5.398285e-06	-1.408804e-09	-3.757529e+01	-9.058193e+01
2.600000e-07	-5.388473e-06	-1.412911e-09	-3.750699e+01	-9.051571e+01
2.700000e-07	-5.378068e-06	-1.415681e-09	-3.743457e+01	-9.044632e+01
2.800000e-07	-5.367090e-06	-1.398922e-09	-3.735815e+01	-9.037326e+01
2.900000e-07	-5.355690e-06	-1.398464e-09	-3.727881e+01	-9.029610e+01
3.000000e-07	-5.343949e-06	-1.410627e-09	-3.719708e+01	-9.021446e+01
3.100000e-07	-5.331894e-06	-1.391463e-09	-3.711317e+01	-9.012802e+01
3.200000e-07	-5.319381e-06	-1.377391e-09	-3.702607e+01	-9.003654e+01
3.300000e-07	-5.306340e-06	-1.374288e-09	-3.693530e+01	-8.993985e+01
3.400000e-07	-5.292942e-06	-1.398675e-09	-3.684204e+01	-8.983785e+01
3.500000e-07	-5.279201e-06	-1.377377e-09	-3.674640e+01	-8.973053e+01
3.600000e-07	-5.264949e-06	-1.377702e-09	-3.664720e+01	-8.961794e+01
3.700000e-07	-5.250206e-06	-1.385169e-09	-3.654457e+01	-8.950020e+01
3.800000e-07	-5.235063e-06	-1.407813e-09	-3.643917e+01	-8.937751e+01
3.900000e-07	-5.219418e-06	-1.379663e-09	-3.633027e+01	-8.925012e+01
4.000000e-07	-5.203227e-06	-1.372301e-09	-3.621757e+01	-8.911834e+01
4.100000e-07	-5.186596e-06	-1.375188e-09	-3.610181e+01	-8.898251e+01
4.200000e-07	-5.169657e-06	-1.378469e-09	-3.598390e+01	-8.884302e+01
4.300000e-07	-5.152398e-06	-1.357316e-09	-3.586377e+01	-8.870028e+01
4.400000e-07	-5.134818e-06	-1.378291e-09	-3.574140e+01	-8.855472e+01
4.500000e-07	-5.116969e-06	-1.398858e-09	-3.561716e+01	-8.840677e+01
4.600000e-07	-5.098703e-06	-1.387237e-09	-3.549002e+01	-8.825685e+01
4.700000e-07	-5.079945e-06	-1.358730e-09	-3.535946e+01	-8.810538e+01
4.800000e-07	-5.060878e-06	-1.370002e-09	-3.522674e+01	-8.795274e+01
4.900000e-07	-5.041516e-06	-1.369264e-09	-3.509197e+01	-8.779928e+01
5.000000e-07	-5.021844e-06	-1.344657e-09	-3.495504e+01	-8.764532e+01
5.100000e-07	-5.001995e-06	-1.333335e-09	-3.481688e+01	-8.749109e+01
5.200000e-07	-4.981951e-06	-1.346476e-09	-3.467736e+01	-8.733683e+01
5.300000e-07	-4.961575e-06	-1.347718e-09	-3.453553e+01	-8.718266e+01
5.400000e-07	-4.940832e-06	-1.352770e-09	-3.439115e+01	-8.702868e+01
5.500000e-07	-4.919698e-06	-1.363609e-09	-3.424404e+01	-8.687492e+01
5.600000e-07	-4.898207e-06	-1.349698e-09	-3.409445e+01	-8.672132e+01
5.700000e-07	-4.876407e-06	-1.333477e-09	-3.394271e+01	-8.656781e+01
5.800000e-07	-4.854297e-06	-1.338724e-09	-3.378881e+01	-8.641421e+01
5.900000e-07	-4.831743e-06	-1.340915e-09	-3.363182e+01	-8.626034e+01
6.000000e-07	-4.808746e-06	-1.320976e-09	-3.347175e+01	-8.610592e+01
6.100000e-07	-4.785477e-06	-1.318691e-09	-3.330978e+01	-8.595068e+01
6.200000e-07	-4.762020e-06	-1.323134e-09	-3.314651e+01	-8.579429e+01
6.300000e-07	-4.738374e-06	-1.316504e-09	-3.298191e+01	-8.563640e+01
6.400000e-07	-4.714477e-06	-1.307517e-09	-3.281558e+01	-8.547664e+01
6.500000e-07	-4.690299e-06	-1.320244e-09	-3.264729e+01	-8.531467e+01
6.600000e-07	-4.665724e-06	-1.318000e-09	-3.247623e+01	-8.515010e+01
6.700000e-07	-4.640677e-06	-1.310951e-09	-3.230188e+01	-8.498258e+01
6.800000e-07	-4.615123e-06	-1.302950e-09	-3.212402e+01	-8.481179e+01
6.900000e-07	-4.589033e-06	-1.299122e-09	-3.194242e+01	-8.463743e+01
7.000000e-07	-4.562436e-06	-1.283241e-09	-3.175729e+01	-8.445921e+01
7.100000e-07	-4.535388e-06	-1.279634e-09	-3.156902e+01	-8.427692e+01
7.200000e-07	-4.508007e-06	-1.278325e-09	-3.137843e+01	-8.409037e+01
7.300000e-07	-4.480428e-06	-1.283732e-09	-3.118646e+01	-8.389943e+01
7.400000e-07	-4.452672e-06	-1.285160e-09	-3.099326e+01	-8.370402e+01
7.500000e-07	-4.424708e-06	-1.284105e-09	-3.079861e+01	-8.350412e+01
7.600000e-07	-4.396479e-06	-1.274020e-09	-3.060213e+01	-8.329974e+01
7.700000e-07	-4.367948e-06	-1.269306e-09	-3.040353e+01	-8.309096e+01
7.800000e-07	-4.339119e-06	-1.260496e-09	-3.020286e+01	-8.287791e+01
7.900000e-07	-4.309962e-06	-1.254336e-09	-2.999991e+01	-8.266076e+01
8.000000e-07	-4.280517e-06	-1.252930e-09	-2.979496e+01	-8.243973e+01
8.100000e-07	-4.250822e-06	-1.251037e-09	-2.958826e+01	-8.221504e+01
8.200000e-07	-4.220783e-06	-1.242789e-09	-2.937917e+01	-8.198699e+01
8.300000e-07	-4.190460e-06	-1.239222e-09	-2.916811e+01	-8.175586e+01
8.400000e-07	-4.159807e-06	-1.240096e-09	-2.895475e+01	-8.152196e+01
8.500000e-07	-4.128758e-06	-1.236974e-09	-2.873863e+01	-8.128560e+01
8.600000e-07	-4.097438e-06	-1.236239e-09	-2.852062e+01	-8.104710e+01
8.700000e-07	-4.065915e-06	-1.236648e-09	-2.830120e+01	-8.080676e+01
8.800000e-07	-4.034230e-06	-1.230525e-09	-2.808065e+01	-8.056486e+01
8.900000e-07	-4.002394e-06	-1.218687e-09	-2.785905e+01	-8.032169e+01
9.000000e-07	-3.970417e-06	-1.214002e-09	-2.763648e+01	-8.007746e+01
9.100000e-07	-3.938206e-06	-1.206998e-09	-2.741227e+01	-7.983240e+01
9.200000e-07	-3.905672e-06	-1.199708e-09	-2.718582e+01	-7.958668e+01
9.300000e-07	-3.872831e-06	-1.196011e-09	-2.695722e+01	-7.934041e+01
9.400000e-07	-3.839636e-06	-1.197215e-09	-2.672616e+01	-7.909370e+01
9.500000e-07	-3.805891e-06	-1.189971e-09	-2.649128e+01	-7.884658e+01
9.600000e-07	-3.771506e-06	-1.185052e-09	-2.625194e+01	-7.859908e+01
9.700000e-07	-3.736742e-06	-1.178369e-09	-2.600996e+01	-7.835114e+01
9.800000e-07	-3.701680e-06	-1.170280e-09	-2.576591e+01	-7.810270e+01
9.900000e-07	-3.666344e-06	-1.161193e-09	-2.551995e+01	-7.785365e+01
1.000000e-06	-3.630901e-06	-1.159816e-09	-2.527324e+01	-7.760384e+01
1.010000e-06	-3.595266e-06	-1.153857e-09	-2.502520e+01	-7.735311e+01
1.020000e-06	-3.559421e-06	-1.146909e-09	-2.477570e+01	-7.710125e+01
1.030000e-06	-3.523467e-06	-1.142678e-09	-2.452543e+01	-7.684807e+01
1.040000e-06	-3.487371e-06	-1.141554e-09	-2.427419e+01	-7.659333e+01
1.050000e-06	-3.451057e-06	-1.138249e-09	-2.402142e+01	-7.633681e+01
1.060000e-06	-3.414464e-06	-1.137349e-09	-2.376671e+01	-7.607826e+01
1.070000e-06	-3.377542e-06	-1.132633e-09	-2.350971e+01	-7.581745e+01
1.080000e-06	-3.340350e-06	-1.123853e-09	-2.325083e+01	-7.555416e+01
1.090000e-06	-3.302947e-06	-1.115976e-09	-2.299049e+01	-7.528816e+01
1.100000e-06	-3.265271e-06	-1.108942e-09	-2.272824e+01	-7.501926e+01
1.110000e-06	-3.227284e-06	-1.099082e-09	-2.246382e+01	-7.474724e+01
1.120000e-06	-3.189066e-06	-1.090893e-09	-2.219781e+01	-7.447195e+01
1.130000e-06	-3.150669e-06	-1.086320e-09	-2.193054e+01	-7.419321e+01
1.140000e-06	-3.112061e-06	-1.082227e-09	-2.166181e+01	-7.391088e+01
1.150000e-06	-3.073277e-06	-1.080371e-09	-2.139184e+01	-7.362483e+01
1.160000e-06	-3.034294e-06	-1.081377e-09	-2.112050e+01	-7.333494e+01
1.170000e-06	-2.995101e-06	-1.080379e-09	-2.084769e+01	-7.304110e+01
1.180000e-06	-2.955733e-06	-1.073184e-09	-2.057367e+01	-7.274321e+01
1.190000e-06	-2.916190e-06	-1.066295e-09	-2.029843e+01	-7.244117e+01
1.200000e-06	-2.876523e-06	-1.058255e-09	-2.002232e+01	-7.213488e+01
1.210000e-06	-2.836762e-06	-1.048785e-09	-1.974556e+01	-7.182423e+01
1.220000e-06	-2.796892e-06	-1.038710e-09	-1.946804e+01	-7.150910e+01
1.230000e-06	-2.756864e-06	-1.033584e-09	-1.918942e+01	-7.118936e+01
1.240000e-06	-2.716689e-06	-1.028954e-09	-1.890978e+01	-7.086486e+01
1.250000e-06	-2.676296e-06	-1.024991e-09	-1.862862e+01	-7.053543e+01
1.260000e-06	-2.635693e-06	-1.021307e-09	-1.834600e+01	-7.020088e+01
1.270000e-06	-2.594905e-06	-1.017492e-09	-1.806209e+01	-6.986098e+01
1.280000e-06	-2.553846e-06	-1.008532e-09	-1.777630e+01	-6.951548e+01
1.290000e-06	-2.512581e-06	-9.999640e-10	-1.748906e+01	-6.916411e+01
1.300000e-06	-2.471079e-06	-9.912261e-10	-1.720019e+01	-6.880654e+01
1.310000e-06	-2.429253e-06	-9.809176e-10	-1.690905e+01	-6.844245e+01
1.320000e-06	-2.387093e-06	-9.708290e-10	-1.661559e+01	-6.807147e+01
1.330000e-06	-2.344586e-06	-9.641593e-10	-1.631972e+01	-6.769322e+01
1.340000e-06	-2.301823e-06	-9.579590e-10	-1.602207e+01	-6.730730e+01
1.350000e-06	-2.258849e-06	-9.550009e-10	-1.572294e+01	-6.691329e+01
1.360000e-06	-2.215657e-06	-9.561548e-10	-1.542230e+01	-6.651076e+01
1.370000e-06	-2.172279e-06	-9.566232e-10	-1.512036e+01	-6.609929e+01
1.380000e-06	-2.128742e-06	-9.520348e-10	-1.481732e+01	-6.567844e+01
1.390000e-06	-2.085163e-06	-9.402571e-10	-1.451398e+01	-6.524781e+01
1.400000e-06	-2.041478e-06	-9.218841e-10	-1.420991e+01	-6.480700e+01
1.410000e-06	-1.997609e-06	-9.024300e-10	-1.390455e+01	-6.435563e+01
1.420000e-06	-1.953703e-06	-8.877094e-10	-1.359894e+01	-6.389334e+01
1.430000e-06	-1.909804e-06	-8.787412e-10	-1.329338e+01	-6.341982e+01
1.440000e-06	-1.865786e-06	-8.750257e-10	-1.298699e+01	-6.293479e+01
1.450000e-06	-1.821565e-06	-8.752332e-10	-1.267918e+01	-6.243802e+01
1.460000e-06	-1.777313e-06	-8.751712e-10	-1.237116e+01	-6.192928e+01
1.470000e-06	-1.733029e-06	-8.694012e-10	-1.206292e+01	-6.140845e+01
1.480000e-06	-1.688596e-06	-8.585527e-10	-1.175364e+01	-6.087539e+01
1.490000e-06	-1.644039e-06	-8.466395e-10	-1.144349e+01	-6.033003e+01
1.500000e-06	-1.599245e-06	-8.336927e-10	-1.113170e+01	-5.977233e+01
1.510000e-06	-1.554264e-06	-8.185283e-10	-1.081861e+01	-5.920230e+01
1.520000e-06	-1.509229e-06	-8.096029e-10	-1.050513e+01	-5.861994e+01
1.530000e-06	-1.464071e-06	-8.062107e-10	-1.019081e+01	-5.802530e+01
1.540000e-06	-1.418691e-06	-8.031924e-10	-9.874935e+00	-5.741841e+01
1.550000e-06	-1.373169e-06	-7.973122e-10	-9.558080e+00	-5.679932e+01
1.560000e-06	-1.327589e-06	-7.875066e-10	-9.240816e+00	-5.616806e+01
1.570000e-06	-1.281970e-06	-7.721272e-10	-8.923275e+00	-5.552464e+01
1.580000e-06	-1.236342e-06	-7.545042e-10	-8.605679e+00	-5.486902e+01
1.590000e-06	-1.190605e-06	-7.382516e-10	-8.287325e+00	-5.420112e+01
1.600000e-06	-1.144755e-06	-7.233677e-10	-7.968182e+00	-5.352081e+01
1.610000e-06	-1.098777e-06	-7.103750e-10	-7.648148e+00	-5.282787e+01
1.620000e-06	-1.052756e-06	-7.007825e-10	-7.327812e+00	-5.212200e+01
1.630000e-06	-1.006733e-06	-6.939992e-10	-7.007462e+00	-5.140282e+01
1.640000e-06	-9.606009e-07	-6.873130e-10	-6.686356e+00	-5.066983e+01
1.650000e-06	-9.144197e-07	-6.787414e-10	-6.364908e+00	-4.992242e+01
1.660000e-06	-8.682691e-07	-6.690563e-10	-6.043672e+00	-4.915989e+01
1.670000e-06	-8.220991e-07	-6.577814e-10	-5.722301e+00	-4.838139e+01
1.680000e-06	-7.758444e-07	-6.453319e-10	-5.400341e+00	-4.758598e+01
1.690000e-06	-7.295660e-07	-6.325204e-10	-5.078216e+00	-4.677257e+01
1.700000e-06	-6.832219e-07	-6.193055e-10	-4.755633e+00	-4.593997e+01
1.710000e-06	-6.367811e-07	-6.029825e-10	-4.432377e+00	-4.508690e+01
1.720000e-06	-5.903343e-07	-5.851851e-10	-4.109079e+00	-4.421195e+01
1.730000e-06	-5.438887e-07	-5.679580e-10	-3.785791e+00	-4.331363e+01
1.740000e-06	-4.973343e-07	-5.525385e-10	-3.461744e+00	-4.239039e+01
1.750000e-06	-4.507641e-07	-5.395949e-10	-3.137587e+00	-4.144059e+01
1.760000e-06	-4.042160e-07	-5.254714e-10	-2.813585e+00	-4.046258e+01
1.770000e-06	-3.575504e-07	-5.102522e-10	-2.488765e+00	-3.945465e+01
1.780000e-06	-3.108030e-07	-4.950266e-10	-2.163374e+00	-3.841513e+01
1.790000e-06	-2.640417e-07	-4.801052e-10	-1.837888e+00	-3.734234e+01
1.800000e-06	-2.172482e-07	-4.649726e-10	-1.512177e+00	-3.623465e+01
1.810000e-06	-1.704702e-07	-4.479306e-10	-1.186575e+00	-3.509049e+01
1.820000e-06	-1.237784e-07	-4.280586e-10	-8.615716e-01	-3.390840e+01
1.830000e-06	-7.703006e-08	-4.081377e-10	-5.361753e-01	-3.268702e+01
1.840000e-06	-3.017830e-08	-3.903443e-10	-2.100590e-01	-3.142512e+01
1.850000e-06	1.660603e-08	-3.748635e-10	1.155879e-01	-3.012165e+01
1.860000e-06	6.332127e-08	-3.610361e-10	4.407539e-01	-2.877573e+01
1.870000e-06	1.100315e-07	-3.475106e-10	7.658848e-01	-2.738667e+01
1.880000e-06	1.567617e-07	-3.310474e-10	1.091155e+00	-2.595401e+01
1.890000e-06	2.034796e-07	-3.098507e-10	1.416340e+00	-2.447752e+01
1.900000e-06	2.501765e-07	-2.841085e-10	1.741378e+00	-2.295719e+01
1.910000e-06	2.968840e-07	-2.569982e-10	2.066490e+00	-2.139329e+01
1.920000e-06	3.434746e-07	-2.301767e-10	2.390789e+00	-1.978635e+01
1.930000e-06	3.900242e-07	-2.050380e-10	2.714802e+00	-1.813714e+01
1.940000e-06	4.365800e-07	-1.833826e-10	3.038858e+00	-1.644671e+01
1.950000e-06	4.831125e-07	-1.642366e-10	3.362752e+00	-1.471637e+01
1.960000e-06	5.296671e-07	-1.472755e-10	3.686800e+00	-1.294767e+01
1.970000e-06	5.761280e-07	-1.297025e-10	4.010195e+00	-1.114243e+01
1.980000e-06	6.224918e-07	-1.076851e-10	4.332915e+00	-9.302675e+00
1.990000e-06	6.688035e-07	-7.969249e-11	4.655272e+00	-7.430679e+00
2.000000e-06	7.151038e-07	-4.745852e-11	4.977550e+00	-5.528904e+00
2.010000e-06	7.614237e-07	-1.459606e-11	5.299964e+00	-3.599998e+00
2.020000e-06	8.077387e-07	1.698486e-11	5.622344e+00	-1.646777e+00
2.030000e-06	8.539233e-07	4.438712e-11	5.943817e+00	3.278056e-01
2.040000e-06	8.999596e-07	6.780623e-11	6.264257e+00	2.320675e+00
2.050000e-06	9.459818e-07	9.068647e-11	6.584599e+00	4.328663e+00
2.060000e-06	9.919416e-07	1.147856e-10	6.904507e+00	6.348536e+00
2.070000e-06	1.037860e-06	1.405709e-10	7.224125e+00	8.377013e+00
2.080000e-06	1.083743e-06	1.686331e-10	7.543497e+00	1.041080e+01
2.090000e-06	1.129506e-06	2.004683e-10	7.862038e+00	1.244660e+01
2.100000e-06	1.175160e-06	2.348456e-10	8.179817e+00	1.448116e+01
2.110000e-06	1.220719e-06	2.665776e-10	8.496934e+00	1.651127e+01
2.120000e-06	1.266256e-06	2.931363e-10	8.813901e+00	1.853380e+01
2.130000e-06	1.311767e-06	3.170745e-10	9.130681e+00	2.054571e+01
2.140000e-06	1.357219e-06	3.406843e-10	9.447059e+00	2.254408e+01
2.150000e-06	1.402548e-06	3.629703e-10	9.762572e+00	2.452612e+01
2.160000e-06	1.447676e-06	3.860460e-10	1.007669e+01	2.648918e+01
2.170000e-06	1.492627e-06	4.116997e-10	1.038958e+01	2.843077e+01
2.180000e-06	1.537466e-06	4.392472e-10	1.070168e+01	3.034857e+01
2.190000e-06	1.582244e-06	4.683764e-10	1.101336e+01	3.224042e+01
2.200000e-06	1.626955e-06	4.984434e-10	1.132458e+01	3.410436e+01
2.210000e-06	1.671485e-06	5.282778e-10	1.163454e+01	3.593861e+01
2.220000e-06	1.715845e-06	5.556158e-10	1.194331e+01	3.774156e+01
2.230000e-06	1.760143e-06	5.793816e-10	1.225165e+01	3.951181e+01
2.240000e-06	1.804344e-06	5.999251e-10	1.255931e+01	4.124814e+01
2.250000e-06	1.848424e-06	6.195483e-10	1.286613e+01	4.294949e+01
2.260000e-06	1.892374e-06	6.376160e-10	1.317205e+01	4.461501e+01
2.270000e-06	1.936223e-06	6.576513e-10	1.347727e+01	4.624400e+01
2.280000e-06	1.980042e-06	6.820411e-10	1.378228e+01	4.783592e+01
2.290000e-06	2.023851e-06	7.065131e-10	1.408721e+01	4.939040e+01
2.300000e-06	2.067615e-06	7.294610e-10	1.439184e+01	5.090720e+01
2.310000e-06	2.111290e-06	7.509387e-10	1.469584e+01	5.238623e+01
2.320000e-06	2.154859e-06	7.707451e-10	1.499911e+01	5.382751e+01
2.330000e-06	2.198353e-06	7.883491e-10	1.530185e+01	5.523120e+01
2.340000e-06	2.241685e-06	8.044215e-10	1.560347e+01	5.659755e+01
2.350000e-06	2.284771e-06	8.225046e-10	1.590337e+01	5.792691e+01
2.360000e-06	2.327665e-06	8.416814e-10	1.620194e+01	5.921972e+01
2.370000e-06	2.370382e-06	8.598118e-10	1.649928e+01	6.047647e+01
2.380000e-06	2.412800e-06	8.780711e-10	1.679453e+01	6.169776e+01
2.390000e-06	2.454803e-06	8.964039e-10	1.708690e+01	6.288422e+01
2.400000e-06	2.496462e-06	9.133218e-10	1.737687e+01	6.403652e+01
2.410000e-06	2.537834e-06	9.301717e-10	1.766484e+01	6.515540e+01
2.420000e-06	2.578921e-06	9.473072e-10	1.795084e+01	6.624160e+01
2.430000e-06	2.619781e-06	9.613212e-10	1.823524e+01	6.729591e+01
2.440000e-06	2.660388e-06	9.734281e-10	1.851789e+01	6.831912e+01
2.450000e-06	2.700753e-06	9.856158e-10	1.879885e+01	6.931202e+01
2.460000e-06	2.740877e-06	9.980652e-10	1.907814e+01	7.027545e+01
2.470000e-06	2.780825e-06	1.011086e-09	1.935621e+01	7.121020e+01
2.480000e-06	2.820690e-06	1.024440e-09	1.963369e+01	7.211707e+01
2.490000e-06	2.860449e-06	1.037458e-09	1.991044e+01	7.299686e+01
2.500000e-06	2.900113e-06	1.048886e-09	2.018652e+01	7.385035e+01
2.510000e-06	2.939651e-06	1.061159e-09	2.046173e+01	7.467830e+01
2.520000e-06	2.979033e-06	1.074542e-09	2.073585e+01	7.548142e+01
2.530000e-06	3.018227e-06	1.086294e-09	2.100867e+01	7.626045e+01
2.540000e-06	3.057200e-06	1.098641e-09	2.127994e+01	7.701605e+01
2.550000e-06	3.095931e-06	1.110187e-09	2.154953e+01	7.774887e+01
2.560000e-06	3.134408e-06	1.118022e-09	2.181735e+01	7.845953e+01
2.570000e-06	3.172613e-06	1.123132e-09	2.208328e+01	7.914862e+01
2.580000e-06	3.210613e-06	1.127978e-09	2.234779e+01	7.981667e+01
2.590000e-06	3.248460e-06	1.132672e-09	2.261123e+01	8.046419e+01
2.600000e-06	3.286104e-06	1.139631e-09	2.287325e+01	8.109167e+01
2.610000e-06	3.323611e-06	1.151904e-09	2.313432e+01	8.169954e+01
2.620000e-06	3.360867e-06	1.168250e-09	2.339365e+01	8.228819e+01
2.630000e-06	3.397735e-06	1.184157e-09	2.365027e+01	8.285801e+01
2.640000e-06	3.434411e-06	1.194764e-09	2.390555e+01	8.340934e+01
2.650000e-06	3.470894e-06	1.201097e-09	2.415950e+01	8.394247e+01
2.660000e-06	3.507090e-06	1.205977e-09	2.441145e+01	8.445769e+01
2.670000e-06	3.543100e-06	1.209745e-09	2.466209e+01	8.495526e+01
2.680000e-06	3.578935e-06	1.213410e-09	2.491153e+01	8.543542e+01
2.690000e-06	3.614624e-06	1.219303e-09	2.515995e+01	8.589840e+01
2.700000e-06	3.650244e-06	1.228714e-09	2.540788e+01	8.634440e+01
2.710000e-06	3.685685e-06	1.240008e-09	2.565457e+01	8.677362e+01
2.720000e-06	3.720921e-06	1.249585e-09	2.589983e+01	8.718627e+01
2.730000e-06	3.755866e-06	1.255259e-09	2.614307e+01	8.758255e+01
2.740000e-06	3.790369e-06	1.258037e-09	2.638324e+01	8.796266e+01
2.750000e-06	3.824445e-06	1.259017e-09	2.662042e+01	8.832682e+01
2.760000e-06	3.858062e-06	1.258731e-09	2.685442e+01	8.867526e+01
2.770000e-06	3.891191e-06	1.260280e-09	2.708501e+01	8.900822e+01
2.780000e-06	3.923832e-06	1.266285e-09	2.731221e+01	8.932598e+01
2.790000e-06	3.956110e-06	1.274231e-09	2.753689e+01	8.962883e+01
2.800000e-06	3.988163e-06	1.281695e-09	2.776000e+01	8.991708e+01
2.810000e-06	4.020061e-06	1.288055e-09	2.798203e+01	9.019107e+01
2.820000e-06	4.051841e-06	1.291761e-09	2.820324e+01	9.045120e+01
2.830000e-06	4.083412e-06	1.295689e-09	2.842299e+01	9.069784e+01
2.840000e-06	4.114660e-06	1.300866e-09	2.864049e+01	9.093144e+01
2.850000e-06	4.145598e-06	1.304642e-09	2.885584e+01	9.115246e+01
2.860000e-06	4.176286e-06	1.306490e-09	2.906945e+01	9.136136e+01
2.870000e-06	4.206696e-06	1.309245e-09	2.928112e+01	9.155867e+01
2.880000e-06	4.236785e-06	1.313282e-09	2.949056e+01	9.174490e+01
2.890000e-06	4.266562e-06	1.315876e-09	2.969783e+01	9.192059e+01
2.900000e-06	4.296082e-06	1.318593e-09	2.990330e+01	9.208630e+01
