# Temperatura_=_-16.2
# Concentracion g/m^3_=_1620.0
# C_Vs_to_Am_M_A/Vsm_=_65563218390.804596
# pendiente_HvsI_1/m_=_3716.3
# ordenada_HvsI_A/m_=_1297.0
# frecuencia_Hz_=_135096.37315618247

Tiempo_(s)	Campo_(V.s)	Magnetizacion_(V.s)	Campo_(kA/m)	Magnetizacion_(A/m)
0.000000e+00	-5.522768e-06	-1.203429e-09	-3.838485e+01	-7.709087e+01
1.000000e-08	-5.522991e-06	-1.204336e-09	-3.838641e+01	-7.710000e+01
2.000000e-08	-5.522982e-06	-1.206878e-09	-3.838634e+01	-7.710824e+01
3.000000e-08	-5.522640e-06	-1.209528e-09	-3.838396e+01	-7.711523e+01
4.000000e-08	-5.521916e-06	-1.207531e-09	-3.837893e+01	-7.712060e+01
5.000000e-08	-5.520695e-06	-1.202383e-09	-3.837045e+01	-7.712404e+01
6.000000e-08	-5.518827e-06	-1.191101e-09	-3.835746e+01	-7.712523e+01
7.000000e-08	-5.516356e-06	-1.186342e-09	-3.834029e+01	-7.712392e+01
8.000000e-08	-5.513371e-06	-1.223308e-09	-3.831954e+01	-7.711988e+01
9.000000e-08	-5.509951e-06	-1.260198e-09	-3.829577e+01	-7.711296e+01
1.000000e-07	-5.506083e-06	-1.210532e-09	-3.826888e+01	-7.710303e+01
1.100000e-07	-5.501807e-06	-1.132988e-09	-3.823917e+01	-7.709005e+01
1.200000e-07	-5.497323e-06	-1.158989e-09	-3.820800e+01	-7.707404e+01
1.300000e-07	-5.492550e-06	-1.215014e-09	-3.817483e+01	-7.705507e+01
1.400000e-07	-5.487381e-06	-1.223442e-09	-3.813890e+01	-7.703329e+01
1.500000e-07	-5.481879e-06	-1.164725e-09	-3.810067e+01	-7.700888e+01
1.600000e-07	-5.476089e-06	-1.176679e-09	-3.806042e+01	-7.698212e+01
1.700000e-07	-5.469901e-06	-1.229970e-09	-3.801741e+01	-7.695331e+01
1.800000e-07	-5.463250e-06	-1.205432e-09	-3.797119e+01	-7.692280e+01
1.900000e-07	-5.456197e-06	-1.150299e-09	-3.792216e+01	-7.689098e+01
2.000000e-07	-5.448807e-06	-1.133343e-09	-3.787080e+01	-7.685827e+01
2.100000e-07	-5.441197e-06	-1.179352e-09	-3.781791e+01	-7.682511e+01
2.200000e-07	-5.433317e-06	-1.189810e-09	-3.776314e+01	-7.679194e+01
2.300000e-07	-5.425197e-06	-1.171598e-09	-3.770670e+01	-7.675920e+01
2.400000e-07	-5.416713e-06	-1.155097e-09	-3.764774e+01	-7.672732e+01
2.500000e-07	-5.407536e-06	-1.159052e-09	-3.758395e+01	-7.669670e+01
2.600000e-07	-5.397638e-06	-1.150518e-09	-3.751517e+01	-7.666771e+01
2.700000e-07	-5.387148e-06	-1.148791e-09	-3.744225e+01	-7.664066e+01
2.800000e-07	-5.376132e-06	-1.149674e-09	-3.736569e+01	-7.661584e+01
2.900000e-07	-5.364771e-06	-1.162575e-09	-3.728673e+01	-7.659343e+01
3.000000e-07	-5.353099e-06	-1.169548e-09	-3.720560e+01	-7.657359e+01
3.100000e-07	-5.340896e-06	-1.157930e-09	-3.712079e+01	-7.655637e+01
3.200000e-07	-5.328180e-06	-1.138749e-09	-3.703241e+01	-7.654177e+01
3.300000e-07	-5.315122e-06	-1.150277e-09	-3.694165e+01	-7.652968e+01
3.400000e-07	-5.301717e-06	-1.166542e-09	-3.684848e+01	-7.651994e+01
3.500000e-07	-5.287901e-06	-1.153996e-09	-3.675246e+01	-7.651230e+01
3.600000e-07	-5.273578e-06	-1.159077e-09	-3.665291e+01	-7.650643e+01
3.700000e-07	-5.258838e-06	-1.177877e-09	-3.655046e+01	-7.650194e+01
3.800000e-07	-5.243529e-06	-1.157301e-09	-3.644406e+01	-7.649837e+01
3.900000e-07	-5.227571e-06	-1.139952e-09	-3.633315e+01	-7.649521e+01
4.000000e-07	-5.211234e-06	-1.167808e-09	-3.621960e+01	-7.649191e+01
4.100000e-07	-5.194539e-06	-1.158510e-09	-3.610356e+01	-7.648788e+01
4.200000e-07	-5.177519e-06	-1.126082e-09	-3.598527e+01	-7.648251e+01
4.300000e-07	-5.160205e-06	-1.160778e-09	-3.586494e+01	-7.647519e+01
4.400000e-07	-5.142617e-06	-1.199635e-09	-3.574269e+01	-7.646528e+01
4.500000e-07	-5.124639e-06	-1.149001e-09	-3.561774e+01	-7.645221e+01
4.600000e-07	-5.106234e-06	-1.135133e-09	-3.548982e+01	-7.643540e+01
4.700000e-07	-5.087497e-06	-1.175673e-09	-3.535959e+01	-7.641432e+01
4.800000e-07	-5.068373e-06	-1.154025e-09	-3.522667e+01	-7.638850e+01
4.900000e-07	-5.048898e-06	-1.123158e-09	-3.509132e+01	-7.635755e+01
5.000000e-07	-5.029217e-06	-1.168275e-09	-3.495453e+01	-7.632112e+01
5.100000e-07	-5.009315e-06	-1.168104e-09	-3.481621e+01	-7.627898e+01
5.200000e-07	-4.989101e-06	-1.123419e-09	-3.467571e+01	-7.623097e+01
5.300000e-07	-4.968629e-06	-1.156517e-09	-3.453342e+01	-7.617703e+01
5.400000e-07	-4.947848e-06	-1.188982e-09	-3.438899e+01	-7.611719e+01
5.500000e-07	-4.926646e-06	-1.133492e-09	-3.424163e+01	-7.605160e+01
5.600000e-07	-4.905021e-06	-1.121920e-09	-3.409133e+01	-7.598050e+01
5.700000e-07	-4.883040e-06	-1.162930e-09	-3.393855e+01	-7.590421e+01
5.800000e-07	-4.860812e-06	-1.141953e-09	-3.378407e+01	-7.582316e+01
5.900000e-07	-4.838244e-06	-1.119681e-09	-3.362721e+01	-7.573786e+01
6.000000e-07	-4.815267e-06	-1.152174e-09	-3.346751e+01	-7.564888e+01
6.100000e-07	-4.791955e-06	-1.145051e-09	-3.330549e+01	-7.555687e+01
6.200000e-07	-4.768354e-06	-1.111232e-09	-3.314145e+01	-7.546253e+01
6.300000e-07	-4.744571e-06	-1.128391e-09	-3.297615e+01	-7.536659e+01
6.400000e-07	-4.720601e-06	-1.136428e-09	-3.280955e+01	-7.526980e+01
6.500000e-07	-4.696376e-06	-1.111204e-09	-3.264119e+01	-7.517295e+01
6.600000e-07	-4.671731e-06	-1.121354e-09	-3.246990e+01	-7.507680e+01
6.700000e-07	-4.646670e-06	-1.142810e-09	-3.229572e+01	-7.498208e+01
6.800000e-07	-4.621043e-06	-1.126375e-09	-3.211760e+01	-7.488950e+01
6.900000e-07	-4.594672e-06	-1.121542e-09	-3.193432e+01	-7.479973e+01
7.000000e-07	-4.567790e-06	-1.136081e-09	-3.174748e+01	-7.471336e+01
7.100000e-07	-4.540589e-06	-1.126237e-09	-3.155842e+01	-7.463091e+01
7.200000e-07	-4.513106e-06	-1.112445e-09	-3.136740e+01	-7.455281e+01
7.300000e-07	-4.485389e-06	-1.122698e-09	-3.117476e+01	-7.447940e+01
7.400000e-07	-4.457549e-06	-1.125531e-09	-3.098127e+01	-7.441091e+01
7.500000e-07	-4.429580e-06	-1.120576e-09	-3.078688e+01	-7.434746e+01
7.600000e-07	-4.401376e-06	-1.125766e-09	-3.059085e+01	-7.428907e+01
7.700000e-07	-4.372778e-06	-1.127773e-09	-3.039209e+01	-7.423563e+01
7.800000e-07	-4.343804e-06	-1.116388e-09	-3.019071e+01	-7.418693e+01
7.900000e-07	-4.314558e-06	-1.114646e-09	-2.998744e+01	-7.414264e+01
8.000000e-07	-4.285050e-06	-1.113685e-09	-2.978235e+01	-7.410233e+01
8.100000e-07	-4.255200e-06	-1.101265e-09	-2.957489e+01	-7.406548e+01
8.200000e-07	-4.224983e-06	-1.096731e-09	-2.936486e+01	-7.403148e+01
8.300000e-07	-4.194503e-06	-1.106669e-09	-2.915302e+01	-7.399964e+01
8.400000e-07	-4.163782e-06	-1.106869e-09	-2.893950e+01	-7.396919e+01
8.500000e-07	-4.132691e-06	-1.103673e-09	-2.872341e+01	-7.393935e+01
8.600000e-07	-4.101326e-06	-1.110544e-09	-2.850541e+01	-7.390927e+01
8.700000e-07	-4.069826e-06	-1.110769e-09	-2.828648e+01	-7.387809e+01
8.800000e-07	-4.038150e-06	-1.100645e-09	-2.806633e+01	-7.384496e+01
8.900000e-07	-4.006356e-06	-1.098493e-09	-2.784534e+01	-7.380902e+01
9.000000e-07	-3.974360e-06	-1.099629e-09	-2.762297e+01	-7.376944e+01
9.100000e-07	-3.942010e-06	-1.094467e-09	-2.739813e+01	-7.372546e+01
9.200000e-07	-3.909300e-06	-1.093527e-09	-2.717078e+01	-7.367635e+01
9.300000e-07	-3.876217e-06	-1.097360e-09	-2.694084e+01	-7.362145e+01
9.400000e-07	-3.842875e-06	-1.093415e-09	-2.670911e+01	-7.356020e+01
9.500000e-07	-3.809126e-06	-1.088103e-09	-2.647454e+01	-7.349211e+01
9.600000e-07	-3.774837e-06	-1.090418e-09	-2.623622e+01	-7.341679e+01
9.700000e-07	-3.740131e-06	-1.088157e-09	-2.599500e+01	-7.333398e+01
9.800000e-07	-3.705027e-06	-1.081414e-09	-2.575102e+01	-7.324350e+01
9.900000e-07	-3.669609e-06	-1.082275e-09	-2.550486e+01	-7.314530e+01
1.000000e-06	-3.633999e-06	-1.085257e-09	-2.525736e+01	-7.303942e+01
1.010000e-06	-3.598236e-06	-1.078514e-09	-2.500879e+01	-7.292603e+01
1.020000e-06	-3.562298e-06	-1.073728e-09	-2.475902e+01	-7.280538e+01
1.030000e-06	-3.526204e-06	-1.074677e-09	-2.450815e+01	-7.267783e+01
1.040000e-06	-3.489931e-06	-1.071735e-09	-2.425604e+01	-7.254382e+01
1.050000e-06	-3.453382e-06	-1.068512e-09	-2.400201e+01	-7.240387e+01
1.060000e-06	-3.416564e-06	-1.071082e-09	-2.374612e+01	-7.225855e+01
1.070000e-06	-3.379544e-06	-1.070170e-09	-2.348882e+01	-7.210851e+01
1.080000e-06	-3.342339e-06	-1.064815e-09	-2.323024e+01	-7.195439e+01
1.090000e-06	-3.304873e-06	-1.060797e-09	-2.296984e+01	-7.179689e+01
1.100000e-06	-3.267179e-06	-1.056982e-09	-2.270785e+01	-7.163669e+01
1.110000e-06	-3.229232e-06	-1.048268e-09	-2.244411e+01	-7.147448e+01
1.120000e-06	-3.191045e-06	-1.041251e-09	-2.217870e+01	-7.131091e+01
1.130000e-06	-3.152689e-06	-1.038238e-09	-2.191211e+01	-7.114659e+01
1.140000e-06	-3.114003e-06	-1.037269e-09	-2.164323e+01	-7.098208e+01
1.150000e-06	-3.075069e-06	-1.039060e-09	-2.137263e+01	-7.081788e+01
1.160000e-06	-3.036047e-06	-1.043612e-09	-2.110141e+01	-7.065438e+01
1.170000e-06	-2.996892e-06	-1.044907e-09	-2.082928e+01	-7.049192e+01
1.180000e-06	-2.957533e-06	-1.040197e-09	-2.055572e+01	-7.033072e+01
1.190000e-06	-2.917970e-06	-1.034281e-09	-2.028074e+01	-7.017090e+01
1.200000e-06	-2.878222e-06	-1.028622e-09	-2.000448e+01	-7.001249e+01
1.210000e-06	-2.838349e-06	-1.021216e-09	-1.972735e+01	-6.985537e+01
1.220000e-06	-2.798404e-06	-1.016773e-09	-1.944972e+01	-6.969936e+01
1.230000e-06	-2.758370e-06	-1.017247e-09	-1.917148e+01	-6.954413e+01
1.240000e-06	-2.718175e-06	-1.017314e-09	-1.889211e+01	-6.938928e+01
1.250000e-06	-2.677698e-06	-1.013985e-09	-1.861079e+01	-6.923428e+01
1.260000e-06	-2.636961e-06	-1.009599e-09	-1.832765e+01	-6.907854e+01
1.270000e-06	-2.596014e-06	-1.005873e-09	-1.804306e+01	-6.892138e+01
1.280000e-06	-2.554928e-06	-9.977369e-10	-1.775750e+01	-6.876204e+01
1.290000e-06	-2.513735e-06	-9.910601e-10	-1.747119e+01	-6.859971e+01
1.300000e-06	-2.472200e-06	-9.909739e-10	-1.718251e+01	-6.843354e+01
1.310000e-06	-2.430249e-06	-9.911376e-10	-1.689094e+01	-6.826266e+01
1.320000e-06	-2.387919e-06	-9.884922e-10	-1.659673e+01	-6.808615e+01
1.330000e-06	-2.345278e-06	-9.864713e-10	-1.630037e+01	-6.790313e+01
1.340000e-06	-2.302368e-06	-9.840402e-10	-1.600213e+01	-6.771270e+01
1.350000e-06	-2.259167e-06	-9.811801e-10	-1.570187e+01	-6.751401e+01
1.360000e-06	-2.215773e-06	-9.798505e-10	-1.540027e+01	-6.730623e+01
1.370000e-06	-2.172236e-06	-9.779695e-10	-1.509768e+01	-6.708859e+01
1.380000e-06	-2.128541e-06	-9.718579e-10	-1.479399e+01	-6.686039e+01
1.390000e-06	-2.084730e-06	-9.660787e-10	-1.448948e+01	-6.662098e+01
1.400000e-06	-2.040891e-06	-9.606445e-10	-1.418479e+01	-6.636981e+01
1.410000e-06	-1.996999e-06	-9.540605e-10	-1.387973e+01	-6.610640e+01
1.420000e-06	-1.953008e-06	-9.459413e-10	-1.357398e+01	-6.583036e+01
1.430000e-06	-1.908973e-06	-9.394674e-10	-1.326792e+01	-6.554139e+01
1.440000e-06	-1.864892e-06	-9.359465e-10	-1.296155e+01	-6.523928e+01
1.450000e-06	-1.820701e-06	-9.315519e-10	-1.265440e+01	-6.492391e+01
1.460000e-06	-1.776397e-06	-9.275160e-10	-1.234648e+01	-6.459523e+01
1.470000e-06	-1.731941e-06	-9.211457e-10	-1.203749e+01	-6.425327e+01
1.480000e-06	-1.687331e-06	-9.137777e-10	-1.172744e+01	-6.389815e+01
1.490000e-06	-1.642566e-06	-9.052977e-10	-1.141631e+01	-6.353001e+01
1.500000e-06	-1.597627e-06	-8.953904e-10	-1.110398e+01	-6.314907e+01
1.510000e-06	-1.552641e-06	-8.857302e-10	-1.079131e+01	-6.275556e+01
1.520000e-06	-1.507589e-06	-8.776151e-10	-1.047818e+01	-6.234974e+01
1.530000e-06	-1.462338e-06	-8.716236e-10	-1.016368e+01	-6.193187e+01
1.540000e-06	-1.417017e-06	-8.643985e-10	-9.848684e+00	-6.150222e+01
1.550000e-06	-1.371629e-06	-8.558054e-10	-9.533221e+00	-6.106101e+01
1.560000e-06	-1.326120e-06	-8.470806e-10	-9.216920e+00	-6.060844e+01
1.570000e-06	-1.280542e-06	-8.364772e-10	-8.900140e+00	-6.014465e+01
1.580000e-06	-1.234903e-06	-8.254379e-10	-8.582935e+00	-5.966970e+01
1.590000e-06	-1.189114e-06	-8.167150e-10	-8.264688e+00	-5.918358e+01
1.600000e-06	-1.143274e-06	-8.073772e-10	-7.946090e+00	-5.868620e+01
1.610000e-06	-1.097491e-06	-7.961488e-10	-7.627883e+00	-5.817735e+01
1.620000e-06	-1.051589e-06	-7.871972e-10	-7.308851e+00	-5.765670e+01
1.630000e-06	-1.005529e-06	-7.779518e-10	-6.988717e+00	-5.712380e+01
1.640000e-06	-9.593341e-07	-7.687372e-10	-6.667652e+00	-5.657811e+01
1.650000e-06	-9.131238e-07	-7.624339e-10	-6.346477e+00	-5.601892e+01
1.660000e-06	-8.669467e-07	-7.565749e-10	-6.025533e+00	-5.544541e+01
1.670000e-06	-8.206555e-07	-7.494146e-10	-5.703795e+00	-5.485663e+01
1.680000e-06	-7.742364e-07	-7.410469e-10	-5.381170e+00	-5.425150e+01
1.690000e-06	-7.277535e-07	-7.297347e-10	-5.058100e+00	-5.362883e+01
1.700000e-06	-6.812556e-07	-7.178231e-10	-4.734926e+00	-5.298731e+01
1.710000e-06	-6.347404e-07	-7.049463e-10	-4.411631e+00	-5.232555e+01
1.720000e-06	-5.881113e-07	-6.904137e-10	-4.087546e+00	-5.164206e+01
1.730000e-06	-5.414984e-07	-6.766549e-10	-3.763572e+00	-5.093526e+01
1.740000e-06	-4.949266e-07	-6.640719e-10	-3.439885e+00	-5.020354e+01
1.750000e-06	-4.482393e-07	-6.542788e-10	-3.115394e+00	-4.944524e+01
1.760000e-06	-4.015028e-07	-6.439839e-10	-2.790562e+00	-4.865867e+01
1.770000e-06	-3.547422e-07	-6.308399e-10	-2.465562e+00	-4.784216e+01
1.780000e-06	-3.078932e-07	-6.156953e-10	-2.139948e+00	-4.699403e+01
1.790000e-06	-2.610236e-07	-6.018586e-10	-1.814191e+00	-4.611266e+01
1.800000e-06	-2.141731e-07	-5.888961e-10	-1.488566e+00	-4.519648e+01
1.810000e-06	-1.673464e-07	-5.753769e-10	-1.163106e+00	-4.424400e+01
1.820000e-06	-1.205442e-07	-5.619265e-10	-8.378177e-01	-4.325384e+01
1.830000e-06	-7.374066e-08	-5.497188e-10	-5.125192e-01	-4.222474e+01
1.840000e-06	-2.695352e-08	-5.370363e-10	-1.873349e-01	-4.115556e+01
1.850000e-06	1.986331e-08	-5.236434e-10	1.380558e-01	-4.004535e+01
1.860000e-06	6.667021e-08	-5.099038e-10	4.633775e-01	-3.889330e+01
1.870000e-06	1.134188e-07	-4.942774e-10	7.882938e-01	-3.769880e+01
1.880000e-06	1.601580e-07	-4.761742e-10	1.113145e+00	-3.646146e+01
1.890000e-06	2.069090e-07	-4.565401e-10	1.438078e+00	-3.518105e+01
1.900000e-06	2.537467e-07	-4.358056e-10	1.763614e+00	-3.385762e+01
1.910000e-06	3.006405e-07	-4.168946e-10	2.089540e+00	-3.249140e+01
1.920000e-06	3.474602e-07	-3.995700e-10	2.414950e+00	-3.108286e+01
1.930000e-06	3.942236e-07	-3.814279e-10	2.739970e+00	-2.963270e+01
1.940000e-06	4.410024e-07	-3.614991e-10	3.065095e+00	-2.814186e+01
1.950000e-06	4.877114e-07	-3.400555e-10	3.389737e+00	-2.661150e+01
1.960000e-06	5.342853e-07	-3.178692e-10	3.713439e+00	-2.504298e+01
1.970000e-06	5.807724e-07	-2.953641e-10	4.036538e+00	-2.343789e+01
1.980000e-06	6.272311e-07	-2.744681e-10	4.359440e+00	-2.179803e+01
1.990000e-06	6.736058e-07	-2.528942e-10	4.681757e+00	-2.012536e+01
2.000000e-06	7.199248e-07	-2.300711e-10	5.003688e+00	-1.842205e+01
2.010000e-06	7.663387e-07	-2.077419e-10	5.326278e+00	-1.669040e+01
2.020000e-06	8.127529e-07	-1.838882e-10	5.648870e+00	-1.493287e+01
2.030000e-06	8.590759e-07	-1.565887e-10	5.970829e+00	-1.315205e+01
2.040000e-06	9.052804e-07	-1.281641e-10	6.291963e+00	-1.135061e+01
2.050000e-06	9.513823e-07	-1.021832e-10	6.612386e+00	-9.531345e+00
2.060000e-06	9.974962e-07	-7.860232e-11	6.932891e+00	-7.697078e+00
2.070000e-06	1.043573e-06	-5.599138e-11	7.253137e+00	-5.850700e+00
2.080000e-06	1.089521e-06	-3.364328e-11	7.572489e+00	-3.995121e+00
2.090000e-06	1.135365e-06	-9.186332e-12	7.891120e+00	-2.133256e+00
2.100000e-06	1.181084e-06	1.785725e-11	8.208879e+00	-2.680055e-01
2.110000e-06	1.226684e-06	4.560308e-11	8.525814e+00	1.597764e+00
2.120000e-06	1.272238e-06	7.279070e-11	8.842425e+00	3.461238e+00
2.130000e-06	1.317719e-06	9.981258e-11	9.158531e+00	5.319671e+00
2.140000e-06	1.363148e-06	1.262006e-10	9.474280e+00	7.170401e+00
2.150000e-06	1.408494e-06	1.507671e-10	9.789446e+00	9.010867e+00
2.160000e-06	1.453736e-06	1.733174e-10	1.010389e+01	1.083862e+01
2.170000e-06	1.498896e-06	1.940243e-10	1.041776e+01	1.265133e+01
2.180000e-06	1.543847e-06	2.160684e-10	1.073019e+01	1.444680e+01
2.190000e-06	1.588680e-06	2.422314e-10	1.104179e+01	1.622297e+01
2.200000e-06	1.633488e-06	2.705235e-10	1.135322e+01	1.797795e+01
2.210000e-06	1.678155e-06	2.985438e-10	1.166367e+01	1.970996e+01
2.220000e-06	1.722662e-06	3.258195e-10	1.197300e+01	2.141740e+01
2.230000e-06	1.767011e-06	3.524203e-10	1.228124e+01	2.309882e+01
2.240000e-06	1.811222e-06	3.755274e-10	1.258852e+01	2.475292e+01
2.250000e-06	1.855386e-06	3.935536e-10	1.289548e+01	2.637854e+01
2.260000e-06	1.899496e-06	4.078957e-10	1.320205e+01	2.797469e+01
2.270000e-06	1.943520e-06	4.232869e-10	1.350804e+01	2.954049e+01
2.280000e-06	1.987494e-06	4.437960e-10	1.381367e+01	3.107524e+01
2.290000e-06	2.031385e-06	4.670477e-10	1.411872e+01	3.257832e+01
2.300000e-06	2.075159e-06	4.918428e-10	1.442296e+01	3.404928e+01
2.310000e-06	2.118844e-06	5.175455e-10	1.472658e+01	3.548774e+01
2.320000e-06	2.162529e-06	5.384926e-10	1.503021e+01	3.689345e+01
2.330000e-06	2.206132e-06	5.559046e-10	1.533326e+01	3.826625e+01
2.340000e-06	2.249493e-06	5.667235e-10	1.563463e+01	3.960607e+01
2.350000e-06	2.292631e-06	5.747195e-10	1.593446e+01	4.091291e+01
2.360000e-06	2.335531e-06	5.845183e-10	1.623262e+01	4.218686e+01
2.370000e-06	2.378159e-06	5.987647e-10	1.652890e+01	4.342805e+01
2.380000e-06	2.420538e-06	6.197132e-10	1.682345e+01	4.463667e+01
2.390000e-06	2.462674e-06	6.434404e-10	1.711630e+01	4.581295e+01
2.400000e-06	2.504411e-06	6.665728e-10	1.740639e+01	4.695717e+01
2.410000e-06	2.545780e-06	6.828631e-10	1.769391e+01	4.806964e+01
2.420000e-06	2.586876e-06	6.928966e-10	1.797954e+01	4.915070e+01
2.430000e-06	2.627678e-06	6.981002e-10	1.826313e+01	5.020071e+01
2.440000e-06	2.668263e-06	7.037556e-10	1.854521e+01	5.122003e+01
2.450000e-06	2.708665e-06	7.137902e-10	1.882601e+01	5.220908e+01
2.460000e-06	2.748891e-06	7.306308e-10	1.910559e+01	5.316825e+01
2.470000e-06	2.788984e-06	7.522079e-10	1.938426e+01	5.409797e+01
2.480000e-06	2.828956e-06	7.712973e-10	1.966207e+01	5.499867e+01
2.490000e-06	2.868821e-06	7.857735e-10	1.993914e+01	5.587078e+01
2.500000e-06	2.908618e-06	7.943893e-10	2.021574e+01	5.671477e+01
2.510000e-06	2.948198e-06	7.996183e-10	2.049084e+01	5.753110e+01
2.520000e-06	2.987500e-06	8.073421e-10	2.076400e+01	5.832023e+01
2.530000e-06	3.026658e-06	8.169519e-10	2.103616e+01	5.908266e+01
2.540000e-06	3.065680e-06	8.328700e-10	2.130737e+01	5.981889e+01
2.550000e-06	3.104436e-06	8.510847e-10	2.157674e+01	6.052941e+01
2.560000e-06	3.142949e-06	8.635113e-10	2.184441e+01	6.121477e+01
2.570000e-06	3.181236e-06	8.697432e-10	2.211052e+01	6.187550e+01
2.580000e-06	3.219290e-06	8.734131e-10	2.237501e+01	6.251216e+01
2.590000e-06	3.257112e-06	8.761625e-10	2.263788e+01	6.312531e+01
2.600000e-06	3.294813e-06	8.802582e-10	2.289991e+01	6.371555e+01
2.610000e-06	3.332374e-06	8.903035e-10	2.316098e+01	6.428347e+01
2.620000e-06	3.369682e-06	9.049106e-10	2.342028e+01	6.482969e+01
2.630000e-06	3.406706e-06	9.190790e-10	2.367760e+01	6.535482e+01
2.640000e-06	3.443416e-06	9.288078e-10	2.393275e+01	6.585951e+01
2.650000e-06	3.479850e-06	9.349162e-10	2.418597e+01	6.634438e+01
2.660000e-06	3.515999e-06	9.381212e-10	2.443722e+01	6.681007e+01
2.670000e-06	3.552010e-06	9.390043e-10	2.468751e+01	6.725724e+01
2.680000e-06	3.587909e-06	9.410811e-10	2.493701e+01	6.768652e+01
2.690000e-06	3.623652e-06	9.476151e-10	2.518544e+01	6.809854e+01
2.700000e-06	3.659203e-06	9.581631e-10	2.543253e+01	6.849394e+01
2.710000e-06	3.694570e-06	9.680544e-10	2.567834e+01	6.887331e+01
2.720000e-06	3.729718e-06	9.745515e-10	2.592263e+01	6.923726e+01
2.730000e-06	3.764440e-06	9.787420e-10	2.616396e+01	6.958635e+01
2.740000e-06	3.798790e-06	9.805461e-10	2.640270e+01	6.992115e+01
2.750000e-06	3.832706e-06	9.807361e-10	2.663843e+01	7.024218e+01
2.760000e-06	3.866066e-06	9.820930e-10	2.687029e+01	7.054993e+01
2.770000e-06	3.899039e-06	9.875705e-10	2.709946e+01	7.084489e+01
2.780000e-06	3.931664e-06	9.955634e-10	2.732622e+01	7.112748e+01
2.790000e-06	3.964058e-06	1.003823e-09	2.755136e+01	7.139812e+01
2.800000e-06	3.996306e-06	1.011365e-09	2.777549e+01	7.165719e+01
2.810000e-06	4.028317e-06	1.017039e-09	2.799798e+01	7.190503e+01
2.820000e-06	4.060091e-06	1.017786e-09	2.821882e+01	7.214197e+01
2.830000e-06	4.091624e-06	1.019875e-09	2.843799e+01	7.236831e+01
2.840000e-06	4.122937e-06	1.023013e-09	2.865562e+01	7.258431e+01
2.850000e-06	4.154067e-06	1.026672e-09	2.887198e+01	7.279022e+01
2.860000e-06	4.184871e-06	1.031136e-09	2.908608e+01	7.298629e+01
2.870000e-06	4.215262e-06	1.036604e-09	2.929730e+01	7.317273e+01
2.880000e-06	4.245319e-06	1.043247e-09	2.950621e+01	7.334976e+01
2.890000e-06	4.275193e-06	1.046671e-09	2.971384e+01	7.351758e+01
2.900000e-06	4.304862e-06	1.048776e-09	2.992005e+01	7.367642e+01
