# Temperatura_=_7.25
# Concentracion g/m^3_=_1620.0
# C_Vs_to_Am_M_A/Vsm_=_65563218390.804596
# pendiente_HvsI_1/m_=_3716.3
# ordenada_HvsI_A/m_=_1297.0
# frecuencia_Hz_=_135110.46639811678

Tiempo_(s)	Campo_(V.s)	Magnetizacion_(V.s)	Campo_(kA/m)	Magnetizacion_(A/m)
0.000000e+00	-5.528210e-06	-1.611269e-09	-3.837060e+01	-1.052873e+02
1.000000e-08	-5.528392e-06	-1.612802e-09	-3.837187e+01	-1.052560e+02
2.000000e-08	-5.528339e-06	-1.614063e-09	-3.837150e+01	-1.052238e+02
3.000000e-08	-5.527947e-06	-1.613736e-09	-3.836878e+01	-1.051908e+02
4.000000e-08	-5.527069e-06	-1.611500e-09	-3.836268e+01	-1.051571e+02
5.000000e-08	-5.525653e-06	-1.607536e-09	-3.835286e+01	-1.051225e+02
6.000000e-08	-5.523661e-06	-1.607118e-09	-3.833903e+01	-1.050871e+02
7.000000e-08	-5.521081e-06	-1.614982e-09	-3.832112e+01	-1.050507e+02
8.000000e-08	-5.517919e-06	-1.614544e-09	-3.829917e+01	-1.050134e+02
9.000000e-08	-5.514259e-06	-1.594151e-09	-3.827377e+01	-1.049750e+02
1.000000e-07	-5.510275e-06	-1.620413e-09	-3.824612e+01	-1.049353e+02
1.100000e-07	-5.505953e-06	-1.642055e-09	-3.821612e+01	-1.048943e+02
1.200000e-07	-5.501276e-06	-1.599420e-09	-3.818366e+01	-1.048515e+02
1.300000e-07	-5.496372e-06	-1.530546e-09	-3.814962e+01	-1.048070e+02
1.400000e-07	-5.491103e-06	-1.559404e-09	-3.811305e+01	-1.047604e+02
1.500000e-07	-5.485332e-06	-1.629802e-09	-3.807299e+01	-1.047115e+02
1.600000e-07	-5.479242e-06	-1.636876e-09	-3.803072e+01	-1.046601e+02
1.700000e-07	-5.472858e-06	-1.563294e-09	-3.798641e+01	-1.046058e+02
1.800000e-07	-5.466016e-06	-1.577809e-09	-3.793892e+01	-1.045484e+02
1.900000e-07	-5.458696e-06	-1.621868e-09	-3.788811e+01	-1.044876e+02
2.000000e-07	-5.451168e-06	-1.618750e-09	-3.783587e+01	-1.044232e+02
2.100000e-07	-5.443501e-06	-1.557688e-09	-3.778265e+01	-1.043548e+02
2.200000e-07	-5.435571e-06	-1.564359e-09	-3.772761e+01	-1.042823e+02
2.300000e-07	-5.427202e-06	-1.604218e-09	-3.766952e+01	-1.042054e+02
2.400000e-07	-5.418316e-06	-1.607029e-09	-3.760784e+01	-1.041239e+02
2.500000e-07	-5.408921e-06	-1.575429e-09	-3.754263e+01	-1.040376e+02
2.600000e-07	-5.398832e-06	-1.553651e-09	-3.747261e+01	-1.039464e+02
2.700000e-07	-5.388008e-06	-1.571559e-09	-3.739748e+01	-1.038501e+02
2.800000e-07	-5.376721e-06	-1.573464e-09	-3.731914e+01	-1.037486e+02
2.900000e-07	-5.365076e-06	-1.571742e-09	-3.723831e+01	-1.036419e+02
3.000000e-07	-5.353011e-06	-1.553585e-09	-3.715457e+01	-1.035300e+02
3.100000e-07	-5.340620e-06	-1.569326e-09	-3.706856e+01	-1.034128e+02
3.200000e-07	-5.327827e-06	-1.563193e-09	-3.697977e+01	-1.032904e+02
3.300000e-07	-5.314576e-06	-1.551644e-09	-3.688779e+01	-1.031629e+02
3.400000e-07	-5.300868e-06	-1.527419e-09	-3.679265e+01	-1.030304e+02
3.500000e-07	-5.286797e-06	-1.565045e-09	-3.669498e+01	-1.028931e+02
3.600000e-07	-5.272329e-06	-1.566091e-09	-3.659457e+01	-1.027511e+02
3.700000e-07	-5.257326e-06	-1.558520e-09	-3.649043e+01	-1.026047e+02
3.800000e-07	-5.241865e-06	-1.567480e-09	-3.638312e+01	-1.024541e+02
3.900000e-07	-5.225925e-06	-1.589926e-09	-3.627248e+01	-1.022996e+02
4.000000e-07	-5.209448e-06	-1.532463e-09	-3.615811e+01	-1.021415e+02
4.100000e-07	-5.192636e-06	-1.518196e-09	-3.604142e+01	-1.019799e+02
4.200000e-07	-5.175528e-06	-1.574502e-09	-3.592268e+01	-1.018153e+02
4.300000e-07	-5.158030e-06	-1.569570e-09	-3.580123e+01	-1.016480e+02
4.400000e-07	-5.140173e-06	-1.516059e-09	-3.567729e+01	-1.014782e+02
4.500000e-07	-5.122006e-06	-1.560681e-09	-3.555119e+01	-1.013062e+02
4.600000e-07	-5.103456e-06	-1.593338e-09	-3.542244e+01	-1.011324e+02
4.700000e-07	-5.084545e-06	-1.514955e-09	-3.529118e+01	-1.009570e+02
4.800000e-07	-5.065364e-06	-1.502019e-09	-3.515805e+01	-1.007803e+02
4.900000e-07	-5.045864e-06	-1.559976e-09	-3.502270e+01	-1.006025e+02
5.000000e-07	-5.026094e-06	-1.521302e-09	-3.488548e+01	-1.004238e+02
5.100000e-07	-5.006134e-06	-1.479318e-09	-3.474694e+01	-1.002445e+02
5.200000e-07	-4.985908e-06	-1.549694e-09	-3.460655e+01	-1.000646e+02
5.300000e-07	-4.965293e-06	-1.551951e-09	-3.446347e+01	-9.988439e+01
5.400000e-07	-4.944209e-06	-1.490312e-09	-3.431713e+01	-9.970384e+01
5.500000e-07	-4.922713e-06	-1.517260e-09	-3.416793e+01	-9.952305e+01
5.600000e-07	-4.900934e-06	-1.546891e-09	-3.401676e+01	-9.934206e+01
5.700000e-07	-4.878860e-06	-1.480864e-09	-3.386354e+01	-9.916085e+01
5.800000e-07	-4.856482e-06	-1.483045e-09	-3.370822e+01	-9.897937e+01
5.900000e-07	-4.833819e-06	-1.527516e-09	-3.355092e+01	-9.879757e+01
6.000000e-07	-4.810760e-06	-1.494609e-09	-3.339088e+01	-9.861532e+01
6.100000e-07	-4.787321e-06	-1.461421e-09	-3.322818e+01	-9.843248e+01
6.200000e-07	-4.763614e-06	-1.497960e-09	-3.306364e+01	-9.824890e+01
6.300000e-07	-4.739682e-06	-1.482805e-09	-3.289753e+01	-9.806438e+01
6.400000e-07	-4.715541e-06	-1.454844e-09	-3.272997e+01	-9.787869e+01
6.500000e-07	-4.691090e-06	-1.478462e-09	-3.256026e+01	-9.769160e+01
6.600000e-07	-4.666202e-06	-1.486389e-09	-3.238752e+01	-9.750286e+01
6.700000e-07	-4.640771e-06	-1.453866e-09	-3.221100e+01	-9.731217e+01
6.800000e-07	-4.614793e-06	-1.460188e-09	-3.203069e+01	-9.711926e+01
6.900000e-07	-4.588285e-06	-1.465256e-09	-3.184670e+01	-9.692382e+01
7.000000e-07	-4.561305e-06	-1.443617e-09	-3.165944e+01	-9.672555e+01
7.100000e-07	-4.534025e-06	-1.440391e-09	-3.147009e+01	-9.652413e+01
7.200000e-07	-4.506465e-06	-1.454432e-09	-3.127880e+01	-9.631924e+01
7.300000e-07	-4.478661e-06	-1.445655e-09	-3.108582e+01	-9.611057e+01
7.400000e-07	-4.450682e-06	-1.441392e-09	-3.089162e+01	-9.589781e+01
7.500000e-07	-4.422507e-06	-1.442512e-09	-3.069606e+01	-9.568064e+01
7.600000e-07	-4.394041e-06	-1.428125e-09	-3.049848e+01	-9.545878e+01
7.700000e-07	-4.365289e-06	-1.416636e-09	-3.029892e+01	-9.523193e+01
7.800000e-07	-4.336235e-06	-1.415744e-09	-3.009726e+01	-9.499982e+01
7.900000e-07	-4.306820e-06	-1.409028e-09	-2.989309e+01	-9.476218e+01
8.000000e-07	-4.277153e-06	-1.402081e-09	-2.968717e+01	-9.451877e+01
8.100000e-07	-4.247296e-06	-1.407465e-09	-2.947994e+01	-9.426938e+01
8.200000e-07	-4.217144e-06	-1.401257e-09	-2.927066e+01	-9.401380e+01
8.300000e-07	-4.186589e-06	-1.388774e-09	-2.905858e+01	-9.375185e+01
8.400000e-07	-4.155676e-06	-1.386802e-09	-2.884402e+01	-9.348338e+01
8.500000e-07	-4.124536e-06	-1.390569e-09	-2.862788e+01	-9.320826e+01
8.600000e-07	-4.093210e-06	-1.383713e-09	-2.841045e+01	-9.292640e+01
8.700000e-07	-4.061665e-06	-1.381465e-09	-2.819150e+01	-9.263773e+01
8.800000e-07	-4.029913e-06	-1.379514e-09	-2.797112e+01	-9.234222e+01
8.900000e-07	-3.997935e-06	-1.369607e-09	-2.774916e+01	-9.203987e+01
9.000000e-07	-3.965737e-06	-1.354989e-09	-2.752568e+01	-9.173070e+01
9.100000e-07	-3.933390e-06	-1.352072e-09	-2.730116e+01	-9.141478e+01
9.200000e-07	-3.900716e-06	-1.344720e-09	-2.707437e+01	-9.109222e+01
9.300000e-07	-3.867435e-06	-1.336849e-09	-2.684337e+01	-9.076315e+01
9.400000e-07	-3.833713e-06	-1.335262e-09	-2.660931e+01	-9.042773e+01
9.500000e-07	-3.799669e-06	-1.335967e-09	-2.637302e+01	-9.008617e+01
9.600000e-07	-3.765159e-06	-1.323656e-09	-2.613349e+01	-8.973870e+01
9.700000e-07	-3.730170e-06	-1.313177e-09	-2.589064e+01	-8.938558e+01
9.800000e-07	-3.694864e-06	-1.308566e-09	-2.564558e+01	-8.902710e+01
9.900000e-07	-3.659369e-06	-1.303392e-09	-2.539922e+01	-8.866357e+01
1.000000e-06	-3.623720e-06	-1.297761e-09	-2.515178e+01	-8.829533e+01
1.010000e-06	-3.587923e-06	-1.296075e-09	-2.490332e+01	-8.792273e+01
1.020000e-06	-3.551944e-06	-1.291165e-09	-2.465359e+01	-8.754614e+01
1.030000e-06	-3.515793e-06	-1.281882e-09	-2.440267e+01	-8.716592e+01
1.040000e-06	-3.479455e-06	-1.275161e-09	-2.415045e+01	-8.678246e+01
1.050000e-06	-3.442923e-06	-1.270933e-09	-2.389689e+01	-8.639612e+01
1.060000e-06	-3.406165e-06	-1.263626e-09	-2.364175e+01	-8.600726e+01
1.070000e-06	-3.369137e-06	-1.256062e-09	-2.338475e+01	-8.561623e+01
1.080000e-06	-3.331789e-06	-1.251482e-09	-2.312552e+01	-8.522337e+01
1.090000e-06	-3.294084e-06	-1.243934e-09	-2.286382e+01	-8.482895e+01
1.100000e-06	-3.256181e-06	-1.235529e-09	-2.260074e+01	-8.443326e+01
1.110000e-06	-3.218165e-06	-1.228363e-09	-2.233687e+01	-8.403650e+01
1.120000e-06	-3.179877e-06	-1.221215e-09	-2.207112e+01	-8.363885e+01
1.130000e-06	-3.141369e-06	-1.210023e-09	-2.180384e+01	-8.324044e+01
1.140000e-06	-3.102670e-06	-1.202353e-09	-2.153524e+01	-8.284133e+01
1.150000e-06	-3.063738e-06	-1.200082e-09	-2.126502e+01	-8.244153e+01
1.160000e-06	-3.024695e-06	-1.196387e-09	-2.099403e+01	-8.204097e+01
1.170000e-06	-2.985460e-06	-1.187588e-09	-2.072170e+01	-8.163953e+01
1.180000e-06	-2.945949e-06	-1.180588e-09	-2.044746e+01	-8.123701e+01
1.190000e-06	-2.906269e-06	-1.172905e-09	-2.017204e+01	-8.083314e+01
1.200000e-06	-2.866512e-06	-1.163222e-09	-1.989609e+01	-8.042759e+01
1.210000e-06	-2.826609e-06	-1.152097e-09	-1.961914e+01	-8.001995e+01
1.220000e-06	-2.786571e-06	-1.143721e-09	-1.934124e+01	-7.960975e+01
1.230000e-06	-2.746416e-06	-1.136095e-09	-1.906252e+01	-7.919647e+01
1.240000e-06	-2.706022e-06	-1.128884e-09	-1.878215e+01	-7.877952e+01
1.250000e-06	-2.665397e-06	-1.122191e-09	-1.850018e+01	-7.835826e+01
1.260000e-06	-2.624653e-06	-1.117515e-09	-1.821738e+01	-7.793201e+01
1.270000e-06	-2.583651e-06	-1.109739e-09	-1.793279e+01	-7.750006e+01
1.280000e-06	-2.542283e-06	-1.098597e-09	-1.764566e+01	-7.706166e+01
1.290000e-06	-2.500693e-06	-1.088122e-09	-1.735699e+01	-7.661606e+01
1.300000e-06	-2.458717e-06	-1.078682e-09	-1.706564e+01	-7.616250e+01
1.310000e-06	-2.416359e-06	-1.069309e-09	-1.677164e+01	-7.570020e+01
1.320000e-06	-2.373793e-06	-1.061265e-09	-1.647620e+01	-7.522842e+01
1.330000e-06	-2.330944e-06	-1.052913e-09	-1.617878e+01	-7.474644e+01
1.340000e-06	-2.287921e-06	-1.044101e-09	-1.588017e+01	-7.425356e+01
1.350000e-06	-2.244749e-06	-1.038121e-09	-1.558051e+01	-7.374913e+01
1.360000e-06	-2.201304e-06	-1.033707e-09	-1.527897e+01	-7.323256e+01
1.370000e-06	-2.157683e-06	-1.026114e-09	-1.497620e+01	-7.270329e+01
1.380000e-06	-2.113989e-06	-1.016561e-09	-1.467293e+01	-7.216087e+01
1.390000e-06	-2.070251e-06	-1.005629e-09	-1.436935e+01	-7.160488e+01
1.400000e-06	-2.026460e-06	-9.913887e-10	-1.406540e+01	-7.103501e+01
1.410000e-06	-1.982597e-06	-9.766856e-10	-1.376095e+01	-7.045099e+01
1.420000e-06	-1.938643e-06	-9.649281e-10	-1.345587e+01	-6.985265e+01
1.430000e-06	-1.894590e-06	-9.566376e-10	-1.315011e+01	-6.923990e+01
1.440000e-06	-1.850479e-06	-9.479875e-10	-1.284394e+01	-6.861273e+01
1.450000e-06	-1.806267e-06	-9.396290e-10	-1.253707e+01	-6.797117e+01
1.460000e-06	-1.761882e-06	-9.311561e-10	-1.222900e+01	-6.731534e+01
1.470000e-06	-1.717286e-06	-9.198162e-10	-1.191946e+01	-6.664541e+01
1.480000e-06	-1.672498e-06	-9.069336e-10	-1.160860e+01	-6.596159e+01
1.490000e-06	-1.627642e-06	-8.952169e-10	-1.129726e+01	-6.526413e+01
1.500000e-06	-1.582753e-06	-8.815628e-10	-1.098569e+01	-6.455330e+01
1.510000e-06	-1.537715e-06	-8.671899e-10	-1.067309e+01	-6.382939e+01
1.520000e-06	-1.492478e-06	-8.552531e-10	-1.035910e+01	-6.309266e+01
1.530000e-06	-1.447090e-06	-8.451250e-10	-1.004407e+01	-6.234338e+01
1.540000e-06	-1.401566e-06	-8.335151e-10	-9.728094e+00	-6.158177e+01
1.550000e-06	-1.355981e-06	-8.218534e-10	-9.411690e+00	-6.080799e+01
1.560000e-06	-1.310362e-06	-8.095168e-10	-9.095059e+00	-6.002215e+01
1.570000e-06	-1.264676e-06	-7.953994e-10	-8.777954e+00	-5.922429e+01
1.580000e-06	-1.218968e-06	-7.822927e-10	-8.460699e+00	-5.841433e+01
1.590000e-06	-1.173226e-06	-7.716226e-10	-8.143212e+00	-5.759211e+01
1.600000e-06	-1.127348e-06	-7.589162e-10	-7.824777e+00	-5.675734e+01
1.610000e-06	-1.081328e-06	-7.440098e-10	-7.505357e+00	-5.590960e+01
1.620000e-06	-1.035251e-06	-7.301224e-10	-7.185543e+00	-5.504836e+01
1.630000e-06	-9.891101e-07	-7.178184e-10	-6.865287e+00	-5.417293e+01
1.640000e-06	-9.428747e-07	-7.055948e-10	-6.544373e+00	-5.328249e+01
1.650000e-06	-8.965517e-07	-6.928117e-10	-6.222851e+00	-5.237609e+01
1.660000e-06	-8.501092e-07	-6.812367e-10	-5.900500e+00	-5.145263e+01
1.670000e-06	-8.036325e-07	-6.683998e-10	-5.577911e+00	-5.051088e+01
1.680000e-06	-7.571781e-07	-6.525465e-10	-5.255477e+00	-4.954948e+01
1.690000e-06	-7.106192e-07	-6.360817e-10	-4.932317e+00	-4.856696e+01
1.700000e-06	-6.639873e-07	-6.170591e-10	-4.608651e+00	-4.756176e+01
1.710000e-06	-6.173897e-07	-5.971280e-10	-4.285223e+00	-4.653221e+01
1.720000e-06	-5.706980e-07	-5.785373e-10	-3.961142e+00	-4.547660e+01
1.730000e-06	-5.239584e-07	-5.609762e-10	-3.636729e+00	-4.439314e+01
1.740000e-06	-4.771983e-07	-5.451225e-10	-3.312173e+00	-4.328003e+01
1.750000e-06	-4.303240e-07	-5.289070e-10	-2.986824e+00	-4.213546e+01
1.760000e-06	-3.834525e-07	-5.117166e-10	-2.661495e+00	-4.095764e+01
1.770000e-06	-3.366232e-07	-4.930255e-10	-2.336459e+00	-3.974482e+01
1.780000e-06	-2.898026e-07	-4.741693e-10	-2.011483e+00	-3.849531e+01
1.790000e-06	-2.429687e-07	-4.559261e-10	-1.686415e+00	-3.720753e+01
1.800000e-06	-1.960633e-07	-4.383389e-10	-1.360851e+00	-3.588000e+01
1.810000e-06	-1.490916e-07	-4.195037e-10	-1.034826e+00	-3.451138e+01
1.820000e-06	-1.021241e-07	-4.001841e-10	-7.088301e-01	-3.310052e+01
1.830000e-06	-5.523460e-08	-3.790397e-10	-3.833763e-01	-3.164642e+01
1.840000e-06	-8.398221e-09	-3.562950e-10	-5.829098e-02	-3.014831e+01
1.850000e-06	3.849666e-08	-3.346718e-10	2.672004e-01	-2.860563e+01
1.860000e-06	8.539751e-08	-3.157646e-10	5.927333e-01	-2.701807e+01
1.870000e-06	1.323139e-07	-2.975117e-10	9.183739e-01	-2.538556e+01
1.880000e-06	1.792097e-07	-2.767422e-10	1.243872e+00	-2.370831e+01
1.890000e-06	2.259904e-07	-2.526981e-10	1.568571e+00	-2.198677e+01
1.900000e-06	2.727760e-07	-2.275044e-10	1.893304e+00	-2.022168e+01
1.910000e-06	3.195595e-07	-2.012810e-10	2.218022e+00	-1.841407e+01
1.920000e-06	3.663121e-07	-1.752186e-10	2.542526e+00	-1.656520e+01
1.930000e-06	4.130788e-07	-1.505780e-10	2.867127e+00	-1.467663e+01
1.940000e-06	4.598272e-07	-1.268537e-10	3.191602e+00	-1.275016e+01
1.950000e-06	5.065644e-07	-1.031654e-10	3.515999e+00	-1.078786e+01
1.960000e-06	5.531294e-07	-7.771872e-11	3.839201e+00	-8.792009e+00
1.970000e-06	5.996344e-07	-4.921942e-11	4.161986e+00	-6.765107e+00
1.980000e-06	6.461825e-07	-1.828405e-11	4.485071e+00	-4.709860e+00
1.990000e-06	6.926639e-07	1.342605e-11	4.807692e+00	-2.629144e+00
2.000000e-06	7.390983e-07	4.560205e-11	5.129987e+00	-5.259922e-01
2.010000e-06	7.854639e-07	7.554356e-11	5.451805e+00	1.596432e+00
2.020000e-06	8.317624e-07	1.049795e-10	5.773157e+00	3.734859e+00
2.030000e-06	8.779965e-07	1.345855e-10	6.094062e+00	5.885942e+00
2.040000e-06	9.242314e-07	1.639393e-10	6.414973e+00	8.046275e+00
2.050000e-06	9.704219e-07	1.918876e-10	6.735575e+00	1.021243e+01
2.060000e-06	1.016517e-06	2.199808e-10	7.055516e+00	1.238097e+01
2.070000e-06	1.062513e-06	2.490290e-10	7.374770e+00	1.454849e+01
2.080000e-06	1.108426e-06	2.770837e-10	7.693441e+00	1.671162e+01
2.090000e-06	1.154281e-06	3.061650e-10	8.011715e+00	1.886708e+01
2.100000e-06	1.200017e-06	3.380333e-10	8.329163e+00	2.101166e+01
2.110000e-06	1.245632e-06	3.700718e-10	8.645774e+00	2.314226e+01
2.120000e-06	1.291193e-06	4.001432e-10	8.962005e+00	2.525594e+01
2.130000e-06	1.336661e-06	4.301629e-10	9.277592e+00	2.734988e+01
2.140000e-06	1.382019e-06	4.577270e-10	9.592421e+00	2.942143e+01
2.150000e-06	1.427314e-06	4.817090e-10	9.906807e+00	3.146810e+01
2.160000e-06	1.472568e-06	5.062607e-10	1.022091e+01	3.348759e+01
2.170000e-06	1.517736e-06	5.300314e-10	1.053442e+01	3.547778e+01
2.180000e-06	1.562781e-06	5.544529e-10	1.084707e+01	3.743677e+01
2.190000e-06	1.607694e-06	5.818336e-10	1.115880e+01	3.936283e+01
2.200000e-06	1.652485e-06	6.118049e-10	1.146968e+01	4.125443e+01
2.210000e-06	1.697168e-06	6.418505e-10	1.177983e+01	4.311025e+01
2.220000e-06	1.741672e-06	6.694959e-10	1.208872e+01	4.492913e+01
2.230000e-06	1.785984e-06	6.937810e-10	1.239629e+01	4.671015e+01
2.240000e-06	1.830173e-06	7.124547e-10	1.270300e+01	4.845253e+01
2.250000e-06	1.874230e-06	7.270195e-10	1.300879e+01	5.015568e+01
2.260000e-06	1.918168e-06	7.437087e-10	1.331376e+01	5.181917e+01
2.270000e-06	1.962048e-06	7.661202e-10	1.361832e+01	5.344275e+01
2.280000e-06	2.005903e-06	7.922158e-10	1.392271e+01	5.502628e+01
2.290000e-06	2.049723e-06	8.184880e-10	1.422687e+01	5.656978e+01
2.300000e-06	2.093458e-06	8.427259e-10	1.453043e+01	5.807340e+01
2.310000e-06	2.137134e-06	8.631643e-10	1.483357e+01	5.953738e+01
2.320000e-06	2.180750e-06	8.805729e-10	1.513631e+01	6.096209e+01
2.330000e-06	2.224289e-06	8.960291e-10	1.543850e+01	6.234796e+01
2.340000e-06	2.267811e-06	9.088611e-10	1.574058e+01	6.369554e+01
2.350000e-06	2.311151e-06	9.223262e-10	1.604141e+01	6.500542e+01
2.360000e-06	2.354176e-06	9.383241e-10	1.634003e+01	6.627825e+01
2.370000e-06	2.396998e-06	9.565369e-10	1.663726e+01	6.751475e+01
2.380000e-06	2.439527e-06	9.755333e-10	1.693245e+01	6.871567e+01
2.390000e-06	2.481640e-06	9.924052e-10	1.722475e+01	6.988180e+01
2.400000e-06	2.523489e-06	1.005894e-09	1.751521e+01	7.101395e+01
2.410000e-06	2.564991e-06	1.018015e-09	1.780328e+01	7.211294e+01
2.420000e-06	2.606000e-06	1.029971e-09	1.808791e+01	7.317964e+01
2.430000e-06	2.646729e-06	1.043786e-09	1.837061e+01	7.421488e+01
2.440000e-06	2.687264e-06	1.060309e-09	1.865196e+01	7.521952e+01
2.450000e-06	2.727628e-06	1.077931e-09	1.893212e+01	7.619443e+01
2.460000e-06	2.767811e-06	1.094668e-09	1.921102e+01	7.714045e+01
2.470000e-06	2.807772e-06	1.108891e-09	1.948839e+01	7.805843e+01
2.480000e-06	2.847569e-06	1.121854e-09	1.976462e+01	7.894919e+01
2.490000e-06	2.887261e-06	1.133477e-09	2.004011e+01	7.981356e+01
2.500000e-06	2.926917e-06	1.143358e-09	2.031536e+01	8.065233e+01
2.510000e-06	2.966537e-06	1.155997e-09	2.059036e+01	8.146630e+01
2.520000e-06	3.006003e-06	1.168428e-09	2.086429e+01	8.225623e+01
2.530000e-06	3.045173e-06	1.180844e-09	2.113616e+01	8.302287e+01
2.540000e-06	3.084024e-06	1.194667e-09	2.140582e+01	8.376695e+01
2.550000e-06	3.122672e-06	1.207002e-09	2.167407e+01	8.448917e+01
2.560000e-06	3.161181e-06	1.216883e-09	2.194135e+01	8.519022e+01
2.570000e-06	3.199411e-06	1.224582e-09	2.220670e+01	8.587076e+01
2.580000e-06	3.237352e-06	1.232261e-09	2.247005e+01	8.653142e+01
2.590000e-06	3.275180e-06	1.240241e-09	2.273261e+01	8.717281e+01
2.600000e-06	3.312828e-06	1.250143e-09	2.299392e+01	8.779552e+01
2.610000e-06	3.350220e-06	1.262285e-09	2.325345e+01	8.840012e+01
2.620000e-06	3.387449e-06	1.277850e-09	2.351185e+01	8.898713e+01
2.630000e-06	3.424504e-06	1.292824e-09	2.376905e+01	8.955708e+01
2.640000e-06	3.461210e-06	1.303445e-09	2.402382e+01	9.011044e+01
2.650000e-06	3.497559e-06	1.308785e-09	2.427611e+01	9.064769e+01
2.660000e-06	3.533689e-06	1.310415e-09	2.452689e+01	9.116926e+01
2.670000e-06	3.569613e-06	1.311814e-09	2.477623e+01	9.167556e+01
2.680000e-06	3.605422e-06	1.315335e-09	2.502477e+01	9.216699e+01
2.690000e-06	3.641155e-06	1.323470e-09	2.527279e+01	9.264392e+01
2.700000e-06	3.676752e-06	1.334040e-09	2.551987e+01	9.310670e+01
2.710000e-06	3.712168e-06	1.341114e-09	2.576568e+01	9.355566e+01
2.720000e-06	3.747251e-06	1.345828e-09	2.600919e+01	9.399111e+01
2.730000e-06	3.781974e-06	1.350164e-09	2.625020e+01	9.441337e+01
2.740000e-06	3.816377e-06	1.354103e-09	2.648899e+01	9.482270e+01
2.750000e-06	3.850352e-06	1.357834e-09	2.672480e+01	9.521940e+01
2.760000e-06	3.883920e-06	1.362658e-09	2.695779e+01	9.560371e+01
2.770000e-06	3.917052e-06	1.370345e-09	2.718776e+01	9.597589e+01
2.780000e-06	3.949656e-06	1.380684e-09	2.741406e+01	9.633621e+01
2.790000e-06	3.981920e-06	1.390773e-09	2.763800e+01	9.668490e+01
2.800000e-06	4.014004e-06	1.399328e-09	2.786069e+01	9.702221e+01
2.810000e-06	4.045888e-06	1.403351e-09	2.808200e+01	9.734838e+01
2.820000e-06	4.077597e-06	1.405115e-09	2.830208e+01	9.766367e+01
2.830000e-06	4.109131e-06	1.408752e-09	2.852095e+01	9.796832e+01
2.840000e-06	4.140418e-06	1.410850e-09	2.873811e+01	9.826258e+01
2.850000e-06	4.171399e-06	1.414168e-09	2.895315e+01	9.854673e+01
2.860000e-06	4.202059e-06	1.419813e-09	2.916595e+01	9.882102e+01
2.870000e-06	4.232421e-06	1.426741e-09	2.937670e+01	9.908573e+01
2.880000e-06	4.262524e-06	1.430502e-09	2.958564e+01	9.934113e+01
2.890000e-06	4.292326e-06	1.433578e-09	2.979249e+01	9.958753e+01
2.900000e-06	4.321799e-06	1.437463e-09	2.999706e+01	9.982520e+01
