# Temperatura_=_-8.3
# Concentracion g/m^3_=_1620.0
# C_Vs_to_Am_M_A/Vsm_=_65563218390.804596
# pendiente_HvsI_1/m_=_3716.3
# ordenada_HvsI_A/m_=_1297.0
# frecuencia_Hz_=_135110.36390710203

Tiempo_(s)	Campo_(V.s)	Magnetizacion_(V.s)	Campo_(kA/m)	Magnetizacion_(A/m)
0.000000e+00	-5.522674e-06	-1.386605e-09	-3.837138e+01	-9.013551e+01
1.000000e-08	-5.522835e-06	-1.383658e-09	-3.837249e+01	-9.007149e+01
2.000000e-08	-5.522706e-06	-1.384228e-09	-3.837160e+01	-9.000644e+01
3.000000e-08	-5.522279e-06	-1.383659e-09	-3.836863e+01	-8.994004e+01
4.000000e-08	-5.521439e-06	-1.380609e-09	-3.836279e+01	-8.987189e+01
5.000000e-08	-5.520000e-06	-1.376580e-09	-3.835279e+01	-8.980163e+01
6.000000e-08	-5.518023e-06	-1.373214e-09	-3.833906e+01	-8.972887e+01
7.000000e-08	-5.515549e-06	-1.401653e-09	-3.832187e+01	-8.965322e+01
8.000000e-08	-5.512522e-06	-1.445039e-09	-3.830084e+01	-8.957433e+01
9.000000e-08	-5.509000e-06	-1.378642e-09	-3.827637e+01	-8.949186e+01
1.000000e-07	-5.505130e-06	-1.266189e-09	-3.824948e+01	-8.940550e+01
1.100000e-07	-5.500997e-06	-1.353523e-09	-3.822076e+01	-8.931500e+01
1.200000e-07	-5.496564e-06	-1.448424e-09	-3.818996e+01	-8.922014e+01
1.300000e-07	-5.491670e-06	-1.444369e-09	-3.815596e+01	-8.912077e+01
1.400000e-07	-5.486362e-06	-1.283426e-09	-3.811908e+01	-8.901680e+01
1.500000e-07	-5.480855e-06	-1.319867e-09	-3.808082e+01	-8.890821e+01
1.600000e-07	-5.475078e-06	-1.475059e-09	-3.804068e+01	-8.879504e+01
1.700000e-07	-5.468840e-06	-1.429244e-09	-3.799734e+01	-8.867739e+01
1.800000e-07	-5.462102e-06	-1.301169e-09	-3.795052e+01	-8.855547e+01
1.900000e-07	-5.455059e-06	-1.266537e-09	-3.790158e+01	-8.842951e+01
2.000000e-07	-5.447726e-06	-1.413798e-09	-3.785064e+01	-8.829983e+01
2.100000e-07	-5.440050e-06	-1.414691e-09	-3.779730e+01	-8.816680e+01
2.200000e-07	-5.432137e-06	-1.360886e-09	-3.774232e+01	-8.803084e+01
2.300000e-07	-5.423929e-06	-1.329745e-09	-3.768530e+01	-8.789242e+01
2.400000e-07	-5.415209e-06	-1.411292e-09	-3.762471e+01	-8.775204e+01
2.500000e-07	-5.405893e-06	-1.383518e-09	-3.755998e+01	-8.761021e+01
2.600000e-07	-5.396092e-06	-1.334569e-09	-3.749189e+01	-8.746748e+01
2.700000e-07	-5.385676e-06	-1.303827e-09	-3.741951e+01	-8.732438e+01
2.800000e-07	-5.374678e-06	-1.354419e-09	-3.734310e+01	-8.718144e+01
2.900000e-07	-5.363228e-06	-1.354707e-09	-3.726355e+01	-8.703918e+01
3.000000e-07	-5.351323e-06	-1.325238e-09	-3.718084e+01	-8.689806e+01
3.100000e-07	-5.339006e-06	-1.313669e-09	-3.709525e+01	-8.675853e+01
3.200000e-07	-5.326317e-06	-1.342323e-09	-3.700709e+01	-8.662096e+01
3.300000e-07	-5.313256e-06	-1.343050e-09	-3.691634e+01	-8.648568e+01
3.400000e-07	-5.299805e-06	-1.283526e-09	-3.682289e+01	-8.635295e+01
3.500000e-07	-5.285962e-06	-1.286863e-09	-3.672671e+01	-8.622294e+01
3.600000e-07	-5.271739e-06	-1.331360e-09	-3.662788e+01	-8.609577e+01
3.700000e-07	-5.257051e-06	-1.321205e-09	-3.652583e+01	-8.597145e+01
3.800000e-07	-5.241835e-06	-1.287334e-09	-3.642011e+01	-8.584993e+01
3.900000e-07	-5.226056e-06	-1.357181e-09	-3.631048e+01	-8.573107e+01
4.000000e-07	-5.209731e-06	-1.349830e-09	-3.619706e+01	-8.561464e+01
4.100000e-07	-5.193055e-06	-1.259685e-09	-3.608119e+01	-8.550037e+01
4.200000e-07	-5.176021e-06	-1.275619e-09	-3.596284e+01	-8.538788e+01
4.300000e-07	-5.158592e-06	-1.386259e-09	-3.584174e+01	-8.527676e+01
4.400000e-07	-5.140868e-06	-1.305013e-09	-3.571860e+01	-8.516655e+01
4.500000e-07	-5.122855e-06	-1.249582e-09	-3.559344e+01	-8.505672e+01
4.600000e-07	-5.104473e-06	-1.340715e-09	-3.546572e+01	-8.494674e+01
4.700000e-07	-5.085703e-06	-1.361362e-09	-3.533532e+01	-8.483604e+01
4.800000e-07	-5.066544e-06	-1.245683e-09	-3.520220e+01	-8.472406e+01
4.900000e-07	-5.047041e-06	-1.295637e-09	-3.506669e+01	-8.461024e+01
5.000000e-07	-5.027315e-06	-1.341311e-09	-3.492963e+01	-8.449403e+01
5.100000e-07	-5.007429e-06	-1.258092e-09	-3.479147e+01	-8.437491e+01
5.200000e-07	-4.987245e-06	-1.252696e-09	-3.465123e+01	-8.425241e+01
5.300000e-07	-4.966704e-06	-1.351798e-09	-3.450851e+01	-8.412612e+01
5.400000e-07	-4.945804e-06	-1.282763e-09	-3.436330e+01	-8.399566e+01
5.500000e-07	-4.924552e-06	-1.222013e-09	-3.421564e+01	-8.386074e+01
5.600000e-07	-4.902949e-06	-1.301390e-09	-3.406554e+01	-8.372113e+01
5.700000e-07	-4.881002e-06	-1.312076e-09	-3.391306e+01	-8.357669e+01
5.800000e-07	-4.858719e-06	-1.235375e-09	-3.375823e+01	-8.342736e+01
5.900000e-07	-4.836144e-06	-1.276368e-09	-3.360139e+01	-8.327314e+01
6.000000e-07	-4.813283e-06	-1.307730e-09	-3.344255e+01	-8.311414e+01
6.100000e-07	-4.790044e-06	-1.239822e-09	-3.328108e+01	-8.295051e+01
6.200000e-07	-4.766475e-06	-1.233359e-09	-3.311733e+01	-8.278252e+01
6.300000e-07	-4.742686e-06	-1.273464e-09	-3.295204e+01	-8.261044e+01
6.400000e-07	-4.718653e-06	-1.246510e-09	-3.278506e+01	-8.243467e+01
6.500000e-07	-4.694292e-06	-1.229105e-09	-3.261580e+01	-8.225559e+01
6.600000e-07	-4.669564e-06	-1.263562e-09	-3.244399e+01	-8.207365e+01
6.700000e-07	-4.644295e-06	-1.242788e-09	-3.226842e+01	-8.188934e+01
6.800000e-07	-4.618509e-06	-1.215053e-09	-3.208926e+01	-8.170312e+01
6.900000e-07	-4.592274e-06	-1.223774e-09	-3.190698e+01	-8.151549e+01
7.000000e-07	-4.565496e-06	-1.231495e-09	-3.172093e+01	-8.132692e+01
7.100000e-07	-4.538219e-06	-1.212517e-09	-3.153141e+01	-8.113786e+01
7.200000e-07	-4.510617e-06	-1.226710e-09	-3.133963e+01	-8.094872e+01
7.300000e-07	-4.482895e-06	-1.233113e-09	-3.114702e+01	-8.075987e+01
7.400000e-07	-4.455005e-06	-1.226245e-09	-3.095324e+01	-8.057162e+01
7.500000e-07	-4.426876e-06	-1.210314e-09	-3.075780e+01	-8.038422e+01
7.600000e-07	-4.398483e-06	-1.205697e-09	-3.056053e+01	-8.019786e+01
7.700000e-07	-4.369725e-06	-1.193089e-09	-3.036072e+01	-8.001262e+01
7.800000e-07	-4.340692e-06	-1.199212e-09	-3.015900e+01	-7.982855e+01
7.900000e-07	-4.311416e-06	-1.203385e-09	-2.995559e+01	-7.964558e+01
8.000000e-07	-4.281807e-06	-1.204584e-09	-2.974987e+01	-7.946359e+01
8.100000e-07	-4.251919e-06	-1.198754e-09	-2.954221e+01	-7.928236e+01
8.200000e-07	-4.221738e-06	-1.202401e-09	-2.933251e+01	-7.910161e+01
8.300000e-07	-4.191238e-06	-1.190879e-09	-2.912059e+01	-7.892100e+01
8.400000e-07	-4.160502e-06	-1.179341e-09	-2.890705e+01	-7.874013e+01
8.500000e-07	-4.129493e-06	-1.177363e-09	-2.869160e+01	-7.855854e+01
8.600000e-07	-4.098159e-06	-1.183454e-09	-2.847389e+01	-7.837576e+01
8.700000e-07	-4.066643e-06	-1.180698e-09	-2.825492e+01	-7.819126e+01
8.800000e-07	-4.034982e-06	-1.183197e-09	-2.803494e+01	-7.800452e+01
8.900000e-07	-4.003122e-06	-1.184599e-09	-2.781358e+01	-7.781503e+01
9.000000e-07	-3.971070e-06	-1.173173e-09	-2.759088e+01	-7.762226e+01
9.100000e-07	-3.938702e-06	-1.162464e-09	-2.736598e+01	-7.742573e+01
9.200000e-07	-3.906048e-06	-1.158238e-09	-2.713910e+01	-7.722500e+01
9.300000e-07	-3.873079e-06	-1.150154e-09	-2.691004e+01	-7.701967e+01
9.400000e-07	-3.839688e-06	-1.140140e-09	-2.667804e+01	-7.680939e+01
9.500000e-07	-3.805857e-06	-1.146079e-09	-2.644298e+01	-7.659389e+01
9.600000e-07	-3.771517e-06	-1.148356e-09	-2.620439e+01	-7.637299e+01
9.700000e-07	-3.736696e-06	-1.140507e-09	-2.596245e+01	-7.614656e+01
9.800000e-07	-3.701458e-06	-1.132254e-09	-2.571762e+01	-7.591458e+01
9.900000e-07	-3.665952e-06	-1.132546e-09	-2.547092e+01	-7.567710e+01
1.000000e-06	-3.630338e-06	-1.123193e-09	-2.522348e+01	-7.543427e+01
1.010000e-06	-3.594620e-06	-1.116470e-09	-2.497531e+01	-7.518630e+01
1.020000e-06	-3.558730e-06	-1.113333e-09	-2.472595e+01	-7.493351e+01
1.030000e-06	-3.522664e-06	-1.112681e-09	-2.447536e+01	-7.467626e+01
1.040000e-06	-3.486444e-06	-1.104001e-09	-2.422371e+01	-7.441499e+01
1.050000e-06	-3.450052e-06	-1.102470e-09	-2.397086e+01	-7.415018e+01
1.060000e-06	-3.413343e-06	-1.098483e-09	-2.371580e+01	-7.388237e+01
1.070000e-06	-3.376280e-06	-1.092008e-09	-2.345829e+01	-7.361209e+01
1.080000e-06	-3.338978e-06	-1.084648e-09	-2.319912e+01	-7.333993e+01
1.090000e-06	-3.301484e-06	-1.084415e-09	-2.293861e+01	-7.306643e+01
1.100000e-06	-3.263772e-06	-1.079182e-09	-2.267659e+01	-7.279214e+01
1.110000e-06	-3.225776e-06	-1.073705e-09	-2.241259e+01	-7.251757e+01
1.120000e-06	-3.187502e-06	-1.065965e-09	-2.214667e+01	-7.224319e+01
1.130000e-06	-3.149018e-06	-1.056726e-09	-2.187928e+01	-7.196939e+01
1.140000e-06	-3.110387e-06	-1.045889e-09	-2.161088e+01	-7.169652e+01
1.150000e-06	-3.071581e-06	-1.044087e-09	-2.134126e+01	-7.142479e+01
1.160000e-06	-3.032563e-06	-1.045885e-09	-2.107015e+01	-7.115437e+01
1.170000e-06	-2.993339e-06	-1.044845e-09	-2.079763e+01	-7.088529e+01
1.180000e-06	-2.953909e-06	-1.042206e-09	-2.052367e+01	-7.061749e+01
1.190000e-06	-2.914339e-06	-1.039798e-09	-2.024874e+01	-7.035077e+01
1.200000e-06	-2.874664e-06	-1.033099e-09	-1.997308e+01	-7.008485e+01
1.210000e-06	-2.834835e-06	-1.023057e-09	-1.969635e+01	-6.981931e+01
1.220000e-06	-2.794822e-06	-1.015932e-09	-1.941834e+01	-6.955362e+01
1.230000e-06	-2.754672e-06	-1.009465e-09	-1.913938e+01	-6.928715e+01
1.240000e-06	-2.714402e-06	-1.002979e-09	-1.885959e+01	-6.901917e+01
1.250000e-06	-2.673915e-06	-9.956646e-10	-1.857828e+01	-6.874886e+01
1.260000e-06	-2.633230e-06	-9.918880e-10	-1.829560e+01	-6.847533e+01
1.270000e-06	-2.592393e-06	-9.853333e-10	-1.801187e+01	-6.819761e+01
1.280000e-06	-2.551263e-06	-9.780450e-10	-1.772610e+01	-6.791471e+01
1.290000e-06	-2.509790e-06	-9.723309e-10	-1.743795e+01	-6.762558e+01
1.300000e-06	-2.467983e-06	-9.691932e-10	-1.714747e+01	-6.732916e+01
1.310000e-06	-2.425840e-06	-9.620177e-10	-1.685467e+01	-6.702440e+01
1.320000e-06	-2.383427e-06	-9.538762e-10	-1.655998e+01	-6.671027e+01
1.330000e-06	-2.340831e-06	-9.451762e-10	-1.626402e+01	-6.638577e+01
1.340000e-06	-2.297997e-06	-9.379238e-10	-1.596642e+01	-6.604995e+01
1.350000e-06	-2.254795e-06	-9.312394e-10	-1.566624e+01	-6.570192e+01
1.360000e-06	-2.211337e-06	-9.294742e-10	-1.536430e+01	-6.534090e+01
1.370000e-06	-2.167763e-06	-9.266274e-10	-1.506155e+01	-6.496616e+01
1.380000e-06	-2.124098e-06	-9.224504e-10	-1.475817e+01	-6.457711e+01
1.390000e-06	-2.080349e-06	-9.149566e-10	-1.445421e+01	-6.417325e+01
1.400000e-06	-2.036495e-06	-9.034243e-10	-1.414951e+01	-6.375420e+01
1.410000e-06	-1.992543e-06	-8.885804e-10	-1.384413e+01	-6.331972e+01
1.420000e-06	-1.948557e-06	-8.769236e-10	-1.353852e+01	-6.286966e+01
1.430000e-06	-1.904558e-06	-8.687737e-10	-1.323281e+01	-6.240400e+01
1.440000e-06	-1.860510e-06	-8.644070e-10	-1.292676e+01	-6.192285e+01
1.450000e-06	-1.816387e-06	-8.615080e-10	-1.262021e+01	-6.142641e+01
1.460000e-06	-1.772078e-06	-8.582075e-10	-1.231234e+01	-6.091497e+01
1.470000e-06	-1.727602e-06	-8.498070e-10	-1.200333e+01	-6.038893e+01
1.480000e-06	-1.682980e-06	-8.374740e-10	-1.169330e+01	-5.984874e+01
1.490000e-06	-1.638217e-06	-8.280120e-10	-1.138228e+01	-5.929493e+01
1.500000e-06	-1.593307e-06	-8.191653e-10	-1.107025e+01	-5.872805e+01
1.510000e-06	-1.548221e-06	-8.093342e-10	-1.075699e+01	-5.814867e+01
1.520000e-06	-1.503035e-06	-8.008658e-10	-1.044304e+01	-5.755738e+01
1.530000e-06	-1.457735e-06	-7.928564e-10	-1.012830e+01	-5.695475e+01
1.540000e-06	-1.412404e-06	-7.839251e-10	-9.813341e+00	-5.634130e+01
1.550000e-06	-1.366973e-06	-7.725609e-10	-9.497688e+00	-5.571750e+01
1.560000e-06	-1.321390e-06	-7.600855e-10	-9.180979e+00	-5.508376e+01
1.570000e-06	-1.275740e-06	-7.451263e-10	-8.863806e+00	-5.444039e+01
1.580000e-06	-1.230021e-06	-7.302118e-10	-8.546147e+00	-5.378759e+01
1.590000e-06	-1.184230e-06	-7.202256e-10	-8.227998e+00	-5.312545e+01
1.600000e-06	-1.138377e-06	-7.108757e-10	-7.909408e+00	-5.245392e+01
1.610000e-06	-1.092458e-06	-7.012923e-10	-7.590364e+00	-5.177281e+01
1.620000e-06	-1.046446e-06	-6.891309e-10	-7.270675e+00	-5.108177e+01
1.630000e-06	-1.000341e-06	-6.752062e-10	-6.950342e+00	-5.038032e+01
1.640000e-06	-9.542156e-07	-6.614068e-10	-6.629862e+00	-4.966780e+01
1.650000e-06	-9.080471e-07	-6.524162e-10	-6.309084e+00	-4.894339e+01
1.660000e-06	-8.617614e-07	-6.447767e-10	-5.987492e+00	-4.820613e+01
1.670000e-06	-8.154173e-07	-6.371760e-10	-5.665495e+00	-4.745491e+01
1.680000e-06	-7.690703e-07	-6.272252e-10	-5.343478e+00	-4.668848e+01
1.690000e-06	-7.226508e-07	-6.167681e-10	-5.020956e+00	-4.590545e+01
1.700000e-06	-6.761430e-07	-6.018241e-10	-4.697821e+00	-4.510434e+01
1.710000e-06	-6.296334e-07	-5.834688e-10	-4.374674e+00	-4.428354e+01
1.720000e-06	-5.831164e-07	-5.650872e-10	-4.051476e+00	-4.344138e+01
1.730000e-06	-5.365939e-07	-5.486596e-10	-3.728239e+00	-4.257612e+01
1.740000e-06	-4.900283e-07	-5.350145e-10	-3.404702e+00	-4.168597e+01
1.750000e-06	-4.433572e-07	-5.240075e-10	-3.080433e+00	-4.076914e+01
1.760000e-06	-3.966142e-07	-5.115262e-10	-2.755664e+00	-3.982382e+01
1.770000e-06	-3.498097e-07	-4.956634e-10	-2.430468e+00	-3.884822e+01
1.780000e-06	-3.030051e-07	-4.781390e-10	-2.105271e+00	-3.784063e+01
1.790000e-06	-2.562088e-07	-4.613991e-10	-1.780131e+00	-3.679937e+01
1.800000e-06	-2.093216e-07	-4.454087e-10	-1.454361e+00	-3.572288e+01
1.810000e-06	-1.624553e-07	-4.299104e-10	-1.128735e+00	-3.460969e+01
1.820000e-06	-1.156081e-07	-4.169257e-10	-8.032417e-01	-3.345847e+01
1.830000e-06	-6.870871e-08	-4.032509e-10	-4.773861e-01	-3.226804e+01
1.840000e-06	-2.186902e-08	-3.869274e-10	-1.519453e-01	-3.103739e+01
1.850000e-06	2.491931e-08	-3.672827e-10	1.731386e-01	-2.976568e+01
1.860000e-06	7.172248e-08	-3.476351e-10	4.983256e-01	-2.845227e+01
1.870000e-06	1.185289e-07	-3.263793e-10	8.235354e-01	-2.709673e+01
1.880000e-06	1.653330e-07	-3.048861e-10	1.148729e+00	-2.569884e+01
1.890000e-06	2.121951e-07	-2.847695e-10	1.474325e+00	-2.425860e+01
1.900000e-06	2.589783e-07	-2.649781e-10	1.799374e+00	-2.277623e+01
1.910000e-06	3.057072e-07	-2.444944e-10	2.124044e+00	-2.125217e+01
1.920000e-06	3.524935e-07	-2.230262e-10	2.449114e+00	-1.968711e+01
1.930000e-06	3.992083e-07	-2.000839e-10	2.773687e+00	-1.808194e+01
1.940000e-06	4.459106e-07	-1.769546e-10	3.098173e+00	-1.643778e+01
1.950000e-06	4.925868e-07	-1.532944e-10	3.422479e+00	-1.475595e+01
1.960000e-06	5.391051e-07	-1.282304e-10	3.745686e+00	-1.303799e+01
1.970000e-06	5.855539e-07	-1.009151e-10	4.068411e+00	-1.128561e+01
1.980000e-06	6.320178e-07	-7.656601e-11	4.391240e+00	-9.500734e+00
1.990000e-06	6.784580e-07	-5.560627e-11	4.713906e+00	-7.685424e+00
2.000000e-06	7.248578e-07	-3.350774e-11	5.036291e+00	-5.841912e+00
2.010000e-06	7.711724e-07	-9.260131e-12	5.358083e+00	-3.972567e+00
2.020000e-06	8.174117e-07	1.771572e-11	5.679352e+00	-2.079882e+00
2.030000e-06	8.636096e-07	4.797108e-11	6.000334e+00	-1.664554e-01
2.040000e-06	9.097854e-07	7.847615e-11	6.321162e+00	1.765021e+00
2.050000e-06	9.559332e-07	1.068403e-10	6.641796e+00	3.711785e+00
2.060000e-06	1.002039e-06	1.326772e-10	6.962135e+00	5.671013e+00
2.070000e-06	1.048090e-06	1.575179e-10	7.282095e+00	7.639847e+00
2.080000e-06	1.094057e-06	1.817392e-10	7.601476e+00	9.615404e+00
2.090000e-06	1.139989e-06	2.055998e-10	7.920613e+00	1.159479e+01
2.100000e-06	1.185848e-06	2.318688e-10	8.239237e+00	1.357514e+01
2.110000e-06	1.231573e-06	2.601392e-10	8.556929e+00	1.555358e+01
2.120000e-06	1.277201e-06	2.886857e-10	8.873952e+00	1.752731e+01
2.130000e-06	1.322782e-06	3.184846e-10	9.190649e+00	1.949356e+01
2.140000e-06	1.368284e-06	3.473546e-10	9.506796e+00	2.144965e+01
2.150000e-06	1.413663e-06	3.714301e-10	9.822089e+00	2.339294e+01
2.160000e-06	1.458871e-06	3.930252e-10	1.013619e+01	2.532093e+01
2.170000e-06	1.503911e-06	4.149691e-10	1.044913e+01	2.723119e+01
2.180000e-06	1.548886e-06	4.395484e-10	1.076162e+01	2.912140e+01
2.190000e-06	1.593767e-06	4.658758e-10	1.107345e+01	3.098937e+01
2.200000e-06	1.638527e-06	4.948487e-10	1.138444e+01	3.283303e+01
2.210000e-06	1.683152e-06	5.245369e-10	1.169449e+01	3.465044e+01
2.220000e-06	1.727659e-06	5.525923e-10	1.200372e+01	3.643981e+01
2.230000e-06	1.772041e-06	5.766576e-10	1.231209e+01	3.819947e+01
2.240000e-06	1.816345e-06	5.960573e-10	1.261991e+01	3.992791e+01
2.250000e-06	1.860576e-06	6.134302e-10	1.292723e+01	4.162377e+01
2.260000e-06	1.904663e-06	6.318814e-10	1.323354e+01	4.328584e+01
2.270000e-06	1.948683e-06	6.530849e-10	1.353939e+01	4.491303e+01
2.280000e-06	1.992629e-06	6.765522e-10	1.384473e+01	4.650443e+01
2.290000e-06	2.036483e-06	7.001256e-10	1.414942e+01	4.805926e+01
2.300000e-06	2.080261e-06	7.238914e-10	1.445359e+01	4.957690e+01
2.310000e-06	2.123986e-06	7.458159e-10	1.475739e+01	5.105685e+01
2.320000e-06	2.167637e-06	7.641836e-10	1.506068e+01	5.249876e+01
2.330000e-06	2.211106e-06	7.796733e-10	1.536270e+01	5.390240e+01
2.340000e-06	2.254347e-06	7.947845e-10	1.566314e+01	5.526769e+01
2.350000e-06	2.297395e-06	8.124015e-10	1.596223e+01	5.659464e+01
2.360000e-06	2.340291e-06	8.313897e-10	1.626027e+01	5.788339e+01
2.370000e-06	2.382946e-06	8.499409e-10	1.655664e+01	5.913420e+01
2.380000e-06	2.425158e-06	8.676987e-10	1.684992e+01	6.034739e+01
2.390000e-06	2.466970e-06	8.843069e-10	1.714044e+01	6.152341e+01
2.400000e-06	2.508608e-06	8.985337e-10	1.742973e+01	6.266278e+01
2.410000e-06	2.550007e-06	9.120984e-10	1.771737e+01	6.376609e+01
2.420000e-06	2.591069e-06	9.257278e-10	1.800267e+01	6.483400e+01
2.430000e-06	2.631914e-06	9.400802e-10	1.828646e+01	6.586722e+01
2.440000e-06	2.672550e-06	9.553973e-10	1.856880e+01	6.686653e+01
2.450000e-06	2.712940e-06	9.712479e-10	1.884943e+01	6.783274e+01
2.460000e-06	2.753161e-06	9.869119e-10	1.912888e+01	6.876668e+01
2.470000e-06	2.793270e-06	1.001129e-09	1.940755e+01	6.966924e+01
2.480000e-06	2.833220e-06	1.013674e-09	1.968513e+01	7.054129e+01
2.490000e-06	2.873061e-06	1.025488e-09	1.996194e+01	7.138373e+01
2.500000e-06	2.912783e-06	1.035624e-09	2.023793e+01	7.219748e+01
2.510000e-06	2.952338e-06	1.046976e-09	2.051276e+01	7.298343e+01
2.520000e-06	2.991727e-06	1.059086e-09	2.078643e+01	7.374248e+01
2.530000e-06	3.030895e-06	1.070709e-09	2.105856e+01	7.447553e+01
2.540000e-06	3.069821e-06	1.083232e-09	2.132902e+01	7.518344e+01
2.550000e-06	3.108503e-06	1.095984e-09	2.159779e+01	7.586706e+01
2.560000e-06	3.146978e-06	1.105445e-09	2.186511e+01	7.652724e+01
2.570000e-06	3.185260e-06	1.109979e-09	2.213109e+01	7.716476e+01
2.580000e-06	3.223328e-06	1.113912e-09	2.239559e+01	7.778042e+01
2.590000e-06	3.261236e-06	1.119128e-09	2.265897e+01	7.837497e+01
2.600000e-06	3.299003e-06	1.126687e-09	2.292138e+01	7.894912e+01
2.610000e-06	3.336484e-06	1.136909e-09	2.318179e+01	7.950358e+01
2.620000e-06	3.373660e-06	1.149709e-09	2.344009e+01	8.003900e+01
2.630000e-06	3.410623e-06	1.161231e-09	2.369691e+01	8.055602e+01
2.640000e-06	3.447384e-06	1.169505e-09	2.395232e+01	8.105524e+01
2.650000e-06	3.483880e-06	1.175981e-09	2.420589e+01	8.153724e+01
2.660000e-06	3.520086e-06	1.180268e-09	2.445745e+01	8.200257e+01
2.670000e-06	3.556078e-06	1.183614e-09	2.470752e+01	8.245176e+01
2.680000e-06	3.591946e-06	1.188710e-09	2.495673e+01	8.288530e+01
2.690000e-06	3.627713e-06	1.197332e-09	2.520524e+01	8.330366e+01
2.700000e-06	3.663355e-06	1.207528e-09	2.545288e+01	8.370731e+01
2.710000e-06	3.698787e-06	1.213880e-09	2.569906e+01	8.409666e+01
2.720000e-06	3.733996e-06	1.215658e-09	2.594369e+01	8.447212e+01
2.730000e-06	3.768890e-06	1.216211e-09	2.618613e+01	8.483410e+01
2.740000e-06	3.803372e-06	1.217729e-09	2.642571e+01	8.518295e+01
2.750000e-06	3.837385e-06	1.221679e-09	2.666203e+01	8.551904e+01
2.760000e-06	3.870844e-06	1.228013e-09	2.689451e+01	8.584270e+01
2.770000e-06	3.903880e-06	1.235783e-09	2.712404e+01	8.615425e+01
2.780000e-06	3.936531e-06	1.243130e-09	2.735090e+01	8.645400e+01
2.790000e-06	3.968857e-06	1.248375e-09	2.757550e+01	8.674224e+01
2.800000e-06	4.001011e-06	1.251716e-09	2.779890e+01	8.701924e+01
2.810000e-06	4.033018e-06	1.252818e-09	2.802129e+01	8.728527e+01
2.820000e-06	4.064796e-06	1.252461e-09	2.824208e+01	8.754058e+01
2.830000e-06	4.096258e-06	1.253913e-09	2.846068e+01	8.778540e+01
2.840000e-06	4.127498e-06	1.258177e-09	2.867773e+01	8.801997e+01
2.850000e-06	4.158501e-06	1.263137e-09	2.889314e+01	8.824449e+01
2.860000e-06	4.189175e-06	1.269034e-09	2.910626e+01	8.845917e+01
2.870000e-06	4.219602e-06	1.276191e-09	2.931767e+01	8.866421e+01
2.880000e-06	4.249788e-06	1.281602e-09	2.952740e+01	8.885980e+01
2.890000e-06	4.279691e-06	1.282508e-09	2.973517e+01	8.904613e+01
2.900000e-06	4.309297e-06	1.281222e-09	2.994087e+01	8.922337e+01
