# Temperatura_=_6.66
# Concentracion g/m^3_=_1620.0
# C_Vs_to_Am_M_A/Vsm_=_65563218390.804596
# pendiente_HvsI_1/m_=_3716.3
# ordenada_HvsI_A/m_=_1297.0
# frecuencia_Hz_=_135109.72849155785

Tiempo_(s)	Campo_(V.s)	Magnetizacion_(V.s)	Campo_(kA/m)	Magnetizacion_(A/m)
0.000000e+00	-5.514091e-06	-1.599360e-09	-3.837054e+01	-1.032168e+02
1.000000e-08	-5.514185e-06	-1.600145e-09	-3.837119e+01	-1.031934e+02
2.000000e-08	-5.514007e-06	-1.604385e-09	-3.836996e+01	-1.031704e+02
3.000000e-08	-5.513384e-06	-1.608305e-09	-3.836562e+01	-1.031473e+02
4.000000e-08	-5.512130e-06	-1.606893e-09	-3.835689e+01	-1.031233e+02
5.000000e-08	-5.510265e-06	-1.594563e-09	-3.834392e+01	-1.030979e+02
6.000000e-08	-5.507830e-06	-1.576957e-09	-3.832697e+01	-1.030703e+02
7.000000e-08	-5.504898e-06	-1.598071e-09	-3.830657e+01	-1.030401e+02
8.000000e-08	-5.501498e-06	-1.657931e-09	-3.828291e+01	-1.030065e+02
9.000000e-08	-5.497568e-06	-1.658492e-09	-3.825556e+01	-1.029690e+02
1.000000e-07	-5.493244e-06	-1.587981e-09	-3.822547e+01	-1.029270e+02
1.100000e-07	-5.488776e-06	-1.579541e-09	-3.819438e+01	-1.028800e+02
1.200000e-07	-5.484134e-06	-1.588477e-09	-3.816208e+01	-1.028278e+02
1.300000e-07	-5.479154e-06	-1.580966e-09	-3.812743e+01	-1.027698e+02
1.400000e-07	-5.473845e-06	-1.539097e-09	-3.809049e+01	-1.027058e+02
1.500000e-07	-5.468157e-06	-1.563763e-09	-3.805090e+01	-1.026356e+02
1.600000e-07	-5.461947e-06	-1.643324e-09	-3.800769e+01	-1.025591e+02
1.700000e-07	-5.455210e-06	-1.636476e-09	-3.796081e+01	-1.024763e+02
1.800000e-07	-5.448139e-06	-1.593344e-09	-3.791160e+01	-1.023872e+02
1.900000e-07	-5.440836e-06	-1.570413e-09	-3.786079e+01	-1.022918e+02
2.000000e-07	-5.433236e-06	-1.568448e-09	-3.780790e+01	-1.021904e+02
2.100000e-07	-5.425344e-06	-1.543723e-09	-3.775298e+01	-1.020832e+02
2.200000e-07	-5.417224e-06	-1.534517e-09	-3.769648e+01	-1.019706e+02
2.300000e-07	-5.408767e-06	-1.573040e-09	-3.763763e+01	-1.018528e+02
2.400000e-07	-5.399657e-06	-1.594319e-09	-3.757424e+01	-1.017303e+02
2.500000e-07	-5.389823e-06	-1.555942e-09	-3.750580e+01	-1.016035e+02
2.600000e-07	-5.379395e-06	-1.505394e-09	-3.743324e+01	-1.014728e+02
2.700000e-07	-5.368423e-06	-1.497888e-09	-3.735689e+01	-1.013388e+02
2.800000e-07	-5.357036e-06	-1.514424e-09	-3.727765e+01	-1.012018e+02
2.900000e-07	-5.345344e-06	-1.521195e-09	-3.719629e+01	-1.010623e+02
3.000000e-07	-5.333292e-06	-1.504224e-09	-3.711243e+01	-1.009208e+02
3.100000e-07	-5.320806e-06	-1.493800e-09	-3.702554e+01	-1.007777e+02
3.200000e-07	-5.307881e-06	-1.511165e-09	-3.693560e+01	-1.006333e+02
3.300000e-07	-5.294579e-06	-1.509889e-09	-3.684304e+01	-1.004881e+02
3.400000e-07	-5.280831e-06	-1.478010e-09	-3.674737e+01	-1.003422e+02
3.500000e-07	-5.266673e-06	-1.471012e-09	-3.664885e+01	-1.001960e+02
3.600000e-07	-5.252288e-06	-1.503056e-09	-3.654875e+01	-1.000497e+02
3.700000e-07	-5.237338e-06	-1.491049e-09	-3.644472e+01	-9.990335e+01
3.800000e-07	-5.221650e-06	-1.480546e-09	-3.633555e+01	-9.975708e+01
3.900000e-07	-5.205484e-06	-1.515801e-09	-3.622306e+01	-9.961093e+01
4.000000e-07	-5.188956e-06	-1.507107e-09	-3.610805e+01	-9.946486e+01
4.100000e-07	-5.172102e-06	-1.446798e-09	-3.599076e+01	-9.931881e+01
4.200000e-07	-5.154887e-06	-1.477148e-09	-3.587097e+01	-9.917265e+01
4.300000e-07	-5.137365e-06	-1.533425e-09	-3.574904e+01	-9.902623e+01
4.400000e-07	-5.119565e-06	-1.480109e-09	-3.562518e+01	-9.887935e+01
4.500000e-07	-5.101406e-06	-1.454329e-09	-3.549882e+01	-9.873178e+01
4.600000e-07	-5.082823e-06	-1.522617e-09	-3.536951e+01	-9.858327e+01
4.700000e-07	-5.063765e-06	-1.499045e-09	-3.523689e+01	-9.843355e+01
4.800000e-07	-5.044356e-06	-1.430968e-09	-3.510183e+01	-9.828235e+01
4.900000e-07	-5.024749e-06	-1.477143e-09	-3.496539e+01	-9.812938e+01
5.000000e-07	-5.004937e-06	-1.497815e-09	-3.482752e+01	-9.797438e+01
5.100000e-07	-4.984900e-06	-1.419026e-09	-3.468809e+01	-9.781708e+01
5.200000e-07	-4.964672e-06	-1.440806e-09	-3.454734e+01	-9.765722e+01
5.300000e-07	-4.944055e-06	-1.510323e-09	-3.440387e+01	-9.749460e+01
5.400000e-07	-4.922966e-06	-1.454190e-09	-3.425712e+01	-9.732901e+01
5.500000e-07	-4.901509e-06	-1.416020e-09	-3.410781e+01	-9.716028e+01
5.600000e-07	-4.879761e-06	-1.478550e-09	-3.395647e+01	-9.698827e+01
5.700000e-07	-4.857717e-06	-1.461203e-09	-3.380308e+01	-9.681289e+01
5.800000e-07	-4.835263e-06	-1.403238e-09	-3.364683e+01	-9.663408e+01
5.900000e-07	-4.812470e-06	-1.444765e-09	-3.348822e+01	-9.645179e+01
6.000000e-07	-4.789345e-06	-1.458328e-09	-3.332730e+01	-9.626605e+01
6.100000e-07	-4.765879e-06	-1.398504e-09	-3.316401e+01	-9.607688e+01
6.200000e-07	-4.742238e-06	-1.409022e-09	-3.299950e+01	-9.588435e+01
6.300000e-07	-4.718388e-06	-1.444555e-09	-3.283353e+01	-9.568857e+01
6.400000e-07	-4.694124e-06	-1.411166e-09	-3.266469e+01	-9.548963e+01
6.500000e-07	-4.669452e-06	-1.407882e-09	-3.249301e+01	-9.528769e+01
6.600000e-07	-4.644438e-06	-1.440563e-09	-3.231894e+01	-9.508287e+01
6.700000e-07	-4.618969e-06	-1.417357e-09	-3.214172e+01	-9.487534e+01
6.800000e-07	-4.592886e-06	-1.391103e-09	-3.196021e+01	-9.466525e+01
6.900000e-07	-4.566223e-06	-1.411179e-09	-3.177467e+01	-9.445274e+01
7.000000e-07	-4.539090e-06	-1.404580e-09	-3.158587e+01	-9.423797e+01
7.100000e-07	-4.511592e-06	-1.383836e-09	-3.139452e+01	-9.402104e+01
7.200000e-07	-4.483910e-06	-1.399785e-09	-3.120189e+01	-9.380208e+01
7.300000e-07	-4.456152e-06	-1.412494e-09	-3.100873e+01	-9.358116e+01
7.400000e-07	-4.428275e-06	-1.396168e-09	-3.081475e+01	-9.335834e+01
7.500000e-07	-4.400146e-06	-1.394099e-09	-3.061900e+01	-9.313365e+01
7.600000e-07	-4.371718e-06	-1.394799e-09	-3.042118e+01	-9.290708e+01
7.700000e-07	-4.342925e-06	-1.377577e-09	-3.022083e+01	-9.267861e+01
7.800000e-07	-4.313753e-06	-1.371900e-09	-3.001783e+01	-9.244816e+01
7.900000e-07	-4.284288e-06	-1.380610e-09	-2.981279e+01	-9.221564e+01
8.000000e-07	-4.254563e-06	-1.372182e-09	-2.960595e+01	-9.198090e+01
8.100000e-07	-4.224616e-06	-1.361510e-09	-2.939756e+01	-9.174380e+01
8.200000e-07	-4.194397e-06	-1.362738e-09	-2.918728e+01	-9.150415e+01
8.300000e-07	-4.163876e-06	-1.355211e-09	-2.897489e+01	-9.126173e+01
8.400000e-07	-4.132998e-06	-1.343027e-09	-2.876002e+01	-9.101632e+01
8.500000e-07	-4.101808e-06	-1.350348e-09	-2.854298e+01	-9.076769e+01
8.600000e-07	-4.070417e-06	-1.357786e-09	-2.832454e+01	-9.051558e+01
8.700000e-07	-4.038827e-06	-1.346526e-09	-2.810472e+01	-9.025975e+01
8.800000e-07	-4.007086e-06	-1.342472e-09	-2.788384e+01	-8.999993e+01
8.900000e-07	-3.975213e-06	-1.342490e-09	-2.766205e+01	-8.973590e+01
9.000000e-07	-3.943137e-06	-1.327474e-09	-2.743884e+01	-8.946742e+01
9.100000e-07	-3.910683e-06	-1.315155e-09	-2.721301e+01	-8.919428e+01
9.200000e-07	-3.877810e-06	-1.316751e-09	-2.698426e+01	-8.891630e+01
9.300000e-07	-3.844549e-06	-1.312482e-09	-2.675281e+01	-8.863330e+01
9.400000e-07	-3.810756e-06	-1.304985e-09	-2.651765e+01	-8.834517e+01
9.500000e-07	-3.776425e-06	-1.308148e-09	-2.627876e+01	-8.805179e+01
9.600000e-07	-3.741650e-06	-1.304220e-09	-2.603677e+01	-8.775312e+01
9.700000e-07	-3.706531e-06	-1.286017e-09	-2.579239e+01	-8.744911e+01
9.800000e-07	-3.671193e-06	-1.278400e-09	-2.554649e+01	-8.713979e+01
9.900000e-07	-3.635684e-06	-1.278889e-09	-2.529939e+01	-8.682521e+01
1.000000e-06	-3.600080e-06	-1.270142e-09	-2.505164e+01	-8.650544e+01
1.010000e-06	-3.564387e-06	-1.262031e-09	-2.480326e+01	-8.618060e+01
1.020000e-06	-3.528540e-06	-1.265218e-09	-2.455382e+01	-8.585085e+01
1.030000e-06	-3.492462e-06	-1.261985e-09	-2.430276e+01	-8.551635e+01
1.040000e-06	-3.456104e-06	-1.254645e-09	-2.404976e+01	-8.517731e+01
1.050000e-06	-3.419473e-06	-1.253210e-09	-2.379486e+01	-8.483394e+01
1.060000e-06	-3.382527e-06	-1.247893e-09	-2.353777e+01	-8.448646e+01
1.070000e-06	-3.345307e-06	-1.236613e-09	-2.327877e+01	-8.413511e+01
1.080000e-06	-3.307864e-06	-1.231378e-09	-2.301821e+01	-8.378011e+01
1.090000e-06	-3.270175e-06	-1.227227e-09	-2.275595e+01	-8.342169e+01
1.100000e-06	-3.232270e-06	-1.214550e-09	-2.249218e+01	-8.306005e+01
1.110000e-06	-3.194194e-06	-1.203337e-09	-2.222722e+01	-8.269538e+01
1.120000e-06	-3.155965e-06	-1.197743e-09	-2.196120e+01	-8.232784e+01
1.130000e-06	-3.117528e-06	-1.188777e-09	-2.169374e+01	-8.195754e+01
1.140000e-06	-3.078784e-06	-1.181242e-09	-2.142413e+01	-8.158458e+01
1.150000e-06	-3.039846e-06	-1.180014e-09	-2.115318e+01	-8.120898e+01
1.160000e-06	-3.000754e-06	-1.177289e-09	-2.088115e+01	-8.083074e+01
1.170000e-06	-2.961409e-06	-1.169526e-09	-2.060736e+01	-8.044979e+01
1.180000e-06	-2.921928e-06	-1.163808e-09	-2.033263e+01	-8.006602e+01
1.190000e-06	-2.882344e-06	-1.158171e-09	-2.005718e+01	-7.967925e+01
1.200000e-06	-2.842610e-06	-1.145545e-09	-1.978068e+01	-7.928924e+01
1.210000e-06	-2.802756e-06	-1.134846e-09	-1.950335e+01	-7.889570e+01
1.220000e-06	-2.762774e-06	-1.129499e-09	-1.922514e+01	-7.849828e+01
1.230000e-06	-2.722631e-06	-1.122488e-09	-1.894579e+01	-7.809658e+01
1.240000e-06	-2.682379e-06	-1.114052e-09	-1.866570e+01	-7.769015e+01
1.250000e-06	-2.641923e-06	-1.108959e-09	-1.838418e+01	-7.727849e+01
1.260000e-06	-2.601084e-06	-1.104494e-09	-1.809999e+01	-7.686106e+01
1.270000e-06	-2.559872e-06	-1.096504e-09	-1.781321e+01	-7.643728e+01
1.280000e-06	-2.518434e-06	-1.086309e-09	-1.752486e+01	-7.600657e+01
1.290000e-06	-2.476745e-06	-1.076207e-09	-1.723476e+01	-7.556829e+01
1.300000e-06	-2.434773e-06	-1.063097e-09	-1.694270e+01	-7.512182e+01
1.310000e-06	-2.392534e-06	-1.049741e-09	-1.664877e+01	-7.466652e+01
1.320000e-06	-2.350009e-06	-1.039816e-09	-1.635285e+01	-7.420176e+01
1.330000e-06	-2.307203e-06	-1.033045e-09	-1.605498e+01	-7.372693e+01
1.340000e-06	-2.264069e-06	-1.026957e-09	-1.575483e+01	-7.324143e+01
1.350000e-06	-2.220684e-06	-1.023419e-09	-1.545293e+01	-7.274469e+01
1.360000e-06	-2.177140e-06	-1.022724e-09	-1.514992e+01	-7.223620e+01
1.370000e-06	-2.133519e-06	-1.018221e-09	-1.484638e+01	-7.171547e+01
1.380000e-06	-2.089879e-06	-1.008672e-09	-1.454271e+01	-7.118206e+01
1.390000e-06	-2.046166e-06	-9.944108e-10	-1.423852e+01	-7.063561e+01
1.400000e-06	-2.002392e-06	-9.767424e-10	-1.393391e+01	-7.007578e+01
1.410000e-06	-1.958595e-06	-9.604757e-10	-1.362915e+01	-6.950232e+01
1.420000e-06	-1.914732e-06	-9.508176e-10	-1.332392e+01	-6.891504e+01
1.430000e-06	-1.870798e-06	-9.469386e-10	-1.301820e+01	-6.831380e+01
1.440000e-06	-1.826751e-06	-9.439729e-10	-1.271169e+01	-6.769854e+01
1.450000e-06	-1.782475e-06	-9.390303e-10	-1.240359e+01	-6.706923e+01
1.460000e-06	-1.738083e-06	-9.294499e-10	-1.209468e+01	-6.642593e+01
1.470000e-06	-1.693662e-06	-9.161683e-10	-1.178557e+01	-6.576871e+01
1.480000e-06	-1.649041e-06	-9.023113e-10	-1.147507e+01	-6.509770e+01
1.490000e-06	-1.604242e-06	-8.885128e-10	-1.116333e+01	-6.441307e+01
1.500000e-06	-1.559423e-06	-8.738137e-10	-1.085146e+01	-6.371500e+01
1.510000e-06	-1.514468e-06	-8.621976e-10	-1.053863e+01	-6.300367e+01
1.520000e-06	-1.469322e-06	-8.559079e-10	-1.022447e+01	-6.227927e+01
1.530000e-06	-1.424037e-06	-8.487414e-10	-9.909351e+00	-6.154199e+01
1.540000e-06	-1.378627e-06	-8.367922e-10	-9.593359e+00	-6.079198e+01
1.550000e-06	-1.333136e-06	-8.219359e-10	-9.276804e+00	-6.002934e+01
1.560000e-06	-1.287494e-06	-8.058244e-10	-8.959196e+00	-5.925413e+01
1.570000e-06	-1.241747e-06	-7.884046e-10	-8.640861e+00	-5.846636e+01
1.580000e-06	-1.196042e-06	-7.722703e-10	-8.322821e+00	-5.766592e+01
1.590000e-06	-1.150361e-06	-7.577770e-10	-8.004942e+00	-5.685265e+01
1.600000e-06	-1.104626e-06	-7.431977e-10	-7.686686e+00	-5.602627e+01
1.610000e-06	-1.058769e-06	-7.300187e-10	-7.367583e+00	-5.518640e+01
1.620000e-06	-1.012806e-06	-7.189328e-10	-7.047746e+00	-5.433252e+01
1.630000e-06	-9.667673e-07	-7.077116e-10	-6.727379e+00	-5.346401e+01
1.640000e-06	-9.205978e-07	-6.949494e-10	-6.406103e+00	-5.258012e+01
1.650000e-06	-8.743738e-07	-6.826138e-10	-6.084447e+00	-5.167995e+01
1.660000e-06	-8.281751e-07	-6.703094e-10	-5.762968e+00	-5.076248e+01
1.670000e-06	-7.819222e-07	-6.573366e-10	-5.441110e+00	-4.982657e+01
1.680000e-06	-7.355730e-07	-6.429186e-10	-5.118583e+00	-4.887094e+01
1.690000e-06	-6.891696e-07	-6.262424e-10	-4.795679e+00	-4.789420e+01
1.700000e-06	-6.426832e-07	-6.069508e-10	-4.472197e+00	-4.689486e+01
1.710000e-06	-5.962059e-07	-5.863252e-10	-4.148778e+00	-4.587132e+01
1.720000e-06	-5.497659e-07	-5.663190e-10	-3.825620e+00	-4.482193e+01
1.730000e-06	-5.032113e-07	-5.477993e-10	-3.501663e+00	-4.374493e+01
1.740000e-06	-4.566130e-07	-5.315583e-10	-3.177403e+00	-4.263856e+01
1.750000e-06	-4.100148e-07	-5.145733e-10	-2.853143e+00	-4.150101e+01
1.760000e-06	-3.633672e-07	-4.966495e-10	-2.528539e+00	-4.033048e+01
1.770000e-06	-3.166709e-07	-4.781141e-10	-2.203597e+00	-3.912519e+01
1.780000e-06	-2.698594e-07	-4.602124e-10	-1.877853e+00	-3.788341e+01
1.790000e-06	-2.229690e-07	-4.439768e-10	-1.551560e+00	-3.660348e+01
1.800000e-06	-1.760925e-07	-4.270698e-10	-1.225363e+00	-3.528384e+01
1.810000e-06	-1.292358e-07	-4.080538e-10	-8.993043e-01	-3.392306e+01
1.820000e-06	-8.243356e-08	-3.877428e-10	-5.736250e-01	-3.251985e+01
1.830000e-06	-3.568428e-08	-3.673134e-10	-2.483139e-01	-3.107310e+01
1.840000e-06	1.103900e-08	-3.465318e-10	7.681637e-02	-2.958190e+01
1.850000e-06	5.776898e-08	-3.274385e-10	4.019932e-01	-2.804555e+01
1.860000e-06	1.045073e-07	-3.092633e-10	7.272282e-01	-2.646361e+01
1.870000e-06	1.512685e-07	-2.884152e-10	1.052622e+00	-2.483587e+01
1.880000e-06	1.980326e-07	-2.662510e-10	1.378037e+00	-2.316241e+01
1.890000e-06	2.448018e-07	-2.393249e-10	1.703486e+00	-2.144359e+01
1.900000e-06	2.915805e-07	-2.117313e-10	2.029002e+00	-1.968007e+01
1.910000e-06	3.383330e-07	-1.844628e-10	2.354336e+00	-1.787278e+01
1.920000e-06	3.850940e-07	-1.565087e-10	2.679728e+00	-1.602299e+01
1.930000e-06	4.317779e-07	-1.315291e-10	3.004584e+00	-1.413223e+01
1.940000e-06	4.783234e-07	-1.098401e-10	3.328477e+00	-1.220235e+01
1.950000e-06	5.248362e-07	-9.024646e-11	3.652143e+00	-1.023547e+01
1.960000e-06	5.713772e-07	-6.831458e-11	3.976005e+00	-8.233992e+00
1.970000e-06	6.177649e-07	-4.259622e-11	4.298800e+00	-6.200561e+00
1.980000e-06	6.640915e-07	-1.246172e-11	4.621169e+00	-4.138065e+00
1.990000e-06	7.104381e-07	1.868121e-11	4.943679e+00	-2.049607e+00
2.000000e-06	7.566761e-07	5.021817e-11	5.265432e+00	6.152185e-02
2.010000e-06	8.029116e-07	8.033764e-11	5.587168e+00	2.191869e+00
2.020000e-06	8.491565e-07	1.093394e-10	5.908969e+00	4.337848e+00
2.030000e-06	8.952755e-07	1.379700e-10	6.229895e+00	6.495773e+00
2.040000e-06	9.412662e-07	1.655745e-10	6.549927e+00	8.661885e+00
2.050000e-06	9.872248e-07	1.926477e-10	6.869736e+00	1.083239e+01
2.060000e-06	1.033101e-06	2.194052e-10	7.188972e+00	1.300349e+01
2.070000e-06	1.078946e-06	2.463152e-10	7.507988e+00	1.517142e+01
2.080000e-06	1.124756e-06	2.752543e-10	7.826767e+00	1.733247e+01
2.090000e-06	1.170447e-06	3.052304e-10	8.144714e+00	1.948303e+01
2.100000e-06	1.216100e-06	3.353846e-10	8.462397e+00	2.161961e+01
2.110000e-06	1.261693e-06	3.633319e-10	8.779658e+00	2.373886e+01
2.120000e-06	1.307173e-06	3.906247e-10	9.096135e+00	2.583762e+01
2.130000e-06	1.352582e-06	4.188735e-10	9.412121e+00	2.791292e+01
2.140000e-06	1.397907e-06	4.458516e-10	9.727520e+00	2.996201e+01
2.150000e-06	1.443139e-06	4.713310e-10	1.004227e+01	3.198238e+01
2.160000e-06	1.488281e-06	4.950348e-10	1.035640e+01	3.397175e+01
2.170000e-06	1.533285e-06	5.188522e-10	1.066957e+01	3.592811e+01
2.180000e-06	1.578144e-06	5.452892e-10	1.098172e+01	3.784971e+01
2.190000e-06	1.622852e-06	5.748769e-10	1.129283e+01	3.973506e+01
2.200000e-06	1.667404e-06	6.056022e-10	1.160285e+01	4.158295e+01
2.210000e-06	1.711824e-06	6.353433e-10	1.191196e+01	4.339241e+01
2.220000e-06	1.756090e-06	6.625213e-10	1.221999e+01	4.516273e+01
2.230000e-06	1.800205e-06	6.849258e-10	1.252697e+01	4.689344e+01
2.240000e-06	1.844242e-06	7.017201e-10	1.283341e+01	4.858430e+01
2.250000e-06	1.888190e-06	7.160245e-10	1.313922e+01	5.023526e+01
2.260000e-06	1.932085e-06	7.324635e-10	1.344467e+01	5.184650e+01
2.270000e-06	1.975951e-06	7.533448e-10	1.374992e+01	5.341835e+01
2.280000e-06	2.019753e-06	7.760051e-10	1.405472e+01	5.495128e+01
2.290000e-06	2.063509e-06	8.000414e-10	1.435920e+01	5.644592e+01
2.300000e-06	2.107205e-06	8.250103e-10	1.466327e+01	5.790298e+01
2.310000e-06	2.150807e-06	8.472395e-10	1.496668e+01	5.932328e+01
2.320000e-06	2.194318e-06	8.636710e-10	1.526945e+01	6.070769e+01
2.330000e-06	2.237701e-06	8.769624e-10	1.557134e+01	6.205711e+01
2.340000e-06	2.280926e-06	8.905887e-10	1.587213e+01	6.337249e+01
2.350000e-06	2.324012e-06	9.066715e-10	1.617195e+01	6.465475e+01
2.360000e-06	2.366865e-06	9.254719e-10	1.647015e+01	6.590482e+01
2.370000e-06	2.409388e-06	9.461168e-10	1.676605e+01	6.712359e+01
2.380000e-06	2.451448e-06	9.664522e-10	1.705873e+01	6.831192e+01
2.390000e-06	2.493159e-06	9.845831e-10	1.734898e+01	6.947059e+01
2.400000e-06	2.534743e-06	1.000549e-09	1.763835e+01	7.060036e+01
2.410000e-06	2.575988e-06	1.014961e-09	1.792536e+01	7.170188e+01
2.420000e-06	2.616841e-06	1.027979e-09	1.820964e+01	7.277577e+01
2.430000e-06	2.657500e-06	1.040233e-09	1.849257e+01	7.382254e+01
2.440000e-06	2.697937e-06	1.051219e-09	1.877396e+01	7.484267e+01
2.450000e-06	2.738110e-06	1.064571e-09	1.905350e+01	7.583655e+01
2.460000e-06	2.778095e-06	1.079736e-09	1.933174e+01	7.680451e+01
2.470000e-06	2.817973e-06	1.094145e-09	1.960924e+01	7.774684e+01
2.480000e-06	2.857769e-06	1.106253e-09	1.988617e+01	7.866378e+01
2.490000e-06	2.897450e-06	1.116686e-09	2.016229e+01	7.955554e+01
2.500000e-06	2.937030e-06	1.127845e-09	2.043772e+01	8.042229e+01
2.510000e-06	2.976413e-06	1.141363e-09	2.071177e+01	8.126421e+01
2.520000e-06	3.015528e-06	1.156281e-09	2.098396e+01	8.208146e+01
2.530000e-06	3.054468e-06	1.171270e-09	2.125492e+01	8.287423e+01
2.540000e-06	3.093142e-06	1.184493e-09	2.152404e+01	8.364269e+01
2.550000e-06	3.131559e-06	1.192950e-09	2.179137e+01	8.438709e+01
2.560000e-06	3.169838e-06	1.197073e-09	2.205774e+01	8.510769e+01
2.570000e-06	3.207967e-06	1.200353e-09	2.232307e+01	8.580478e+01
2.580000e-06	3.245915e-06	1.205757e-09	2.258714e+01	8.647873e+01
2.590000e-06	3.283625e-06	1.214892e-09	2.284954e+01	8.712996e+01
2.600000e-06	3.321123e-06	1.229457e-09	2.311048e+01	8.775894e+01
2.610000e-06	3.358380e-06	1.245149e-09	2.336974e+01	8.836619e+01
2.620000e-06	3.395300e-06	1.260313e-09	2.362665e+01	8.895232e+01
2.630000e-06	3.431929e-06	1.269947e-09	2.388154e+01	8.951795e+01
2.640000e-06	3.468331e-06	1.274018e-09	2.413485e+01	9.006380e+01
2.650000e-06	3.504447e-06	1.276274e-09	2.438617e+01	9.059059e+01
2.660000e-06	3.540362e-06	1.278030e-09	2.463609e+01	9.109912e+01
2.670000e-06	3.576198e-06	1.281934e-09	2.488545e+01	9.159018e+01
2.680000e-06	3.611959e-06	1.289868e-09	2.513430e+01	9.206461e+01
2.690000e-06	3.647656e-06	1.300340e-09	2.538270e+01	9.252323e+01
2.700000e-06	3.683156e-06	1.309607e-09	2.562973e+01	9.296689e+01
2.710000e-06	3.718364e-06	1.314483e-09	2.587474e+01	9.339642e+01
2.720000e-06	3.753282e-06	1.317940e-09	2.611771e+01	9.381260e+01
2.730000e-06	3.787808e-06	1.320510e-09	2.635797e+01	9.421620e+01
2.740000e-06	3.821825e-06	1.322283e-09	2.659468e+01	9.460795e+01
2.750000e-06	3.855218e-06	1.324729e-09	2.682705e+01	9.498851e+01
2.760000e-06	3.888117e-06	1.330405e-09	2.705598e+01	9.535850e+01
2.770000e-06	3.920730e-06	1.337994e-09	2.728292e+01	9.571845e+01
2.780000e-06	3.953035e-06	1.345828e-09	2.750772e+01	9.606883e+01
2.790000e-06	3.985084e-06	1.354833e-09	2.773074e+01	9.641004e+01
2.800000e-06	4.016975e-06	1.363823e-09	2.795266e+01	9.674238e+01
2.810000e-06	4.048731e-06	1.370564e-09	2.817364e+01	9.706608e+01
2.820000e-06	4.080271e-06	1.374892e-09	2.839311e+01	9.738132e+01
2.830000e-06	4.111539e-06	1.379560e-09	2.861069e+01	9.768818e+01
2.840000e-06	4.142528e-06	1.382947e-09	2.882634e+01	9.798667e+01
2.850000e-06	4.173306e-06	1.386962e-09	2.904051e+01	9.827675e+01
2.860000e-06	4.203816e-06	1.393176e-09	2.925281e+01	9.855833e+01
2.870000e-06	4.233967e-06	1.399966e-09	2.946263e+01	9.883127e+01
2.880000e-06	4.263802e-06	1.405817e-09	2.967023e+01	9.909539e+01
2.890000e-06	4.293332e-06	1.411487e-09	2.987573e+01	9.935051e+01
2.900000e-06	4.322617e-06	1.416759e-09	3.007951e+01	9.959642e+01
