# Temperatura_=_-14.32
# Concentracion g/m^3_=_1620.0
# C_Vs_to_Am_M_A/Vsm_=_65563218390.804596
# pendiente_HvsI_1/m_=_3716.3
# ordenada_HvsI_A/m_=_1297.0
# frecuencia_Hz_=_135101.2947819851

Tiempo_(s)	Campo_(V.s)	Magnetizacion_(V.s)	Campo_(kA/m)	Magnetizacion_(A/m)
0.000000e+00	-5.512067e-06	-1.312017e-09	-3.838108e+01	-8.360039e+01
1.000000e-08	-5.512279e-06	-1.309743e-09	-3.838255e+01	-8.358459e+01
2.000000e-08	-5.512277e-06	-1.310553e-09	-3.838254e+01	-8.356450e+01
3.000000e-08	-5.511935e-06	-1.309643e-09	-3.838015e+01	-8.353988e+01
4.000000e-08	-5.511130e-06	-1.307045e-09	-3.837455e+01	-8.351048e+01
5.000000e-08	-5.509794e-06	-1.301015e-09	-3.836525e+01	-8.347614e+01
6.000000e-08	-5.507834e-06	-1.288134e-09	-3.835160e+01	-8.343673e+01
7.000000e-08	-5.505311e-06	-1.283455e-09	-3.833403e+01	-8.339216e+01
8.000000e-08	-5.502253e-06	-1.302014e-09	-3.831274e+01	-8.334242e+01
9.000000e-08	-5.498652e-06	-1.322697e-09	-3.828766e+01	-8.328755e+01
1.000000e-07	-5.494596e-06	-1.334962e-09	-3.825943e+01	-8.322765e+01
1.100000e-07	-5.490259e-06	-1.320809e-09	-3.822923e+01	-8.316287e+01
1.200000e-07	-5.485720e-06	-1.302738e-09	-3.819762e+01	-8.309342e+01
1.300000e-07	-5.480870e-06	-1.222740e-09	-3.816385e+01	-8.301957e+01
1.400000e-07	-5.475663e-06	-1.246596e-09	-3.812759e+01	-8.294163e+01
1.500000e-07	-5.470105e-06	-1.281363e-09	-3.808889e+01	-8.285995e+01
1.600000e-07	-5.464203e-06	-1.332823e-09	-3.804780e+01	-8.277494e+01
1.700000e-07	-5.457952e-06	-1.293041e-09	-3.800427e+01	-8.268702e+01
1.800000e-07	-5.451214e-06	-1.264491e-09	-3.795735e+01	-8.259666e+01
1.900000e-07	-5.444017e-06	-1.287571e-09	-3.790723e+01	-8.250432e+01
2.000000e-07	-5.436551e-06	-1.266891e-09	-3.785525e+01	-8.241049e+01
2.100000e-07	-5.428836e-06	-1.233072e-09	-3.780153e+01	-8.231568e+01
2.200000e-07	-5.420847e-06	-1.208254e-09	-3.774590e+01	-8.222035e+01
2.300000e-07	-5.412526e-06	-1.261986e-09	-3.768796e+01	-8.212499e+01
2.400000e-07	-5.403822e-06	-1.268488e-09	-3.762735e+01	-8.203006e+01
2.500000e-07	-5.394630e-06	-1.256202e-09	-3.756335e+01	-8.193599e+01
2.600000e-07	-5.384827e-06	-1.203673e-09	-3.749509e+01	-8.184318e+01
2.700000e-07	-5.374365e-06	-1.232586e-09	-3.742225e+01	-8.175200e+01
2.800000e-07	-5.363337e-06	-1.227505e-09	-3.734545e+01	-8.166277e+01
2.900000e-07	-5.351843e-06	-1.234236e-09	-3.726542e+01	-8.157579e+01
3.000000e-07	-5.339980e-06	-1.206495e-09	-3.718282e+01	-8.149128e+01
3.100000e-07	-5.327762e-06	-1.227456e-09	-3.709774e+01	-8.140943e+01
3.200000e-07	-5.315069e-06	-1.224890e-09	-3.700936e+01	-8.133039e+01
3.300000e-07	-5.301937e-06	-1.217744e-09	-3.691792e+01	-8.125424e+01
3.400000e-07	-5.288424e-06	-1.187842e-09	-3.682383e+01	-8.118102e+01
3.500000e-07	-5.274577e-06	-1.209635e-09	-3.672741e+01	-8.111074e+01
3.600000e-07	-5.260313e-06	-1.230705e-09	-3.662809e+01	-8.104333e+01
3.700000e-07	-5.245562e-06	-1.226188e-09	-3.652537e+01	-8.097872e+01
3.800000e-07	-5.230286e-06	-1.210774e-09	-3.641901e+01	-8.091678e+01
3.900000e-07	-5.214442e-06	-1.232148e-09	-3.630869e+01	-8.085734e+01
4.000000e-07	-5.198134e-06	-1.221580e-09	-3.619513e+01	-8.080023e+01
4.100000e-07	-5.181467e-06	-1.181852e-09	-3.607908e+01	-8.074523e+01
4.200000e-07	-5.164438e-06	-1.210506e-09	-3.596050e+01	-8.069211e+01
4.300000e-07	-5.147116e-06	-1.239988e-09	-3.583989e+01	-8.064064e+01
4.400000e-07	-5.129471e-06	-1.213853e-09	-3.571702e+01	-8.059055e+01
4.500000e-07	-5.111504e-06	-1.195616e-09	-3.559192e+01	-8.054160e+01
4.600000e-07	-5.093147e-06	-1.251641e-09	-3.546409e+01	-8.049351e+01
4.700000e-07	-5.074192e-06	-1.216038e-09	-3.533211e+01	-8.044605e+01
4.800000e-07	-5.054887e-06	-1.176324e-09	-3.519768e+01	-8.039895e+01
4.900000e-07	-5.035445e-06	-1.206860e-09	-3.506231e+01	-8.035197e+01
5.000000e-07	-5.015802e-06	-1.232399e-09	-3.492553e+01	-8.030489e+01
5.100000e-07	-4.995895e-06	-1.163424e-09	-3.478692e+01	-8.025749e+01
5.200000e-07	-4.975679e-06	-1.189082e-09	-3.464615e+01	-8.020955e+01
5.300000e-07	-4.955016e-06	-1.231994e-09	-3.450227e+01	-8.016089e+01
5.400000e-07	-4.933978e-06	-1.200135e-09	-3.435578e+01	-8.011133e+01
5.500000e-07	-4.912714e-06	-1.169536e-09	-3.420772e+01	-8.006070e+01
5.600000e-07	-4.891134e-06	-1.224725e-09	-3.405745e+01	-8.000885e+01
5.700000e-07	-4.869235e-06	-1.201157e-09	-3.390497e+01	-7.995563e+01
5.800000e-07	-4.847063e-06	-1.166617e-09	-3.375058e+01	-7.990092e+01
5.900000e-07	-4.824488e-06	-1.201981e-09	-3.359339e+01	-7.984459e+01
6.000000e-07	-4.801465e-06	-1.221238e-09	-3.343308e+01	-7.978652e+01
6.100000e-07	-4.778093e-06	-1.169642e-09	-3.327034e+01	-7.972660e+01
6.200000e-07	-4.754498e-06	-1.177100e-09	-3.310605e+01	-7.966471e+01
6.300000e-07	-4.730764e-06	-1.195757e-09	-3.294079e+01	-7.960076e+01
6.400000e-07	-4.706799e-06	-1.168589e-09	-3.277391e+01	-7.953462e+01
6.500000e-07	-4.682491e-06	-1.166809e-09	-3.260466e+01	-7.946620e+01
6.600000e-07	-4.657764e-06	-1.196922e-09	-3.243248e+01	-7.939539e+01
6.700000e-07	-4.632495e-06	-1.185146e-09	-3.225653e+01	-7.932207e+01
6.800000e-07	-4.606757e-06	-1.168958e-09	-3.207731e+01	-7.924614e+01
6.900000e-07	-4.580587e-06	-1.184712e-09	-3.189509e+01	-7.916749e+01
7.000000e-07	-4.553924e-06	-1.175563e-09	-3.170943e+01	-7.908601e+01
7.100000e-07	-4.526807e-06	-1.158913e-09	-3.152061e+01	-7.900158e+01
7.200000e-07	-4.499297e-06	-1.166612e-09	-3.132906e+01	-7.891411e+01
7.300000e-07	-4.471559e-06	-1.178080e-09	-3.113592e+01	-7.882350e+01
7.400000e-07	-4.443727e-06	-1.165690e-09	-3.094212e+01	-7.872966e+01
7.500000e-07	-4.415756e-06	-1.168942e-09	-3.074735e+01	-7.863249e+01
7.600000e-07	-4.387515e-06	-1.168236e-09	-3.055071e+01	-7.853194e+01
7.700000e-07	-4.358980e-06	-1.162427e-09	-3.035201e+01	-7.842794e+01
7.800000e-07	-4.330134e-06	-1.152026e-09	-3.015116e+01	-7.832045e+01
7.900000e-07	-4.300935e-06	-1.156995e-09	-2.994784e+01	-7.820946e+01
8.000000e-07	-4.271410e-06	-1.149403e-09	-2.974225e+01	-7.809495e+01
8.100000e-07	-4.241598e-06	-1.149094e-09	-2.953467e+01	-7.797694e+01
8.200000e-07	-4.211528e-06	-1.145050e-09	-2.932529e+01	-7.785548e+01
8.300000e-07	-4.181207e-06	-1.141786e-09	-2.911416e+01	-7.773063e+01
8.400000e-07	-4.150558e-06	-1.131278e-09	-2.890075e+01	-7.760247e+01
8.500000e-07	-4.119640e-06	-1.139140e-09	-2.868547e+01	-7.747111e+01
8.600000e-07	-4.088459e-06	-1.142845e-09	-2.846835e+01	-7.733668e+01
8.700000e-07	-4.057043e-06	-1.141282e-09	-2.824960e+01	-7.719934e+01
8.800000e-07	-4.025472e-06	-1.136583e-09	-2.802976e+01	-7.705924e+01
8.900000e-07	-3.993700e-06	-1.137177e-09	-2.780853e+01	-7.691659e+01
9.000000e-07	-3.961702e-06	-1.126431e-09	-2.758573e+01	-7.677158e+01
9.100000e-07	-3.929493e-06	-1.121515e-09	-2.736146e+01	-7.662442e+01
9.200000e-07	-3.896989e-06	-1.122336e-09	-2.713513e+01	-7.647533e+01
9.300000e-07	-3.864035e-06	-1.121297e-09	-2.690566e+01	-7.632454e+01
9.400000e-07	-3.830551e-06	-1.117907e-09	-2.667251e+01	-7.617225e+01
9.500000e-07	-3.796539e-06	-1.121478e-09	-2.643568e+01	-7.601870e+01
9.600000e-07	-3.762201e-06	-1.119593e-09	-2.619658e+01	-7.586409e+01
9.700000e-07	-3.727521e-06	-1.108889e-09	-2.595510e+01	-7.570862e+01
9.800000e-07	-3.692392e-06	-1.106554e-09	-2.571049e+01	-7.555247e+01
9.900000e-07	-3.656959e-06	-1.108129e-09	-2.546377e+01	-7.539578e+01
1.000000e-06	-3.621369e-06	-1.106920e-09	-2.521596e+01	-7.523872e+01
1.010000e-06	-3.585615e-06	-1.102376e-09	-2.496700e+01	-7.508137e+01
1.020000e-06	-3.549736e-06	-1.104371e-09	-2.471717e+01	-7.492382e+01
1.030000e-06	-3.513706e-06	-1.100083e-09	-2.446629e+01	-7.476611e+01
1.040000e-06	-3.477480e-06	-1.096322e-09	-2.421404e+01	-7.460827e+01
1.050000e-06	-3.441061e-06	-1.095191e-09	-2.396045e+01	-7.445027e+01
1.060000e-06	-3.404436e-06	-1.097194e-09	-2.370543e+01	-7.429206e+01
1.070000e-06	-3.367588e-06	-1.089165e-09	-2.344885e+01	-7.413354e+01
1.080000e-06	-3.330441e-06	-1.087271e-09	-2.319019e+01	-7.397459e+01
1.090000e-06	-3.292964e-06	-1.085611e-09	-2.292924e+01	-7.381504e+01
1.100000e-06	-3.255212e-06	-1.081826e-09	-2.266637e+01	-7.365471e+01
1.110000e-06	-3.217289e-06	-1.074606e-09	-2.240230e+01	-7.349337e+01
1.120000e-06	-3.179218e-06	-1.072708e-09	-2.213721e+01	-7.333077e+01
1.130000e-06	-3.140908e-06	-1.065150e-09	-2.187046e+01	-7.316662e+01
1.140000e-06	-3.102347e-06	-1.060649e-09	-2.160196e+01	-7.300062e+01
1.150000e-06	-3.063586e-06	-1.062575e-09	-2.133205e+01	-7.283245e+01
1.160000e-06	-3.024617e-06	-1.066943e-09	-2.106071e+01	-7.266176e+01
1.170000e-06	-2.985422e-06	-1.064126e-09	-2.078779e+01	-7.248819e+01
1.180000e-06	-2.946079e-06	-1.061823e-09	-2.051385e+01	-7.231137e+01
1.190000e-06	-2.906586e-06	-1.057459e-09	-2.023885e+01	-7.213093e+01
1.200000e-06	-2.866868e-06	-1.051252e-09	-1.996229e+01	-7.194647e+01
1.210000e-06	-2.826976e-06	-1.044535e-09	-1.968452e+01	-7.175761e+01
1.220000e-06	-2.786962e-06	-1.039730e-09	-1.940590e+01	-7.156395e+01
1.230000e-06	-2.746841e-06	-1.033271e-09	-1.912653e+01	-7.136510e+01
1.240000e-06	-2.706668e-06	-1.025474e-09	-1.884680e+01	-7.116067e+01
1.250000e-06	-2.666281e-06	-1.021264e-09	-1.856558e+01	-7.095028e+01
1.260000e-06	-2.625553e-06	-1.019657e-09	-1.828199e+01	-7.073355e+01
1.270000e-06	-2.584654e-06	-1.019639e-09	-1.799721e+01	-7.051011e+01
1.280000e-06	-2.543524e-06	-1.015235e-09	-1.771081e+01	-7.027960e+01
1.290000e-06	-2.502080e-06	-1.009049e-09	-1.742223e+01	-7.004166e+01
1.300000e-06	-2.460422e-06	-9.991500e-10	-1.713216e+01	-6.979596e+01
1.310000e-06	-2.418533e-06	-9.886451e-10	-1.684049e+01	-6.954216e+01
1.320000e-06	-2.376341e-06	-9.802670e-10	-1.654670e+01	-6.927994e+01
1.330000e-06	-2.333747e-06	-9.747500e-10	-1.625011e+01	-6.900898e+01
1.340000e-06	-2.290748e-06	-9.687744e-10	-1.595071e+01	-6.872900e+01
1.350000e-06	-2.247550e-06	-9.680679e-10	-1.564992e+01	-6.843971e+01
1.360000e-06	-2.204268e-06	-9.690915e-10	-1.534854e+01	-6.814084e+01
1.370000e-06	-2.160858e-06	-9.689643e-10	-1.504627e+01	-6.783212e+01
1.380000e-06	-2.117263e-06	-9.639135e-10	-1.474271e+01	-6.751332e+01
1.390000e-06	-2.073586e-06	-9.552219e-10	-1.443859e+01	-6.718420e+01
1.400000e-06	-2.029872e-06	-9.427130e-10	-1.413421e+01	-6.684456e+01
1.410000e-06	-1.986041e-06	-9.324924e-10	-1.382900e+01	-6.649418e+01
1.420000e-06	-1.942095e-06	-9.247797e-10	-1.352301e+01	-6.613289e+01
1.430000e-06	-1.898086e-06	-9.201557e-10	-1.321657e+01	-6.576053e+01
1.440000e-06	-1.854078e-06	-9.161428e-10	-1.291013e+01	-6.537693e+01
1.450000e-06	-1.809974e-06	-9.127835e-10	-1.260303e+01	-6.498198e+01
1.460000e-06	-1.765699e-06	-9.082612e-10	-1.229474e+01	-6.457555e+01
1.470000e-06	-1.721326e-06	-9.005684e-10	-1.198576e+01	-6.415755e+01
1.480000e-06	-1.676862e-06	-8.905147e-10	-1.167616e+01	-6.372790e+01
1.490000e-06	-1.632262e-06	-8.811691e-10	-1.136561e+01	-6.328652e+01
1.500000e-06	-1.587536e-06	-8.707827e-10	-1.105417e+01	-6.283336e+01
1.510000e-06	-1.542667e-06	-8.612638e-10	-1.074174e+01	-6.236837e+01
1.520000e-06	-1.497619e-06	-8.537971e-10	-1.042807e+01	-6.189152e+01
1.530000e-06	-1.452486e-06	-8.477492e-10	-1.011380e+01	-6.140276e+01
1.540000e-06	-1.407321e-06	-8.408834e-10	-9.799317e+00	-6.090208e+01
1.550000e-06	-1.362023e-06	-8.324759e-10	-9.483905e+00	-6.038942e+01
1.560000e-06	-1.316581e-06	-8.205601e-10	-9.167489e+00	-5.986473e+01
1.570000e-06	-1.271107e-06	-8.058866e-10	-8.850844e+00	-5.932794e+01
1.580000e-06	-1.225524e-06	-7.920919e-10	-8.533449e+00	-5.877896e+01
1.590000e-06	-1.179817e-06	-7.818497e-10	-8.215188e+00	-5.821767e+01
1.600000e-06	-1.134035e-06	-7.717083e-10	-7.896400e+00	-5.764390e+01
1.610000e-06	-1.088230e-06	-7.623818e-10	-7.577458e+00	-5.705744e+01
1.620000e-06	-1.042355e-06	-7.563490e-10	-7.258023e+00	-5.645803e+01
1.630000e-06	-9.962938e-07	-7.475073e-10	-6.937294e+00	-5.584536e+01
1.640000e-06	-9.501216e-07	-7.377302e-10	-6.615792e+00	-5.521901e+01
1.650000e-06	-9.039748e-07	-7.273791e-10	-6.294468e+00	-5.457854e+01
1.660000e-06	-8.578590e-07	-7.193649e-10	-5.973358e+00	-5.392338e+01
1.670000e-06	-8.116543e-07	-7.092027e-10	-5.651630e+00	-5.325290e+01
1.680000e-06	-7.654070e-07	-7.000423e-10	-5.329606e+00	-5.256636e+01
1.690000e-06	-7.191404e-07	-6.906195e-10	-5.007447e+00	-5.186296e+01
1.700000e-06	-6.728009e-07	-6.810688e-10	-4.684780e+00	-5.114176e+01
1.710000e-06	-6.264139e-07	-6.679016e-10	-4.361783e+00	-5.040174e+01
1.720000e-06	-5.799382e-07	-6.530701e-10	-4.038168e+00	-4.964181e+01
1.730000e-06	-5.333996e-07	-6.385232e-10	-3.714115e+00	-4.886074e+01
1.740000e-06	-4.868636e-07	-6.252001e-10	-3.390080e+00	-4.805726e+01
1.750000e-06	-4.402968e-07	-6.143689e-10	-3.065831e+00	-4.723000e+01
1.760000e-06	-3.936899e-07	-6.039738e-10	-2.741302e+00	-4.637751e+01
1.770000e-06	-3.469875e-07	-5.915334e-10	-2.416109e+00	-4.549830e+01
1.780000e-06	-3.002313e-07	-5.753656e-10	-2.090541e+00	-4.459084e+01
1.790000e-06	-2.535120e-07	-5.594965e-10	-1.765230e+00	-4.365354e+01
1.800000e-06	-2.067668e-07	-5.458824e-10	-1.439738e+00	-4.268484e+01
1.810000e-06	-1.599940e-07	-5.321348e-10	-1.114054e+00	-4.168315e+01
1.820000e-06	-1.132345e-07	-5.186252e-10	-7.884635e-01	-4.064692e+01
1.830000e-06	-6.648691e-08	-5.047616e-10	-4.629550e-01	-3.957466e+01
1.840000e-06	-1.977068e-08	-4.893763e-10	-1.376652e-01	-3.846492e+01
1.850000e-06	2.700965e-08	-4.725942e-10	1.880709e-01	-3.731636e+01
1.860000e-06	7.381294e-08	-4.563062e-10	5.139669e-01	-3.612776e+01
1.870000e-06	1.206398e-07	-4.405271e-10	8.400268e-01	-3.489802e+01
1.880000e-06	1.675045e-07	-4.235763e-10	1.166350e+00	-3.362620e+01
1.890000e-06	2.143043e-07	-4.066755e-10	1.492223e+00	-3.231154e+01
1.900000e-06	2.610645e-07	-3.863426e-10	1.817818e+00	-3.095349e+01
1.910000e-06	3.078388e-07	-3.639899e-10	2.143512e+00	-2.955170e+01
1.920000e-06	3.545328e-07	-3.420475e-10	2.468648e+00	-2.810605e+01
1.930000e-06	4.011073e-07	-3.215279e-10	2.792950e+00	-2.661668e+01
1.940000e-06	4.476790e-07	-3.010282e-10	3.117234e+00	-2.508398e+01
1.950000e-06	4.942170e-07	-2.816318e-10	3.441283e+00	-2.350860e+01
1.960000e-06	5.406573e-07	-2.620794e-10	3.764651e+00	-2.189147e+01
1.970000e-06	5.870463e-07	-2.410024e-10	4.087662e+00	-2.023379e+01
1.980000e-06	6.334538e-07	-2.182578e-10	4.410803e+00	-1.853701e+01
1.990000e-06	6.798239e-07	-1.934275e-10	4.733682e+00	-1.680289e+01
2.000000e-06	7.261040e-07	-1.665853e-10	5.055935e+00	-1.503341e+01
2.010000e-06	7.723398e-07	-1.406535e-10	5.377880e+00	-1.323083e+01
2.020000e-06	8.185855e-07	-1.146228e-10	5.699893e+00	-1.139760e+01
2.030000e-06	8.647433e-07	-8.681660e-11	6.021294e+00	-9.536445e+00
2.040000e-06	9.107881e-07	-5.885156e-11	6.341909e+00	-7.650238e+00
2.050000e-06	9.567680e-07	-3.307737e-11	6.662072e+00	-5.742051e+00
2.060000e-06	1.002728e-06	-8.978553e-12	6.982094e+00	-3.815097e+00
2.070000e-06	1.048657e-06	1.636797e-11	7.301902e+00	-1.872714e+00
2.080000e-06	1.094499e-06	4.170868e-11	7.621108e+00	8.166691e-02
2.090000e-06	1.140285e-06	6.551783e-11	7.939917e+00	2.044548e+00
2.100000e-06	1.185975e-06	9.220527e-11	8.258065e+00	4.012398e+00
2.110000e-06	1.231582e-06	1.217090e-10	8.575631e+00	5.981679e+00
2.120000e-06	1.277124e-06	1.512084e-10	8.892739e+00	7.948879e+00
2.130000e-06	1.322558e-06	1.798574e-10	9.209103e+00	9.910540e+00
2.140000e-06	1.367901e-06	2.092757e-10	9.524830e+00	1.186329e+01
2.150000e-06	1.413118e-06	2.356653e-10	9.839683e+00	1.380385e+01
2.160000e-06	1.458220e-06	2.583457e-10	1.015373e+01	1.572910e+01
2.170000e-06	1.503269e-06	2.803866e-10	1.046741e+01	1.763606e+01
2.180000e-06	1.548221e-06	3.054659e-10	1.078042e+01	1.952192e+01
2.190000e-06	1.592962e-06	3.338400e-10	1.109195e+01	2.138409e+01
2.200000e-06	1.637511e-06	3.625508e-10	1.140215e+01	2.322016e+01
2.210000e-06	1.681947e-06	3.909458e-10	1.171156e+01	2.502796e+01
2.220000e-06	1.726256e-06	4.165206e-10	1.202009e+01	2.680553e+01
2.230000e-06	1.770441e-06	4.393352e-10	1.232776e+01	2.855116e+01
2.240000e-06	1.814535e-06	4.601916e-10	1.263479e+01	3.026336e+01
2.250000e-06	1.858565e-06	4.799706e-10	1.294137e+01	3.194089e+01
2.260000e-06	1.902530e-06	4.999251e-10	1.324751e+01	3.358273e+01
2.270000e-06	1.946422e-06	5.210474e-10	1.355313e+01	3.518807e+01
2.280000e-06	1.990244e-06	5.430107e-10	1.385827e+01	3.675635e+01
2.290000e-06	2.034009e-06	5.642542e-10	1.416301e+01	3.828716e+01
2.300000e-06	2.077726e-06	5.856927e-10	1.446741e+01	3.978033e+01
2.310000e-06	2.121384e-06	6.079942e-10	1.477141e+01	4.123581e+01
2.320000e-06	2.164933e-06	6.276803e-10	1.507464e+01	4.265376e+01
2.330000e-06	2.208317e-06	6.455700e-10	1.537673e+01	4.403443e+01
2.340000e-06	2.251531e-06	6.618177e-10	1.567764e+01	4.537823e+01
2.350000e-06	2.294599e-06	6.764363e-10	1.597752e+01	4.668563e+01
2.360000e-06	2.337460e-06	6.897608e-10	1.627597e+01	4.795723e+01
2.370000e-06	2.380025e-06	7.051616e-10	1.657236e+01	4.919365e+01
2.380000e-06	2.422286e-06	7.217871e-10	1.686662e+01	5.039560e+01
2.390000e-06	2.464271e-06	7.380221e-10	1.715897e+01	5.156379e+01
2.400000e-06	2.505932e-06	7.542059e-10	1.744905e+01	5.269898e+01
2.410000e-06	2.547255e-06	7.691282e-10	1.773679e+01	5.380191e+01
2.420000e-06	2.588310e-06	7.816332e-10	1.802266e+01	5.487332e+01
2.430000e-06	2.629097e-06	7.936077e-10	1.830667e+01	5.591395e+01
2.440000e-06	2.669581e-06	8.077510e-10	1.858856e+01	5.692450e+01
2.450000e-06	2.709825e-06	8.240163e-10	1.886879e+01	5.790566e+01
2.460000e-06	2.749934e-06	8.410934e-10	1.914806e+01	5.885806e+01
2.470000e-06	2.789918e-06	8.554510e-10	1.942648e+01	5.978233e+01
2.480000e-06	2.829747e-06	8.655844e-10	1.970381e+01	6.067904e+01
2.490000e-06	2.869463e-06	8.738913e-10	1.998036e+01	6.154873e+01
2.500000e-06	2.909036e-06	8.819078e-10	2.025591e+01	6.239191e+01
2.510000e-06	2.948460e-06	8.935941e-10	2.053042e+01	6.320908e+01
2.520000e-06	2.987754e-06	9.070866e-10	2.080403e+01	6.400069e+01
2.530000e-06	3.026808e-06	9.207191e-10	2.107596e+01	6.476720e+01
2.540000e-06	3.065559e-06	9.364195e-10	2.134580e+01	6.550902e+01
2.550000e-06	3.104112e-06	9.505602e-10	2.161424e+01	6.622660e+01
2.560000e-06	3.142492e-06	9.584489e-10	2.188149e+01	6.692035e+01
2.570000e-06	3.180656e-06	9.620047e-10	2.214722e+01	6.759071e+01
2.580000e-06	3.218586e-06	9.666448e-10	2.241133e+01	6.823813e+01
2.590000e-06	3.256312e-06	9.722598e-10	2.267402e+01	6.886307e+01
2.600000e-06	3.293935e-06	9.808384e-10	2.293600e+01	6.946600e+01
2.610000e-06	3.331344e-06	9.933869e-10	2.319648e+01	7.004745e+01
2.620000e-06	3.368451e-06	1.008218e-09	2.345486e+01	7.060794e+01
2.630000e-06	3.405313e-06	1.020674e-09	2.371154e+01	7.114802e+01
2.640000e-06	3.441885e-06	1.028908e-09	2.396619e+01	7.166830e+01
2.650000e-06	3.478152e-06	1.034539e-09	2.421872e+01	7.216937e+01
2.660000e-06	3.514202e-06	1.038747e-09	2.446974e+01	7.265187e+01
2.670000e-06	3.550097e-06	1.041821e-09	2.471968e+01	7.311647e+01
2.680000e-06	3.585866e-06	1.044851e-09	2.496875e+01	7.356382e+01
2.690000e-06	3.621530e-06	1.049739e-09	2.521708e+01	7.399462e+01
2.700000e-06	3.657120e-06	1.057671e-09	2.546489e+01	7.440955e+01
2.710000e-06	3.692575e-06	1.064562e-09	2.571177e+01	7.480931e+01
2.720000e-06	3.727740e-06	1.068696e-09	2.595663e+01	7.519456e+01
2.730000e-06	3.762565e-06	1.072494e-09	2.619912e+01	7.556598e+01
2.740000e-06	3.796942e-06	1.074953e-09	2.643849e+01	7.592421e+01
2.750000e-06	3.830787e-06	1.076320e-09	2.667416e+01	7.626986e+01
2.760000e-06	3.864165e-06	1.079523e-09	2.690657e+01	7.660354e+01
2.770000e-06	3.897096e-06	1.085302e-09	2.713587e+01	7.692577e+01
2.780000e-06	3.929614e-06	1.092069e-09	2.736230e+01	7.723708e+01
2.790000e-06	3.961778e-06	1.099169e-09	2.758625e+01	7.753790e+01
2.800000e-06	3.993703e-06	1.106067e-09	2.780856e+01	7.782867e+01
2.810000e-06	4.025545e-06	1.111786e-09	2.803027e+01	7.810972e+01
2.820000e-06	4.057222e-06	1.115292e-09	2.825084e+01	7.838138e+01
2.830000e-06	4.088665e-06	1.120071e-09	2.846978e+01	7.864389e+01
2.840000e-06	4.119926e-06	1.125157e-09	2.868746e+01	7.889746e+01
2.850000e-06	4.150931e-06	1.127318e-09	2.890335e+01	7.914226e+01
2.860000e-06	4.181596e-06	1.131022e-09	2.911687e+01	7.937840e+01
2.870000e-06	4.211909e-06	1.136112e-09	2.932795e+01	7.960596e+01
2.880000e-06	4.241903e-06	1.139093e-09	2.953680e+01	7.982498e+01
2.890000e-06	4.271590e-06	1.138108e-09	2.974351e+01	8.003550e+01
2.900000e-06	4.301036e-06	1.139854e-09	2.994854e+01	8.023751e+01
