# Temperatura_=_4.36
# Concentracion g/m^3_=_1620.0
# C_Vs_to_Am_M_A/Vsm_=_65563218390.804596
# pendiente_HvsI_1/m_=_3716.3
# ordenada_HvsI_A/m_=_1297.0
# frecuencia_Hz_=_135109.54933816346

Tiempo_(s)	Campo_(V.s)	Magnetizacion_(V.s)	Campo_(kA/m)	Magnetizacion_(A/m)
0.000000e+00	-5.539183e-06	-1.542840e-09	-3.837348e+01	-1.008235e+02
1.000000e-08	-5.539519e-06	-1.538093e-09	-3.837581e+01	-1.007680e+02
2.000000e-08	-5.539603e-06	-1.537977e-09	-3.837639e+01	-1.007110e+02
3.000000e-08	-5.539358e-06	-1.540121e-09	-3.837470e+01	-1.006521e+02
4.000000e-08	-5.538736e-06	-1.542170e-09	-3.837039e+01	-1.005912e+02
5.000000e-08	-5.537531e-06	-1.541690e-09	-3.836204e+01	-1.005279e+02
6.000000e-08	-5.535657e-06	-1.530989e-09	-3.834906e+01	-1.004621e+02
7.000000e-08	-5.533227e-06	-1.522661e-09	-3.833222e+01	-1.003935e+02
8.000000e-08	-5.530246e-06	-1.540268e-09	-3.831157e+01	-1.003220e+02
9.000000e-08	-5.526790e-06	-1.559077e-09	-3.828763e+01	-1.002473e+02
1.000000e-07	-5.522881e-06	-1.563008e-09	-3.826055e+01	-1.001694e+02
1.100000e-07	-5.518602e-06	-1.568841e-09	-3.823090e+01	-1.000881e+02
1.200000e-07	-5.514117e-06	-1.549215e-09	-3.819983e+01	-1.000032e+02
1.300000e-07	-5.509408e-06	-1.492169e-09	-3.816722e+01	-9.991473e+01
1.400000e-07	-5.504345e-06	-1.490159e-09	-3.813214e+01	-9.982263e+01
1.500000e-07	-5.498826e-06	-1.522986e-09	-3.809391e+01	-9.972685e+01
1.600000e-07	-5.492910e-06	-1.566260e-09	-3.805292e+01	-9.962741e+01
1.700000e-07	-5.486607e-06	-1.541112e-09	-3.800926e+01	-9.952432e+01
1.800000e-07	-5.479872e-06	-1.518665e-09	-3.796260e+01	-9.941762e+01
1.900000e-07	-5.472710e-06	-1.531197e-09	-3.791298e+01	-9.930738e+01
2.000000e-07	-5.465201e-06	-1.551178e-09	-3.786097e+01	-9.919366e+01
2.100000e-07	-5.457479e-06	-1.518576e-09	-3.780747e+01	-9.907656e+01
2.200000e-07	-5.449550e-06	-1.496187e-09	-3.775254e+01	-9.895616e+01
2.300000e-07	-5.441354e-06	-1.516616e-09	-3.769576e+01	-9.883256e+01
2.400000e-07	-5.432767e-06	-1.562458e-09	-3.763627e+01	-9.870585e+01
2.500000e-07	-5.423551e-06	-1.549631e-09	-3.757242e+01	-9.857613e+01
2.600000e-07	-5.413596e-06	-1.505498e-09	-3.750347e+01	-9.844350e+01
2.700000e-07	-5.402941e-06	-1.498742e-09	-3.742965e+01	-9.830802e+01
2.800000e-07	-5.391749e-06	-1.508533e-09	-3.735211e+01	-9.816977e+01
2.900000e-07	-5.380252e-06	-1.508008e-09	-3.727246e+01	-9.802881e+01
3.000000e-07	-5.368433e-06	-1.494100e-09	-3.719059e+01	-9.788519e+01
3.100000e-07	-5.356200e-06	-1.496638e-09	-3.710584e+01	-9.773894e+01
3.200000e-07	-5.343500e-06	-1.486260e-09	-3.701786e+01	-9.759009e+01
3.300000e-07	-5.330381e-06	-1.484680e-09	-3.692698e+01	-9.743863e+01
3.400000e-07	-5.316956e-06	-1.464088e-09	-3.683398e+01	-9.728457e+01
3.500000e-07	-5.303113e-06	-1.475030e-09	-3.673807e+01	-9.712789e+01
3.600000e-07	-5.288718e-06	-1.479791e-09	-3.663836e+01	-9.696858e+01
3.700000e-07	-5.273852e-06	-1.484586e-09	-3.653537e+01	-9.680661e+01
3.800000e-07	-5.258497e-06	-1.467280e-09	-3.642899e+01	-9.664196e+01
3.900000e-07	-5.242704e-06	-1.491159e-09	-3.631958e+01	-9.647458e+01
4.000000e-07	-5.226458e-06	-1.481676e-09	-3.620704e+01	-9.630447e+01
4.100000e-07	-5.209825e-06	-1.446249e-09	-3.609181e+01	-9.613161e+01
4.200000e-07	-5.192842e-06	-1.446670e-09	-3.597416e+01	-9.595600e+01
4.300000e-07	-5.175464e-06	-1.484332e-09	-3.585377e+01	-9.577763e+01
4.400000e-07	-5.157833e-06	-1.460352e-09	-3.573163e+01	-9.559654e+01
4.500000e-07	-5.139898e-06	-1.438176e-09	-3.560738e+01	-9.541278e+01
4.600000e-07	-5.121510e-06	-1.474754e-09	-3.547999e+01	-9.522639e+01
4.700000e-07	-5.102615e-06	-1.470746e-09	-3.534910e+01	-9.503748e+01
4.800000e-07	-5.083309e-06	-1.416072e-09	-3.521535e+01	-9.484614e+01
4.900000e-07	-5.063783e-06	-1.435161e-09	-3.508009e+01	-9.465251e+01
5.000000e-07	-5.044095e-06	-1.465349e-09	-3.494369e+01	-9.445675e+01
5.100000e-07	-5.024235e-06	-1.414326e-09	-3.480611e+01	-9.425902e+01
5.200000e-07	-5.004096e-06	-1.402422e-09	-3.466659e+01	-9.405952e+01
5.300000e-07	-4.983555e-06	-1.447085e-09	-3.452429e+01	-9.385846e+01
5.400000e-07	-4.962644e-06	-1.427749e-09	-3.437943e+01	-9.365608e+01
5.500000e-07	-4.941329e-06	-1.393683e-09	-3.423176e+01	-9.345259e+01
5.600000e-07	-4.919673e-06	-1.432133e-09	-3.408174e+01	-9.324826e+01
5.700000e-07	-4.897702e-06	-1.429131e-09	-3.392953e+01	-9.304331e+01
5.800000e-07	-4.875345e-06	-1.386175e-09	-3.377465e+01	-9.283800e+01
5.900000e-07	-4.852661e-06	-1.401089e-09	-3.361751e+01	-9.263255e+01
6.000000e-07	-4.829634e-06	-1.422974e-09	-3.345798e+01	-9.242718e+01
6.100000e-07	-4.806292e-06	-1.376987e-09	-3.329628e+01	-9.222209e+01
6.200000e-07	-4.782741e-06	-1.367564e-09	-3.313312e+01	-9.201746e+01
6.300000e-07	-4.758993e-06	-1.392565e-09	-3.296861e+01	-9.181344e+01
6.400000e-07	-4.735004e-06	-1.379273e-09	-3.280242e+01	-9.161013e+01
6.500000e-07	-4.710623e-06	-1.363554e-09	-3.263352e+01	-9.140761e+01
6.600000e-07	-4.685753e-06	-1.388073e-09	-3.246123e+01	-9.120592e+01
6.700000e-07	-4.660414e-06	-1.381726e-09	-3.228568e+01	-9.100504e+01
6.800000e-07	-4.634655e-06	-1.357607e-09	-3.210724e+01	-9.080492e+01
6.900000e-07	-4.608349e-06	-1.359700e-09	-3.192500e+01	-9.060546e+01
7.000000e-07	-4.581430e-06	-1.364550e-09	-3.173851e+01	-9.040649e+01
7.100000e-07	-4.554112e-06	-1.346053e-09	-3.154926e+01	-9.020783e+01
7.200000e-07	-4.526608e-06	-1.345598e-09	-3.135872e+01	-9.000922e+01
7.300000e-07	-4.498972e-06	-1.353300e-09	-3.116727e+01	-8.981037e+01
7.400000e-07	-4.471172e-06	-1.349771e-09	-3.097468e+01	-8.961096e+01
7.500000e-07	-4.443159e-06	-1.344704e-09	-3.078062e+01	-8.941060e+01
7.600000e-07	-4.414899e-06	-1.347054e-09	-3.058484e+01	-8.920890e+01
7.700000e-07	-4.386304e-06	-1.338837e-09	-3.038675e+01	-8.900542e+01
7.800000e-07	-4.357337e-06	-1.328743e-09	-3.018608e+01	-8.879972e+01
7.900000e-07	-4.328062e-06	-1.327914e-09	-2.998327e+01	-8.859133e+01
8.000000e-07	-4.298482e-06	-1.325164e-09	-2.977835e+01	-8.837977e+01
8.100000e-07	-4.268620e-06	-1.316046e-09	-2.957148e+01	-8.816458e+01
8.200000e-07	-4.238436e-06	-1.311230e-09	-2.936237e+01	-8.794527e+01
8.300000e-07	-4.207933e-06	-1.312601e-09	-2.915106e+01	-8.772140e+01
8.400000e-07	-4.177237e-06	-1.309197e-09	-2.893841e+01	-8.749253e+01
8.500000e-07	-4.146281e-06	-1.311022e-09	-2.872396e+01	-8.725826e+01
8.600000e-07	-4.114987e-06	-1.313564e-09	-2.850716e+01	-8.701821e+01
8.700000e-07	-4.083481e-06	-1.307563e-09	-2.828890e+01	-8.677205e+01
8.800000e-07	-4.051809e-06	-1.294757e-09	-2.806949e+01	-8.651950e+01
8.900000e-07	-4.019982e-06	-1.287765e-09	-2.784900e+01	-8.626031e+01
9.000000e-07	-3.987963e-06	-1.277576e-09	-2.762718e+01	-8.599430e+01
9.100000e-07	-3.955651e-06	-1.268762e-09	-2.740334e+01	-8.572135e+01
9.200000e-07	-3.922881e-06	-1.264651e-09	-2.717632e+01	-8.544138e+01
9.300000e-07	-3.889623e-06	-1.264134e-09	-2.694592e+01	-8.515439e+01
9.400000e-07	-3.855992e-06	-1.258333e-09	-2.671294e+01	-8.486041e+01
9.500000e-07	-3.821942e-06	-1.256161e-09	-2.647705e+01	-8.455955e+01
9.600000e-07	-3.787386e-06	-1.251008e-09	-2.623766e+01	-8.425197e+01
9.700000e-07	-3.752345e-06	-1.238811e-09	-2.599491e+01	-8.393787e+01
9.800000e-07	-3.717032e-06	-1.226650e-09	-2.575027e+01	-8.361752e+01
9.900000e-07	-3.681567e-06	-1.223361e-09	-2.550458e+01	-8.329121e+01
1.000000e-06	-3.645964e-06	-1.219648e-09	-2.525794e+01	-8.295927e+01
1.010000e-06	-3.610238e-06	-1.215602e-09	-2.501044e+01	-8.262207e+01
1.020000e-06	-3.574337e-06	-1.213012e-09	-2.476173e+01	-8.227999e+01
1.030000e-06	-3.538341e-06	-1.208772e-09	-2.451236e+01	-8.193343e+01
1.040000e-06	-3.502192e-06	-1.199953e-09	-2.426193e+01	-8.158280e+01
1.050000e-06	-3.465684e-06	-1.193642e-09	-2.400903e+01	-8.122850e+01
1.060000e-06	-3.428798e-06	-1.186881e-09	-2.375349e+01	-8.087095e+01
1.070000e-06	-3.391624e-06	-1.175386e-09	-2.349596e+01	-8.051051e+01
1.080000e-06	-3.354261e-06	-1.165715e-09	-2.323712e+01	-8.014755e+01
1.090000e-06	-3.316705e-06	-1.161710e-09	-2.297695e+01	-7.978240e+01
1.100000e-06	-3.278844e-06	-1.157124e-09	-2.271466e+01	-7.941535e+01
1.110000e-06	-3.240683e-06	-1.148623e-09	-2.245030e+01	-7.904665e+01
1.120000e-06	-3.202339e-06	-1.141166e-09	-2.218466e+01	-7.867649e+01
1.130000e-06	-3.163810e-06	-1.131478e-09	-2.191775e+01	-7.830503e+01
1.140000e-06	-3.125135e-06	-1.121268e-09	-2.164982e+01	-7.793236e+01
1.150000e-06	-3.086195e-06	-1.115356e-09	-2.138006e+01	-7.755852e+01
1.160000e-06	-3.046965e-06	-1.113180e-09	-2.110829e+01	-7.718347e+01
1.170000e-06	-3.007665e-06	-1.106301e-09	-2.083603e+01	-7.680712e+01
1.180000e-06	-2.968276e-06	-1.099800e-09	-2.056316e+01	-7.642934e+01
1.190000e-06	-2.928724e-06	-1.095506e-09	-2.028916e+01	-7.604991e+01
1.200000e-06	-2.889017e-06	-1.088978e-09	-2.001408e+01	-7.566857e+01
1.210000e-06	-2.849190e-06	-1.076899e-09	-1.973817e+01	-7.528500e+01
1.220000e-06	-2.809235e-06	-1.067672e-09	-1.946138e+01	-7.489885e+01
1.230000e-06	-2.769157e-06	-1.060012e-09	-1.918373e+01	-7.450970e+01
1.240000e-06	-2.728910e-06	-1.050566e-09	-1.890492e+01	-7.411711e+01
1.250000e-06	-2.688287e-06	-1.042763e-09	-1.862349e+01	-7.372059e+01
1.260000e-06	-2.647374e-06	-1.040189e-09	-1.834006e+01	-7.331965e+01
1.270000e-06	-2.606224e-06	-1.038091e-09	-1.805499e+01	-7.291375e+01
1.280000e-06	-2.564695e-06	-1.032524e-09	-1.776729e+01	-7.250238e+01
1.290000e-06	-2.522856e-06	-1.026356e-09	-1.747744e+01	-7.208498e+01
1.300000e-06	-2.480891e-06	-1.020716e-09	-1.718673e+01	-7.166103e+01
1.310000e-06	-2.438685e-06	-1.009354e-09	-1.689434e+01	-7.122999e+01
1.320000e-06	-2.396032e-06	-9.977043e-10	-1.659885e+01	-7.079137e+01
1.330000e-06	-2.353081e-06	-9.895320e-10	-1.630131e+01	-7.034466e+01
1.340000e-06	-2.309890e-06	-9.822165e-10	-1.600209e+01	-6.988943e+01
1.350000e-06	-2.266532e-06	-9.770069e-10	-1.570172e+01	-6.942523e+01
1.360000e-06	-2.223074e-06	-9.754591e-10	-1.540066e+01	-6.895169e+01
1.370000e-06	-2.179507e-06	-9.724763e-10	-1.509885e+01	-6.846845e+01
1.380000e-06	-2.135873e-06	-9.638605e-10	-1.479657e+01	-6.797522e+01
1.390000e-06	-2.092141e-06	-9.524335e-10	-1.449361e+01	-6.747173e+01
1.400000e-06	-2.048347e-06	-9.393361e-10	-1.419022e+01	-6.695777e+01
1.410000e-06	-2.004504e-06	-9.251968e-10	-1.388649e+01	-6.643317e+01
1.420000e-06	-1.960562e-06	-9.132333e-10	-1.358208e+01	-6.589779e+01
1.430000e-06	-1.916493e-06	-9.059880e-10	-1.327678e+01	-6.535154e+01
1.440000e-06	-1.872338e-06	-9.004938e-10	-1.297089e+01	-6.479437e+01
1.450000e-06	-1.828081e-06	-8.948212e-10	-1.266430e+01	-6.422624e+01
1.460000e-06	-1.783693e-06	-8.887675e-10	-1.235679e+01	-6.364716e+01
1.470000e-06	-1.739149e-06	-8.811815e-10	-1.204820e+01	-6.305712e+01
1.480000e-06	-1.694427e-06	-8.713863e-10	-1.173839e+01	-6.245617e+01
1.490000e-06	-1.649595e-06	-8.612426e-10	-1.142780e+01	-6.184431e+01
1.500000e-06	-1.604617e-06	-8.488832e-10	-1.111621e+01	-6.122156e+01
1.510000e-06	-1.559456e-06	-8.336683e-10	-1.080336e+01	-6.058791e+01
1.520000e-06	-1.514173e-06	-8.208330e-10	-1.048965e+01	-5.994334e+01
1.530000e-06	-1.468815e-06	-8.125176e-10	-1.017543e+01	-5.928778e+01
1.540000e-06	-1.423356e-06	-8.050057e-10	-9.860506e+00	-5.862111e+01
1.550000e-06	-1.377759e-06	-7.978957e-10	-9.544620e+00	-5.794317e+01
1.560000e-06	-1.332088e-06	-7.886304e-10	-9.228233e+00	-5.725373e+01
1.570000e-06	-1.286359e-06	-7.761384e-10	-8.911437e+00	-5.655247e+01
1.580000e-06	-1.240552e-06	-7.610984e-10	-8.594100e+00	-5.583903e+01
1.590000e-06	-1.194719e-06	-7.469208e-10	-8.276586e+00	-5.511292e+01
1.600000e-06	-1.148862e-06	-7.332437e-10	-7.958903e+00	-5.437358e+01
1.610000e-06	-1.102949e-06	-7.206067e-10	-7.640837e+00	-5.362037e+01
1.620000e-06	-1.056913e-06	-7.087967e-10	-7.321915e+00	-5.285250e+01
1.630000e-06	-1.010747e-06	-6.972372e-10	-7.002094e+00	-5.206914e+01
1.640000e-06	-9.645422e-07	-6.860256e-10	-6.682005e+00	-5.126931e+01
1.650000e-06	-9.182927e-07	-6.748747e-10	-6.361604e+00	-5.045195e+01
1.660000e-06	-8.719643e-07	-6.629366e-10	-6.040658e+00	-4.961590e+01
1.670000e-06	-8.255335e-07	-6.498081e-10	-5.719002e+00	-4.875990e+01
1.680000e-06	-7.790104e-07	-6.354902e-10	-5.396706e+00	-4.788263e+01
1.690000e-06	-7.324221e-07	-6.189312e-10	-5.073959e+00	-4.698267e+01
1.700000e-06	-6.857323e-07	-6.040770e-10	-4.750509e+00	-4.605852e+01
1.710000e-06	-6.390356e-07	-5.877122e-10	-4.427011e+00	-4.510864e+01
1.720000e-06	-5.924153e-07	-5.693917e-10	-4.104042e+00	-4.413146e+01
1.730000e-06	-5.457877e-07	-5.494598e-10	-3.781022e+00	-4.312536e+01
1.740000e-06	-4.990939e-07	-5.313380e-10	-3.457544e+00	-4.208872e+01
1.750000e-06	-4.522807e-07	-5.149561e-10	-3.133239e+00	-4.101990e+01
1.760000e-06	-4.053700e-07	-4.980098e-10	-2.808259e+00	-3.991731e+01
1.770000e-06	-3.584530e-07	-4.799655e-10	-2.483235e+00	-3.877938e+01
1.780000e-06	-3.115919e-07	-4.599839e-10	-2.158597e+00	-3.760462e+01
1.790000e-06	-2.647918e-07	-4.420465e-10	-1.834383e+00	-3.639159e+01
1.800000e-06	-2.179174e-07	-4.257978e-10	-1.509654e+00	-3.513898e+01
1.810000e-06	-1.708922e-07	-4.080138e-10	-1.183880e+00	-3.384557e+01
1.820000e-06	-1.238237e-07	-3.897164e-10	-8.578066e-01	-3.251030e+01
1.830000e-06	-7.682667e-08	-3.694931e-10	-5.322278e-01	-3.113224e+01
1.840000e-06	-2.979429e-08	-3.472882e-10	-2.064042e-01	-2.971066e+01
1.850000e-06	1.729202e-08	-3.259459e-10	1.197930e-01	-2.824499e+01
1.860000e-06	6.437648e-08	-3.057519e-10	4.459773e-01	-2.673489e+01
1.870000e-06	1.114460e-07	-2.861599e-10	7.720582e-01	-2.518020e+01
1.880000e-06	1.584771e-07	-2.651631e-10	1.097873e+00	-2.358104e+01
1.890000e-06	2.054463e-07	-2.445630e-10	1.423259e+00	-2.193772e+01
1.900000e-06	2.523603e-07	-2.230366e-10	1.748262e+00	-2.025081e+01
1.910000e-06	2.992464e-07	-1.998039e-10	2.073072e+00	-1.852113e+01
1.920000e-06	3.461633e-07	-1.743388e-10	2.398096e+00	-1.674975e+01
1.930000e-06	3.930840e-07	-1.468552e-10	2.723146e+00	-1.493798e+01
1.940000e-06	4.399136e-07	-1.204168e-10	3.047565e+00	-1.308739e+01
1.950000e-06	4.866861e-07	-9.641326e-11	3.371588e+00	-1.119978e+01
1.960000e-06	5.334661e-07	-7.411407e-11	3.695663e+00	-9.277184e+00
1.970000e-06	5.803029e-07	-5.123286e-11	4.020132e+00	-7.321866e+00
1.980000e-06	6.270608e-07	-2.741950e-11	4.344054e+00	-5.336291e+00
1.990000e-06	6.736579e-07	-1.615495e-12	4.666862e+00	-3.323117e+00
2.000000e-06	7.201836e-07	2.883665e-11	4.989175e+00	-1.285178e+00
2.010000e-06	7.666849e-07	6.106972e-11	5.311320e+00	7.745333e-01
2.020000e-06	8.131117e-07	9.279324e-11	5.632948e+00	2.852893e+00
2.030000e-06	8.594338e-07	1.235663e-10	5.953851e+00	4.946662e+00
2.040000e-06	9.056851e-07	1.522862e-10	6.274263e+00	7.052516e+00
2.050000e-06	9.519071e-07	1.779269e-10	6.594473e+00	9.167064e+00
2.060000e-06	9.981376e-07	2.020797e-10	6.914741e+00	1.128688e+01
2.070000e-06	1.044257e-06	2.276163e-10	7.234241e+00	1.340852e+01
2.080000e-06	1.090268e-06	2.537499e-10	7.552990e+00	1.552856e+01
2.090000e-06	1.136214e-06	2.799904e-10	7.871287e+00	1.764360e+01
2.100000e-06	1.182068e-06	3.091993e-10	8.188946e+00	1.975033e+01
2.110000e-06	1.227863e-06	3.413985e-10	8.506199e+00	2.184549e+01
2.120000e-06	1.273567e-06	3.726995e-10	8.822815e+00	2.392596e+01
2.130000e-06	1.319172e-06	4.026158e-10	9.138755e+00	2.598873e+01
2.140000e-06	1.364744e-06	4.323064e-10	9.454457e+00	2.803095e+01
2.150000e-06	1.410239e-06	4.591940e-10	9.769630e+00	3.004991e+01
2.160000e-06	1.455583e-06	4.828931e-10	1.008376e+01	3.204312e+01
2.170000e-06	1.500852e-06	5.056745e-10	1.039736e+01	3.400825e+01
2.180000e-06	1.546035e-06	5.308998e-10	1.071038e+01	3.594319e+01
2.190000e-06	1.591058e-06	5.592004e-10	1.102228e+01	3.784603e+01
2.200000e-06	1.635885e-06	5.878989e-10	1.133283e+01	3.971508e+01
2.210000e-06	1.680533e-06	6.171727e-10	1.164213e+01	4.154888e+01
2.220000e-06	1.725138e-06	6.448001e-10	1.195114e+01	4.334618e+01
2.230000e-06	1.769705e-06	6.698393e-10	1.225989e+01	4.510593e+01
2.240000e-06	1.814014e-06	6.912516e-10	1.256684e+01	4.682733e+01
2.250000e-06	1.858164e-06	7.081502e-10	1.287270e+01	4.850975e+01
2.260000e-06	1.902281e-06	7.221918e-10	1.317832e+01	5.015278e+01
2.270000e-06	1.946267e-06	7.391146e-10	1.348305e+01	5.175619e+01
2.280000e-06	1.990149e-06	7.616475e-10	1.378704e+01	5.331993e+01
2.290000e-06	2.033964e-06	7.855934e-10	1.409058e+01	5.484411e+01
2.300000e-06	2.077710e-06	8.114406e-10	1.439364e+01	5.632898e+01
2.310000e-06	2.121416e-06	8.356996e-10	1.469641e+01	5.777494e+01
2.320000e-06	2.165082e-06	8.577225e-10	1.499892e+01	5.918249e+01
2.330000e-06	2.208696e-06	8.765872e-10	1.530106e+01	6.055225e+01
2.340000e-06	2.252239e-06	8.917271e-10	1.560271e+01	6.188491e+01
2.350000e-06	2.295636e-06	9.058753e-10	1.590335e+01	6.318124e+01
2.360000e-06	2.338851e-06	9.212641e-10	1.620273e+01	6.444205e+01
2.370000e-06	2.381831e-06	9.388797e-10	1.650047e+01	6.566821e+01
2.380000e-06	2.424481e-06	9.571750e-10	1.679594e+01	6.686061e+01
2.390000e-06	2.466825e-06	9.739523e-10	1.708928e+01	6.802015e+01
2.400000e-06	2.508856e-06	9.882780e-10	1.738046e+01	6.914774e+01
2.410000e-06	2.550540e-06	1.000717e-09	1.766923e+01	7.024426e+01
2.420000e-06	2.591991e-06	1.012622e-09	1.795639e+01	7.131059e+01
2.430000e-06	2.633212e-06	1.026684e-09	1.824196e+01	7.234759e+01
2.440000e-06	2.674051e-06	1.043512e-09	1.852487e+01	7.335609e+01
2.450000e-06	2.714569e-06	1.061012e-09	1.880557e+01	7.433685e+01
2.460000e-06	2.754946e-06	1.075955e-09	1.908528e+01	7.529064e+01
2.470000e-06	2.795205e-06	1.088953e-09	1.936418e+01	7.621815e+01
2.480000e-06	2.835303e-06	1.099794e-09	1.964197e+01	7.712005e+01
2.490000e-06	2.875193e-06	1.108497e-09	1.991831e+01	7.799695e+01
2.500000e-06	2.914886e-06	1.116873e-09	2.019329e+01	7.884945e+01
2.510000e-06	2.954454e-06	1.129173e-09	2.046740e+01	7.967808e+01
2.520000e-06	2.993950e-06	1.144859e-09	2.074102e+01	8.048334e+01
2.530000e-06	3.033288e-06	1.158805e-09	2.101354e+01	8.126572e+01
2.540000e-06	3.072395e-06	1.171612e-09	2.128445e+01	8.202566e+01
2.550000e-06	3.111351e-06	1.184083e-09	2.155433e+01	8.276359e+01
2.560000e-06	3.150135e-06	1.192425e-09	2.182302e+01	8.347991e+01
2.570000e-06	3.188651e-06	1.197763e-09	2.208984e+01	8.417501e+01
2.580000e-06	3.226866e-06	1.204728e-09	2.235458e+01	8.484928e+01
2.590000e-06	3.264840e-06	1.213669e-09	2.261764e+01	8.550309e+01
2.600000e-06	3.302609e-06	1.222928e-09	2.287930e+01	8.613682e+01
2.610000e-06	3.340164e-06	1.234792e-09	2.313946e+01	8.675084e+01
2.620000e-06	3.377518e-06	1.247870e-09	2.339824e+01	8.734552e+01
2.630000e-06	3.414612e-06	1.259617e-09	2.365521e+01	8.792126e+01
2.640000e-06	3.451403e-06	1.269021e-09	2.391009e+01	8.847843e+01
2.650000e-06	3.487986e-06	1.275530e-09	2.416353e+01	8.901743e+01
2.660000e-06	3.524348e-06	1.280003e-09	2.441543e+01	8.953868e+01
2.670000e-06	3.560455e-06	1.282258e-09	2.466556e+01	9.004258e+01
2.680000e-06	3.596413e-06	1.283862e-09	2.491467e+01	9.052955e+01
2.690000e-06	3.632277e-06	1.287865e-09	2.516312e+01	9.100001e+01
2.700000e-06	3.667982e-06	1.295739e-09	2.541047e+01	9.145440e+01
2.710000e-06	3.703497e-06	1.304356e-09	2.565650e+01	9.189313e+01
2.720000e-06	3.738803e-06	1.309726e-09	2.590110e+01	9.231664e+01
2.730000e-06	3.773872e-06	1.312409e-09	2.614404e+01	9.272535e+01
2.740000e-06	3.808577e-06	1.315135e-09	2.638446e+01	9.311968e+01
2.750000e-06	3.842771e-06	1.318235e-09	2.662135e+01	9.350004e+01
2.760000e-06	3.876559e-06	1.321450e-09	2.685542e+01	9.386682e+01
2.770000e-06	3.909907e-06	1.326911e-09	2.708644e+01	9.422042e+01
2.780000e-06	3.942696e-06	1.334056e-09	2.731359e+01	9.456121e+01
2.790000e-06	3.975111e-06	1.340511e-09	2.753815e+01	9.488954e+01
2.800000e-06	4.007245e-06	1.345819e-09	2.776076e+01	9.520576e+01
2.810000e-06	4.039151e-06	1.349535e-09	2.798180e+01	9.551019e+01
2.820000e-06	4.070966e-06	1.353135e-09	2.820220e+01	9.580315e+01
2.830000e-06	4.102652e-06	1.359030e-09	2.842171e+01	9.608492e+01
2.840000e-06	4.134138e-06	1.367023e-09	2.863984e+01	9.635579e+01
2.850000e-06	4.165388e-06	1.373271e-09	2.885632e+01	9.661602e+01
2.860000e-06	4.196384e-06	1.379516e-09	2.907105e+01	9.686588e+01
2.870000e-06	4.227049e-06	1.384300e-09	2.928349e+01	9.710560e+01
2.880000e-06	4.257278e-06	1.385300e-09	2.949290e+01	9.733544e+01
2.890000e-06	4.287145e-06	1.385049e-09	2.969981e+01	9.755562e+01
2.900000e-06	4.316793e-06	1.387309e-09	2.990520e+01	9.776640e+01
