# Temperatura_=_15.2
# Concentracion g/m^3_=_1620.0
# C_Vs_to_Am_M_A/Vsm_=_65563218390.804596
# pendiente_HvsI_1/m_=_3716.3
# ordenada_HvsI_A/m_=_1297.0
# frecuencia_Hz_=_135106.13594284956

Tiempo_(s)	Campo_(V.s)	Magnetizacion_(V.s)	Campo_(kA/m)	Magnetizacion_(A/m)
0.000000e+00	-5.532296e-06	-1.858905e-09	-3.837175e+01	-1.206922e+02
1.000000e-08	-5.532355e-06	-1.858791e-09	-3.837216e+01	-1.206527e+02
2.000000e-08	-5.532195e-06	-1.861495e-09	-3.837105e+01	-1.206035e+02
3.000000e-08	-5.531836e-06	-1.862107e-09	-3.836856e+01	-1.205444e+02
4.000000e-08	-5.530906e-06	-1.859453e-09	-3.836211e+01	-1.204753e+02
5.000000e-08	-5.529296e-06	-1.851954e-09	-3.835094e+01	-1.203964e+02
6.000000e-08	-5.527132e-06	-1.838967e-09	-3.833593e+01	-1.203076e+02
7.000000e-08	-5.524353e-06	-1.846862e-09	-3.831666e+01	-1.202095e+02
8.000000e-08	-5.521122e-06	-1.870852e-09	-3.829425e+01	-1.201022e+02
9.000000e-08	-5.517445e-06	-1.881440e-09	-3.826875e+01	-1.199863e+02
1.000000e-07	-5.513291e-06	-1.884835e-09	-3.823993e+01	-1.198624e+02
1.100000e-07	-5.508805e-06	-1.868018e-09	-3.820881e+01	-1.197311e+02
1.200000e-07	-5.504106e-06	-1.810942e-09	-3.817622e+01	-1.195931e+02
1.300000e-07	-5.499169e-06	-1.802731e-09	-3.814198e+01	-1.194492e+02
1.400000e-07	-5.493812e-06	-1.835513e-09	-3.810483e+01	-1.193002e+02
1.500000e-07	-5.488048e-06	-1.888563e-09	-3.806485e+01	-1.191468e+02
1.600000e-07	-5.481950e-06	-1.845832e-09	-3.802255e+01	-1.189899e+02
1.700000e-07	-5.475499e-06	-1.795179e-09	-3.797781e+01	-1.188303e+02
1.800000e-07	-5.468596e-06	-1.800003e-09	-3.792993e+01	-1.186689e+02
1.900000e-07	-5.461267e-06	-1.838880e-09	-3.787909e+01	-1.185062e+02
2.000000e-07	-5.453638e-06	-1.813124e-09	-3.782618e+01	-1.183431e+02
2.100000e-07	-5.445726e-06	-1.779764e-09	-3.777130e+01	-1.181802e+02
2.200000e-07	-5.437529e-06	-1.791402e-09	-3.771445e+01	-1.180179e+02
2.300000e-07	-5.429072e-06	-1.827587e-09	-3.765579e+01	-1.178568e+02
2.400000e-07	-5.420186e-06	-1.812650e-09	-3.759416e+01	-1.176972e+02
2.500000e-07	-5.410618e-06	-1.771178e-09	-3.752780e+01	-1.175393e+02
2.600000e-07	-5.400310e-06	-1.775050e-09	-3.745630e+01	-1.173833e+02
2.700000e-07	-5.389369e-06	-1.795650e-09	-3.738042e+01	-1.172293e+02
2.800000e-07	-5.378020e-06	-1.799352e-09	-3.730170e+01	-1.170772e+02
2.900000e-07	-5.366366e-06	-1.771966e-09	-3.722087e+01	-1.169269e+02
3.000000e-07	-5.354321e-06	-1.777853e-09	-3.713732e+01	-1.167780e+02
3.100000e-07	-5.341827e-06	-1.785109e-09	-3.705067e+01	-1.166303e+02
3.200000e-07	-5.328945e-06	-1.789137e-09	-3.696132e+01	-1.164834e+02
3.300000e-07	-5.315640e-06	-1.754371e-09	-3.686903e+01	-1.163366e+02
3.400000e-07	-5.301952e-06	-1.760789e-09	-3.677409e+01	-1.161897e+02
3.500000e-07	-5.287910e-06	-1.779737e-09	-3.667670e+01	-1.160418e+02
3.600000e-07	-5.273498e-06	-1.788707e-09	-3.657674e+01	-1.158925e+02
3.700000e-07	-5.258626e-06	-1.752603e-09	-3.647359e+01	-1.157411e+02
3.800000e-07	-5.243178e-06	-1.764341e-09	-3.636644e+01	-1.155870e+02
3.900000e-07	-5.227108e-06	-1.777382e-09	-3.625498e+01	-1.154297e+02
4.000000e-07	-5.210488e-06	-1.754643e-09	-3.613970e+01	-1.152684e+02
4.100000e-07	-5.193474e-06	-1.738463e-09	-3.602170e+01	-1.151027e+02
4.200000e-07	-5.176223e-06	-1.773121e-09	-3.590204e+01	-1.149322e+02
4.300000e-07	-5.158763e-06	-1.760609e-09	-3.578094e+01	-1.147563e+02
4.400000e-07	-5.140974e-06	-1.726026e-09	-3.565756e+01	-1.145748e+02
4.500000e-07	-5.122750e-06	-1.754589e-09	-3.553115e+01	-1.143873e+02
4.600000e-07	-5.104062e-06	-1.773100e-09	-3.540153e+01	-1.141937e+02
4.700000e-07	-5.084968e-06	-1.723016e-09	-3.526910e+01	-1.139938e+02
4.800000e-07	-5.065584e-06	-1.721214e-09	-3.513466e+01	-1.137876e+02
4.900000e-07	-5.045940e-06	-1.754855e-09	-3.499841e+01	-1.135752e+02
5.000000e-07	-5.026021e-06	-1.717814e-09	-3.486025e+01	-1.133567e+02
5.100000e-07	-5.005864e-06	-1.693555e-09	-3.472044e+01	-1.131323e+02
5.200000e-07	-4.985440e-06	-1.738096e-09	-3.457878e+01	-1.129023e+02
5.300000e-07	-4.964701e-06	-1.737852e-09	-3.443493e+01	-1.126669e+02
5.400000e-07	-4.943565e-06	-1.698700e-09	-3.428834e+01	-1.124265e+02
5.500000e-07	-4.922068e-06	-1.727432e-09	-3.413924e+01	-1.121816e+02
5.600000e-07	-4.900317e-06	-1.733931e-09	-3.398837e+01	-1.119325e+02
5.700000e-07	-4.878230e-06	-1.683161e-09	-3.383518e+01	-1.116798e+02
5.800000e-07	-4.855806e-06	-1.681013e-09	-3.367964e+01	-1.114237e+02
5.900000e-07	-4.833089e-06	-1.713619e-09	-3.352208e+01	-1.111648e+02
6.000000e-07	-4.809978e-06	-1.681925e-09	-3.336179e+01	-1.109034e+02
6.100000e-07	-4.786520e-06	-1.665117e-09	-3.319908e+01	-1.106399e+02
6.200000e-07	-4.762837e-06	-1.686944e-09	-3.303481e+01	-1.103746e+02
6.300000e-07	-4.738885e-06	-1.675513e-09	-3.286869e+01	-1.101078e+02
6.400000e-07	-4.714620e-06	-1.646976e-09	-3.270038e+01	-1.098396e+02
6.500000e-07	-4.690084e-06	-1.665217e-09	-3.253021e+01	-1.095701e+02
6.600000e-07	-4.665197e-06	-1.666689e-09	-3.235759e+01	-1.092995e+02
6.700000e-07	-4.639735e-06	-1.644937e-09	-3.218099e+01	-1.090275e+02
6.800000e-07	-4.613669e-06	-1.643313e-09	-3.200020e+01	-1.087543e+02
6.900000e-07	-4.587115e-06	-1.647989e-09	-3.181602e+01	-1.084794e+02
7.000000e-07	-4.560096e-06	-1.624587e-09	-3.162861e+01	-1.082028e+02
7.100000e-07	-4.532698e-06	-1.618888e-09	-3.143858e+01	-1.079240e+02
7.200000e-07	-4.505040e-06	-1.627779e-09	-3.124675e+01	-1.076426e+02
7.300000e-07	-4.477195e-06	-1.620010e-09	-3.105362e+01	-1.073582e+02
7.400000e-07	-4.449185e-06	-1.605822e-09	-3.085934e+01	-1.070703e+02
7.500000e-07	-4.420973e-06	-1.605962e-09	-3.066367e+01	-1.067783e+02
7.600000e-07	-4.392533e-06	-1.598796e-09	-3.046640e+01	-1.064817e+02
7.700000e-07	-4.363756e-06	-1.584905e-09	-3.026681e+01	-1.061799e+02
7.800000e-07	-4.334592e-06	-1.580461e-09	-3.006453e+01	-1.058724e+02
7.900000e-07	-4.305090e-06	-1.577300e-09	-2.985990e+01	-1.055584e+02
8.000000e-07	-4.275236e-06	-1.568445e-09	-2.965284e+01	-1.052375e+02
8.100000e-07	-4.245100e-06	-1.562943e-09	-2.944382e+01	-1.049092e+02
8.200000e-07	-4.214726e-06	-1.558342e-09	-2.923315e+01	-1.045730e+02
8.300000e-07	-4.184086e-06	-1.545870e-09	-2.902063e+01	-1.042285e+02
8.400000e-07	-4.153148e-06	-1.541261e-09	-2.880604e+01	-1.038753e+02
8.500000e-07	-4.121925e-06	-1.545088e-09	-2.858948e+01	-1.035131e+02
8.600000e-07	-4.090447e-06	-1.543901e-09	-2.837115e+01	-1.031417e+02
8.700000e-07	-4.058772e-06	-1.534533e-09	-2.815145e+01	-1.027611e+02
8.800000e-07	-4.026979e-06	-1.531222e-09	-2.793094e+01	-1.023711e+02
8.900000e-07	-3.995011e-06	-1.519482e-09	-2.770921e+01	-1.019718e+02
9.000000e-07	-3.962794e-06	-1.505146e-09	-2.748576e+01	-1.015633e+02
9.100000e-07	-3.930240e-06	-1.497209e-09	-2.725996e+01	-1.011458e+02
9.200000e-07	-3.897275e-06	-1.492841e-09	-2.703132e+01	-1.007196e+02
9.300000e-07	-3.863906e-06	-1.484014e-09	-2.679988e+01	-1.002852e+02
9.400000e-07	-3.830186e-06	-1.482061e-09	-2.656599e+01	-9.984280e+01
9.500000e-07	-3.796023e-06	-1.479465e-09	-2.632904e+01	-9.939303e+01
9.600000e-07	-3.761414e-06	-1.469800e-09	-2.608899e+01	-9.893638e+01
9.700000e-07	-3.726479e-06	-1.456860e-09	-2.584669e+01	-9.847343e+01
9.800000e-07	-3.691180e-06	-1.449519e-09	-2.560185e+01	-9.800478e+01
9.900000e-07	-3.655559e-06	-1.436918e-09	-2.535479e+01	-9.753106e+01
1.000000e-06	-3.619758e-06	-1.424800e-09	-2.510647e+01	-9.705288e+01
1.010000e-06	-3.583850e-06	-1.418178e-09	-2.485742e+01	-9.657086e+01
1.020000e-06	-3.547839e-06	-1.413442e-09	-2.460765e+01	-9.608562e+01
1.030000e-06	-3.511676e-06	-1.406009e-09	-2.435682e+01	-9.559771e+01
1.040000e-06	-3.475237e-06	-1.402341e-09	-2.410408e+01	-9.510767e+01
1.050000e-06	-3.438512e-06	-1.396939e-09	-2.384936e+01	-9.461599e+01
1.060000e-06	-3.401518e-06	-1.384511e-09	-2.359277e+01	-9.412309e+01
1.070000e-06	-3.364260e-06	-1.370246e-09	-2.333435e+01	-9.362932e+01
1.080000e-06	-3.326775e-06	-1.361638e-09	-2.307436e+01	-9.313499e+01
1.090000e-06	-3.289085e-06	-1.351315e-09	-2.281294e+01	-9.264029e+01
1.100000e-06	-3.251196e-06	-1.339721e-09	-2.255015e+01	-9.214535e+01
1.110000e-06	-3.213105e-06	-1.332909e-09	-2.228595e+01	-9.165021e+01
1.120000e-06	-3.174729e-06	-1.323962e-09	-2.201977e+01	-9.115484e+01
1.130000e-06	-3.136017e-06	-1.315782e-09	-2.175127e+01	-9.065911e+01
1.140000e-06	-3.097116e-06	-1.312454e-09	-2.148145e+01	-9.016279e+01
1.150000e-06	-3.058094e-06	-1.312574e-09	-2.121080e+01	-8.966559e+01
1.160000e-06	-3.018894e-06	-1.304905e-09	-2.093891e+01	-8.916715e+01
1.170000e-06	-2.979505e-06	-1.294235e-09	-2.066571e+01	-8.866701e+01
1.180000e-06	-2.939894e-06	-1.285191e-09	-2.039097e+01	-8.816467e+01
1.190000e-06	-2.900098e-06	-1.275395e-09	-2.011494e+01	-8.765954e+01
1.200000e-06	-2.860188e-06	-1.261597e-09	-1.983813e+01	-8.715101e+01
1.210000e-06	-2.820190e-06	-1.250713e-09	-1.956071e+01	-8.663841e+01
1.220000e-06	-2.780102e-06	-1.240591e-09	-1.928266e+01	-8.612103e+01
1.230000e-06	-2.739823e-06	-1.231973e-09	-1.900328e+01	-8.559814e+01
1.240000e-06	-2.699352e-06	-1.221832e-09	-1.872258e+01	-8.506900e+01
1.250000e-06	-2.658649e-06	-1.213558e-09	-1.844026e+01	-8.453284e+01
1.260000e-06	-2.617676e-06	-1.204271e-09	-1.815608e+01	-8.398893e+01
1.270000e-06	-2.576525e-06	-1.193775e-09	-1.787066e+01	-8.343650e+01
1.280000e-06	-2.535111e-06	-1.181639e-09	-1.758341e+01	-8.287483e+01
1.290000e-06	-2.493252e-06	-1.170238e-09	-1.729308e+01	-8.230323e+01
1.300000e-06	-2.451079e-06	-1.157237e-09	-1.700057e+01	-8.172102e+01
1.310000e-06	-2.408700e-06	-1.144065e-09	-1.670663e+01	-8.112758e+01
1.320000e-06	-2.366120e-06	-1.131950e-09	-1.641130e+01	-8.052233e+01
1.330000e-06	-2.323299e-06	-1.121963e-09	-1.611430e+01	-7.990473e+01
1.340000e-06	-2.280181e-06	-1.114918e-09	-1.581523e+01	-7.927430e+01
1.350000e-06	-2.236877e-06	-1.109314e-09	-1.551487e+01	-7.863063e+01
1.360000e-06	-2.193352e-06	-1.100998e-09	-1.521299e+01	-7.797335e+01
1.370000e-06	-2.149617e-06	-1.088051e-09	-1.490964e+01	-7.730216e+01
1.380000e-06	-2.105858e-06	-1.072038e-09	-1.460613e+01	-7.661683e+01
1.390000e-06	-2.062111e-06	-1.054296e-09	-1.430271e+01	-7.591717e+01
1.400000e-06	-2.018280e-06	-1.037187e-09	-1.399870e+01	-7.520305e+01
1.410000e-06	-1.974313e-06	-1.023171e-09	-1.369374e+01	-7.447442e+01
1.420000e-06	-1.930236e-06	-1.011031e-09	-1.338803e+01	-7.373125e+01
1.430000e-06	-1.886100e-06	-9.980783e-10	-1.308190e+01	-7.297358e+01
1.440000e-06	-1.841859e-06	-9.865847e-10	-1.277505e+01	-7.220145e+01
1.450000e-06	-1.797489e-06	-9.748300e-10	-1.246730e+01	-7.141498e+01
1.460000e-06	-1.752996e-06	-9.614797e-10	-1.215870e+01	-7.061430e+01
1.470000e-06	-1.708384e-06	-9.470983e-10	-1.184927e+01	-6.979953e+01
1.480000e-06	-1.663561e-06	-9.359526e-10	-1.153838e+01	-6.897085e+01
1.490000e-06	-1.618620e-06	-9.232618e-10	-1.122668e+01	-6.812840e+01
1.500000e-06	-1.573607e-06	-9.063005e-10	-1.091447e+01	-6.727231e+01
1.510000e-06	-1.528413e-06	-8.886714e-10	-1.060100e+01	-6.640273e+01
1.520000e-06	-1.483110e-06	-8.731036e-10	-1.028679e+01	-6.551974e+01
1.530000e-06	-1.437690e-06	-8.578068e-10	-9.971754e+00	-6.462340e+01
1.540000e-06	-1.392191e-06	-8.446356e-10	-9.656171e+00	-6.371371e+01
1.550000e-06	-1.346617e-06	-8.305575e-10	-9.340070e+00	-6.279063e+01
1.560000e-06	-1.300933e-06	-8.150817e-10	-9.023212e+00	-6.185403e+01
1.570000e-06	-1.255224e-06	-7.969562e-10	-8.706173e+00	-6.090373e+01
1.580000e-06	-1.209492e-06	-7.796132e-10	-8.388981e+00	-5.993943e+01
1.590000e-06	-1.163687e-06	-7.623193e-10	-8.071280e+00	-5.896079e+01
1.600000e-06	-1.117778e-06	-7.443396e-10	-7.752857e+00	-5.796732e+01
1.610000e-06	-1.071732e-06	-7.285755e-10	-7.433483e+00	-5.695846e+01
1.620000e-06	-1.025610e-06	-7.152935e-10	-7.113584e+00	-5.593353e+01
1.630000e-06	-9.794067e-07	-7.032270e-10	-6.793120e+00	-5.489176e+01
1.640000e-06	-9.330750e-07	-6.923095e-10	-6.471765e+00	-5.383226e+01
1.650000e-06	-8.867913e-07	-6.809580e-10	-6.150743e+00	-5.275402e+01
1.660000e-06	-8.405216e-07	-6.673601e-10	-5.829819e+00	-5.165596e+01
1.670000e-06	-7.941169e-07	-6.514643e-10	-5.507958e+00	-5.053687e+01
1.680000e-06	-7.475627e-07	-6.331805e-10	-5.185060e+00	-4.939547e+01
1.690000e-06	-7.010285e-07	-6.151759e-10	-4.862302e+00	-4.823038e+01
1.700000e-06	-6.545194e-07	-5.955350e-10	-4.539716e+00	-4.704015e+01
1.710000e-06	-6.078746e-07	-5.747658e-10	-4.216190e+00	-4.582327e+01
1.720000e-06	-5.611614e-07	-5.541250e-10	-3.892190e+00	-4.457819e+01
1.730000e-06	-5.143999e-07	-5.336784e-10	-3.567854e+00	-4.330333e+01
1.740000e-06	-4.675806e-07	-5.156190e-10	-3.243118e+00	-4.199708e+01
1.750000e-06	-4.207018e-07	-4.987202e-10	-2.917968e+00	-4.065786e+01
1.760000e-06	-3.738010e-07	-4.789978e-10	-2.592666e+00	-3.928408e+01
1.770000e-06	-3.269372e-07	-4.568812e-10	-2.267621e+00	-3.787423e+01
1.780000e-06	-2.800903e-07	-4.341340e-10	-1.942694e+00	-3.642684e+01
1.790000e-06	-2.332023e-07	-4.136337e-10	-1.617481e+00	-3.494056e+01
1.800000e-06	-1.863392e-07	-3.925854e-10	-1.292440e+00	-3.341412e+01
1.810000e-06	-1.394867e-07	-3.699667e-10	-9.674735e-01	-3.184641e+01
1.820000e-06	-9.255436e-08	-3.474323e-10	-6.419528e-01	-3.023645e+01
1.830000e-06	-4.558053e-08	-3.251919e-10	-3.161445e-01	-2.858345e+01
1.840000e-06	1.447917e-09	-3.019432e-10	1.004269e-02	-2.688682e+01
1.850000e-06	4.848479e-08	-2.789073e-10	3.362883e-01	-2.514616e+01
1.860000e-06	9.537031e-08	-2.573442e-10	6.614841e-01	-2.336133e+01
1.870000e-06	1.422088e-07	-2.344893e-10	9.863538e-01	-2.153241e+01
1.880000e-06	1.890955e-07	-2.090702e-10	1.311558e+00	-1.965974e+01
1.890000e-06	2.359781e-07	-1.822542e-10	1.636733e+00	-1.774393e+01
1.900000e-06	2.829108e-07	-1.530031e-10	1.962256e+00	-1.578586e+01
1.910000e-06	3.298172e-07	-1.222515e-10	2.287597e+00	-1.378668e+01
1.920000e-06	3.766701e-07	-9.304200e-11	2.612566e+00	-1.174782e+01
1.930000e-06	4.235491e-07	-6.692729e-11	2.937717e+00	-9.670969e+00
1.940000e-06	4.704173e-07	-4.061797e-11	3.262793e+00	-7.558097e+00
1.950000e-06	5.172390e-07	-1.220780e-11	3.587546e+00	-5.411421e+00
1.960000e-06	5.640150e-07	1.764821e-11	3.911982e+00	-3.233404e+00
1.970000e-06	6.106962e-07	4.944493e-11	4.235761e+00	-1.026737e+00
1.980000e-06	6.572385e-07	8.124522e-11	4.558576e+00	1.205680e+00
1.990000e-06	7.037063e-07	1.127631e-10	4.880874e+00	3.460757e+00
2.000000e-06	7.501383e-07	1.444617e-10	5.202924e+00	5.735239e+00
2.010000e-06	7.965361e-07	1.762975e-10	5.524738e+00	8.025730e+00
2.020000e-06	8.428852e-07	2.100122e-10	5.846213e+00	1.032872e+01
2.030000e-06	8.891297e-07	2.464260e-10	6.166962e+00	1.264062e+01
2.040000e-06	9.353401e-07	2.825863e-10	6.487475e+00	1.495778e+01
2.050000e-06	9.815345e-07	3.142059e-10	6.807878e+00	1.727651e+01
2.060000e-06	1.027667e-06	3.431461e-10	7.127854e+00	1.959316e+01
2.070000e-06	1.073746e-06	3.728892e-10	7.447451e+00	2.190409e+01
2.080000e-06	1.119754e-06	4.018144e-10	7.766560e+00	2.420571e+01
2.090000e-06	1.165660e-06	4.334342e-10	8.084966e+00	2.649456e+01
2.100000e-06	1.211456e-06	4.705939e-10	8.402603e+00	2.876725e+01
2.110000e-06	1.257157e-06	5.089264e-10	8.719580e+00	3.102057e+01
2.120000e-06	1.302757e-06	5.432977e-10	9.035866e+00	3.325146e+01
2.130000e-06	1.348233e-06	5.736649e-10	9.351282e+00	3.545703e+01
2.140000e-06	1.393643e-06	5.991133e-10	9.666240e+00	3.763460e+01
2.150000e-06	1.438997e-06	6.213483e-10	9.980818e+00	3.978172e+01
2.160000e-06	1.484215e-06	6.444923e-10	1.029445e+01	4.189613e+01
2.170000e-06	1.529363e-06	6.702927e-10	1.060759e+01	4.397584e+01
2.180000e-06	1.574449e-06	6.987676e-10	1.092030e+01	4.601907e+01
2.190000e-06	1.619407e-06	7.300000e-10	1.123213e+01	4.802429e+01
2.200000e-06	1.664216e-06	7.622650e-10	1.154292e+01	4.999021e+01
2.210000e-06	1.708821e-06	7.915448e-10	1.185230e+01	5.191577e+01
2.220000e-06	1.753188e-06	8.170219e-10	1.216003e+01	5.380014e+01
2.230000e-06	1.797456e-06	8.402038e-10	1.246707e+01	5.564269e+01
2.240000e-06	1.841709e-06	8.608674e-10	1.277401e+01	5.744302e+01
2.250000e-06	1.885832e-06	8.792971e-10	1.308004e+01	5.920091e+01
2.260000e-06	1.929829e-06	8.984054e-10	1.338521e+01	6.091632e+01
2.270000e-06	1.973779e-06	9.204657e-10	1.369004e+01	6.258936e+01
2.280000e-06	2.017710e-06	9.452387e-10	1.399474e+01	6.422030e+01
2.290000e-06	2.061638e-06	9.703290e-10	1.429943e+01	6.580953e+01
2.300000e-06	2.105499e-06	9.947229e-10	1.460364e+01	6.735754e+01
2.310000e-06	2.149230e-06	1.016493e-09	1.490696e+01	6.886491e+01
2.320000e-06	2.192822e-06	1.035227e-09	1.520931e+01	7.033232e+01
2.330000e-06	2.236336e-06	1.051569e-09	1.551112e+01	7.176047e+01
2.340000e-06	2.279759e-06	1.067709e-09	1.581230e+01	7.315013e+01
2.350000e-06	2.322951e-06	1.085656e-09	1.611188e+01	7.450208e+01
2.360000e-06	2.365916e-06	1.103650e-09	1.640988e+01	7.581715e+01
2.370000e-06	2.408674e-06	1.120871e-09	1.670645e+01	7.709613e+01
2.380000e-06	2.451014e-06	1.137622e-09	1.700012e+01	7.833985e+01
2.390000e-06	2.492903e-06	1.153468e-09	1.729066e+01	7.954910e+01
2.400000e-06	2.534492e-06	1.170041e-09	1.757912e+01	8.072468e+01
2.410000e-06	2.575808e-06	1.185465e-09	1.786568e+01	8.186735e+01
2.420000e-06	2.616776e-06	1.200229e-09	1.814984e+01	8.297787e+01
2.430000e-06	2.657446e-06	1.214291e-09	1.843192e+01	8.405698e+01
2.440000e-06	2.697910e-06	1.228300e-09	1.871258e+01	8.510539e+01
2.450000e-06	2.738237e-06	1.242746e-09	1.899229e+01	8.612382e+01
2.460000e-06	2.778470e-06	1.256660e-09	1.927134e+01	8.711294e+01
2.470000e-06	2.818538e-06	1.269372e-09	1.954925e+01	8.807344e+01
2.480000e-06	2.858459e-06	1.279449e-09	1.982614e+01	8.900602e+01
2.490000e-06	2.898300e-06	1.290623e-09	2.010247e+01	8.991136e+01
2.500000e-06	2.938041e-06	1.302532e-09	2.037812e+01	9.079016e+01
2.510000e-06	2.977684e-06	1.317537e-09	2.065308e+01	9.164313e+01
2.520000e-06	3.017176e-06	1.331600e-09	2.092700e+01	9.247099e+01
2.530000e-06	3.056349e-06	1.345590e-09	2.119870e+01	9.327450e+01
2.540000e-06	3.095217e-06	1.358492e-09	2.146828e+01	9.405442e+01
2.550000e-06	3.133855e-06	1.367579e-09	2.173627e+01	9.481157e+01
2.560000e-06	3.172244e-06	1.373458e-09	2.200254e+01	9.554677e+01
2.570000e-06	3.210391e-06	1.378530e-09	2.226713e+01	9.626086e+01
2.580000e-06	3.248400e-06	1.385698e-09	2.253075e+01	9.695473e+01
2.590000e-06	3.286301e-06	1.394460e-09	2.279363e+01	9.762928e+01
2.600000e-06	3.324055e-06	1.406969e-09	2.305549e+01	9.828541e+01
2.610000e-06	3.361493e-06	1.421847e-09	2.331516e+01	9.892405e+01
2.620000e-06	3.398572e-06	1.437023e-09	2.357234e+01	9.954613e+01
2.630000e-06	3.435390e-06	1.448770e-09	2.382771e+01	1.001526e+02
2.640000e-06	3.471944e-06	1.455150e-09	2.408124e+01	1.007443e+02
2.650000e-06	3.508252e-06	1.459609e-09	2.433307e+01	1.013222e+02
2.660000e-06	3.544366e-06	1.465753e-09	2.458356e+01	1.018871e+02
2.670000e-06	3.580353e-06	1.472125e-09	2.483316e+01	1.024399e+02
2.680000e-06	3.616245e-06	1.479382e-09	2.508211e+01	1.029813e+02
2.690000e-06	3.652037e-06	1.489167e-09	2.533036e+01	1.035120e+02
2.700000e-06	3.687676e-06	1.498857e-09	2.557755e+01	1.040328e+02
2.710000e-06	3.723083e-06	1.504414e-09	2.582313e+01	1.045441e+02
2.720000e-06	3.758272e-06	1.508949e-09	2.606720e+01	1.050465e+02
2.730000e-06	3.793109e-06	1.514669e-09	2.630883e+01	1.055405e+02
2.740000e-06	3.827417e-06	1.522083e-09	2.654678e+01	1.060264e+02
2.750000e-06	3.861216e-06	1.529752e-09	2.678122e+01	1.065044e+02
2.760000e-06	3.894488e-06	1.537103e-09	2.701199e+01	1.069746e+02
2.770000e-06	3.927304e-06	1.545793e-09	2.723960e+01	1.074373e+02
2.780000e-06	3.959804e-06	1.554703e-09	2.746502e+01	1.078924e+02
2.790000e-06	3.992065e-06	1.562556e-09	2.768878e+01	1.083398e+02
2.800000e-06	4.024105e-06	1.569872e-09	2.791101e+01	1.087794e+02
2.810000e-06	4.055953e-06	1.575428e-09	2.813190e+01	1.092110e+02
2.820000e-06	4.087672e-06	1.580352e-09	2.835191e+01	1.096344e+02
2.830000e-06	4.119214e-06	1.586206e-09	2.857068e+01	1.100492e+02
2.840000e-06	4.150517e-06	1.591964e-09	2.878779e+01	1.104551e+02
2.850000e-06	4.181497e-06	1.597711e-09	2.900267e+01	1.108517e+02
2.860000e-06	4.212122e-06	1.604894e-09	2.921509e+01	1.112388e+02
2.870000e-06	4.242420e-06	1.613213e-09	2.942523e+01	1.116159e+02
2.880000e-06	4.272418e-06	1.619155e-09	2.963330e+01	1.119827e+02
2.890000e-06	4.302172e-06	1.622626e-09	2.983967e+01	1.123388e+02
2.900000e-06	4.331611e-06	1.626361e-09	3.004386e+01	1.126841e+02
