# Temperatura_=_12.82
# Concentracion g/m^3_=_1620.0
# C_Vs_to_Am_M_A/Vsm_=_65563218390.804596
# pendiente_HvsI_1/m_=_3716.3
# ordenada_HvsI_A/m_=_1297.0
# frecuencia_Hz_=_135107.36443622102

Tiempo_(s)	Campo_(V.s)	Magnetizacion_(V.s)	Campo_(kA/m)	Magnetizacion_(A/m)
0.000000e+00	-5.524221e-06	-1.824627e-09	-3.836852e+01	-1.189059e+02
1.000000e-08	-5.524356e-06	-1.821776e-09	-3.836946e+01	-1.188353e+02
2.000000e-08	-5.524227e-06	-1.822163e-09	-3.836856e+01	-1.187624e+02
3.000000e-08	-5.523750e-06	-1.823010e-09	-3.836525e+01	-1.186874e+02
4.000000e-08	-5.522756e-06	-1.822617e-09	-3.835835e+01	-1.186106e+02
5.000000e-08	-5.521230e-06	-1.821896e-09	-3.834775e+01	-1.185323e+02
6.000000e-08	-5.519071e-06	-1.821079e-09	-3.833276e+01	-1.184527e+02
7.000000e-08	-5.516304e-06	-1.825152e-09	-3.831353e+01	-1.183722e+02
8.000000e-08	-5.513060e-06	-1.829160e-09	-3.829101e+01	-1.182909e+02
9.000000e-08	-5.509321e-06	-1.819410e-09	-3.826504e+01	-1.182090e+02
1.000000e-07	-5.505169e-06	-1.839962e-09	-3.823620e+01	-1.181267e+02
1.100000e-07	-5.500724e-06	-1.874608e-09	-3.820533e+01	-1.180439e+02
1.200000e-07	-5.496102e-06	-1.829489e-09	-3.817322e+01	-1.179608e+02
1.300000e-07	-5.491215e-06	-1.751009e-09	-3.813928e+01	-1.178774e+02
1.400000e-07	-5.485920e-06	-1.777030e-09	-3.810250e+01	-1.177936e+02
1.500000e-07	-5.480170e-06	-1.849465e-09	-3.806257e+01	-1.177093e+02
1.600000e-07	-5.474039e-06	-1.866918e-09	-3.801999e+01	-1.176244e+02
1.700000e-07	-5.467494e-06	-1.761576e-09	-3.797453e+01	-1.175388e+02
1.800000e-07	-5.460507e-06	-1.778324e-09	-3.792600e+01	-1.174521e+02
1.900000e-07	-5.453210e-06	-1.845372e-09	-3.787532e+01	-1.173643e+02
2.000000e-07	-5.445671e-06	-1.866398e-09	-3.782295e+01	-1.172749e+02
2.100000e-07	-5.437852e-06	-1.803801e-09	-3.776864e+01	-1.171837e+02
2.200000e-07	-5.429789e-06	-1.806089e-09	-3.771264e+01	-1.170905e+02
2.300000e-07	-5.421470e-06	-1.857190e-09	-3.765487e+01	-1.169948e+02
2.400000e-07	-5.412653e-06	-1.866396e-09	-3.759363e+01	-1.168963e+02
2.500000e-07	-5.403185e-06	-1.822515e-09	-3.752786e+01	-1.167948e+02
2.600000e-07	-5.393013e-06	-1.808237e-09	-3.745722e+01	-1.166898e+02
2.700000e-07	-5.382169e-06	-1.843514e-09	-3.738190e+01	-1.165810e+02
2.800000e-07	-5.370832e-06	-1.839386e-09	-3.730316e+01	-1.164682e+02
2.900000e-07	-5.359104e-06	-1.816441e-09	-3.722170e+01	-1.163511e+02
3.000000e-07	-5.347017e-06	-1.789138e-09	-3.713775e+01	-1.162294e+02
3.100000e-07	-5.334547e-06	-1.819274e-09	-3.705114e+01	-1.161029e+02
3.200000e-07	-5.321652e-06	-1.809827e-09	-3.696158e+01	-1.159713e+02
3.300000e-07	-5.308331e-06	-1.790775e-09	-3.686906e+01	-1.158347e+02
3.400000e-07	-5.294616e-06	-1.764114e-09	-3.677380e+01	-1.156927e+02
3.500000e-07	-5.280520e-06	-1.812968e-09	-3.667590e+01	-1.155454e+02
3.600000e-07	-5.266043e-06	-1.813279e-09	-3.657535e+01	-1.153927e+02
3.700000e-07	-5.251153e-06	-1.786749e-09	-3.647192e+01	-1.152346e+02
3.800000e-07	-5.235660e-06	-1.780531e-09	-3.636432e+01	-1.150711e+02
3.900000e-07	-5.219672e-06	-1.818646e-09	-3.625328e+01	-1.149023e+02
4.000000e-07	-5.203210e-06	-1.771596e-09	-3.613894e+01	-1.147284e+02
4.100000e-07	-5.186276e-06	-1.747593e-09	-3.602132e+01	-1.145493e+02
4.200000e-07	-5.169137e-06	-1.800395e-09	-3.590228e+01	-1.143653e+02
4.300000e-07	-5.151745e-06	-1.808212e-09	-3.578149e+01	-1.141765e+02
4.400000e-07	-5.133977e-06	-1.737657e-09	-3.565808e+01	-1.139832e+02
4.500000e-07	-5.115884e-06	-1.771427e-09	-3.553242e+01	-1.137854e+02
4.600000e-07	-5.097409e-06	-1.824284e-09	-3.540410e+01	-1.135834e+02
4.700000e-07	-5.078445e-06	-1.754166e-09	-3.527239e+01	-1.133774e+02
4.800000e-07	-5.059110e-06	-1.726176e-09	-3.513809e+01	-1.131674e+02
4.900000e-07	-5.039503e-06	-1.794127e-09	-3.500191e+01	-1.129538e+02
5.000000e-07	-5.019672e-06	-1.761266e-09	-3.486418e+01	-1.127366e+02
5.100000e-07	-4.999653e-06	-1.691161e-09	-3.472513e+01	-1.125159e+02
5.200000e-07	-4.979348e-06	-1.753684e-09	-3.458410e+01	-1.122919e+02
5.300000e-07	-4.958667e-06	-1.767735e-09	-3.444047e+01	-1.120645e+02
5.400000e-07	-4.937599e-06	-1.692722e-09	-3.429414e+01	-1.118340e+02
5.500000e-07	-4.916226e-06	-1.718596e-09	-3.414569e+01	-1.116001e+02
5.600000e-07	-4.894553e-06	-1.777131e-09	-3.399516e+01	-1.113630e+02
5.700000e-07	-4.872555e-06	-1.704016e-09	-3.384237e+01	-1.111225e+02
5.800000e-07	-4.850094e-06	-1.683709e-09	-3.368637e+01	-1.108786e+02
5.900000e-07	-4.827250e-06	-1.740783e-09	-3.352770e+01	-1.106311e+02
6.000000e-07	-4.804214e-06	-1.711657e-09	-3.336771e+01	-1.103800e+02
6.100000e-07	-4.780882e-06	-1.655233e-09	-3.320566e+01	-1.101249e+02
6.200000e-07	-4.757268e-06	-1.699933e-09	-3.304164e+01	-1.098658e+02
6.300000e-07	-4.733422e-06	-1.698403e-09	-3.287602e+01	-1.096023e+02
6.400000e-07	-4.709269e-06	-1.656140e-09	-3.270826e+01	-1.093344e+02
6.500000e-07	-4.684811e-06	-1.673306e-09	-3.253839e+01	-1.090617e+02
6.600000e-07	-4.660015e-06	-1.691126e-09	-3.236617e+01	-1.087840e+02
6.700000e-07	-4.634704e-06	-1.648947e-09	-3.219038e+01	-1.085011e+02
6.800000e-07	-4.608810e-06	-1.650880e-09	-3.201053e+01	-1.082128e+02
6.900000e-07	-4.582306e-06	-1.664539e-09	-3.182644e+01	-1.079187e+02
7.000000e-07	-4.555276e-06	-1.639158e-09	-3.163871e+01	-1.076188e+02
7.100000e-07	-4.527916e-06	-1.626815e-09	-3.144868e+01	-1.073128e+02
7.200000e-07	-4.500338e-06	-1.645523e-09	-3.125713e+01	-1.070006e+02
7.300000e-07	-4.472543e-06	-1.629224e-09	-3.106408e+01	-1.066820e+02
7.400000e-07	-4.444574e-06	-1.612063e-09	-3.086983e+01	-1.063569e+02
7.500000e-07	-4.416409e-06	-1.618904e-09	-3.067421e+01	-1.060253e+02
7.600000e-07	-4.387948e-06	-1.614142e-09	-3.047653e+01	-1.056870e+02
7.700000e-07	-4.359198e-06	-1.599733e-09	-3.027685e+01	-1.053421e+02
7.800000e-07	-4.330044e-06	-1.599638e-09	-3.007436e+01	-1.049906e+02
7.900000e-07	-4.300561e-06	-1.594154e-09	-2.986958e+01	-1.046324e+02
8.000000e-07	-4.270918e-06	-1.576524e-09	-2.966370e+01	-1.042677e+02
8.100000e-07	-4.240962e-06	-1.574708e-09	-2.945563e+01	-1.038966e+02
8.200000e-07	-4.210631e-06	-1.570833e-09	-2.924497e+01	-1.035192e+02
8.300000e-07	-4.180038e-06	-1.554223e-09	-2.903249e+01	-1.031357e+02
8.400000e-07	-4.149208e-06	-1.546788e-09	-2.881836e+01	-1.027462e+02
8.500000e-07	-4.118120e-06	-1.554081e-09	-2.860243e+01	-1.023509e+02
8.600000e-07	-4.086727e-06	-1.545607e-09	-2.838439e+01	-1.019500e+02
8.700000e-07	-4.055099e-06	-1.538184e-09	-2.816472e+01	-1.015438e+02
8.800000e-07	-4.023361e-06	-1.536604e-09	-2.794429e+01	-1.011325e+02
8.900000e-07	-3.991488e-06	-1.526537e-09	-2.772291e+01	-1.007163e+02
9.000000e-07	-3.959409e-06	-1.507078e-09	-2.750011e+01	-1.002955e+02
9.100000e-07	-3.927010e-06	-1.506953e-09	-2.727508e+01	-9.987032e+01
9.200000e-07	-3.894239e-06	-1.502996e-09	-2.704747e+01	-9.944100e+01
9.300000e-07	-3.861107e-06	-1.492182e-09	-2.681735e+01	-9.900778e+01
9.400000e-07	-3.827529e-06	-1.487654e-09	-2.658413e+01	-9.857090e+01
9.500000e-07	-3.793453e-06	-1.490108e-09	-2.634746e+01	-9.813059e+01
9.600000e-07	-3.758887e-06	-1.475300e-09	-2.610738e+01	-9.768706e+01
9.700000e-07	-3.723884e-06	-1.463317e-09	-2.586427e+01	-9.724053e+01
9.800000e-07	-3.688595e-06	-1.460497e-09	-2.561917e+01	-9.679119e+01
9.900000e-07	-3.653073e-06	-1.452628e-09	-2.537245e+01	-9.633921e+01
1.000000e-06	-3.617390e-06	-1.439947e-09	-2.512461e+01	-9.588477e+01
1.010000e-06	-3.581595e-06	-1.436841e-09	-2.487600e+01	-9.542802e+01
1.020000e-06	-3.545619e-06	-1.429715e-09	-2.462612e+01	-9.496909e+01
1.030000e-06	-3.509448e-06	-1.414932e-09	-2.437490e+01	-9.450811e+01
1.040000e-06	-3.473104e-06	-1.405929e-09	-2.412248e+01	-9.404519e+01
1.050000e-06	-3.436542e-06	-1.402660e-09	-2.386853e+01	-9.358041e+01
1.060000e-06	-3.399785e-06	-1.392997e-09	-2.361323e+01	-9.311384e+01
1.070000e-06	-3.362764e-06	-1.382556e-09	-2.335610e+01	-9.264553e+01
1.080000e-06	-3.325371e-06	-1.379274e-09	-2.309639e+01	-9.217552e+01
1.090000e-06	-3.287693e-06	-1.371626e-09	-2.283470e+01	-9.170381e+01
1.100000e-06	-3.249866e-06	-1.359947e-09	-2.257197e+01	-9.123040e+01
1.110000e-06	-3.211850e-06	-1.348766e-09	-2.230793e+01	-9.075523e+01
1.120000e-06	-3.173616e-06	-1.335419e-09	-2.204238e+01	-9.027826e+01
1.130000e-06	-3.135209e-06	-1.318085e-09	-2.177562e+01	-8.979940e+01
1.140000e-06	-3.096522e-06	-1.309346e-09	-2.150692e+01	-8.931851e+01
1.150000e-06	-3.057526e-06	-1.307818e-09	-2.123607e+01	-8.883547e+01
1.160000e-06	-3.018353e-06	-1.304975e-09	-2.096399e+01	-8.835007e+01
1.170000e-06	-2.979062e-06	-1.297749e-09	-2.069110e+01	-8.786210e+01
1.180000e-06	-2.939569e-06	-1.292061e-09	-2.041680e+01	-8.737132e+01
1.190000e-06	-2.899862e-06	-1.281636e-09	-2.014102e+01	-8.687742e+01
1.200000e-06	-2.860042e-06	-1.268705e-09	-1.986445e+01	-8.638008e+01
1.210000e-06	-2.820132e-06	-1.256392e-09	-1.958725e+01	-8.587893e+01
1.220000e-06	-2.780084e-06	-1.245777e-09	-1.930910e+01	-8.537357e+01
1.230000e-06	-2.739849e-06	-1.234188e-09	-1.902964e+01	-8.486355e+01
1.240000e-06	-2.699499e-06	-1.226061e-09	-1.874939e+01	-8.434839e+01
1.250000e-06	-2.658990e-06	-1.217901e-09	-1.846804e+01	-8.382756e+01
1.260000e-06	-2.618193e-06	-1.209343e-09	-1.818468e+01	-8.330053e+01
1.270000e-06	-2.577210e-06	-1.199982e-09	-1.790003e+01	-8.276672e+01
1.280000e-06	-2.535956e-06	-1.188735e-09	-1.761350e+01	-8.222551e+01
1.290000e-06	-2.494371e-06	-1.174542e-09	-1.732468e+01	-8.167628e+01
1.300000e-06	-2.452460e-06	-1.161676e-09	-1.703358e+01	-8.111839e+01
1.310000e-06	-2.410179e-06	-1.149013e-09	-1.673992e+01	-8.055120e+01
1.320000e-06	-2.367565e-06	-1.138513e-09	-1.644394e+01	-7.997404e+01
1.330000e-06	-2.324703e-06	-1.131103e-09	-1.614624e+01	-7.938626e+01
1.340000e-06	-2.281638e-06	-1.123828e-09	-1.584714e+01	-7.878721e+01
1.350000e-06	-2.238368e-06	-1.113044e-09	-1.554660e+01	-7.817627e+01
1.360000e-06	-2.194940e-06	-1.101483e-09	-1.524498e+01	-7.755284e+01
1.370000e-06	-2.151350e-06	-1.089785e-09	-1.494222e+01	-7.691633e+01
1.380000e-06	-2.107642e-06	-1.077132e-09	-1.463864e+01	-7.626621e+01
1.390000e-06	-2.063846e-06	-1.065056e-09	-1.433446e+01	-7.560199e+01
1.400000e-06	-2.019960e-06	-1.052069e-09	-1.402965e+01	-7.492321e+01
1.410000e-06	-1.976029e-06	-1.038759e-09	-1.372452e+01	-7.422947e+01
1.420000e-06	-1.932058e-06	-1.025093e-09	-1.341912e+01	-7.352044e+01
1.430000e-06	-1.887974e-06	-1.012020e-09	-1.311294e+01	-7.279582e+01
1.440000e-06	-1.843778e-06	-9.998194e-10	-1.280598e+01	-7.205541e+01
1.450000e-06	-1.799514e-06	-9.891596e-10	-1.249854e+01	-7.129901e+01
1.460000e-06	-1.755194e-06	-9.805543e-10	-1.219071e+01	-7.052654e+01
1.470000e-06	-1.710809e-06	-9.723160e-10	-1.188244e+01	-6.973792e+01
1.480000e-06	-1.666215e-06	-9.616460e-10	-1.157271e+01	-6.893316e+01
1.490000e-06	-1.621340e-06	-9.477168e-10	-1.126103e+01	-6.811229e+01
1.500000e-06	-1.576311e-06	-9.277443e-10	-1.094828e+01	-6.727539e+01
1.510000e-06	-1.531155e-06	-9.094821e-10	-1.063465e+01	-6.642257e+01
1.520000e-06	-1.485867e-06	-8.962251e-10	-1.032010e+01	-6.555394e+01
1.530000e-06	-1.440521e-06	-8.858298e-10	-1.000515e+01	-6.466964e+01
1.540000e-06	-1.395126e-06	-8.760103e-10	-9.689860e+00	-6.376979e+01
1.550000e-06	-1.349689e-06	-8.676581e-10	-9.374277e+00	-6.285452e+01
1.560000e-06	-1.304199e-06	-8.552065e-10	-9.058323e+00	-6.192389e+01
1.570000e-06	-1.258564e-06	-8.381091e-10	-8.741369e+00	-6.097797e+01
1.580000e-06	-1.212883e-06	-8.223325e-10	-8.424088e+00	-6.001674e+01
1.590000e-06	-1.167184e-06	-8.078971e-10	-8.106690e+00	-5.904012e+01
1.600000e-06	-1.121384e-06	-7.896114e-10	-7.788580e+00	-5.804798e+01
1.610000e-06	-1.075499e-06	-7.717992e-10	-7.469885e+00	-5.704006e+01
1.620000e-06	-1.029465e-06	-7.560699e-10	-7.150160e+00	-5.601604e+01
1.630000e-06	-9.833490e-07	-7.410399e-10	-6.829859e+00	-5.497548e+01
1.640000e-06	-9.371261e-07	-7.271721e-10	-6.508817e+00	-5.391783e+01
1.650000e-06	-8.907789e-07	-7.123801e-10	-6.186912e+00	-5.284242e+01
1.660000e-06	-8.444434e-07	-6.970391e-10	-5.865089e+00	-5.174846e+01
1.670000e-06	-7.980819e-07	-6.829315e-10	-5.543085e+00	-5.063507e+01
1.680000e-06	-7.516909e-07	-6.670674e-10	-5.220876e+00	-4.950121e+01
1.690000e-06	-7.052337e-07	-6.484144e-10	-4.898207e+00	-4.834576e+01
1.700000e-06	-6.586362e-07	-6.270246e-10	-4.574563e+00	-4.716750e+01
1.710000e-06	-6.119913e-07	-6.028862e-10	-4.250591e+00	-4.596509e+01
1.720000e-06	-5.653058e-07	-5.798780e-10	-3.926336e+00	-4.473713e+01
1.730000e-06	-5.186317e-07	-5.583966e-10	-3.602161e+00	-4.348214e+01
1.740000e-06	-4.720015e-07	-5.421296e-10	-3.278291e+00	-4.219860e+01
1.750000e-06	-4.252818e-07	-5.270800e-10	-2.953798e+00	-4.088495e+01
1.760000e-06	-3.784596e-07	-5.087501e-10	-2.628594e+00	-3.953963e+01
1.770000e-06	-3.316363e-07	-4.857936e-10	-2.303383e+00	-3.816108e+01
1.780000e-06	-2.848054e-07	-4.625729e-10	-1.978119e+00	-3.674776e+01
1.790000e-06	-2.380214e-07	-4.406695e-10	-1.653180e+00	-3.529822e+01
1.800000e-06	-1.913169e-07	-4.182970e-10	-1.328793e+00	-3.381107e+01
1.810000e-06	-1.445145e-07	-3.973431e-10	-1.003727e+00	-3.228503e+01
1.820000e-06	-9.763261e-08	-3.771105e-10	-6.781081e-01	-3.071893e+01
1.830000e-06	-5.079789e-08	-3.556795e-10	-3.528172e-01	-2.911179e+01
1.840000e-06	-3.996985e-09	-3.314527e-10	-2.776109e-02	-2.746278e+01
1.850000e-06	4.280444e-08	-3.053471e-10	2.972986e-01	-2.577127e+01
1.860000e-06	8.966427e-08	-2.822353e-10	6.227639e-01	-2.403684e+01
1.870000e-06	1.365137e-07	-2.592461e-10	9.481572e-01	-2.225932e+01
1.880000e-06	1.833295e-07	-2.363748e-10	1.273317e+00	-2.043876e+01
1.890000e-06	2.301428e-07	-2.126246e-10	1.598459e+00	-1.857548e+01
1.900000e-06	2.769215e-07	-1.859443e-10	1.923361e+00	-1.667007e+01
1.910000e-06	3.238015e-07	-1.587755e-10	2.248966e+00	-1.472338e+01
1.920000e-06	3.706784e-07	-1.291016e-10	2.574550e+00	-1.273656e+01
1.930000e-06	4.174393e-07	-9.875648e-11	2.899328e+00	-1.071100e+01
1.940000e-06	4.641459e-07	-6.824356e-11	3.223729e+00	-8.648388e+00
1.950000e-06	5.108064e-07	-3.744675e-11	3.547810e+00	-6.550653e+00
1.960000e-06	5.574166e-07	-7.820801e-12	3.871542e+00	-4.419990e+00
1.970000e-06	6.039444e-07	2.066931e-11	4.194701e+00	-2.258827e+00
1.980000e-06	6.503911e-07	5.062186e-11	4.517297e+00	-6.981626e-02
1.990000e-06	6.967608e-07	8.298069e-11	4.839358e+00	2.144188e+00
2.000000e-06	7.431138e-07	1.167034e-10	5.161303e+00	4.380148e+00
2.010000e-06	7.894562e-07	1.503874e-10	5.483175e+00	6.634871e+00
2.020000e-06	8.357737e-07	1.851325e-10	5.804874e+00	8.905026e+00
2.030000e-06	8.820801e-07	2.205346e-10	6.126495e+00	1.118718e+01
2.040000e-06	9.283082e-07	2.551576e-10	6.447572e+00	1.347782e+01
2.050000e-06	9.744643e-07	2.875070e-10	6.768150e+00	1.577337e+01
2.060000e-06	1.020571e-06	3.172295e-10	7.088385e+00	1.807025e+01
2.070000e-06	1.066587e-06	3.454542e-10	7.407986e+00	2.036488e+01
2.080000e-06	1.112486e-06	3.740343e-10	7.726783e+00	2.265369e+01
2.090000e-06	1.158345e-06	4.037415e-10	8.045294e+00	2.493321e+01
2.100000e-06	1.204173e-06	4.357834e-10	8.363595e+00	2.720003e+01
2.110000e-06	1.249902e-06	4.691379e-10	8.681208e+00	2.945083e+01
2.120000e-06	1.295521e-06	5.007036e-10	8.998055e+00	3.168247e+01
2.130000e-06	1.341116e-06	5.317800e-10	9.314731e+00	3.389192e+01
2.140000e-06	1.386606e-06	5.604604e-10	9.630682e+00	3.607633e+01
2.150000e-06	1.431902e-06	5.863700e-10	9.945287e+00	3.823304e+01
2.160000e-06	1.477147e-06	6.127673e-10	1.025954e+01	4.035959e+01
2.170000e-06	1.522285e-06	6.384767e-10	1.057304e+01	4.245372e+01
2.180000e-06	1.567286e-06	6.647788e-10	1.088560e+01	4.451337e+01
2.190000e-06	1.612119e-06	6.933431e-10	1.119698e+01	4.653673e+01
2.200000e-06	1.656798e-06	7.242842e-10	1.150730e+01	4.852220e+01
2.210000e-06	1.701389e-06	7.552318e-10	1.181701e+01	5.046840e+01
2.220000e-06	1.745835e-06	7.836478e-10	1.212571e+01	5.237416e+01
2.230000e-06	1.790120e-06	8.094867e-10	1.243329e+01	5.423856e+01
2.240000e-06	1.834301e-06	8.318172e-10	1.274016e+01	5.606085e+01
2.250000e-06	1.878426e-06	8.508649e-10	1.304663e+01	5.784050e+01
2.260000e-06	1.922418e-06	8.699861e-10	1.335217e+01	5.957719e+01
2.270000e-06	1.966321e-06	8.924615e-10	1.365710e+01	6.127074e+01
2.280000e-06	2.010207e-06	9.176375e-10	1.396191e+01	6.292118e+01
2.290000e-06	2.054049e-06	9.434053e-10	1.426641e+01	6.452866e+01
2.300000e-06	2.097835e-06	9.674296e-10	1.457053e+01	6.609351e+01
2.310000e-06	2.141532e-06	9.887006e-10	1.487403e+01	6.761615e+01
2.320000e-06	2.185091e-06	1.007665e-09	1.517657e+01	6.909716e+01
2.330000e-06	2.228441e-06	1.024593e-09	1.547765e+01	7.053718e+01
2.340000e-06	2.271643e-06	1.040567e-09	1.577772e+01	7.193697e+01
2.350000e-06	2.314698e-06	1.058659e-09	1.607676e+01	7.329734e+01
2.360000e-06	2.357493e-06	1.078811e-09	1.637398e+01	7.461918e+01
2.370000e-06	2.399983e-06	1.098499e-09	1.666910e+01	7.590344e+01
2.380000e-06	2.442126e-06	1.118045e-09	1.696181e+01	7.715108e+01
2.390000e-06	2.483992e-06	1.136597e-09	1.725258e+01	7.836313e+01
2.400000e-06	2.525536e-06	1.153046e-09	1.754113e+01	7.954061e+01
2.410000e-06	2.566781e-06	1.168503e-09	1.782760e+01	8.068457e+01
2.420000e-06	2.607800e-06	1.181703e-09	1.811250e+01	8.179606e+01
2.430000e-06	2.648510e-06	1.196138e-09	1.839525e+01	8.287614e+01
2.440000e-06	2.688916e-06	1.213661e-09	1.867589e+01	8.392587e+01
2.450000e-06	2.729217e-06	1.232533e-09	1.895580e+01	8.494627e+01
2.460000e-06	2.769416e-06	1.249645e-09	1.923500e+01	8.593839e+01
2.470000e-06	2.809416e-06	1.262652e-09	1.951282e+01	8.690323e+01
2.480000e-06	2.849328e-06	1.274085e-09	1.979003e+01	8.784179e+01
2.490000e-06	2.889111e-06	1.285098e-09	2.006634e+01	8.875504e+01
2.500000e-06	2.928751e-06	1.295439e-09	2.034167e+01	8.964393e+01
2.510000e-06	2.968286e-06	1.309395e-09	2.061626e+01	9.050938e+01
2.520000e-06	3.007670e-06	1.324195e-09	2.088980e+01	9.135231e+01
2.530000e-06	3.046804e-06	1.341567e-09	2.116160e+01	9.217357e+01
2.540000e-06	3.085631e-06	1.359298e-09	2.143128e+01	9.297402e+01
2.550000e-06	3.124260e-06	1.372412e-09	2.169957e+01	9.375447e+01
2.560000e-06	3.162674e-06	1.381831e-09	2.196638e+01	9.451571e+01
2.570000e-06	3.200828e-06	1.388445e-09	2.223138e+01	9.525849e+01
2.580000e-06	3.238828e-06	1.395704e-09	2.249531e+01	9.598353e+01
2.590000e-06	3.276654e-06	1.404636e-09	2.275803e+01	9.669153e+01
2.600000e-06	3.314270e-06	1.420130e-09	2.301929e+01	9.738313e+01
2.610000e-06	3.351653e-06	1.438029e-09	2.327894e+01	9.805894e+01
2.620000e-06	3.388744e-06	1.453896e-09	2.353655e+01	9.871956e+01
2.630000e-06	3.425607e-06	1.465259e-09	2.379258e+01	9.936550e+01
2.640000e-06	3.462195e-06	1.474406e-09	2.404671e+01	9.999729e+01
2.650000e-06	3.498496e-06	1.483164e-09	2.429883e+01	1.006154e+02
2.660000e-06	3.534571e-06	1.489527e-09	2.454940e+01	1.012201e+02
2.670000e-06	3.570472e-06	1.495146e-09	2.479874e+01	1.018120e+02
2.680000e-06	3.606243e-06	1.500025e-09	2.504719e+01	1.023912e+02
2.690000e-06	3.641919e-06	1.506254e-09	2.529498e+01	1.029582e+02
2.700000e-06	3.677485e-06	1.517446e-09	2.554201e+01	1.035130e+02
2.710000e-06	3.712861e-06	1.526123e-09	2.578771e+01	1.040560e+02
2.720000e-06	3.747976e-06	1.532716e-09	2.603160e+01	1.045873e+02
2.730000e-06	3.782665e-06	1.538501e-09	2.627253e+01	1.051070e+02
2.740000e-06	3.816862e-06	1.542275e-09	2.651005e+01	1.056152e+02
2.750000e-06	3.850617e-06	1.546661e-09	2.674449e+01	1.061119e+02
2.760000e-06	3.883969e-06	1.554258e-09	2.697614e+01	1.065972e+02
2.770000e-06	3.916931e-06	1.564005e-09	2.720508e+01	1.070711e+02
2.780000e-06	3.949507e-06	1.573340e-09	2.743133e+01	1.075335e+02
2.790000e-06	3.981760e-06	1.583598e-09	2.765535e+01	1.079843e+02
2.800000e-06	4.013766e-06	1.590984e-09	2.787764e+01	1.084236e+02
2.810000e-06	4.045615e-06	1.594756e-09	2.809885e+01	1.088513e+02
2.820000e-06	4.077359e-06	1.598500e-09	2.831933e+01	1.092673e+02
2.830000e-06	4.108888e-06	1.605394e-09	2.853832e+01	1.096714e+02
2.840000e-06	4.140169e-06	1.613017e-09	2.875558e+01	1.100637e+02
2.850000e-06	4.171188e-06	1.617846e-09	2.897102e+01	1.104441e+02
2.860000e-06	4.201926e-06	1.623460e-09	2.918451e+01	1.108125e+02
2.870000e-06	4.232378e-06	1.631602e-09	2.939602e+01	1.111689e+02
2.880000e-06	4.262471e-06	1.636774e-09	2.960503e+01	1.115133e+02
2.890000e-06	4.292226e-06	1.639480e-09	2.981169e+01	1.118457e+02
2.900000e-06	4.321739e-06	1.642428e-09	3.001668e+01	1.121662e+02
