# Temperatura_=_8.39
# Concentracion g/m^3_=_1620.0
# C_Vs_to_Am_M_A/Vsm_=_65563218390.804596
# pendiente_HvsI_1/m_=_3716.3
# ordenada_HvsI_A/m_=_1297.0
# frecuencia_Hz_=_135112.42804475693

Tiempo_(s)	Campo_(V.s)	Magnetizacion_(V.s)	Campo_(kA/m)	Magnetizacion_(A/m)
0.000000e+00	-5.524766e-06	-1.644328e-09	-3.836385e+01	-1.072828e+02
1.000000e-08	-5.524979e-06	-1.642492e-09	-3.836533e+01	-1.072493e+02
2.000000e-08	-5.524925e-06	-1.643747e-09	-3.836495e+01	-1.072159e+02
3.000000e-08	-5.524427e-06	-1.647100e-09	-3.836150e+01	-1.071823e+02
4.000000e-08	-5.523414e-06	-1.648561e-09	-3.835446e+01	-1.071481e+02
5.000000e-08	-5.521887e-06	-1.641496e-09	-3.834386e+01	-1.071128e+02
6.000000e-08	-5.519739e-06	-1.622239e-09	-3.832894e+01	-1.070761e+02
7.000000e-08	-5.517002e-06	-1.613124e-09	-3.830994e+01	-1.070375e+02
8.000000e-08	-5.513746e-06	-1.667631e-09	-3.828733e+01	-1.069966e+02
9.000000e-08	-5.510013e-06	-1.745997e-09	-3.826141e+01	-1.069530e+02
1.000000e-07	-5.505873e-06	-1.700536e-09	-3.823266e+01	-1.069063e+02
1.100000e-07	-5.501453e-06	-1.568811e-09	-3.820197e+01	-1.068560e+02
1.200000e-07	-5.496944e-06	-1.580296e-09	-3.817066e+01	-1.068018e+02
1.300000e-07	-5.492140e-06	-1.649721e-09	-3.813730e+01	-1.067434e+02
1.400000e-07	-5.486832e-06	-1.672985e-09	-3.810044e+01	-1.066805e+02
1.500000e-07	-5.481143e-06	-1.569958e-09	-3.806094e+01	-1.066127e+02
1.600000e-07	-5.475183e-06	-1.606724e-09	-3.801955e+01	-1.065400e+02
1.700000e-07	-5.468722e-06	-1.707955e-09	-3.797469e+01	-1.064619e+02
1.800000e-07	-5.461684e-06	-1.679599e-09	-3.792581e+01	-1.063785e+02
1.900000e-07	-5.454341e-06	-1.572399e-09	-3.787483e+01	-1.062895e+02
2.000000e-07	-5.446850e-06	-1.548973e-09	-3.782281e+01	-1.061950e+02
2.100000e-07	-5.439139e-06	-1.645597e-09	-3.776926e+01	-1.060948e+02
2.200000e-07	-5.431153e-06	-1.657727e-09	-3.771381e+01	-1.059889e+02
2.300000e-07	-5.422919e-06	-1.625266e-09	-3.765663e+01	-1.058775e+02
2.400000e-07	-5.414181e-06	-1.604646e-09	-3.759595e+01	-1.057605e+02
2.500000e-07	-5.404709e-06	-1.643301e-09	-3.753018e+01	-1.056380e+02
2.600000e-07	-5.394507e-06	-1.609074e-09	-3.745934e+01	-1.055102e+02
2.700000e-07	-5.383791e-06	-1.586321e-09	-3.738493e+01	-1.053771e+02
2.800000e-07	-5.372571e-06	-1.581910e-09	-3.730701e+01	-1.052390e+02
2.900000e-07	-5.360843e-06	-1.628173e-09	-3.722558e+01	-1.050960e+02
3.000000e-07	-5.348824e-06	-1.606276e-09	-3.714212e+01	-1.049483e+02
3.100000e-07	-5.336484e-06	-1.571058e-09	-3.705643e+01	-1.047961e+02
3.200000e-07	-5.323579e-06	-1.555624e-09	-3.696682e+01	-1.046396e+02
3.300000e-07	-5.310232e-06	-1.586184e-09	-3.687413e+01	-1.044789e+02
3.400000e-07	-5.296694e-06	-1.570635e-09	-3.678012e+01	-1.043144e+02
3.500000e-07	-5.282726e-06	-1.533184e-09	-3.668313e+01	-1.041461e+02
3.600000e-07	-5.268152e-06	-1.555489e-09	-3.658193e+01	-1.039743e+02
3.700000e-07	-5.253225e-06	-1.608203e-09	-3.647828e+01	-1.037991e+02
3.800000e-07	-5.237824e-06	-1.569199e-09	-3.637134e+01	-1.036208e+02
3.900000e-07	-5.221786e-06	-1.526491e-09	-3.625997e+01	-1.034394e+02
4.000000e-07	-5.205422e-06	-1.577207e-09	-3.614633e+01	-1.032552e+02
4.100000e-07	-5.188781e-06	-1.573521e-09	-3.603078e+01	-1.030684e+02
4.200000e-07	-5.171750e-06	-1.504827e-09	-3.591252e+01	-1.028790e+02
4.300000e-07	-5.154407e-06	-1.537402e-09	-3.579209e+01	-1.026872e+02
4.400000e-07	-5.136841e-06	-1.615304e-09	-3.567011e+01	-1.024931e+02
4.500000e-07	-5.118865e-06	-1.539250e-09	-3.554529e+01	-1.022969e+02
4.600000e-07	-5.100319e-06	-1.506096e-09	-3.541650e+01	-1.020987e+02
4.700000e-07	-5.081305e-06	-1.575346e-09	-3.528447e+01	-1.018986e+02
4.800000e-07	-5.062010e-06	-1.567926e-09	-3.515048e+01	-1.016967e+02
4.900000e-07	-5.042523e-06	-1.486236e-09	-3.501517e+01	-1.014931e+02
5.000000e-07	-5.022882e-06	-1.537621e-09	-3.487878e+01	-1.012879e+02
5.100000e-07	-5.003041e-06	-1.548903e-09	-3.474101e+01	-1.010812e+02
5.200000e-07	-4.982849e-06	-1.483318e-09	-3.460079e+01	-1.008732e+02
5.300000e-07	-4.962217e-06	-1.512824e-09	-3.445752e+01	-1.006639e+02
5.400000e-07	-4.941207e-06	-1.581145e-09	-3.431163e+01	-1.004533e+02
5.500000e-07	-4.919853e-06	-1.498712e-09	-3.416335e+01	-1.002417e+02
5.600000e-07	-4.898146e-06	-1.471452e-09	-3.401262e+01	-1.000290e+02
5.700000e-07	-4.876133e-06	-1.544738e-09	-3.385976e+01	-9.981544e+01
5.800000e-07	-4.853727e-06	-1.528754e-09	-3.370417e+01	-9.960095e+01
5.900000e-07	-4.830927e-06	-1.468645e-09	-3.354585e+01	-9.938564e+01
6.000000e-07	-4.807850e-06	-1.515570e-09	-3.338560e+01	-9.916957e+01
6.100000e-07	-4.784466e-06	-1.517714e-09	-3.322323e+01	-9.895276e+01
6.200000e-07	-4.760860e-06	-1.458360e-09	-3.305931e+01	-9.873524e+01
6.300000e-07	-4.737092e-06	-1.473463e-09	-3.289426e+01	-9.851702e+01
6.400000e-07	-4.713050e-06	-1.502044e-09	-3.272731e+01	-9.829809e+01
6.500000e-07	-4.688560e-06	-1.468299e-09	-3.255726e+01	-9.807841e+01
6.600000e-07	-4.663567e-06	-1.469843e-09	-3.238371e+01	-9.785794e+01
6.700000e-07	-4.638130e-06	-1.495599e-09	-3.220707e+01	-9.763659e+01
6.800000e-07	-4.612139e-06	-1.465876e-09	-3.202659e+01	-9.741428e+01
6.900000e-07	-4.585507e-06	-1.447972e-09	-3.184166e+01	-9.719087e+01
7.000000e-07	-4.558441e-06	-1.460541e-09	-3.165371e+01	-9.696622e+01
7.100000e-07	-4.531158e-06	-1.448344e-09	-3.146426e+01	-9.674016e+01
7.200000e-07	-4.503651e-06	-1.434501e-09	-3.127325e+01	-9.651249e+01
7.300000e-07	-4.475962e-06	-1.459081e-09	-3.108098e+01	-9.628299e+01
7.400000e-07	-4.448136e-06	-1.455186e-09	-3.088776e+01	-9.605142e+01
7.500000e-07	-4.420042e-06	-1.437482e-09	-3.069268e+01	-9.581751e+01
7.600000e-07	-4.391617e-06	-1.435731e-09	-3.049529e+01	-9.558099e+01
7.700000e-07	-4.362845e-06	-1.435158e-09	-3.029550e+01	-9.534157e+01
7.800000e-07	-4.333704e-06	-1.416161e-09	-3.009314e+01	-9.509892e+01
7.900000e-07	-4.304297e-06	-1.422449e-09	-2.988895e+01	-9.485275e+01
8.000000e-07	-4.274639e-06	-1.425187e-09	-2.968300e+01	-9.460272e+01
8.100000e-07	-4.244645e-06	-1.410057e-09	-2.947472e+01	-9.434851e+01
8.200000e-07	-4.214323e-06	-1.400729e-09	-2.926416e+01	-9.408982e+01
8.300000e-07	-4.183745e-06	-1.409408e-09	-2.905184e+01	-9.382631e+01
8.400000e-07	-4.152845e-06	-1.397421e-09	-2.883726e+01	-9.355771e+01
8.500000e-07	-4.121600e-06	-1.391193e-09	-2.862030e+01	-9.328371e+01
8.600000e-07	-4.090172e-06	-1.401392e-09	-2.840207e+01	-9.300407e+01
8.700000e-07	-4.058599e-06	-1.399682e-09	-2.818282e+01	-9.271854e+01
8.800000e-07	-4.026861e-06	-1.380241e-09	-2.796243e+01	-9.242691e+01
8.900000e-07	-3.994967e-06	-1.377250e-09	-2.774097e+01	-9.212901e+01
9.000000e-07	-3.962819e-06	-1.371378e-09	-2.751773e+01	-9.182469e+01
9.100000e-07	-3.930256e-06	-1.354684e-09	-2.729161e+01	-9.151385e+01
9.200000e-07	-3.897213e-06	-1.352475e-09	-2.706216e+01	-9.119641e+01
9.300000e-07	-3.863792e-06	-1.359652e-09	-2.683009e+01	-9.087235e+01
9.400000e-07	-3.829939e-06	-1.348645e-09	-2.659501e+01	-9.054169e+01
9.500000e-07	-3.795552e-06	-1.336818e-09	-2.635623e+01	-9.020447e+01
9.600000e-07	-3.760787e-06	-1.336601e-09	-2.611482e+01	-8.986081e+01
9.700000e-07	-3.725782e-06	-1.322680e-09	-2.587175e+01	-8.951082e+01
9.800000e-07	-3.690544e-06	-1.305354e-09	-2.562706e+01	-8.915468e+01
9.900000e-07	-3.655166e-06	-1.304271e-09	-2.538140e+01	-8.879260e+01
1.000000e-06	-3.619673e-06	-1.305322e-09	-2.513493e+01	-8.842482e+01
1.010000e-06	-3.583953e-06	-1.290873e-09	-2.488689e+01	-8.805161e+01
1.020000e-06	-3.548076e-06	-1.285403e-09	-2.463776e+01	-8.767324e+01
1.030000e-06	-3.512040e-06	-1.282892e-09	-2.438753e+01	-8.729004e+01
1.040000e-06	-3.475767e-06	-1.270936e-09	-2.413565e+01	-8.690231e+01
1.050000e-06	-3.439223e-06	-1.257773e-09	-2.388189e+01	-8.651039e+01
1.060000e-06	-3.402342e-06	-1.255955e-09	-2.362579e+01	-8.611460e+01
1.070000e-06	-3.365192e-06	-1.247369e-09	-2.336782e+01	-8.571527e+01
1.080000e-06	-3.327799e-06	-1.239249e-09	-2.310816e+01	-8.531271e+01
1.090000e-06	-3.290178e-06	-1.236078e-09	-2.284692e+01	-8.490722e+01
1.100000e-06	-3.252391e-06	-1.231414e-09	-2.258453e+01	-8.449906e+01
1.110000e-06	-3.214363e-06	-1.218039e-09	-2.232046e+01	-8.408848e+01
1.120000e-06	-3.176071e-06	-1.208570e-09	-2.205457e+01	-8.367569e+01
1.130000e-06	-3.137557e-06	-1.199781e-09	-2.178713e+01	-8.326086e+01
1.140000e-06	-3.098836e-06	-1.190087e-09	-2.151825e+01	-8.284412e+01
1.150000e-06	-3.059947e-06	-1.185663e-09	-2.124820e+01	-8.242553e+01
1.160000e-06	-3.020886e-06	-1.188314e-09	-2.097697e+01	-8.200514e+01
1.170000e-06	-2.981608e-06	-1.185677e-09	-2.070422e+01	-8.158290e+01
1.180000e-06	-2.942176e-06	-1.179203e-09	-2.043040e+01	-8.115874e+01
1.190000e-06	-2.902636e-06	-1.171976e-09	-2.015584e+01	-8.073252e+01
1.200000e-06	-2.862940e-06	-1.159489e-09	-1.988019e+01	-8.030405e+01
1.210000e-06	-2.823063e-06	-1.145247e-09	-1.960329e+01	-7.987306e+01
1.220000e-06	-2.783033e-06	-1.137432e-09	-1.932532e+01	-7.943927e+01
1.230000e-06	-2.742843e-06	-1.132502e-09	-1.904624e+01	-7.900230e+01
1.240000e-06	-2.702505e-06	-1.124053e-09	-1.876614e+01	-7.856175e+01
1.250000e-06	-2.661933e-06	-1.117413e-09	-1.848440e+01	-7.811718e+01
1.260000e-06	-2.621111e-06	-1.111972e-09	-1.820094e+01	-7.766810e+01
1.270000e-06	-2.579949e-06	-1.105079e-09	-1.791511e+01	-7.721397e+01
1.280000e-06	-2.538354e-06	-1.095470e-09	-1.762628e+01	-7.675424e+01
1.290000e-06	-2.496441e-06	-1.086400e-09	-1.733523e+01	-7.628834e+01
1.300000e-06	-2.454242e-06	-1.075572e-09	-1.704220e+01	-7.581568e+01
1.310000e-06	-2.411779e-06	-1.063002e-09	-1.674734e+01	-7.533566e+01
1.320000e-06	-2.369058e-06	-1.051944e-09	-1.645069e+01	-7.484767e+01
1.330000e-06	-2.326137e-06	-1.043495e-09	-1.615264e+01	-7.435111e+01
1.340000e-06	-2.283037e-06	-1.036870e-09	-1.585336e+01	-7.384541e+01
1.350000e-06	-2.239806e-06	-1.034550e-09	-1.555316e+01	-7.332999e+01
1.360000e-06	-2.196489e-06	-1.032127e-09	-1.525237e+01	-7.280431e+01
1.370000e-06	-2.153028e-06	-1.025193e-09	-1.495058e+01	-7.226786e+01
1.380000e-06	-2.109399e-06	-1.012448e-09	-1.464762e+01	-7.172015e+01
1.390000e-06	-2.065685e-06	-9.978321e-10	-1.434407e+01	-7.116076e+01
1.400000e-06	-2.021902e-06	-9.811967e-10	-1.404005e+01	-7.058928e+01
1.410000e-06	-1.978059e-06	-9.674626e-10	-1.373560e+01	-7.000536e+01
1.420000e-06	-1.934112e-06	-9.579253e-10	-1.343043e+01	-6.940869e+01
1.430000e-06	-1.890053e-06	-9.513529e-10	-1.312449e+01	-6.879902e+01
1.440000e-06	-1.845931e-06	-9.443649e-10	-1.281811e+01	-6.817612e+01
1.450000e-06	-1.801762e-06	-9.374906e-10	-1.251140e+01	-6.753983e+01
1.460000e-06	-1.757486e-06	-9.283653e-10	-1.220394e+01	-6.689000e+01
1.470000e-06	-1.713002e-06	-9.166044e-10	-1.189505e+01	-6.622654e+01
1.480000e-06	-1.668310e-06	-9.046841e-10	-1.158471e+01	-6.554937e+01
1.490000e-06	-1.623455e-06	-8.925684e-10	-1.127323e+01	-6.485846e+01
1.500000e-06	-1.578509e-06	-8.775904e-10	-1.096113e+01	-6.415376e+01
1.510000e-06	-1.533462e-06	-8.621009e-10	-1.064833e+01	-6.343524e+01
1.520000e-06	-1.488294e-06	-8.500146e-10	-1.033468e+01	-6.270288e+01
1.530000e-06	-1.443021e-06	-8.408382e-10	-1.002030e+01	-6.195664e+01
1.540000e-06	-1.397607e-06	-8.312995e-10	-9.704952e+00	-6.119645e+01
1.550000e-06	-1.352156e-06	-8.192038e-10	-9.389339e+00	-6.042222e+01
1.560000e-06	-1.306724e-06	-8.045616e-10	-9.073864e+00	-5.963381e+01
1.570000e-06	-1.261168e-06	-7.880430e-10	-8.757521e+00	-5.883103e+01
1.580000e-06	-1.215510e-06	-7.716081e-10	-8.440476e+00	-5.801362e+01
1.590000e-06	-1.169780e-06	-7.563354e-10	-8.122928e+00	-5.718126e+01
1.600000e-06	-1.123915e-06	-7.403480e-10	-7.804444e+00	-5.633355e+01
1.610000e-06	-1.077970e-06	-7.247722e-10	-7.485402e+00	-5.546999e+01
1.620000e-06	-1.031910e-06	-7.116638e-10	-7.165558e+00	-5.459001e+01
1.630000e-06	-9.857117e-07	-6.981411e-10	-6.844760e+00	-5.369293e+01
1.640000e-06	-9.394491e-07	-6.837230e-10	-6.523514e+00	-5.277795e+01
1.650000e-06	-8.931348e-07	-6.702697e-10	-6.201909e+00	-5.184421e+01
1.660000e-06	-8.467979e-07	-6.587898e-10	-5.880146e+00	-5.089071e+01
1.670000e-06	-8.003987e-07	-6.446756e-10	-5.557951e+00	-4.991637e+01
1.680000e-06	-7.539102e-07	-6.299873e-10	-5.235136e+00	-4.892002e+01
1.690000e-06	-7.073805e-07	-6.147066e-10	-4.912035e+00	-4.790038e+01
1.700000e-06	-6.608413e-07	-5.955459e-10	-4.588868e+00	-4.685612e+01
1.710000e-06	-6.142464e-07	-5.727243e-10	-4.265314e+00	-4.578581e+01
1.720000e-06	-5.676116e-07	-5.514662e-10	-3.941483e+00	-4.468799e+01
1.730000e-06	-5.209503e-07	-5.323805e-10	-3.617467e+00	-4.356113e+01
1.740000e-06	-4.742412e-07	-5.164018e-10	-3.293120e+00	-4.240371e+01
1.750000e-06	-4.274974e-07	-5.013954e-10	-2.968532e+00	-4.121415e+01
1.760000e-06	-3.806645e-07	-4.851570e-10	-2.643326e+00	-3.999094e+01
1.770000e-06	-3.338269e-07	-4.676833e-10	-2.318086e+00	-3.873254e+01
1.780000e-06	-2.870084e-07	-4.501547e-10	-1.992980e+00	-3.743750e+01
1.790000e-06	-2.401459e-07	-4.313988e-10	-1.667568e+00	-3.610442e+01
1.800000e-06	-1.932877e-07	-4.123018e-10	-1.342186e+00	-3.473202e+01
1.810000e-06	-1.464594e-07	-3.915670e-10	-1.017011e+00	-3.331911e+01
1.820000e-06	-9.952417e-08	-3.703305e-10	-6.910937e-01	-3.186465e+01
1.830000e-06	-5.259520e-08	-3.506427e-10	-3.652199e-01	-3.036775e+01
1.840000e-06	-5.764249e-09	-3.334257e-10	-4.002682e-02	-2.882771e+01
1.850000e-06	4.110901e-08	-3.166480e-10	2.854601e-01	-2.724400e+01
1.860000e-06	8.797062e-08	-2.988501e-10	6.108660e-01	-2.561635e+01
1.870000e-06	1.348123e-07	-2.795332e-10	9.361334e-01	-2.394467e+01
1.880000e-06	1.816848e-07	-2.556206e-10	1.261615e+00	-2.222913e+01
1.890000e-06	2.286123e-07	-2.282972e-10	1.587479e+00	-2.047018e+01
1.900000e-06	2.754739e-07	-1.993433e-10	1.912885e+00	-1.866847e+01
1.910000e-06	3.223474e-07	-1.728968e-10	2.238373e+00	-1.682498e+01
1.920000e-06	3.692898e-07	-1.481761e-10	2.564340e+00	-1.494091e+01
1.930000e-06	4.161455e-07	-1.249484e-10	2.889706e+00	-1.301775e+01
1.940000e-06	4.628836e-07	-1.033916e-10	3.214254e+00	-1.105725e+01
1.950000e-06	5.095523e-07	-7.985289e-11	3.538320e+00	-9.061412e+00
1.960000e-06	5.561729e-07	-5.165950e-11	3.862053e+00	-7.032481e+00
1.970000e-06	6.026842e-07	-2.209300e-11	4.185026e+00	-4.972942e+00
1.980000e-06	6.491323e-07	9.459900e-12	4.507560e+00	-2.885493e+00
1.990000e-06	6.955853e-07	4.031373e-11	4.830129e+00	-7.730344e-01
2.000000e-06	7.419729e-07	6.989794e-11	5.152244e+00	1.361359e+00
2.010000e-06	7.883096e-07	9.699219e-11	5.474004e+00	3.514456e+00
2.020000e-06	8.346217e-07	1.238934e-10	5.795595e+00	5.682895e+00
2.030000e-06	8.808573e-07	1.504879e-10	6.116654e+00	7.863213e+00
2.040000e-06	9.270966e-07	1.790404e-10	6.437738e+00	1.005187e+01
2.050000e-06	9.733510e-07	2.115099e-10	6.758928e+00	1.224527e+01
2.060000e-06	1.019468e-06	2.441395e-10	7.079166e+00	1.443982e+01
2.070000e-06	1.065422e-06	2.758144e-10	7.398266e+00	1.663192e+01
2.080000e-06	1.111323e-06	3.057538e-10	7.717005e+00	1.881801e+01
2.090000e-06	1.157162e-06	3.330369e-10	8.035306e+00	2.099461e+01
2.100000e-06	1.202839e-06	3.597298e-10	8.352487e+00	2.315832e+01
2.110000e-06	1.248391e-06	3.877598e-10	8.668796e+00	2.530587e+01
2.120000e-06	1.293856e-06	4.181341e-10	8.984506e+00	2.743413e+01
2.130000e-06	1.339197e-06	4.495717e-10	9.299357e+00	2.954013e+01
2.140000e-06	1.384511e-06	4.796710e-10	9.614011e+00	3.162111e+01
2.150000e-06	1.429779e-06	5.074969e-10	9.928355e+00	3.367448e+01
2.160000e-06	1.474884e-06	5.322316e-10	1.024156e+01	3.569788e+01
2.170000e-06	1.519889e-06	5.569714e-10	1.055407e+01	3.768919e+01
2.180000e-06	1.564794e-06	5.821952e-10	1.086589e+01	3.964650e+01
2.190000e-06	1.609557e-06	6.081890e-10	1.117673e+01	4.156817e+01
2.200000e-06	1.654148e-06	6.354754e-10	1.148637e+01	4.345277e+01
2.210000e-06	1.698637e-06	6.655950e-10	1.179530e+01	4.529915e+01
2.220000e-06	1.743041e-06	6.939498e-10	1.210364e+01	4.710637e+01
2.230000e-06	1.787357e-06	7.179979e-10	1.241137e+01	4.887374e+01
2.240000e-06	1.831584e-06	7.374640e-10	1.271848e+01	5.060078e+01
2.250000e-06	1.875620e-06	7.532320e-10	1.302426e+01	5.228723e+01
2.260000e-06	1.919528e-06	7.698575e-10	1.332916e+01	5.393304e+01
2.270000e-06	1.963387e-06	7.915295e-10	1.363371e+01	5.553833e+01
2.280000e-06	2.007187e-06	8.179005e-10	1.393786e+01	5.710340e+01
2.290000e-06	2.050909e-06	8.436985e-10	1.424147e+01	5.862869e+01
2.300000e-06	2.094579e-06	8.684959e-10	1.454471e+01	6.011477e+01
2.310000e-06	2.138164e-06	8.917280e-10	1.484736e+01	6.156234e+01
2.320000e-06	2.181643e-06	9.094439e-10	1.514928e+01	6.297218e+01
2.330000e-06	2.225039e-06	9.248708e-10	1.545062e+01	6.434515e+01
2.340000e-06	2.268360e-06	9.416069e-10	1.575144e+01	6.568216e+01
2.350000e-06	2.311549e-06	9.593759e-10	1.605135e+01	6.698417e+01
2.360000e-06	2.354562e-06	9.756008e-10	1.635003e+01	6.825215e+01
2.370000e-06	2.397401e-06	9.923811e-10	1.664750e+01	6.948709e+01
2.380000e-06	2.439902e-06	1.009321e-09	1.694263e+01	7.068995e+01
2.390000e-06	2.482048e-06	1.023300e-09	1.723528e+01	7.186169e+01
2.400000e-06	2.523907e-06	1.037898e-09	1.752595e+01	7.300324e+01
2.410000e-06	2.565445e-06	1.053840e-09	1.781439e+01	7.411546e+01
2.420000e-06	2.606811e-06	1.071148e-09	1.810164e+01	7.519920e+01
2.430000e-06	2.647954e-06	1.089369e-09	1.838734e+01	7.625524e+01
2.440000e-06	2.688662e-06	1.105343e-09	1.867001e+01	7.728429e+01
2.450000e-06	2.729053e-06	1.117421e-09	1.895048e+01	7.828702e+01
2.460000e-06	2.769205e-06	1.129011e-09	1.922930e+01	7.926405e+01
2.470000e-06	2.809158e-06	1.140565e-09	1.950673e+01	8.021591e+01
2.480000e-06	2.849024e-06	1.151274e-09	1.978356e+01	8.114313e+01
2.490000e-06	2.888769e-06	1.163517e-09	2.005955e+01	8.204613e+01
2.500000e-06	2.928383e-06	1.176749e-09	2.033463e+01	8.292534e+01
2.510000e-06	2.967847e-06	1.190740e-09	2.060867e+01	8.378111e+01
2.520000e-06	3.007153e-06	1.203346e-09	2.088160e+01	8.461381e+01
2.530000e-06	3.046270e-06	1.217298e-09	2.115323e+01	8.542373e+01
2.540000e-06	3.085142e-06	1.231787e-09	2.142316e+01	8.621118e+01
2.550000e-06	3.123830e-06	1.240685e-09	2.169181e+01	8.697645e+01
2.560000e-06	3.162299e-06	1.245306e-09	2.195894e+01	8.771985e+01
2.570000e-06	3.200457e-06	1.250111e-09	2.222391e+01	8.844165e+01
2.580000e-06	3.238369e-06	1.258113e-09	2.248716e+01	8.914218e+01
2.590000e-06	3.276153e-06	1.267509e-09	2.274954e+01	8.982175e+01
2.600000e-06	3.313781e-06	1.278304e-09	2.301082e+01	9.048072e+01
2.610000e-06	3.351203e-06	1.291215e-09	2.327068e+01	9.111944e+01
2.620000e-06	3.388337e-06	1.306775e-09	2.352854e+01	9.173831e+01
2.630000e-06	3.425186e-06	1.318262e-09	2.378441e+01	9.233776e+01
2.640000e-06	3.461811e-06	1.324205e-09	2.403874e+01	9.291823e+01
2.650000e-06	3.498168e-06	1.328835e-09	2.429120e+01	9.348020e+01
2.660000e-06	3.534300e-06	1.334093e-09	2.454210e+01	9.402417e+01
2.670000e-06	3.570203e-06	1.340251e-09	2.479141e+01	9.455065e+01
2.680000e-06	3.605954e-06	1.346372e-09	2.503967e+01	9.506020e+01
2.690000e-06	3.641622e-06	1.354260e-09	2.528735e+01	9.555336e+01
2.700000e-06	3.677108e-06	1.361118e-09	2.553376e+01	9.603070e+01
2.710000e-06	3.712388e-06	1.365389e-09	2.577874e+01	9.649278e+01
2.720000e-06	3.747439e-06	1.370004e-09	2.602214e+01	9.694017e+01
2.730000e-06	3.782215e-06	1.375868e-09	2.626362e+01	9.737343e+01
2.740000e-06	3.816671e-06	1.381743e-09	2.650288e+01	9.779309e+01
2.750000e-06	3.850772e-06	1.386036e-09	2.673967e+01	9.819969e+01
2.760000e-06	3.884363e-06	1.389719e-09	2.697293e+01	9.859372e+01
2.770000e-06	3.917367e-06	1.395268e-09	2.720211e+01	9.897567e+01
2.780000e-06	3.949949e-06	1.402381e-09	2.742836e+01	9.934598e+01
2.790000e-06	3.982200e-06	1.410109e-09	2.765231e+01	9.970506e+01
2.800000e-06	4.014177e-06	1.417273e-09	2.787435e+01	1.000533e+02
2.810000e-06	4.045950e-06	1.423744e-09	2.809499e+01	1.003910e+02
2.820000e-06	4.077558e-06	1.430102e-09	2.831447e+01	1.007185e+02
2.830000e-06	4.108965e-06	1.435849e-09	2.853256e+01	1.010360e+02
2.840000e-06	4.140117e-06	1.439893e-09	2.874888e+01	1.013438e+02
2.850000e-06	4.171040e-06	1.444020e-09	2.896361e+01	1.016420e+02
2.860000e-06	4.201712e-06	1.449897e-09	2.917660e+01	1.019309e+02
2.870000e-06	4.232070e-06	1.456193e-09	2.938740e+01	1.022105e+02
2.880000e-06	4.262139e-06	1.462881e-09	2.959620e+01	1.024810e+02
2.890000e-06	4.291938e-06	1.470642e-09	2.980312e+01	1.027424e+02
2.900000e-06	4.321433e-06	1.477345e-09	3.000794e+01	1.029949e+02
