# Temperatura_=_-8.85
# Concentracion g/m^3_=_1620.0
# C_Vs_to_Am_M_A/Vsm_=_65563218390.804596
# pendiente_HvsI_1/m_=_3716.3
# ordenada_HvsI_A/m_=_1297.0
# frecuencia_Hz_=_135109.82068948195

Tiempo_(s)	Campo_(V.s)	Magnetizacion_(V.s)	Campo_(kA/m)	Magnetizacion_(A/m)
0.000000e+00	-5.538007e-06	-1.330731e-09	-3.835583e+01	-8.624727e+01
1.000000e-08	-5.538142e-06	-1.326524e-09	-3.835676e+01	-8.615842e+01
2.000000e-08	-5.538054e-06	-1.324618e-09	-3.835615e+01	-8.606962e+01
3.000000e-08	-5.537736e-06	-1.323450e-09	-3.835394e+01	-8.598076e+01
4.000000e-08	-5.537006e-06	-1.323455e-09	-3.834889e+01	-8.589174e+01
5.000000e-08	-5.535732e-06	-1.327771e-09	-3.834007e+01	-8.580237e+01
6.000000e-08	-5.533808e-06	-1.329676e-09	-3.832674e+01	-8.571244e+01
7.000000e-08	-5.531225e-06	-1.312760e-09	-3.830885e+01	-8.562171e+01
8.000000e-08	-5.528053e-06	-1.292616e-09	-3.828688e+01	-8.552992e+01
9.000000e-08	-5.524384e-06	-1.310439e-09	-3.826147e+01	-8.543678e+01
1.000000e-07	-5.520346e-06	-1.356369e-09	-3.823350e+01	-8.534199e+01
1.100000e-07	-5.515970e-06	-1.357087e-09	-3.820319e+01	-8.524524e+01
1.200000e-07	-5.511310e-06	-1.283703e-09	-3.817092e+01	-8.514622e+01
1.300000e-07	-5.506526e-06	-1.244541e-09	-3.813779e+01	-8.504465e+01
1.400000e-07	-5.501474e-06	-1.298154e-09	-3.810280e+01	-8.494024e+01
1.500000e-07	-5.495869e-06	-1.330669e-09	-3.806398e+01	-8.483273e+01
1.600000e-07	-5.489893e-06	-1.308862e-09	-3.802259e+01	-8.472190e+01
1.700000e-07	-5.483658e-06	-1.260323e-09	-3.797940e+01	-8.460756e+01
1.800000e-07	-5.476998e-06	-1.300720e-09	-3.793328e+01	-8.448955e+01
1.900000e-07	-5.469885e-06	-1.313069e-09	-3.788401e+01	-8.436777e+01
2.000000e-07	-5.462456e-06	-1.292756e-09	-3.783256e+01	-8.424216e+01
2.100000e-07	-5.454758e-06	-1.254300e-09	-3.777925e+01	-8.411271e+01
2.200000e-07	-5.446782e-06	-1.285473e-09	-3.772401e+01	-8.397947e+01
2.300000e-07	-5.438516e-06	-1.309167e-09	-3.766676e+01	-8.384254e+01
2.400000e-07	-5.429908e-06	-1.300571e-09	-3.760714e+01	-8.370207e+01
2.500000e-07	-5.420760e-06	-1.271208e-09	-3.754378e+01	-8.355826e+01
2.600000e-07	-5.410751e-06	-1.271313e-09	-3.747445e+01	-8.341137e+01
2.700000e-07	-5.400012e-06	-1.282857e-09	-3.740008e+01	-8.326169e+01
2.800000e-07	-5.388826e-06	-1.269667e-09	-3.732260e+01	-8.310956e+01
2.900000e-07	-5.377216e-06	-1.263646e-09	-3.724219e+01	-8.295534e+01
3.000000e-07	-5.365278e-06	-1.267805e-09	-3.715952e+01	-8.279943e+01
3.100000e-07	-5.353015e-06	-1.284837e-09	-3.707458e+01	-8.264227e+01
3.200000e-07	-5.340323e-06	-1.258090e-09	-3.698668e+01	-8.248427e+01
3.300000e-07	-5.327091e-06	-1.251341e-09	-3.689503e+01	-8.232588e+01
3.400000e-07	-5.313452e-06	-1.249066e-09	-3.680057e+01	-8.216755e+01
3.500000e-07	-5.299551e-06	-1.265626e-09	-3.670429e+01	-8.200971e+01
3.600000e-07	-5.285202e-06	-1.246665e-09	-3.660491e+01	-8.185277e+01
3.700000e-07	-5.270386e-06	-1.263436e-09	-3.650230e+01	-8.169714e+01
3.800000e-07	-5.255089e-06	-1.274811e-09	-3.639635e+01	-8.154317e+01
3.900000e-07	-5.239235e-06	-1.270560e-09	-3.628655e+01	-8.139120e+01
4.000000e-07	-5.222902e-06	-1.240019e-09	-3.617343e+01	-8.124151e+01
4.100000e-07	-5.206203e-06	-1.256747e-09	-3.605777e+01	-8.109435e+01
4.200000e-07	-5.189144e-06	-1.261098e-09	-3.593962e+01	-8.094991e+01
4.300000e-07	-5.171718e-06	-1.244434e-09	-3.581893e+01	-8.080834e+01
4.400000e-07	-5.154047e-06	-1.243233e-09	-3.569654e+01	-8.066971e+01
4.500000e-07	-5.136116e-06	-1.276593e-09	-3.557236e+01	-8.053405e+01
4.600000e-07	-5.117697e-06	-1.262779e-09	-3.544479e+01	-8.040135e+01
4.700000e-07	-5.098784e-06	-1.234736e-09	-3.531380e+01	-8.027152e+01
4.800000e-07	-5.079540e-06	-1.246207e-09	-3.518051e+01	-8.014444e+01
4.900000e-07	-5.060011e-06	-1.253870e-09	-3.504526e+01	-8.001991e+01
5.000000e-07	-5.040182e-06	-1.224278e-09	-3.490793e+01	-7.989772e+01
5.100000e-07	-5.020165e-06	-1.222471e-09	-3.476929e+01	-7.977760e+01
5.200000e-07	-4.999920e-06	-1.238021e-09	-3.462907e+01	-7.965925e+01
5.300000e-07	-4.979259e-06	-1.220319e-09	-3.448598e+01	-7.954234e+01
5.400000e-07	-4.958210e-06	-1.217197e-09	-3.434019e+01	-7.942652e+01
5.500000e-07	-4.936861e-06	-1.244091e-09	-3.419233e+01	-7.931141e+01
5.600000e-07	-4.915188e-06	-1.239944e-09	-3.404222e+01	-7.919665e+01
5.700000e-07	-4.893150e-06	-1.214366e-09	-3.388959e+01	-7.908184e+01
5.800000e-07	-4.870817e-06	-1.231132e-09	-3.373491e+01	-7.896661e+01
5.900000e-07	-4.848155e-06	-1.236446e-09	-3.357796e+01	-7.885059e+01
6.000000e-07	-4.825001e-06	-1.213181e-09	-3.341760e+01	-7.873343e+01
6.100000e-07	-4.801498e-06	-1.205539e-09	-3.325482e+01	-7.861480e+01
6.200000e-07	-4.777730e-06	-1.217830e-09	-3.309020e+01	-7.849439e+01
6.300000e-07	-4.753754e-06	-1.201338e-09	-3.292415e+01	-7.837192e+01
6.400000e-07	-4.729640e-06	-1.198479e-09	-3.275713e+01	-7.824716e+01
6.500000e-07	-4.705246e-06	-1.210139e-09	-3.258818e+01	-7.811990e+01
6.600000e-07	-4.680456e-06	-1.209065e-09	-3.241648e+01	-7.798997e+01
6.700000e-07	-4.655166e-06	-1.194033e-09	-3.224133e+01	-7.785723e+01
6.800000e-07	-4.629320e-06	-1.199441e-09	-3.206233e+01	-7.772160e+01
6.900000e-07	-4.602890e-06	-1.193006e-09	-3.187927e+01	-7.758302e+01
7.000000e-07	-4.575974e-06	-1.181572e-09	-3.169285e+01	-7.744147e+01
7.100000e-07	-4.548662e-06	-1.179438e-09	-3.150369e+01	-7.729697e+01
7.200000e-07	-4.521026e-06	-1.185196e-09	-3.131229e+01	-7.714956e+01
7.300000e-07	-4.493203e-06	-1.181035e-09	-3.111959e+01	-7.699931e+01
7.400000e-07	-4.465224e-06	-1.184309e-09	-3.092580e+01	-7.684632e+01
7.500000e-07	-4.436973e-06	-1.185923e-09	-3.073015e+01	-7.669070e+01
7.600000e-07	-4.408418e-06	-1.183185e-09	-3.053238e+01	-7.653258e+01
7.700000e-07	-4.379620e-06	-1.177473e-09	-3.033292e+01	-7.637208e+01
7.800000e-07	-4.350539e-06	-1.170734e-09	-3.013151e+01	-7.620937e+01
7.900000e-07	-4.321090e-06	-1.161937e-09	-2.992755e+01	-7.604457e+01
8.000000e-07	-4.291384e-06	-1.158591e-09	-2.972181e+01	-7.587783e+01
8.100000e-07	-4.261503e-06	-1.156798e-09	-2.951485e+01	-7.570927e+01
8.200000e-07	-4.231311e-06	-1.153357e-09	-2.930574e+01	-7.553901e+01
8.300000e-07	-4.200774e-06	-1.152827e-09	-2.909425e+01	-7.536717e+01
8.400000e-07	-4.169967e-06	-1.154917e-09	-2.888088e+01	-7.519381e+01
8.500000e-07	-4.138837e-06	-1.154358e-09	-2.866528e+01	-7.501902e+01
8.600000e-07	-4.107421e-06	-1.151944e-09	-2.844769e+01	-7.484284e+01
8.700000e-07	-4.075755e-06	-1.150783e-09	-2.822838e+01	-7.466530e+01
8.800000e-07	-4.043879e-06	-1.142953e-09	-2.800761e+01	-7.448641e+01
8.900000e-07	-4.011913e-06	-1.136075e-09	-2.778621e+01	-7.430615e+01
9.000000e-07	-3.979816e-06	-1.132338e-09	-2.756390e+01	-7.412450e+01
9.100000e-07	-3.947458e-06	-1.132227e-09	-2.733980e+01	-7.394140e+01
9.200000e-07	-3.914696e-06	-1.125852e-09	-2.711289e+01	-7.375681e+01
9.300000e-07	-3.881544e-06	-1.121970e-09	-2.688328e+01	-7.357064e+01
9.400000e-07	-3.847929e-06	-1.120044e-09	-2.665047e+01	-7.338283e+01
9.500000e-07	-3.813772e-06	-1.118714e-09	-2.641390e+01	-7.319327e+01
9.600000e-07	-3.779189e-06	-1.111361e-09	-2.617438e+01	-7.300190e+01
9.700000e-07	-3.744243e-06	-1.108223e-09	-2.593234e+01	-7.280862e+01
9.800000e-07	-3.708992e-06	-1.102889e-09	-2.568820e+01	-7.261335e+01
9.900000e-07	-3.673488e-06	-1.097171e-09	-2.544230e+01	-7.241603e+01
1.000000e-06	-3.637809e-06	-1.093082e-09	-2.519520e+01	-7.221658e+01
1.010000e-06	-3.601967e-06	-1.092509e-09	-2.494696e+01	-7.201496e+01
1.020000e-06	-3.565946e-06	-1.089493e-09	-2.469747e+01	-7.181114e+01
1.030000e-06	-3.529777e-06	-1.087668e-09	-2.444697e+01	-7.160508e+01
1.040000e-06	-3.493465e-06	-1.086069e-09	-2.419547e+01	-7.139679e+01
1.050000e-06	-3.456942e-06	-1.085129e-09	-2.394252e+01	-7.118627e+01
1.060000e-06	-3.419997e-06	-1.081420e-09	-2.368664e+01	-7.097355e+01
1.070000e-06	-3.382732e-06	-1.078077e-09	-2.342855e+01	-7.075866e+01
1.080000e-06	-3.345349e-06	-1.073733e-09	-2.316964e+01	-7.054164e+01
1.090000e-06	-3.307753e-06	-1.067374e-09	-2.290925e+01	-7.032255e+01
1.100000e-06	-3.269920e-06	-1.061094e-09	-2.264722e+01	-7.010143e+01
1.110000e-06	-3.231873e-06	-1.054632e-09	-2.238371e+01	-6.987834e+01
1.120000e-06	-3.193616e-06	-1.044508e-09	-2.211874e+01	-6.965333e+01
1.130000e-06	-3.155139e-06	-1.033687e-09	-2.185226e+01	-6.942644e+01
1.140000e-06	-3.116418e-06	-1.027496e-09	-2.158408e+01	-6.919769e+01
1.150000e-06	-3.077445e-06	-1.026161e-09	-2.131416e+01	-6.896707e+01
1.160000e-06	-3.038235e-06	-1.027267e-09	-2.104259e+01	-6.873458e+01
1.170000e-06	-2.998898e-06	-1.026714e-09	-2.077014e+01	-6.850015e+01
1.180000e-06	-2.959384e-06	-1.023924e-09	-2.049647e+01	-6.826370e+01
1.190000e-06	-2.919608e-06	-1.017109e-09	-2.022099e+01	-6.802510e+01
1.200000e-06	-2.879773e-06	-1.009818e-09	-1.994509e+01	-6.778420e+01
1.210000e-06	-2.839847e-06	-1.000779e-09	-1.966857e+01	-6.754077e+01
1.220000e-06	-2.799726e-06	-9.918270e-10	-1.939069e+01	-6.729456e+01
1.230000e-06	-2.759419e-06	-9.837573e-10	-1.911153e+01	-6.704527e+01
1.240000e-06	-2.718941e-06	-9.788068e-10	-1.883118e+01	-6.679255e+01
1.250000e-06	-2.678401e-06	-9.736973e-10	-1.855040e+01	-6.653600e+01
1.260000e-06	-2.637671e-06	-9.706778e-10	-1.826831e+01	-6.627517e+01
1.270000e-06	-2.596568e-06	-9.678951e-10	-1.798363e+01	-6.600959e+01
1.280000e-06	-2.555192e-06	-9.624548e-10	-1.769707e+01	-6.573874e+01
1.290000e-06	-2.513533e-06	-9.536782e-10	-1.740854e+01	-6.546205e+01
1.300000e-06	-2.471530e-06	-9.435127e-10	-1.711763e+01	-6.517896e+01
1.310000e-06	-2.429233e-06	-9.320691e-10	-1.682469e+01	-6.488885e+01
1.320000e-06	-2.386632e-06	-9.238107e-10	-1.652963e+01	-6.459112e+01
1.330000e-06	-2.343746e-06	-9.180492e-10	-1.623261e+01	-6.428513e+01
1.340000e-06	-2.300637e-06	-9.145185e-10	-1.593404e+01	-6.397028e+01
1.350000e-06	-2.257337e-06	-9.132969e-10	-1.563415e+01	-6.364595e+01
1.360000e-06	-2.213821e-06	-9.123794e-10	-1.533276e+01	-6.331154e+01
1.370000e-06	-2.170111e-06	-9.080236e-10	-1.503003e+01	-6.296650e+01
1.380000e-06	-2.126341e-06	-9.011376e-10	-1.472688e+01	-6.261029e+01
1.390000e-06	-2.082528e-06	-8.899174e-10	-1.442343e+01	-6.224242e+01
1.400000e-06	-2.038595e-06	-8.751353e-10	-1.411916e+01	-6.186244e+01
1.410000e-06	-1.994573e-06	-8.616530e-10	-1.381426e+01	-6.146996e+01
1.420000e-06	-1.950502e-06	-8.523664e-10	-1.350903e+01	-6.106465e+01
1.430000e-06	-1.906366e-06	-8.470607e-10	-1.320335e+01	-6.064623e+01
1.440000e-06	-1.862124e-06	-8.439753e-10	-1.289693e+01	-6.021449e+01
1.450000e-06	-1.817728e-06	-8.395041e-10	-1.258945e+01	-5.976928e+01
1.460000e-06	-1.773163e-06	-8.324356e-10	-1.228080e+01	-5.931052e+01
1.470000e-06	-1.728507e-06	-8.231192e-10	-1.197151e+01	-5.883817e+01
1.480000e-06	-1.683758e-06	-8.134355e-10	-1.166158e+01	-5.835227e+01
1.490000e-06	-1.638864e-06	-8.062261e-10	-1.135065e+01	-5.785289e+01
1.500000e-06	-1.593796e-06	-7.974868e-10	-1.103851e+01	-5.734016e+01
1.510000e-06	-1.548600e-06	-7.870565e-10	-1.072548e+01	-5.681422e+01
1.520000e-06	-1.503314e-06	-7.770244e-10	-1.041184e+01	-5.627527e+01
1.530000e-06	-1.457940e-06	-7.674101e-10	-1.009758e+01	-5.572350e+01
1.540000e-06	-1.412569e-06	-7.577985e-10	-9.783345e+00	-5.515911e+01
1.550000e-06	-1.367138e-06	-7.493493e-10	-9.468693e+00	-5.458229e+01
1.560000e-06	-1.321522e-06	-7.387453e-10	-9.152760e+00	-5.399320e+01
1.570000e-06	-1.275803e-06	-7.241335e-10	-8.836119e+00	-5.339199e+01
1.580000e-06	-1.230018e-06	-7.105757e-10	-8.519012e+00	-5.277873e+01
1.590000e-06	-1.184139e-06	-6.985685e-10	-8.201256e+00	-5.215345e+01
1.600000e-06	-1.138200e-06	-6.871670e-10	-7.883090e+00	-5.151610e+01
1.610000e-06	-1.092182e-06	-6.764932e-10	-7.564372e+00	-5.086654e+01
1.620000e-06	-1.046027e-06	-6.657722e-10	-7.244702e+00	-5.020453e+01
1.630000e-06	-9.997905e-07	-6.550611e-10	-6.924474e+00	-4.952974e+01
1.640000e-06	-9.535005e-07	-6.434037e-10	-6.603873e+00	-4.884170e+01
1.650000e-06	-9.071418e-07	-6.331444e-10	-6.282796e+00	-4.813985e+01
1.660000e-06	-8.607654e-07	-6.244242e-10	-5.961597e+00	-4.742347e+01
1.670000e-06	-8.142844e-07	-6.166524e-10	-5.639673e+00	-4.669175e+01
1.680000e-06	-7.677221e-07	-6.056848e-10	-5.317186e+00	-4.594371e+01
1.690000e-06	-7.211743e-07	-5.928727e-10	-4.994799e+00	-4.517829e+01
1.700000e-06	-6.745947e-07	-5.775232e-10	-4.672192e+00	-4.439426e+01
1.710000e-06	-6.279507e-07	-5.585907e-10	-4.349139e+00	-4.359033e+01
1.720000e-06	-5.812441e-07	-5.384077e-10	-4.025653e+00	-4.276505e+01
1.730000e-06	-5.344916e-07	-5.229441e-10	-3.701849e+00	-4.191691e+01
1.740000e-06	-4.876682e-07	-5.130595e-10	-3.377553e+00	-4.104432e+01
1.750000e-06	-4.407963e-07	-5.040118e-10	-3.052922e+00	-4.014561e+01
1.760000e-06	-3.938959e-07	-4.914941e-10	-2.728094e+00	-3.921907e+01
1.770000e-06	-3.469449e-07	-4.747489e-10	-2.402915e+00	-3.826298e+01
1.780000e-06	-2.999674e-07	-4.565114e-10	-2.077552e+00	-3.727558e+01
1.790000e-06	-2.530481e-07	-4.397509e-10	-1.752592e+00	-3.625516e+01
1.800000e-06	-2.061655e-07	-4.236073e-10	-1.427887e+00	-3.520002e+01
1.810000e-06	-1.591899e-07	-4.074988e-10	-1.102537e+00	-3.410856e+01
1.820000e-06	-1.121896e-07	-3.920332e-10	-7.770170e-01	-3.297923e+01
1.830000e-06	-6.523470e-08	-3.762586e-10	-4.518107e-01	-3.181060e+01
1.840000e-06	-1.827126e-08	-3.600521e-10	-1.265454e-01	-3.060139e+01
1.850000e-06	2.870044e-08	-3.422651e-10	1.987771e-01	-2.935045e+01
1.860000e-06	7.570008e-08	-3.256686e-10	5.242931e-01	-2.805682e+01
1.870000e-06	1.226351e-07	-3.088280e-10	8.493617e-01	-2.671975e+01
1.880000e-06	1.694794e-07	-2.906369e-10	1.173802e+00	-2.533867e+01
1.890000e-06	2.163414e-07	-2.706082e-10	1.498365e+00	-2.391327e+01
1.900000e-06	2.632733e-07	-2.482541e-10	1.823411e+00	-2.244347e+01
1.910000e-06	3.102019e-07	-2.251346e-10	2.148435e+00	-2.092945e+01
1.920000e-06	3.570667e-07	-2.020929e-10	2.473017e+00	-1.937165e+01
1.930000e-06	4.038865e-07	-1.803066e-10	2.797288e+00	-1.777078e+01
1.940000e-06	4.506985e-07	-1.604374e-10	3.121504e+00	-1.612781e+01
1.950000e-06	4.975212e-07	-1.406231e-10	3.445795e+00	-1.444399e+01
1.960000e-06	5.442391e-07	-1.200485e-10	3.769359e+00	-1.272085e+01
1.970000e-06	5.908946e-07	-9.668979e-11	4.092492e+00	-1.096014e+01
1.980000e-06	6.375743e-07	-7.153801e-11	4.415792e+00	-9.163910e+00
1.990000e-06	6.842370e-07	-4.567663e-11	4.738974e+00	-7.334406e+00
2.000000e-06	7.308699e-07	-2.013372e-11	5.061950e+00	-5.474118e+00
2.010000e-06	7.773592e-07	6.086306e-12	5.383932e+00	-3.585734e+00
2.020000e-06	8.237320e-07	3.337541e-11	5.705106e+00	-1.672129e+00
2.030000e-06	8.700397e-07	6.116372e-11	6.025830e+00	2.636595e-01
2.040000e-06	9.162471e-07	8.897764e-11	6.345859e+00	2.218455e+00
2.050000e-06	9.624759e-07	1.153142e-10	6.666036e+00	4.188967e+00
2.060000e-06	1.008691e-06	1.404331e-10	6.986121e+00	6.171815e+00
2.070000e-06	1.054789e-06	1.660315e-10	7.305390e+00	8.163557e+00
2.080000e-06	1.100770e-06	1.920938e-10	7.623850e+00	1.016072e+01
2.090000e-06	1.146658e-06	2.193341e-10	7.941664e+00	1.215982e+01
2.100000e-06	1.192442e-06	2.488672e-10	8.258765e+00	1.415738e+01
2.110000e-06	1.238187e-06	2.785622e-10	8.575591e+00	1.615000e+01
2.120000e-06	1.283875e-06	3.077626e-10	8.892021e+00	1.813433e+01
2.130000e-06	1.329457e-06	3.356782e-10	9.207716e+00	2.010711e+01
2.140000e-06	1.374928e-06	3.610725e-10	9.522651e+00	2.206520e+01
2.150000e-06	1.420340e-06	3.825396e-10	9.837169e+00	2.400561e+01
2.160000e-06	1.465760e-06	4.026805e-10	1.015175e+01	2.592549e+01
2.170000e-06	1.511097e-06	4.231091e-10	1.046574e+01	2.782218e+01
2.180000e-06	1.556256e-06	4.463632e-10	1.077851e+01	2.969320e+01
2.190000e-06	1.601280e-06	4.736162e-10	1.109034e+01	3.153624e+01
2.200000e-06	1.646201e-06	5.023182e-10	1.140147e+01	3.334925e+01
2.210000e-06	1.691018e-06	5.308863e-10	1.171187e+01	3.513035e+01
2.220000e-06	1.735753e-06	5.578013e-10	1.202169e+01	3.687789e+01
2.230000e-06	1.780308e-06	5.807218e-10	1.233028e+01	3.859046e+01
2.240000e-06	1.824627e-06	5.991573e-10	1.263723e+01	4.026683e+01
2.250000e-06	1.868778e-06	6.142532e-10	1.294302e+01	4.190602e+01
2.260000e-06	1.912846e-06	6.300789e-10	1.324823e+01	4.350724e+01
2.270000e-06	1.956866e-06	6.497837e-10	1.355311e+01	4.506989e+01
2.280000e-06	2.000828e-06	6.718336e-10	1.385759e+01	4.659359e+01
2.290000e-06	2.044742e-06	6.942201e-10	1.416173e+01	4.807813e+01
2.300000e-06	2.088613e-06	7.177709e-10	1.446558e+01	4.952347e+01
2.310000e-06	2.132398e-06	7.404996e-10	1.476883e+01	5.092971e+01
2.320000e-06	2.176094e-06	7.586757e-10	1.507147e+01	5.229712e+01
2.330000e-06	2.219720e-06	7.737962e-10	1.537362e+01	5.362606e+01
2.340000e-06	2.263271e-06	7.877032e-10	1.567525e+01	5.491704e+01
2.350000e-06	2.306666e-06	8.016805e-10	1.597580e+01	5.617065e+01
2.360000e-06	2.349790e-06	8.164890e-10	1.627447e+01	5.738755e+01
2.370000e-06	2.392580e-06	8.326761e-10	1.657083e+01	5.856847e+01
2.380000e-06	2.435094e-06	8.501531e-10	1.686528e+01	5.971421e+01
2.390000e-06	2.477378e-06	8.658145e-10	1.715814e+01	6.082558e+01
2.400000e-06	2.519284e-06	8.808104e-10	1.744837e+01	6.190344e+01
2.410000e-06	2.560800e-06	8.953464e-10	1.773591e+01	6.294865e+01
2.420000e-06	2.602137e-06	9.078679e-10	1.802220e+01	6.396207e+01
2.430000e-06	2.643213e-06	9.185085e-10	1.830670e+01	6.494457e+01
2.440000e-06	2.683919e-06	9.314133e-10	1.858862e+01	6.589699e+01
2.450000e-06	2.724432e-06	9.471397e-10	1.886921e+01	6.682015e+01
2.460000e-06	2.764759e-06	9.619215e-10	1.914851e+01	6.771485e+01
2.470000e-06	2.804886e-06	9.756316e-10	1.942643e+01	6.858185e+01
2.480000e-06	2.844881e-06	9.882016e-10	1.970343e+01	6.942190e+01
2.490000e-06	2.884749e-06	9.993823e-10	1.997956e+01	7.023568e+01
2.500000e-06	2.924504e-06	1.008736e-09	2.025490e+01	7.102387e+01
2.510000e-06	2.964117e-06	1.019835e-09	2.052925e+01	7.178708e+01
2.520000e-06	3.003557e-06	1.030985e-09	2.080241e+01	7.252591e+01
2.530000e-06	3.042790e-06	1.041510e-09	2.107414e+01	7.324093e+01
2.540000e-06	3.081801e-06	1.053928e-09	2.134432e+01	7.393266e+01
2.550000e-06	3.120588e-06	1.064923e-09	2.161296e+01	7.460162e+01
2.560000e-06	3.159185e-06	1.071753e-09	2.188028e+01	7.524829e+01
2.570000e-06	3.197609e-06	1.076989e-09	2.214640e+01	7.587313e+01
2.580000e-06	3.235843e-06	1.081486e-09	2.241121e+01	7.647660e+01
2.590000e-06	3.273755e-06	1.085596e-09	2.267378e+01	7.705914e+01
2.600000e-06	3.311372e-06	1.092638e-09	2.293431e+01	7.762118e+01
2.610000e-06	3.348876e-06	1.105706e-09	2.319406e+01	7.816316e+01
2.620000e-06	3.386192e-06	1.120362e-09	2.345252e+01	7.868551e+01
2.630000e-06	3.423253e-06	1.131762e-09	2.370919e+01	7.918866e+01
2.640000e-06	3.460066e-06	1.139708e-09	2.396416e+01	7.967304e+01
2.650000e-06	3.496610e-06	1.143888e-09	2.421726e+01	8.013909e+01
2.660000e-06	3.532905e-06	1.145775e-09	2.446864e+01	8.058727e+01
2.670000e-06	3.568975e-06	1.147586e-09	2.471845e+01	8.101802e+01
2.680000e-06	3.604910e-06	1.149770e-09	2.496734e+01	8.143181e+01
2.690000e-06	3.640751e-06	1.155557e-09	2.521557e+01	8.182909e+01
2.700000e-06	3.676457e-06	1.165446e-09	2.546287e+01	8.221034e+01
2.710000e-06	3.712050e-06	1.173329e-09	2.570938e+01	8.257602e+01
2.720000e-06	3.747418e-06	1.178036e-09	2.595433e+01	8.292661e+01
2.730000e-06	3.782407e-06	1.180722e-09	2.619667e+01	8.326257e+01
2.740000e-06	3.816961e-06	1.180580e-09	2.643598e+01	8.358436e+01
2.750000e-06	3.851012e-06	1.180646e-09	2.667182e+01	8.389243e+01
2.760000e-06	3.884536e-06	1.184960e-09	2.690401e+01	8.418723e+01
2.770000e-06	3.917682e-06	1.192556e-09	2.713357e+01	8.446918e+01
2.780000e-06	3.950483e-06	1.200242e-09	2.736075e+01	8.473870e+01
2.790000e-06	3.982953e-06	1.206590e-09	2.758563e+01	8.499618e+01
2.800000e-06	4.015177e-06	1.211896e-09	2.780882e+01	8.524198e+01
2.810000e-06	4.047196e-06	1.215403e-09	2.803058e+01	8.547646e+01
2.820000e-06	4.079085e-06	1.217931e-09	2.825144e+01	8.569994e+01
2.830000e-06	4.110794e-06	1.220446e-09	2.847105e+01	8.591272e+01
2.840000e-06	4.142237e-06	1.223393e-09	2.868882e+01	8.611508e+01
2.850000e-06	4.173428e-06	1.226456e-09	2.890485e+01	8.630726e+01
2.860000e-06	4.204248e-06	1.229787e-09	2.911831e+01	8.648950e+01
2.870000e-06	4.234712e-06	1.234040e-09	2.932930e+01	8.666199e+01
2.880000e-06	4.264882e-06	1.237407e-09	2.953825e+01	8.682494e+01
2.890000e-06	4.294736e-06	1.238565e-09	2.974502e+01	8.697849e+01
2.900000e-06	4.324306e-06	1.239680e-09	2.994982e+01	8.712282e+01
