# Temperatura_=_-31.22
# Concentracion g/m^3_=_1620.0
# C_Vs_to_Am_M_A/Vsm_=_65563218390.804596
# pendiente_HvsI_1/m_=_3716.3
# ordenada_HvsI_A/m_=_1297.0
# frecuencia_Hz_=_135093.25421297853

Tiempo_(s)	Campo_(V.s)	Magnetizacion_(V.s)	Campo_(kA/m)	Magnetizacion_(A/m)
0.000000e+00	-5.515993e-06	-1.168756e-09	-3.837016e+01	-7.359259e+01
1.000000e-08	-5.516129e-06	-1.171339e-09	-3.837111e+01	-7.361380e+01
2.000000e-08	-5.515990e-06	-1.174118e-09	-3.837014e+01	-7.363741e+01
3.000000e-08	-5.515471e-06	-1.173932e-09	-3.836653e+01	-7.366361e+01
4.000000e-08	-5.514488e-06	-1.170156e-09	-3.835970e+01	-7.369259e+01
5.000000e-08	-5.512947e-06	-1.161918e-09	-3.834898e+01	-7.372447e+01
6.000000e-08	-5.510835e-06	-1.153310e-09	-3.833429e+01	-7.375936e+01
7.000000e-08	-5.508087e-06	-1.184352e-09	-3.831517e+01	-7.379735e+01
8.000000e-08	-5.504755e-06	-1.217859e-09	-3.829199e+01	-7.383846e+01
9.000000e-08	-5.500911e-06	-1.173640e-09	-3.826525e+01	-7.388270e+01
1.000000e-07	-5.496742e-06	-1.110481e-09	-3.823625e+01	-7.393002e+01
1.100000e-07	-5.492368e-06	-1.182642e-09	-3.820583e+01	-7.398033e+01
1.200000e-07	-5.487706e-06	-1.212736e-09	-3.817340e+01	-7.403350e+01
1.300000e-07	-5.482662e-06	-1.162302e-09	-3.813831e+01	-7.408937e+01
1.400000e-07	-5.477205e-06	-1.090429e-09	-3.810035e+01	-7.414772e+01
1.500000e-07	-5.471449e-06	-1.181239e-09	-3.806031e+01	-7.420831e+01
1.600000e-07	-5.465321e-06	-1.248995e-09	-3.801768e+01	-7.427085e+01
1.700000e-07	-5.458752e-06	-1.186296e-09	-3.797199e+01	-7.433502e+01
1.800000e-07	-5.451737e-06	-1.072121e-09	-3.792319e+01	-7.440048e+01
1.900000e-07	-5.444399e-06	-1.129006e-09	-3.787215e+01	-7.446686e+01
2.000000e-07	-5.436805e-06	-1.195983e-09	-3.781932e+01	-7.453376e+01
2.100000e-07	-5.429038e-06	-1.199244e-09	-3.776529e+01	-7.460077e+01
2.200000e-07	-5.421058e-06	-1.129803e-09	-3.770978e+01	-7.466747e+01
2.300000e-07	-5.412654e-06	-1.153457e-09	-3.765132e+01	-7.473345e+01
2.400000e-07	-5.403648e-06	-1.195247e-09	-3.758868e+01	-7.479829e+01
2.500000e-07	-5.394091e-06	-1.172196e-09	-3.752220e+01	-7.486156e+01
2.600000e-07	-5.383890e-06	-1.138175e-09	-3.745124e+01	-7.492287e+01
2.700000e-07	-5.373027e-06	-1.150010e-09	-3.737567e+01	-7.498185e+01
2.800000e-07	-5.361689e-06	-1.191894e-09	-3.729680e+01	-7.503812e+01
2.900000e-07	-5.349924e-06	-1.170262e-09	-3.721496e+01	-7.509138e+01
3.000000e-07	-5.337927e-06	-1.153449e-09	-3.713151e+01	-7.514133e+01
3.100000e-07	-5.325523e-06	-1.133817e-09	-3.704522e+01	-7.518771e+01
3.200000e-07	-5.312609e-06	-1.183329e-09	-3.695539e+01	-7.523033e+01
3.300000e-07	-5.299262e-06	-1.152409e-09	-3.686255e+01	-7.526901e+01
3.400000e-07	-5.285523e-06	-1.142598e-09	-3.676698e+01	-7.530365e+01
3.500000e-07	-5.271446e-06	-1.143539e-09	-3.666905e+01	-7.533417e+01
3.600000e-07	-5.256851e-06	-1.205522e-09	-3.656753e+01	-7.536058e+01
3.700000e-07	-5.241732e-06	-1.151430e-09	-3.646236e+01	-7.538289e+01
3.800000e-07	-5.226122e-06	-1.140974e-09	-3.635378e+01	-7.540121e+01
3.900000e-07	-5.210051e-06	-1.175966e-09	-3.624198e+01	-7.541565e+01
4.000000e-07	-5.193636e-06	-1.169432e-09	-3.612780e+01	-7.542640e+01
4.100000e-07	-5.176728e-06	-1.097523e-09	-3.601019e+01	-7.543369e+01
4.200000e-07	-5.159422e-06	-1.165963e-09	-3.588980e+01	-7.543775e+01
4.300000e-07	-5.141947e-06	-1.223049e-09	-3.576824e+01	-7.543889e+01
4.400000e-07	-5.124187e-06	-1.146020e-09	-3.564470e+01	-7.543742e+01
4.500000e-07	-5.105941e-06	-1.120382e-09	-3.551778e+01	-7.543369e+01
4.600000e-07	-5.087341e-06	-1.218723e-09	-3.538839e+01	-7.542803e+01
4.700000e-07	-5.068356e-06	-1.176774e-09	-3.525633e+01	-7.542083e+01
4.800000e-07	-5.048953e-06	-1.100199e-09	-3.512136e+01	-7.541244e+01
4.900000e-07	-5.029346e-06	-1.172772e-09	-3.498497e+01	-7.540324e+01
5.000000e-07	-5.009550e-06	-1.195150e-09	-3.484727e+01	-7.539358e+01
5.100000e-07	-4.989473e-06	-1.102196e-09	-3.470761e+01	-7.538380e+01
5.200000e-07	-4.969081e-06	-1.144921e-09	-3.456576e+01	-7.537422e+01
5.300000e-07	-4.948446e-06	-1.223361e-09	-3.442221e+01	-7.536514e+01
5.400000e-07	-4.927485e-06	-1.135916e-09	-3.427640e+01	-7.535682e+01
5.500000e-07	-4.906087e-06	-1.112055e-09	-3.412756e+01	-7.534948e+01
5.600000e-07	-4.884294e-06	-1.202812e-09	-3.397597e+01	-7.534332e+01
5.700000e-07	-4.862172e-06	-1.176549e-09	-3.382208e+01	-7.533848e+01
5.800000e-07	-4.839707e-06	-1.104158e-09	-3.366581e+01	-7.533507e+01
5.900000e-07	-4.816878e-06	-1.173769e-09	-3.350701e+01	-7.533315e+01
6.000000e-07	-4.793728e-06	-1.182218e-09	-3.334597e+01	-7.533274e+01
6.100000e-07	-4.770302e-06	-1.111798e-09	-3.318301e+01	-7.533380e+01
6.200000e-07	-4.746704e-06	-1.132483e-09	-3.301886e+01	-7.533625e+01
6.300000e-07	-4.722903e-06	-1.184624e-09	-3.285330e+01	-7.533999e+01
6.400000e-07	-4.698732e-06	-1.133492e-09	-3.268517e+01	-7.534486e+01
6.500000e-07	-4.674223e-06	-1.139069e-09	-3.251467e+01	-7.535066e+01
6.600000e-07	-4.649275e-06	-1.180492e-09	-3.234113e+01	-7.535717e+01
6.700000e-07	-4.623749e-06	-1.154387e-09	-3.216357e+01	-7.536414e+01
6.800000e-07	-4.597693e-06	-1.119365e-09	-3.198232e+01	-7.537127e+01
6.900000e-07	-4.571037e-06	-1.157620e-09	-3.179690e+01	-7.537829e+01
7.000000e-07	-4.543884e-06	-1.147058e-09	-3.160801e+01	-7.538486e+01
7.100000e-07	-4.516387e-06	-1.122729e-09	-3.141674e+01	-7.539066e+01
7.200000e-07	-4.488694e-06	-1.143807e-09	-3.122410e+01	-7.539537e+01
7.300000e-07	-4.460886e-06	-1.163782e-09	-3.103067e+01	-7.539865e+01
7.400000e-07	-4.432883e-06	-1.138495e-09	-3.083587e+01	-7.540018e+01
7.500000e-07	-4.404690e-06	-1.142559e-09	-3.063976e+01	-7.539964e+01
7.600000e-07	-4.376289e-06	-1.152987e-09	-3.044220e+01	-7.539673e+01
7.700000e-07	-4.347554e-06	-1.138850e-09	-3.024231e+01	-7.539116e+01
7.800000e-07	-4.318476e-06	-1.134309e-09	-3.004004e+01	-7.538265e+01
7.900000e-07	-4.289150e-06	-1.147800e-09	-2.983604e+01	-7.537097e+01
8.000000e-07	-4.259555e-06	-1.135321e-09	-2.963017e+01	-7.535589e+01
8.100000e-07	-4.229715e-06	-1.122974e-09	-2.942260e+01	-7.533723e+01
8.200000e-07	-4.199609e-06	-1.134727e-09	-2.921318e+01	-7.531481e+01
8.300000e-07	-4.169109e-06	-1.131917e-09	-2.900102e+01	-7.528850e+01
8.400000e-07	-4.138217e-06	-1.123887e-09	-2.878613e+01	-7.525819e+01
8.500000e-07	-4.107001e-06	-1.136741e-09	-2.856898e+01	-7.522379e+01
8.600000e-07	-4.075512e-06	-1.146971e-09	-2.834994e+01	-7.518527e+01
8.700000e-07	-4.043890e-06	-1.128970e-09	-2.812997e+01	-7.514259e+01
8.800000e-07	-4.012193e-06	-1.126579e-09	-2.790949e+01	-7.509576e+01
8.900000e-07	-3.980285e-06	-1.127675e-09	-2.768753e+01	-7.504480e+01
9.000000e-07	-3.948125e-06	-1.116809e-09	-2.746382e+01	-7.498976e+01
9.100000e-07	-3.915704e-06	-1.107453e-09	-2.723829e+01	-7.493070e+01
9.200000e-07	-3.882943e-06	-1.118949e-09	-2.701040e+01	-7.486771e+01
9.300000e-07	-3.849824e-06	-1.112666e-09	-2.678001e+01	-7.480089e+01
9.400000e-07	-3.816281e-06	-1.107174e-09	-2.654669e+01	-7.473036e+01
9.500000e-07	-3.782154e-06	-1.112806e-09	-2.630930e+01	-7.465623e+01
9.600000e-07	-3.747546e-06	-1.115086e-09	-2.606856e+01	-7.457863e+01
9.700000e-07	-3.712499e-06	-1.098294e-09	-2.582476e+01	-7.449771e+01
9.800000e-07	-3.677043e-06	-1.098595e-09	-2.557812e+01	-7.441361e+01
9.900000e-07	-3.641424e-06	-1.102019e-09	-2.533035e+01	-7.432648e+01
1.000000e-06	-3.605702e-06	-1.095266e-09	-2.508186e+01	-7.423645e+01
1.010000e-06	-3.569867e-06	-1.088545e-09	-2.483259e+01	-7.414367e+01
1.020000e-06	-3.533912e-06	-1.097157e-09	-2.458248e+01	-7.404828e+01
1.030000e-06	-3.497731e-06	-1.095929e-09	-2.433080e+01	-7.395043e+01
1.040000e-06	-3.461282e-06	-1.092533e-09	-2.407725e+01	-7.385023e+01
1.050000e-06	-3.424697e-06	-1.096718e-09	-2.382276e+01	-7.374782e+01
1.060000e-06	-3.387893e-06	-1.097334e-09	-2.356675e+01	-7.364331e+01
1.070000e-06	-3.350725e-06	-1.086709e-09	-2.330820e+01	-7.353681e+01
1.080000e-06	-3.313224e-06	-1.083181e-09	-2.304734e+01	-7.342842e+01
1.090000e-06	-3.275557e-06	-1.083696e-09	-2.278532e+01	-7.331823e+01
1.100000e-06	-3.237718e-06	-1.076177e-09	-2.252211e+01	-7.320630e+01
1.110000e-06	-3.199672e-06	-1.072131e-09	-2.225745e+01	-7.309271e+01
1.120000e-06	-3.161497e-06	-1.072236e-09	-2.199190e+01	-7.297749e+01
1.130000e-06	-3.123125e-06	-1.066803e-09	-2.172497e+01	-7.286068e+01
1.140000e-06	-3.084550e-06	-1.061354e-09	-2.145664e+01	-7.274230e+01
1.150000e-06	-3.045709e-06	-1.067706e-09	-2.118646e+01	-7.262233e+01
1.160000e-06	-3.006538e-06	-1.070175e-09	-2.091398e+01	-7.250076e+01
1.170000e-06	-2.967108e-06	-1.067299e-09	-2.063970e+01	-7.237753e+01
1.180000e-06	-2.927560e-06	-1.064029e-09	-2.036459e+01	-7.225259e+01
1.190000e-06	-2.888001e-06	-1.063834e-09	-2.008941e+01	-7.212583e+01
1.200000e-06	-2.848257e-06	-1.055127e-09	-1.981295e+01	-7.199715e+01
1.210000e-06	-2.808299e-06	-1.048416e-09	-1.953500e+01	-7.186640e+01
1.220000e-06	-2.768267e-06	-1.046102e-09	-1.925653e+01	-7.173342e+01
1.230000e-06	-2.728114e-06	-1.044563e-09	-1.897721e+01	-7.159800e+01
1.240000e-06	-2.687742e-06	-1.038631e-09	-1.869638e+01	-7.145992e+01
1.250000e-06	-2.647210e-06	-1.039872e-09	-1.841444e+01	-7.131893e+01
1.260000e-06	-2.606495e-06	-1.039610e-09	-1.813122e+01	-7.117476e+01
1.270000e-06	-2.565457e-06	-1.036467e-09	-1.784575e+01	-7.102709e+01
1.280000e-06	-2.524155e-06	-1.030056e-09	-1.755844e+01	-7.087560e+01
1.290000e-06	-2.482533e-06	-1.025479e-09	-1.726891e+01	-7.071993e+01
1.300000e-06	-2.440575e-06	-1.018613e-09	-1.697704e+01	-7.055970e+01
1.310000e-06	-2.398390e-06	-1.011958e-09	-1.668360e+01	-7.039452e+01
1.320000e-06	-2.355916e-06	-1.008111e-09	-1.638814e+01	-7.022398e+01
1.330000e-06	-2.313057e-06	-1.005032e-09	-1.609001e+01	-7.004766e+01
1.340000e-06	-2.269877e-06	-1.001634e-09	-1.578964e+01	-6.986512e+01
1.350000e-06	-2.226574e-06	-1.003125e-09	-1.548842e+01	-6.967593e+01
1.360000e-06	-2.183162e-06	-1.006116e-09	-1.518644e+01	-6.947964e+01
1.370000e-06	-2.139569e-06	-1.004304e-09	-1.488320e+01	-6.927583e+01
1.380000e-06	-2.095900e-06	-9.992321e-10	-1.457943e+01	-6.906407e+01
1.390000e-06	-2.052164e-06	-9.913141e-10	-1.427519e+01	-6.884396e+01
1.400000e-06	-2.008322e-06	-9.795139e-10	-1.397022e+01	-6.861509e+01
1.410000e-06	-1.964391e-06	-9.674927e-10	-1.366463e+01	-6.837710e+01
1.420000e-06	-1.920408e-06	-9.628205e-10	-1.335868e+01	-6.812965e+01
1.430000e-06	-1.876363e-06	-9.608455e-10	-1.305229e+01	-6.787241e+01
1.440000e-06	-1.832224e-06	-9.603178e-10	-1.274525e+01	-6.760512e+01
1.450000e-06	-1.787953e-06	-9.629830e-10	-1.243730e+01	-6.732751e+01
1.460000e-06	-1.743535e-06	-9.656012e-10	-1.212832e+01	-6.703938e+01
1.470000e-06	-1.698992e-06	-9.610661e-10	-1.181847e+01	-6.674055e+01
1.480000e-06	-1.654354e-06	-9.540845e-10	-1.150796e+01	-6.643089e+01
1.490000e-06	-1.609575e-06	-9.453469e-10	-1.119647e+01	-6.611028e+01
1.500000e-06	-1.564688e-06	-9.354723e-10	-1.088423e+01	-6.577865e+01
1.510000e-06	-1.519699e-06	-9.244676e-10	-1.057128e+01	-6.543595e+01
1.520000e-06	-1.474517e-06	-9.182538e-10	-1.025699e+01	-6.508217e+01
1.530000e-06	-1.429189e-06	-9.153732e-10	-9.941674e+00	-6.471730e+01
1.540000e-06	-1.383848e-06	-9.133654e-10	-9.626278e+00	-6.434134e+01
1.550000e-06	-1.338485e-06	-9.102803e-10	-9.310726e+00	-6.395431e+01
1.560000e-06	-1.292970e-06	-9.014564e-10	-8.994115e+00	-6.355621e+01
1.570000e-06	-1.247379e-06	-8.886667e-10	-8.676977e+00	-6.314704e+01
1.580000e-06	-1.201716e-06	-8.762038e-10	-8.359339e+00	-6.272677e+01
1.590000e-06	-1.155952e-06	-8.635100e-10	-8.040995e+00	-6.229533e+01
1.600000e-06	-1.110086e-06	-8.512352e-10	-7.721944e+00	-6.185263e+01
1.610000e-06	-1.064162e-06	-8.441919e-10	-7.402489e+00	-6.139850e+01
1.620000e-06	-1.018219e-06	-8.405034e-10	-7.082900e+00	-6.093274e+01
1.630000e-06	-9.721402e-07	-8.347085e-10	-6.762369e+00	-6.045506e+01
1.640000e-06	-9.259451e-07	-8.285903e-10	-6.441028e+00	-5.996510e+01
1.650000e-06	-8.797097e-07	-8.224093e-10	-6.119407e+00	-5.946240e+01
1.660000e-06	-8.334720e-07	-8.153236e-10	-5.797770e+00	-5.894643e+01
1.670000e-06	-7.872157e-07	-8.061484e-10	-5.476003e+00	-5.841655e+01
1.680000e-06	-7.409034e-07	-7.974726e-10	-5.153847e+00	-5.787201e+01
1.690000e-06	-6.944907e-07	-7.887311e-10	-4.830993e+00	-5.731198e+01
1.700000e-06	-6.479730e-07	-7.787346e-10	-4.507408e+00	-5.673551e+01
1.710000e-06	-6.014627e-07	-7.644010e-10	-4.183875e+00	-5.614155e+01
1.720000e-06	-5.549888e-07	-7.506481e-10	-3.860595e+00	-5.552898e+01
1.730000e-06	-5.084640e-07	-7.395806e-10	-3.536960e+00	-5.489654e+01
1.740000e-06	-4.619390e-07	-7.314550e-10	-3.213325e+00	-5.424293e+01
1.750000e-06	-4.153685e-07	-7.261156e-10	-2.889373e+00	-5.356674e+01
1.760000e-06	-3.686527e-07	-7.173159e-10	-2.564409e+00	-5.286654e+01
1.770000e-06	-3.218271e-07	-7.066541e-10	-2.238683e+00	-5.214081e+01
1.780000e-06	-2.749300e-07	-6.949739e-10	-1.912459e+00	-5.138801e+01
1.790000e-06	-2.281017e-07	-6.821839e-10	-1.586713e+00	-5.060659e+01
1.800000e-06	-1.812625e-07	-6.681436e-10	-1.260892e+00	-4.979498e+01
1.810000e-06	-1.344453e-07	-6.552598e-10	-9.352241e-01	-4.895166e+01
1.820000e-06	-8.773498e-08	-6.424370e-10	-6.102991e-01	-4.807512e+01
1.830000e-06	-4.090660e-08	-6.294124e-10	-2.845531e-01	-4.716391e+01
1.840000e-06	5.972556e-09	-6.170367e-10	4.154610e-02	-4.621667e+01
1.850000e-06	5.284640e-08	-6.066302e-10	3.676083e-01	-4.523213e+01
1.860000e-06	9.978343e-08	-5.959444e-10	6.941102e-01	-4.420914e+01
1.870000e-06	1.466382e-07	-5.827072e-10	1.020040e+00	-4.314670e+01
1.880000e-06	1.933745e-07	-5.666258e-10	1.345145e+00	-4.204394e+01
1.890000e-06	2.400371e-07	-5.491975e-10	1.669738e+00	-4.090018e+01
1.900000e-06	2.867137e-07	-5.307408e-10	1.994428e+00	-3.971493e+01
1.910000e-06	3.334378e-07	-5.121398e-10	2.319449e+00	-3.848788e+01
1.920000e-06	3.802303e-07	-4.920964e-10	2.644945e+00	-3.721895e+01
1.930000e-06	4.269778e-07	-4.731522e-10	2.970129e+00	-3.590828e+01
1.940000e-06	4.735854e-07	-4.568242e-10	3.294339e+00	-3.455623e+01
1.950000e-06	5.200987e-07	-4.415565e-10	3.617893e+00	-3.316339e+01
1.960000e-06	5.665693e-07	-4.246193e-10	3.941150e+00	-3.173059e+01
1.970000e-06	6.130188e-07	-4.078004e-10	4.264261e+00	-3.025890e+01
1.980000e-06	6.593975e-07	-3.894485e-10	4.586879e+00	-2.874959e+01
1.990000e-06	7.057623e-07	-3.654971e-10	4.909400e+00	-2.720417e+01
2.000000e-06	7.521061e-07	-3.395250e-10	5.231775e+00	-2.562437e+01
2.010000e-06	7.983328e-07	-3.140679e-10	5.553336e+00	-2.401210e+01
2.020000e-06	8.445747e-07	-2.900808e-10	5.875002e+00	-2.236946e+01
2.030000e-06	8.908556e-07	-2.670932e-10	6.196940e+00	-2.069873e+01
2.040000e-06	9.370082e-07	-2.466508e-10	6.517985e+00	-1.900234e+01
2.050000e-06	9.830789e-07	-2.276717e-10	6.838461e+00	-1.728285e+01
2.060000e-06	1.029160e-06	-2.068239e-10	7.159011e+00	-1.554293e+01
2.070000e-06	1.075235e-06	-1.826876e-10	7.479514e+00	-1.378534e+01
2.080000e-06	1.121138e-06	-1.565862e-10	7.798826e+00	-1.201291e+01
2.090000e-06	1.166816e-06	-1.301838e-10	8.116569e+00	-1.022852e+01
2.100000e-06	1.212427e-06	-1.040354e-10	8.433842e+00	-8.435061e+00
2.110000e-06	1.258031e-06	-7.772665e-11	8.751073e+00	-6.635439e+00
2.120000e-06	1.303473e-06	-5.079612e-11	9.067175e+00	-4.832527e+00
2.130000e-06	1.348770e-06	-2.385923e-11	9.382268e+00	-3.029158e+00
2.140000e-06	1.394050e-06	1.164741e-12	9.697246e+00	-1.228101e+00
2.150000e-06	1.439288e-06	2.337724e-11	1.001193e+01	5.679559e-01
2.160000e-06	1.484435e-06	4.425309e-11	1.032597e+01	2.356423e+00
2.170000e-06	1.529429e-06	6.594242e-11	1.063896e+01	4.134824e+00
2.180000e-06	1.574250e-06	9.016402e-11	1.095075e+01	5.900811e+00
2.190000e-06	1.618997e-06	1.192168e-10	1.126202e+01	7.652173e+00
2.200000e-06	1.663658e-06	1.507668e-10	1.157268e+01	9.386847e+00
2.210000e-06	1.708146e-06	1.804661e-10	1.188215e+01	1.110292e+01
2.220000e-06	1.752526e-06	2.049240e-10	1.219086e+01	1.279865e+01
2.230000e-06	1.796757e-06	2.246820e-10	1.249854e+01	1.447244e+01
2.240000e-06	1.840869e-06	2.423926e-10	1.280539e+01	1.612287e+01
2.250000e-06	1.884930e-06	2.588469e-10	1.311189e+01	1.774867e+01
2.260000e-06	1.928920e-06	2.768515e-10	1.341789e+01	1.934872e+01
2.270000e-06	1.972820e-06	2.984868e-10	1.372327e+01	2.092208e+01
2.280000e-06	2.016640e-06	3.221493e-10	1.402809e+01	2.246792e+01
2.290000e-06	2.060477e-06	3.462279e-10	1.433302e+01	2.398557e+01
2.300000e-06	2.104173e-06	3.707071e-10	1.463698e+01	2.547449e+01
2.310000e-06	2.147718e-06	3.927267e-10	1.493988e+01	2.693426e+01
2.320000e-06	2.191283e-06	4.096111e-10	1.524293e+01	2.836454e+01
2.330000e-06	2.234752e-06	4.241059e-10	1.554530e+01	2.976513e+01
2.340000e-06	2.277973e-06	4.391629e-10	1.584596e+01	3.113589e+01
2.350000e-06	2.320905e-06	4.558952e-10	1.614460e+01	3.247677e+01
2.360000e-06	2.363597e-06	4.745413e-10	1.644158e+01	3.378777e+01
2.370000e-06	2.405943e-06	4.947281e-10	1.673614e+01	3.506897e+01
2.380000e-06	2.447933e-06	5.150625e-10	1.702823e+01	3.632048e+01
2.390000e-06	2.489748e-06	5.334197e-10	1.731910e+01	3.754245e+01
2.400000e-06	2.531288e-06	5.493305e-10	1.760806e+01	3.873505e+01
2.410000e-06	2.572534e-06	5.638239e-10	1.789498e+01	3.989850e+01
2.420000e-06	2.613502e-06	5.785492e-10	1.817995e+01	4.103300e+01
2.430000e-06	2.654159e-06	5.959813e-10	1.846277e+01	4.213880e+01
2.440000e-06	2.694656e-06	6.132580e-10	1.874447e+01	4.321613e+01
2.450000e-06	2.734997e-06	6.275039e-10	1.902510e+01	4.426523e+01
2.460000e-06	2.775110e-06	6.409774e-10	1.930412e+01	4.528635e+01
2.470000e-06	2.815078e-06	6.534350e-10	1.958215e+01	4.627973e+01
2.480000e-06	2.854937e-06	6.651336e-10	1.985942e+01	4.724564e+01
2.490000e-06	2.894654e-06	6.779118e-10	2.013570e+01	4.818432e+01
2.500000e-06	2.934252e-06	6.921009e-10	2.041114e+01	4.909602e+01
2.510000e-06	2.973689e-06	7.082682e-10	2.068547e+01	4.998102e+01
2.520000e-06	3.012884e-06	7.228051e-10	2.095812e+01	5.083958e+01
2.530000e-06	3.051929e-06	7.369919e-10	2.122973e+01	5.167199e+01
2.540000e-06	3.090741e-06	7.510402e-10	2.149971e+01	5.247854e+01
2.550000e-06	3.129220e-06	7.593727e-10	2.176738e+01	5.325956e+01
2.560000e-06	3.167498e-06	7.630834e-10	2.203364e+01	5.401537e+01
2.570000e-06	3.205568e-06	7.679984e-10	2.229847e+01	5.474633e+01
2.580000e-06	3.243483e-06	7.762317e-10	2.256221e+01	5.545283e+01
2.590000e-06	3.281284e-06	7.886164e-10	2.282516e+01	5.613527e+01
2.600000e-06	3.318836e-06	8.054903e-10	2.308638e+01	5.679409e+01
2.610000e-06	3.356014e-06	8.220339e-10	2.334499e+01	5.742976e+01
2.620000e-06	3.392973e-06	8.363510e-10	2.360209e+01	5.804277e+01
2.630000e-06	3.429755e-06	8.452728e-10	2.385795e+01	5.863364e+01
2.640000e-06	3.466269e-06	8.502809e-10	2.411195e+01	5.920293e+01
2.650000e-06	3.502566e-06	8.538438e-10	2.436444e+01	5.975122e+01
2.660000e-06	3.538651e-06	8.576730e-10	2.461545e+01	6.027909e+01
2.670000e-06	3.574568e-06	8.636744e-10	2.486529e+01	6.078719e+01
2.680000e-06	3.610388e-06	8.717255e-10	2.511446e+01	6.127615e+01
2.690000e-06	3.646114e-06	8.840934e-10	2.536298e+01	6.174662e+01
2.700000e-06	3.681577e-06	8.945658e-10	2.560966e+01	6.219928e+01
2.710000e-06	3.716760e-06	8.984794e-10	2.585440e+01	6.263479e+01
2.720000e-06	3.751656e-06	8.989096e-10	2.609715e+01	6.305383e+01
2.730000e-06	3.786035e-06	9.013734e-10	2.633629e+01	6.345708e+01
2.740000e-06	3.819946e-06	9.043062e-10	2.657218e+01	6.384519e+01
2.750000e-06	3.853447e-06	9.084229e-10	2.680522e+01	6.421882e+01
2.760000e-06	3.886517e-06	9.169999e-10	2.703526e+01	6.457861e+01
2.770000e-06	3.919278e-06	9.233504e-10	2.726315e+01	6.492519e+01
2.780000e-06	3.951691e-06	9.304272e-10	2.748862e+01	6.525913e+01
2.790000e-06	3.983806e-06	9.347356e-10	2.771202e+01	6.558102e+01
2.800000e-06	4.015752e-06	9.353334e-10	2.793424e+01	6.589139e+01
2.810000e-06	4.047542e-06	9.365773e-10	2.815538e+01	6.619076e+01
2.820000e-06	4.079190e-06	9.401483e-10	2.837552e+01	6.647960e+01
2.830000e-06	4.110578e-06	9.518087e-10	2.859386e+01	6.675835e+01
2.840000e-06	4.141711e-06	9.615231e-10	2.881043e+01	6.702743e+01
2.850000e-06	4.172594e-06	9.660352e-10	2.902526e+01	6.728721e+01
2.860000e-06	4.203016e-06	9.673035e-10	2.923688e+01	6.753803e+01
2.870000e-06	4.233105e-06	9.676792e-10	2.944618e+01	6.778021e+01
2.880000e-06	4.262918e-06	9.677864e-10	2.965357e+01	6.801403e+01
2.890000e-06	4.292446e-06	9.718460e-10	2.985897e+01	6.823973e+01
2.900000e-06	4.321814e-06	9.810128e-10	3.006326e+01	6.845755e+01
