# Temperatura_=_-8.4
# Concentracion g/m^3_=_1620.0
# C_Vs_to_Am_M_A/Vsm_=_65563218390.804596
# pendiente_HvsI_1/m_=_3716.3
# ordenada_HvsI_A/m_=_1297.0
# frecuencia_Hz_=_135110.42782981638

Tiempo_(s)	Campo_(V.s)	Magnetizacion_(V.s)	Campo_(kA/m)	Magnetizacion_(A/m)
0.000000e+00	-5.534045e-06	-1.464758e-09	-3.836201e+01	-9.448408e+01
1.000000e-08	-5.534194e-06	-1.458613e-09	-3.836304e+01	-9.444510e+01
2.000000e-08	-5.534147e-06	-1.456011e-09	-3.836272e+01	-9.440809e+01
3.000000e-08	-5.533836e-06	-1.456893e-09	-3.836056e+01	-9.437255e+01
4.000000e-08	-5.533129e-06	-1.458651e-09	-3.835566e+01	-9.433791e+01
5.000000e-08	-5.531972e-06	-1.459082e-09	-3.834764e+01	-9.430352e+01
6.000000e-08	-5.530313e-06	-1.452218e-09	-3.833614e+01	-9.426869e+01
7.000000e-08	-5.528048e-06	-1.450295e-09	-3.832044e+01	-9.423272e+01
8.000000e-08	-5.525153e-06	-1.461175e-09	-3.830037e+01	-9.419485e+01
9.000000e-08	-5.521702e-06	-1.453076e-09	-3.827645e+01	-9.415432e+01
1.000000e-07	-5.517801e-06	-1.443925e-09	-3.824941e+01	-9.411040e+01
1.100000e-07	-5.513541e-06	-1.492017e-09	-3.821987e+01	-9.406235e+01
1.200000e-07	-5.508929e-06	-1.488122e-09	-3.818790e+01	-9.400948e+01
1.300000e-07	-5.504069e-06	-1.409737e-09	-3.815421e+01	-9.395113e+01
1.400000e-07	-5.499004e-06	-1.355805e-09	-3.811911e+01	-9.388672e+01
1.500000e-07	-5.493570e-06	-1.437602e-09	-3.808144e+01	-9.381573e+01
1.600000e-07	-5.487707e-06	-1.513752e-09	-3.804079e+01	-9.373770e+01
1.700000e-07	-5.481471e-06	-1.449736e-09	-3.799757e+01	-9.365231e+01
1.800000e-07	-5.474793e-06	-1.377222e-09	-3.795128e+01	-9.355927e+01
1.900000e-07	-5.467695e-06	-1.442182e-09	-3.790207e+01	-9.345843e+01
2.000000e-07	-5.460219e-06	-1.505094e-09	-3.785025e+01	-9.334974e+01
2.100000e-07	-5.452499e-06	-1.454607e-09	-3.779674e+01	-9.323323e+01
2.200000e-07	-5.444652e-06	-1.388543e-09	-3.774234e+01	-9.310905e+01
2.300000e-07	-5.436457e-06	-1.422596e-09	-3.768553e+01	-9.297745e+01
2.400000e-07	-5.427820e-06	-1.476815e-09	-3.762566e+01	-9.283875e+01
2.500000e-07	-5.418720e-06	-1.451091e-09	-3.756258e+01	-9.269338e+01
2.600000e-07	-5.409006e-06	-1.403231e-09	-3.749524e+01	-9.254184e+01
2.700000e-07	-5.398574e-06	-1.407158e-09	-3.742292e+01	-9.238469e+01
2.800000e-07	-5.387542e-06	-1.433002e-09	-3.734645e+01	-9.222255e+01
2.900000e-07	-5.376081e-06	-1.417742e-09	-3.726700e+01	-9.205609e+01
3.000000e-07	-5.364192e-06	-1.396507e-09	-3.718459e+01	-9.188601e+01
3.100000e-07	-5.351894e-06	-1.400814e-09	-3.709934e+01	-9.171303e+01
3.200000e-07	-5.339241e-06	-1.421178e-09	-3.701163e+01	-9.153788e+01
3.300000e-07	-5.326141e-06	-1.393773e-09	-3.692082e+01	-9.136127e+01
3.400000e-07	-5.312586e-06	-1.359481e-09	-3.682686e+01	-9.118390e+01
3.500000e-07	-5.298688e-06	-1.364616e-09	-3.673052e+01	-9.100644e+01
3.600000e-07	-5.284491e-06	-1.408558e-09	-3.663210e+01	-9.082952e+01
3.700000e-07	-5.269837e-06	-1.388888e-09	-3.653052e+01	-9.065372e+01
3.800000e-07	-5.254574e-06	-1.380203e-09	-3.642472e+01	-9.047954e+01
3.900000e-07	-5.238893e-06	-1.419957e-09	-3.631602e+01	-9.030744e+01
4.000000e-07	-5.222692e-06	-1.416605e-09	-3.620371e+01	-9.013779e+01
4.100000e-07	-5.205915e-06	-1.337351e-09	-3.608741e+01	-8.997088e+01
4.200000e-07	-5.188883e-06	-1.355292e-09	-3.596935e+01	-8.980694e+01
4.300000e-07	-5.171623e-06	-1.412287e-09	-3.584970e+01	-8.964610e+01
4.400000e-07	-5.154039e-06	-1.358432e-09	-3.572781e+01	-8.948842e+01
4.500000e-07	-5.136056e-06	-1.334086e-09	-3.560315e+01	-8.933388e+01
4.600000e-07	-5.117653e-06	-1.426511e-09	-3.547558e+01	-8.918240e+01
4.700000e-07	-5.098830e-06	-1.410712e-09	-3.534510e+01	-8.903380e+01
4.800000e-07	-5.079573e-06	-1.315432e-09	-3.521161e+01	-8.888787e+01
4.900000e-07	-5.060011e-06	-1.363420e-09	-3.507600e+01	-8.874434e+01
5.000000e-07	-5.040306e-06	-1.400727e-09	-3.493941e+01	-8.860290e+01
5.100000e-07	-5.020409e-06	-1.306183e-09	-3.480149e+01	-8.846317e+01
5.200000e-07	-5.000168e-06	-1.310425e-09	-3.466117e+01	-8.832480e+01
5.300000e-07	-4.979612e-06	-1.402426e-09	-3.451868e+01	-8.818736e+01
5.400000e-07	-4.958686e-06	-1.347694e-09	-3.437362e+01	-8.805045e+01
5.500000e-07	-4.937378e-06	-1.303296e-09	-3.422592e+01	-8.791366e+01
5.600000e-07	-4.915818e-06	-1.383865e-09	-3.407646e+01	-8.777659e+01
5.700000e-07	-4.893948e-06	-1.368634e-09	-3.392486e+01	-8.763884e+01
5.800000e-07	-4.871706e-06	-1.283992e-09	-3.377067e+01	-8.750005e+01
5.900000e-07	-4.849069e-06	-1.338273e-09	-3.361375e+01	-8.735988e+01
6.000000e-07	-4.826067e-06	-1.371540e-09	-3.345431e+01	-8.721801e+01
6.100000e-07	-4.802764e-06	-1.294656e-09	-3.329277e+01	-8.707418e+01
6.200000e-07	-4.779182e-06	-1.293123e-09	-3.312930e+01	-8.692814e+01
6.300000e-07	-4.755384e-06	-1.342455e-09	-3.296433e+01	-8.677970e+01
6.400000e-07	-4.731348e-06	-1.295721e-09	-3.279771e+01	-8.662869e+01
6.500000e-07	-4.707061e-06	-1.279259e-09	-3.262936e+01	-8.647499e+01
6.600000e-07	-4.682514e-06	-1.330583e-09	-3.245919e+01	-8.631849e+01
6.700000e-07	-4.657541e-06	-1.319631e-09	-3.228608e+01	-8.615915e+01
6.800000e-07	-4.631948e-06	-1.283872e-09	-3.210867e+01	-8.599692e+01
6.900000e-07	-4.605713e-06	-1.310941e-09	-3.192681e+01	-8.583179e+01
7.000000e-07	-4.578909e-06	-1.309613e-09	-3.174101e+01	-8.566376e+01
7.100000e-07	-4.551674e-06	-1.273688e-09	-3.155221e+01	-8.549284e+01
7.200000e-07	-4.524165e-06	-1.282944e-09	-3.136152e+01	-8.531905e+01
7.300000e-07	-4.496436e-06	-1.302626e-09	-3.116930e+01	-8.514240e+01
7.400000e-07	-4.468527e-06	-1.284788e-09	-3.097584e+01	-8.496291e+01
7.500000e-07	-4.440407e-06	-1.281243e-09	-3.078091e+01	-8.478056e+01
7.600000e-07	-4.412060e-06	-1.292175e-09	-3.058441e+01	-8.459535e+01
7.700000e-07	-4.383410e-06	-1.278710e-09	-3.038581e+01	-8.440724e+01
7.800000e-07	-4.354373e-06	-1.266847e-09	-3.018452e+01	-8.421618e+01
7.900000e-07	-4.324983e-06	-1.272855e-09	-2.998079e+01	-8.402208e+01
8.000000e-07	-4.295312e-06	-1.266706e-09	-2.977511e+01	-8.382483e+01
8.100000e-07	-4.265377e-06	-1.254243e-09	-2.956760e+01	-8.362432e+01
8.200000e-07	-4.235227e-06	-1.256075e-09	-2.935860e+01	-8.342039e+01
8.300000e-07	-4.204791e-06	-1.249252e-09	-2.914762e+01	-8.321287e+01
8.400000e-07	-4.174011e-06	-1.235943e-09	-2.893425e+01	-8.300157e+01
8.500000e-07	-4.142953e-06	-1.240619e-09	-2.871896e+01	-8.278630e+01
8.600000e-07	-4.111660e-06	-1.249388e-09	-2.850204e+01	-8.256683e+01
8.700000e-07	-4.080200e-06	-1.239543e-09	-2.828395e+01	-8.234297e+01
8.800000e-07	-4.048520e-06	-1.236303e-09	-2.806435e+01	-8.211450e+01
8.900000e-07	-4.016625e-06	-1.237804e-09	-2.784325e+01	-8.188122e+01
9.000000e-07	-3.984565e-06	-1.223675e-09	-2.762101e+01	-8.164295e+01
9.100000e-07	-3.952266e-06	-1.208407e-09	-2.739712e+01	-8.139952e+01
9.200000e-07	-3.919626e-06	-1.206781e-09	-2.717085e+01	-8.115081e+01
9.300000e-07	-3.886652e-06	-1.196547e-09	-2.694228e+01	-8.089671e+01
9.400000e-07	-3.853209e-06	-1.186757e-09	-2.671045e+01	-8.063715e+01
9.500000e-07	-3.819304e-06	-1.192117e-09	-2.647542e+01	-8.037213e+01
9.600000e-07	-3.784986e-06	-1.194703e-09	-2.623753e+01	-8.010167e+01
9.700000e-07	-3.750143e-06	-1.182248e-09	-2.599600e+01	-7.982584e+01
9.800000e-07	-3.714895e-06	-1.178896e-09	-2.575166e+01	-7.954477e+01
9.900000e-07	-3.679400e-06	-1.177217e-09	-2.550561e+01	-7.925865e+01
1.000000e-06	-3.643687e-06	-1.164282e-09	-2.525804e+01	-7.896768e+01
1.010000e-06	-3.607811e-06	-1.153111e-09	-2.500935e+01	-7.867215e+01
1.020000e-06	-3.571809e-06	-1.151769e-09	-2.475979e+01	-7.837237e+01
1.030000e-06	-3.535671e-06	-1.145260e-09	-2.450928e+01	-7.806868e+01
1.040000e-06	-3.499366e-06	-1.137555e-09	-2.425761e+01	-7.776146e+01
1.050000e-06	-3.462834e-06	-1.139920e-09	-2.400437e+01	-7.745113e+01
1.060000e-06	-3.426095e-06	-1.140155e-09	-2.374970e+01	-7.713809e+01
1.070000e-06	-3.389114e-06	-1.129514e-09	-2.349334e+01	-7.682278e+01
1.080000e-06	-3.351881e-06	-1.122110e-09	-2.323525e+01	-7.650562e+01
1.090000e-06	-3.314395e-06	-1.117094e-09	-2.297539e+01	-7.618702e+01
1.100000e-06	-3.276571e-06	-1.105419e-09	-2.271319e+01	-7.586736e+01
1.110000e-06	-3.238442e-06	-1.095678e-09	-2.244888e+01	-7.554700e+01
1.120000e-06	-3.200100e-06	-1.090562e-09	-2.218310e+01	-7.522626e+01
1.130000e-06	-3.161611e-06	-1.080512e-09	-2.191629e+01	-7.490539e+01
1.140000e-06	-3.122896e-06	-1.069830e-09	-2.164792e+01	-7.458460e+01
1.150000e-06	-3.083948e-06	-1.070565e-09	-2.137793e+01	-7.426402e+01
1.160000e-06	-3.044887e-06	-1.070945e-09	-2.110717e+01	-7.394372e+01
1.170000e-06	-3.005632e-06	-1.065948e-09	-2.083504e+01	-7.362369e+01
1.180000e-06	-2.966112e-06	-1.062107e-09	-2.056109e+01	-7.330381e+01
1.190000e-06	-2.926418e-06	-1.058778e-09	-2.028593e+01	-7.298391e+01
1.200000e-06	-2.886562e-06	-1.048543e-09	-2.000966e+01	-7.266372e+01
1.210000e-06	-2.846583e-06	-1.036273e-09	-1.973252e+01	-7.234289e+01
1.220000e-06	-2.806511e-06	-1.026388e-09	-1.945474e+01	-7.202099e+01
1.230000e-06	-2.766335e-06	-1.018281e-09	-1.917624e+01	-7.169750e+01
1.240000e-06	-2.726054e-06	-1.009799e-09	-1.889701e+01	-7.137184e+01
1.250000e-06	-2.685573e-06	-1.005761e-09	-1.861640e+01	-7.104335e+01
1.260000e-06	-2.644883e-06	-1.004228e-09	-1.833433e+01	-7.071135e+01
1.270000e-06	-2.603898e-06	-1.001801e-09	-1.805023e+01	-7.037507e+01
1.280000e-06	-2.562601e-06	-9.963790e-10	-1.776395e+01	-7.003373e+01
1.290000e-06	-2.521053e-06	-9.884534e-10	-1.747595e+01	-6.968651e+01
1.300000e-06	-2.479176e-06	-9.762374e-10	-1.718565e+01	-6.933259e+01
1.310000e-06	-2.437001e-06	-9.637270e-10	-1.689330e+01	-6.897114e+01
1.320000e-06	-2.394501e-06	-9.544803e-10	-1.659869e+01	-6.860133e+01
1.330000e-06	-2.351695e-06	-9.467469e-10	-1.630195e+01	-6.822238e+01
1.340000e-06	-2.308644e-06	-9.406814e-10	-1.600353e+01	-6.783353e+01
1.350000e-06	-2.265374e-06	-9.391185e-10	-1.570358e+01	-6.743406e+01
1.360000e-06	-2.222010e-06	-9.389179e-10	-1.540298e+01	-6.702331e+01
1.370000e-06	-2.178497e-06	-9.349722e-10	-1.510135e+01	-6.660068e+01
1.380000e-06	-2.134820e-06	-9.278636e-10	-1.479858e+01	-6.616564e+01
1.390000e-06	-2.091075e-06	-9.171434e-10	-1.449534e+01	-6.571776e+01
1.400000e-06	-2.047241e-06	-9.023975e-10	-1.419148e+01	-6.525666e+01
1.410000e-06	-2.003327e-06	-8.890144e-10	-1.388706e+01	-6.478206e+01
1.420000e-06	-1.959390e-06	-8.803300e-10	-1.358249e+01	-6.429376e+01
1.430000e-06	-1.915333e-06	-8.733056e-10	-1.327709e+01	-6.379166e+01
1.440000e-06	-1.871108e-06	-8.667680e-10	-1.297052e+01	-6.327572e+01
1.450000e-06	-1.826832e-06	-8.609497e-10	-1.266360e+01	-6.274598e+01
1.460000e-06	-1.782469e-06	-8.567802e-10	-1.235608e+01	-6.220257e+01
1.470000e-06	-1.737926e-06	-8.505829e-10	-1.204731e+01	-6.164567e+01
1.480000e-06	-1.693195e-06	-8.430342e-10	-1.173723e+01	-6.107550e+01
1.490000e-06	-1.648393e-06	-8.362387e-10	-1.142667e+01	-6.049234e+01
1.500000e-06	-1.603508e-06	-8.246881e-10	-1.111552e+01	-5.989649e+01
1.510000e-06	-1.558497e-06	-8.073964e-10	-1.080351e+01	-5.928828e+01
1.520000e-06	-1.513392e-06	-7.921293e-10	-1.049083e+01	-5.866804e+01
1.530000e-06	-1.468108e-06	-7.791309e-10	-1.017693e+01	-5.803607e+01
1.540000e-06	-1.422660e-06	-7.667591e-10	-9.861882e+00	-5.739268e+01
1.550000e-06	-1.377090e-06	-7.580165e-10	-9.545987e+00	-5.673810e+01
1.560000e-06	-1.331406e-06	-7.510499e-10	-9.229310e+00	-5.607253e+01
1.570000e-06	-1.285643e-06	-7.405017e-10	-8.912077e+00	-5.539612e+01
1.580000e-06	-1.239836e-06	-7.290120e-10	-8.594543e+00	-5.470890e+01
1.590000e-06	-1.193962e-06	-7.163344e-10	-8.276543e+00	-5.401084e+01
1.600000e-06	-1.147985e-06	-6.994750e-10	-7.957835e+00	-5.330181e+01
1.610000e-06	-1.101990e-06	-6.819194e-10	-7.638994e+00	-5.258155e+01
1.620000e-06	-1.055954e-06	-6.690148e-10	-7.319874e+00	-5.184969e+01
1.630000e-06	-1.009790e-06	-6.584933e-10	-6.999863e+00	-5.110575e+01
1.640000e-06	-9.634835e-07	-6.490201e-10	-6.678869e+00	-5.034913e+01
1.650000e-06	-9.170906e-07	-6.401678e-10	-6.357274e+00	-4.957907e+01
1.660000e-06	-8.706458e-07	-6.300095e-10	-6.035318e+00	-4.879471e+01
1.670000e-06	-8.241781e-07	-6.213513e-10	-5.713204e+00	-4.799507e+01
1.680000e-06	-7.776969e-07	-6.127379e-10	-5.390996e+00	-4.717905e+01
1.690000e-06	-7.311902e-07	-6.022024e-10	-5.068612e+00	-4.634542e+01
1.700000e-06	-6.846741e-07	-5.896065e-10	-4.746162e+00	-4.549288e+01
1.710000e-06	-6.380752e-07	-5.717601e-10	-4.423139e+00	-4.462002e+01
1.720000e-06	-5.914109e-07	-5.506058e-10	-4.099662e+00	-4.372535e+01
1.730000e-06	-5.447413e-07	-5.305936e-10	-3.776147e+00	-4.280733e+01
1.740000e-06	-4.980790e-07	-5.169313e-10	-3.452685e+00	-4.186437e+01
1.750000e-06	-4.513887e-07	-5.083770e-10	-3.129027e+00	-4.089484e+01
1.760000e-06	-4.045787e-07	-4.995067e-10	-2.804540e+00	-3.989712e+01
1.770000e-06	-3.576807e-07	-4.883514e-10	-2.479443e+00	-3.886957e+01
1.780000e-06	-3.107353e-07	-4.744128e-10	-2.154018e+00	-3.781060e+01
1.790000e-06	-2.636990e-07	-4.585848e-10	-1.827962e+00	-3.671864e+01
1.800000e-06	-2.166828e-07	-4.398883e-10	-1.502045e+00	-3.559222e+01
1.810000e-06	-1.697000e-07	-4.199681e-10	-1.176360e+00	-3.442993e+01
1.820000e-06	-1.226457e-07	-4.007416e-10	-8.501800e-01	-3.323049e+01
1.830000e-06	-7.560517e-08	-3.828480e-10	-5.240952e-01	-3.199270e+01
1.840000e-06	-2.865168e-08	-3.658262e-10	-1.986135e-01	-3.071556e+01
1.850000e-06	1.824092e-08	-3.487963e-10	1.264461e-01	-2.939817e+01
1.860000e-06	6.515931e-08	-3.323470e-10	4.516845e-01	-2.803986e+01
1.870000e-06	1.121401e-07	-3.165256e-10	7.773551e-01	-2.664009e+01
1.880000e-06	1.591143e-07	-2.991975e-10	1.102980e+00	-2.519857e+01
1.890000e-06	2.060340e-07	-2.787217e-10	1.428228e+00	-2.371518e+01
1.900000e-06	2.529770e-07	-2.561295e-10	1.753637e+00	-2.219004e+01
1.910000e-06	2.999043e-07	-2.333223e-10	2.078937e+00	-2.062349e+01
1.920000e-06	3.467556e-07	-2.085817e-10	2.403710e+00	-1.901608e+01
1.930000e-06	3.936317e-07	-1.836544e-10	2.728656e+00	-1.736862e+01
1.940000e-06	4.405200e-07	-1.605449e-10	3.053685e+00	-1.568211e+01
1.950000e-06	4.873509e-07	-1.401881e-10	3.378317e+00	-1.395782e+01
1.960000e-06	5.341598e-07	-1.194875e-10	3.702796e+00	-1.219721e+01
1.970000e-06	5.809464e-07	-9.861415e-11	4.027121e+00	-1.040196e+01
1.980000e-06	6.275992e-07	-7.890246e-11	4.350518e+00	-8.573963e+00
1.990000e-06	6.741433e-07	-5.580412e-11	4.673163e+00	-6.715302e+00
2.000000e-06	7.206402e-07	-2.776294e-11	4.995479e+00	-4.828244e+00
2.010000e-06	7.671142e-07	4.040741e-12	5.317637e+00	-2.915223e+00
2.020000e-06	8.135271e-07	3.739247e-11	5.639371e+00	-9.788249e-01
2.030000e-06	8.598634e-07	6.999898e-11	5.960574e+00	9.782296e-01
2.040000e-06	9.061605e-07	9.820525e-11	6.281506e+00	2.953104e+00
2.050000e-06	9.524366e-07	1.223411e-10	6.602292e+00	4.942865e+00
2.060000e-06	9.986446e-07	1.441019e-10	6.922606e+00	6.944502e+00
2.070000e-06	1.044744e-06	1.648048e-10	7.242166e+00	8.954950e+00
2.080000e-06	1.090726e-06	1.876047e-10	7.560915e+00	1.097111e+01
2.090000e-06	1.136634e-06	2.149180e-10	7.879150e+00	1.298987e+01
2.100000e-06	1.182476e-06	2.466005e-10	8.196925e+00	1.500812e+01
2.110000e-06	1.228227e-06	2.811403e-10	8.514072e+00	1.702278e+01
2.120000e-06	1.273896e-06	3.154591e-10	8.830646e+00	1.903083e+01
2.130000e-06	1.319477e-06	3.476277e-10	9.146618e+00	2.102930e+01
2.140000e-06	1.364974e-06	3.751433e-10	9.461999e+00	2.301533e+01
2.150000e-06	1.410406e-06	3.977878e-10	9.776936e+00	2.498614e+01
2.160000e-06	1.455824e-06	4.176010e-10	1.009177e+01	2.693909e+01
2.170000e-06	1.501131e-06	4.378513e-10	1.040584e+01	2.887165e+01
2.180000e-06	1.546285e-06	4.618310e-10	1.071885e+01	3.078147e+01
2.190000e-06	1.591341e-06	4.898284e-10	1.103118e+01	3.266632e+01
2.200000e-06	1.636268e-06	5.207490e-10	1.134262e+01	3.452419e+01
2.210000e-06	1.680987e-06	5.525670e-10	1.165261e+01	3.635319e+01
2.220000e-06	1.725546e-06	5.811185e-10	1.196149e+01	3.815166e+01
2.230000e-06	1.770038e-06	6.041238e-10	1.226990e+01	3.991808e+01
2.240000e-06	1.814434e-06	6.232824e-10	1.257766e+01	4.165116e+01
2.250000e-06	1.858691e-06	6.387036e-10	1.288445e+01	4.334976e+01
2.260000e-06	1.902895e-06	6.536856e-10	1.319087e+01	4.501295e+01
2.270000e-06	1.947039e-06	6.734635e-10	1.349688e+01	4.663998e+01
2.280000e-06	1.991015e-06	6.971970e-10	1.380172e+01	4.823026e+01
2.290000e-06	2.034896e-06	7.223501e-10	1.410590e+01	4.978337e+01
2.300000e-06	2.078727e-06	7.468790e-10	1.440974e+01	5.129906e+01
2.310000e-06	2.122489e-06	7.688957e-10	1.471310e+01	5.277723e+01
2.320000e-06	2.166194e-06	7.878706e-10	1.501606e+01	5.421791e+01
2.330000e-06	2.209763e-06	8.036405e-10	1.531808e+01	5.562127e+01
2.340000e-06	2.253159e-06	8.184736e-10	1.561890e+01	5.698758e+01
2.350000e-06	2.296419e-06	8.354845e-10	1.591878e+01	5.831723e+01
2.360000e-06	2.339465e-06	8.538886e-10	1.621717e+01	5.961068e+01
2.370000e-06	2.382231e-06	8.720111e-10	1.651363e+01	6.086848e+01
2.380000e-06	2.424736e-06	8.905198e-10	1.680827e+01	6.209123e+01
2.390000e-06	2.466962e-06	9.064706e-10	1.710098e+01	6.327960e+01
2.400000e-06	2.508935e-06	9.188641e-10	1.739194e+01	6.443429e+01
2.410000e-06	2.550618e-06	9.316258e-10	1.768089e+01	6.555601e+01
2.420000e-06	2.591965e-06	9.464743e-10	1.796751e+01	6.664550e+01
2.430000e-06	2.632967e-06	9.629288e-10	1.825173e+01	6.770352e+01
2.440000e-06	2.673703e-06	9.802821e-10	1.853412e+01	6.873079e+01
2.450000e-06	2.714303e-06	9.966817e-10	1.881556e+01	6.972805e+01
2.460000e-06	2.754683e-06	1.010528e-09	1.909546e+01	7.069602e+01
2.470000e-06	2.794814e-06	1.022267e-09	1.937366e+01	7.163539e+01
2.480000e-06	2.834835e-06	1.032589e-09	1.965108e+01	7.254682e+01
2.490000e-06	2.874719e-06	1.041810e-09	1.992756e+01	7.343096e+01
2.500000e-06	2.914511e-06	1.050453e-09	2.020340e+01	7.428842e+01
2.510000e-06	2.954197e-06	1.061207e-09	2.047850e+01	7.511977e+01
2.520000e-06	2.993626e-06	1.075384e-09	2.075182e+01	7.592557e+01
2.530000e-06	3.032811e-06	1.090037e-09	2.102345e+01	7.670635e+01
2.540000e-06	3.071841e-06	1.105950e-09	2.129400e+01	7.746261e+01
2.550000e-06	3.110751e-06	1.121144e-09	2.156373e+01	7.819483e+01
2.560000e-06	3.149434e-06	1.130803e-09	2.183188e+01	7.890349e+01
2.570000e-06	3.187787e-06	1.135658e-09	2.209775e+01	7.958903e+01
2.580000e-06	3.225883e-06	1.139246e-09	2.236183e+01	8.025192e+01
2.590000e-06	3.263808e-06	1.143416e-09	2.262472e+01	8.089259e+01
2.600000e-06	3.301578e-06	1.151465e-09	2.288654e+01	8.151150e+01
2.610000e-06	3.339139e-06	1.165767e-09	2.314692e+01	8.210912e+01
2.620000e-06	3.376444e-06	1.182863e-09	2.340551e+01	8.268590e+01
2.630000e-06	3.413487e-06	1.199295e-09	2.366230e+01	8.324234e+01
2.640000e-06	3.450280e-06	1.211426e-09	2.391735e+01	8.377895e+01
2.650000e-06	3.486839e-06	1.217131e-09	2.417077e+01	8.429624e+01
2.660000e-06	3.523164e-06	1.218313e-09	2.442258e+01	8.479476e+01
2.670000e-06	3.559285e-06	1.218821e-09	2.467297e+01	8.527508e+01
2.680000e-06	3.595227e-06	1.220322e-09	2.492212e+01	8.573778e+01
2.690000e-06	3.631025e-06	1.225296e-09	2.517027e+01	8.618348e+01
2.700000e-06	3.666674e-06	1.234902e-09	2.541739e+01	8.661280e+01
2.710000e-06	3.702210e-06	1.244621e-09	2.566373e+01	8.702639e+01
2.720000e-06	3.737482e-06	1.252096e-09	2.590823e+01	8.742489e+01
2.730000e-06	3.772408e-06	1.257906e-09	2.615034e+01	8.780896e+01
2.740000e-06	3.807066e-06	1.261099e-09	2.639059e+01	8.817926e+01
2.750000e-06	3.841288e-06	1.263142e-09	2.662781e+01	8.853644e+01
2.760000e-06	3.874996e-06	1.265435e-09	2.686148e+01	8.888115e+01
2.770000e-06	3.908162e-06	1.269273e-09	2.709139e+01	8.921401e+01
2.780000e-06	3.940849e-06	1.274453e-09	2.731797e+01	8.953563e+01
2.790000e-06	3.973278e-06	1.280091e-09	2.754277e+01	8.984658e+01
2.800000e-06	4.005513e-06	1.286967e-09	2.776622e+01	9.014741e+01
2.810000e-06	4.037533e-06	1.292662e-09	2.798819e+01	9.043860e+01
2.820000e-06	4.069328e-06	1.296177e-09	2.820859e+01	9.072064e+01
2.830000e-06	4.100966e-06	1.300631e-09	2.842791e+01	9.099391e+01
2.840000e-06	4.132385e-06	1.306952e-09	2.864570e+01	9.125880e+01
2.850000e-06	4.163566e-06	1.311619e-09	2.886185e+01	9.151560e+01
2.860000e-06	4.194518e-06	1.315080e-09	2.907641e+01	9.176457e+01
2.870000e-06	4.225116e-06	1.320587e-09	2.928851e+01	9.200592e+01
2.880000e-06	4.255343e-06	1.325377e-09	2.949805e+01	9.223980e+01
2.890000e-06	4.285279e-06	1.326440e-09	2.970556e+01	9.246632e+01
2.900000e-06	4.314958e-06	1.327244e-09	2.991130e+01	9.268552e+01
