# Temperatura_=_-8.85
# Concentracion g/m^3_=_1620.0
# C_Vs_to_Am_M_A/Vsm_=_65563218390.804596
# pendiente_HvsI_1/m_=_3716.3
# ordenada_HvsI_A/m_=_1297.0
# frecuencia_Hz_=_135107.4124101735

Tiempo_(s)	Campo_(V.s)	Magnetizacion_(V.s)	Campo_(kA/m)	Magnetizacion_(A/m)
0.000000e+00	-5.518546e-06	-1.387649e-09	-3.837638e+01	-8.857719e+01
1.000000e-08	-5.518702e-06	-1.385307e-09	-3.837747e+01	-8.854272e+01
2.000000e-08	-5.518559e-06	-1.384373e-09	-3.837648e+01	-8.851013e+01
3.000000e-08	-5.518171e-06	-1.382859e-09	-3.837377e+01	-8.847940e+01
4.000000e-08	-5.517400e-06	-1.378588e-09	-3.836841e+01	-8.845046e+01
5.000000e-08	-5.516111e-06	-1.374133e-09	-3.835945e+01	-8.842318e+01
6.000000e-08	-5.514257e-06	-1.368637e-09	-3.834655e+01	-8.839737e+01
7.000000e-08	-5.511746e-06	-1.380850e-09	-3.832909e+01	-8.837278e+01
8.000000e-08	-5.508608e-06	-1.405197e-09	-3.830727e+01	-8.834913e+01
9.000000e-08	-5.505005e-06	-1.355412e-09	-3.828221e+01	-8.832604e+01
1.000000e-07	-5.501031e-06	-1.305380e-09	-3.825458e+01	-8.830314e+01
1.100000e-07	-5.496784e-06	-1.416910e-09	-3.822505e+01	-8.827999e+01
1.200000e-07	-5.492234e-06	-1.479356e-09	-3.819341e+01	-8.825612e+01
1.300000e-07	-5.487358e-06	-1.356058e-09	-3.815950e+01	-8.823106e+01
1.400000e-07	-5.482260e-06	-1.242634e-09	-3.812404e+01	-8.820430e+01
1.500000e-07	-5.476843e-06	-1.331705e-09	-3.808637e+01	-8.817533e+01
1.600000e-07	-5.470890e-06	-1.473186e-09	-3.804498e+01	-8.814365e+01
1.700000e-07	-5.464444e-06	-1.359902e-09	-3.800015e+01	-8.810878e+01
1.800000e-07	-5.457685e-06	-1.281449e-09	-3.795315e+01	-8.807023e+01
1.900000e-07	-5.450578e-06	-1.384615e-09	-3.790373e+01	-8.802757e+01
2.000000e-07	-5.443046e-06	-1.496599e-09	-3.785135e+01	-8.798039e+01
2.100000e-07	-5.435274e-06	-1.390308e-09	-3.779730e+01	-8.792833e+01
2.200000e-07	-5.427324e-06	-1.275820e-09	-3.774202e+01	-8.787107e+01
2.300000e-07	-5.419033e-06	-1.328441e-09	-3.768436e+01	-8.780835e+01
2.400000e-07	-5.410268e-06	-1.422844e-09	-3.762341e+01	-8.773998e+01
2.500000e-07	-5.400996e-06	-1.405722e-09	-3.755893e+01	-8.766581e+01
2.600000e-07	-5.391251e-06	-1.343904e-09	-3.749116e+01	-8.758577e+01
2.700000e-07	-5.380852e-06	-1.360211e-09	-3.741885e+01	-8.749986e+01
2.800000e-07	-5.369786e-06	-1.382538e-09	-3.734189e+01	-8.740812e+01
2.900000e-07	-5.358315e-06	-1.354109e-09	-3.726212e+01	-8.731068e+01
3.000000e-07	-5.346514e-06	-1.303075e-09	-3.718006e+01	-8.720771e+01
3.100000e-07	-5.334264e-06	-1.322887e-09	-3.709487e+01	-8.709946e+01
3.200000e-07	-5.321564e-06	-1.351722e-09	-3.700656e+01	-8.698620e+01
3.300000e-07	-5.308505e-06	-1.349559e-09	-3.691574e+01	-8.686827e+01
3.400000e-07	-5.294993e-06	-1.299443e-09	-3.682177e+01	-8.674603e+01
3.500000e-07	-5.281046e-06	-1.327155e-09	-3.672479e+01	-8.661990e+01
3.600000e-07	-5.266780e-06	-1.365360e-09	-3.662558e+01	-8.649029e+01
3.700000e-07	-5.252138e-06	-1.313238e-09	-3.652376e+01	-8.635767e+01
3.800000e-07	-5.236932e-06	-1.268462e-09	-3.641802e+01	-8.622247e+01
3.900000e-07	-5.221261e-06	-1.359630e-09	-3.630904e+01	-8.608515e+01
4.000000e-07	-5.205159e-06	-1.357521e-09	-3.619706e+01	-8.594618e+01
4.100000e-07	-5.188486e-06	-1.243597e-09	-3.608112e+01	-8.580598e+01
4.200000e-07	-5.171428e-06	-1.295056e-09	-3.596250e+01	-8.566497e+01
4.300000e-07	-5.154132e-06	-1.408561e-09	-3.584222e+01	-8.552354e+01
4.400000e-07	-5.136529e-06	-1.291407e-09	-3.571980e+01	-8.538205e+01
4.500000e-07	-5.118531e-06	-1.232446e-09	-3.559465e+01	-8.524082e+01
4.600000e-07	-5.100088e-06	-1.389752e-09	-3.546639e+01	-8.510014e+01
4.700000e-07	-5.081221e-06	-1.367676e-09	-3.533519e+01	-8.496025e+01
4.800000e-07	-5.061932e-06	-1.208590e-09	-3.520105e+01	-8.482134e+01
4.900000e-07	-5.042330e-06	-1.304442e-09	-3.506474e+01	-8.468356e+01
5.000000e-07	-5.022589e-06	-1.388644e-09	-3.492746e+01	-8.454702e+01
5.100000e-07	-5.002643e-06	-1.233789e-09	-3.478875e+01	-8.441177e+01
5.200000e-07	-4.982445e-06	-1.243340e-09	-3.464829e+01	-8.427784e+01
5.300000e-07	-4.961974e-06	-1.384723e-09	-3.450594e+01	-8.414519e+01
5.400000e-07	-4.941100e-06	-1.284787e-09	-3.436078e+01	-8.401377e+01
5.500000e-07	-4.919810e-06	-1.212974e-09	-3.421273e+01	-8.388348e+01
5.600000e-07	-4.898247e-06	-1.364726e-09	-3.406277e+01	-8.375420e+01
5.700000e-07	-4.876435e-06	-1.337290e-09	-3.391109e+01	-8.362578e+01
5.800000e-07	-4.854204e-06	-1.200776e-09	-3.375649e+01	-8.349805e+01
5.900000e-07	-4.831576e-06	-1.291085e-09	-3.359914e+01	-8.337082e+01
6.000000e-07	-4.808629e-06	-1.350332e-09	-3.343957e+01	-8.324389e+01
6.100000e-07	-4.785318e-06	-1.222686e-09	-3.327746e+01	-8.311706e+01
6.200000e-07	-4.761749e-06	-1.239201e-09	-3.311356e+01	-8.299013e+01
6.300000e-07	-4.738000e-06	-1.323142e-09	-3.294840e+01	-8.286289e+01
6.400000e-07	-4.713968e-06	-1.252170e-09	-3.278129e+01	-8.273514e+01
6.500000e-07	-4.689576e-06	-1.223467e-09	-3.261166e+01	-8.260668e+01
6.600000e-07	-4.664894e-06	-1.305558e-09	-3.244002e+01	-8.247733e+01
6.700000e-07	-4.639858e-06	-1.276023e-09	-3.226592e+01	-8.234692e+01
6.800000e-07	-4.614276e-06	-1.225142e-09	-3.208802e+01	-8.221528e+01
6.900000e-07	-4.588040e-06	-1.273117e-09	-3.190558e+01	-8.208227e+01
7.000000e-07	-4.561271e-06	-1.276108e-09	-3.171942e+01	-8.194774e+01
7.100000e-07	-4.534090e-06	-1.220963e-09	-3.153040e+01	-8.181158e+01
7.200000e-07	-4.506622e-06	-1.241298e-09	-3.133939e+01	-8.167366e+01
7.300000e-07	-4.478994e-06	-1.262129e-09	-3.114726e+01	-8.153388e+01
7.400000e-07	-4.451140e-06	-1.232078e-09	-3.095356e+01	-8.139214e+01
7.500000e-07	-4.423008e-06	-1.235987e-09	-3.075793e+01	-8.124834e+01
7.600000e-07	-4.394708e-06	-1.259237e-09	-3.056113e+01	-8.110239e+01
7.700000e-07	-4.366123e-06	-1.237567e-09	-3.036235e+01	-8.095419e+01
7.800000e-07	-4.337086e-06	-1.222799e-09	-3.016042e+01	-8.080365e+01
7.900000e-07	-4.307775e-06	-1.232543e-09	-2.995659e+01	-8.065066e+01
8.000000e-07	-4.278229e-06	-1.217856e-09	-2.975113e+01	-8.049512e+01
8.100000e-07	-4.248402e-06	-1.203074e-09	-2.954370e+01	-8.033691e+01
8.200000e-07	-4.218303e-06	-1.215517e-09	-2.933439e+01	-8.017592e+01
8.300000e-07	-4.187909e-06	-1.212474e-09	-2.912303e+01	-8.001201e+01
8.400000e-07	-4.157181e-06	-1.194957e-09	-2.890935e+01	-7.984505e+01
8.500000e-07	-4.126137e-06	-1.208086e-09	-2.869347e+01	-7.967488e+01
8.600000e-07	-4.094832e-06	-1.218181e-09	-2.847577e+01	-7.950135e+01
8.700000e-07	-4.063372e-06	-1.201078e-09	-2.825699e+01	-7.932432e+01
8.800000e-07	-4.031788e-06	-1.194379e-09	-2.803735e+01	-7.914361e+01
8.900000e-07	-4.000040e-06	-1.200960e-09	-2.781658e+01	-7.895906e+01
9.000000e-07	-3.968008e-06	-1.182712e-09	-2.759383e+01	-7.877053e+01
9.100000e-07	-3.935621e-06	-1.171347e-09	-2.736860e+01	-7.857787e+01
9.200000e-07	-3.902870e-06	-1.179624e-09	-2.714085e+01	-7.838093e+01
9.300000e-07	-3.869723e-06	-1.172429e-09	-2.691034e+01	-7.817959e+01
9.400000e-07	-3.836169e-06	-1.158712e-09	-2.667701e+01	-7.797376e+01
9.500000e-07	-3.802180e-06	-1.171520e-09	-2.644064e+01	-7.776335e+01
9.600000e-07	-3.767803e-06	-1.173872e-09	-2.620159e+01	-7.754830e+01
9.700000e-07	-3.732990e-06	-1.153500e-09	-2.595949e+01	-7.732858e+01
9.800000e-07	-3.697856e-06	-1.146523e-09	-2.571517e+01	-7.710421e+01
9.900000e-07	-3.662454e-06	-1.150135e-09	-2.546898e+01	-7.687522e+01
1.000000e-06	-3.626783e-06	-1.136547e-09	-2.522092e+01	-7.664167e+01
1.010000e-06	-3.590970e-06	-1.127915e-09	-2.497188e+01	-7.640369e+01
1.020000e-06	-3.555082e-06	-1.135954e-09	-2.472231e+01	-7.616140e+01
1.030000e-06	-3.519125e-06	-1.134661e-09	-2.447226e+01	-7.591498e+01
1.040000e-06	-3.482926e-06	-1.123832e-09	-2.422053e+01	-7.566464e+01
1.050000e-06	-3.446450e-06	-1.125733e-09	-2.396687e+01	-7.541062e+01
1.060000e-06	-3.409697e-06	-1.123627e-09	-2.371128e+01	-7.515316e+01
1.070000e-06	-3.372641e-06	-1.108237e-09	-2.345360e+01	-7.489254e+01
1.080000e-06	-3.335325e-06	-1.101596e-09	-2.319410e+01	-7.462907e+01
1.090000e-06	-3.297767e-06	-1.101453e-09	-2.293292e+01	-7.436302e+01
1.100000e-06	-3.259989e-06	-1.090684e-09	-2.267021e+01	-7.409470e+01
1.110000e-06	-3.222021e-06	-1.080643e-09	-2.240618e+01	-7.382439e+01
1.120000e-06	-3.183849e-06	-1.078842e-09	-2.214072e+01	-7.355238e+01
1.130000e-06	-3.145453e-06	-1.069956e-09	-2.187372e+01	-7.327891e+01
1.140000e-06	-3.106815e-06	-1.060824e-09	-2.160503e+01	-7.300421e+01
1.150000e-06	-3.067962e-06	-1.063897e-09	-2.133484e+01	-7.272846e+01
1.160000e-06	-3.028997e-06	-1.066875e-09	-2.106387e+01	-7.245180e+01
1.170000e-06	-2.989874e-06	-1.059561e-09	-2.079180e+01	-7.217432e+01
1.180000e-06	-2.950488e-06	-1.055390e-09	-2.051791e+01	-7.189605e+01
1.190000e-06	-2.910891e-06	-1.053835e-09	-2.024256e+01	-7.161697e+01
1.200000e-06	-2.871217e-06	-1.046256e-09	-1.996666e+01	-7.133697e+01
1.210000e-06	-2.831448e-06	-1.036962e-09	-1.969010e+01	-7.105590e+01
1.220000e-06	-2.791459e-06	-1.033605e-09	-1.941201e+01	-7.077351e+01
1.230000e-06	-2.751283e-06	-1.027434e-09	-1.913263e+01	-7.048951e+01
1.240000e-06	-2.711011e-06	-1.017996e-09	-1.885257e+01	-7.020352e+01
1.250000e-06	-2.670668e-06	-1.011075e-09	-1.857203e+01	-6.991511e+01
1.260000e-06	-2.630186e-06	-1.007796e-09	-1.829051e+01	-6.962377e+01
1.270000e-06	-2.589357e-06	-1.002097e-09	-1.800658e+01	-6.932895e+01
1.280000e-06	-2.548069e-06	-9.956942e-10	-1.771946e+01	-6.903003e+01
1.290000e-06	-2.506497e-06	-9.900681e-10	-1.743037e+01	-6.872637e+01
1.300000e-06	-2.464763e-06	-9.818281e-10	-1.714014e+01	-6.841727e+01
1.310000e-06	-2.422733e-06	-9.704191e-10	-1.684787e+01	-6.810203e+01
1.320000e-06	-2.380373e-06	-9.601244e-10	-1.655329e+01	-6.777993e+01
1.330000e-06	-2.337786e-06	-9.524139e-10	-1.625714e+01	-6.745022e+01
1.340000e-06	-2.294932e-06	-9.469768e-10	-1.595913e+01	-6.711219e+01
1.350000e-06	-2.251784e-06	-9.456878e-10	-1.565907e+01	-6.676512e+01
1.360000e-06	-2.208502e-06	-9.477811e-10	-1.535809e+01	-6.640834e+01
1.370000e-06	-2.165069e-06	-9.458215e-10	-1.505605e+01	-6.604119e+01
1.380000e-06	-2.121444e-06	-9.388088e-10	-1.475268e+01	-6.566309e+01
1.390000e-06	-2.077724e-06	-9.277405e-10	-1.444865e+01	-6.527348e+01
1.400000e-06	-2.033931e-06	-9.102409e-10	-1.414411e+01	-6.487188e+01
1.410000e-06	-1.990074e-06	-8.924520e-10	-1.383913e+01	-6.445788e+01
1.420000e-06	-1.946164e-06	-8.805933e-10	-1.353377e+01	-6.403113e+01
1.430000e-06	-1.902167e-06	-8.743065e-10	-1.322781e+01	-6.359137e+01
1.440000e-06	-1.858053e-06	-8.714027e-10	-1.292104e+01	-6.313839e+01
1.450000e-06	-1.813839e-06	-8.710419e-10	-1.261357e+01	-6.267209e+01
1.460000e-06	-1.769555e-06	-8.691637e-10	-1.230562e+01	-6.219241e+01
1.470000e-06	-1.725141e-06	-8.611276e-10	-1.199676e+01	-6.169937e+01
1.480000e-06	-1.680651e-06	-8.489551e-10	-1.168737e+01	-6.119306e+01
1.490000e-06	-1.636087e-06	-8.377130e-10	-1.137747e+01	-6.067361e+01
1.500000e-06	-1.591341e-06	-8.251385e-10	-1.106630e+01	-6.014120e+01
1.510000e-06	-1.546439e-06	-8.119680e-10	-1.075405e+01	-5.959604e+01
1.520000e-06	-1.501316e-06	-8.018143e-10	-1.044026e+01	-5.903837e+01
1.530000e-06	-1.455996e-06	-7.930978e-10	-1.012510e+01	-5.846843e+01
1.540000e-06	-1.410591e-06	-7.833078e-10	-9.809352e+00	-5.788645e+01
1.550000e-06	-1.365168e-06	-7.753319e-10	-9.493481e+00	-5.729265e+01
1.560000e-06	-1.319737e-06	-7.668864e-10	-9.177549e+00	-5.668722e+01
1.570000e-06	-1.274225e-06	-7.546705e-10	-8.861058e+00	-5.607028e+01
1.580000e-06	-1.228604e-06	-7.420005e-10	-8.543805e+00	-5.544190e+01
1.590000e-06	-1.182856e-06	-7.305575e-10	-8.225671e+00	-5.480208e+01
1.600000e-06	-1.137017e-06	-7.173596e-10	-7.906898e+00	-5.415071e+01
1.610000e-06	-1.091142e-06	-7.038853e-10	-7.587886e+00	-5.348760e+01
1.620000e-06	-1.045221e-06	-6.920220e-10	-7.268545e+00	-5.281244e+01
1.630000e-06	-9.991799e-07	-6.805615e-10	-6.948372e+00	-5.212481e+01
1.640000e-06	-9.530661e-07	-6.712388e-10	-6.627693e+00	-5.142415e+01
1.650000e-06	-9.069569e-07	-6.641647e-10	-6.307046e+00	-5.070977e+01
1.660000e-06	-8.607621e-07	-6.574890e-10	-5.985804e+00	-4.998088e+01
1.670000e-06	-8.144940e-07	-6.509430e-10	-5.664052e+00	-4.923652e+01
1.680000e-06	-7.680816e-07	-6.408118e-10	-5.341297e+00	-4.847564e+01
1.690000e-06	-7.216038e-07	-6.268247e-10	-5.018087e+00	-4.769704e+01
1.700000e-06	-6.751953e-07	-6.099325e-10	-4.695358e+00	-4.689943e+01
1.710000e-06	-6.287584e-07	-5.891493e-10	-4.372433e+00	-4.608139e+01
1.720000e-06	-5.823239e-07	-5.689176e-10	-4.049524e+00	-4.524144e+01
1.730000e-06	-5.358104e-07	-5.528866e-10	-3.726065e+00	-4.437801e+01
1.740000e-06	-4.891932e-07	-5.424334e-10	-3.401886e+00	-4.348946e+01
1.750000e-06	-4.425089e-07	-5.347891e-10	-3.077240e+00	-4.257413e+01
1.760000e-06	-3.957197e-07	-5.251733e-10	-2.751864e+00	-4.163033e+01
1.770000e-06	-3.488965e-07	-5.115159e-10	-2.426252e+00	-4.065637e+01
1.780000e-06	-3.020671e-07	-4.940477e-10	-2.100597e+00	-3.965058e+01
1.790000e-06	-2.552619e-07	-4.762577e-10	-1.775110e+00	-3.861134e+01
1.800000e-06	-2.084789e-07	-4.584233e-10	-1.449778e+00	-3.753709e+01
1.810000e-06	-1.616257e-07	-4.408534e-10	-1.123958e+00	-3.642636e+01
1.820000e-06	-1.148319e-07	-4.255159e-10	-7.985494e-01	-3.527779e+01
1.830000e-06	-6.809163e-08	-4.104690e-10	-4.735143e-01	-3.409016e+01
1.840000e-06	-2.129269e-08	-3.937753e-10	-1.480710e-01	-3.286240e+01
1.850000e-06	2.549757e-08	-3.765253e-10	1.773120e-01	-3.159360e+01
1.860000e-06	7.229554e-08	-3.601981e-10	5.027486e-01	-3.028304e+01
1.870000e-06	1.191646e-07	-3.420915e-10	8.286798e-01	-2.893021e+01
1.880000e-06	1.660281e-07	-3.228150e-10	1.154572e+00	-2.753482e+01
1.890000e-06	2.127746e-07	-3.021493e-10	1.479650e+00	-2.609679e+01
1.900000e-06	2.595379e-07	-2.782010e-10	1.804846e+00	-2.461628e+01
1.910000e-06	3.063575e-07	-2.538854e-10	2.130433e+00	-2.309369e+01
1.920000e-06	3.530891e-07	-2.322890e-10	2.455408e+00	-2.152966e+01
1.930000e-06	3.996797e-07	-2.121548e-10	2.779402e+00	-1.992509e+01
1.940000e-06	4.462610e-07	-1.917752e-10	3.103333e+00	-1.828108e+01
1.950000e-06	4.928278e-07	-1.714759e-10	3.427162e+00	-1.659900e+01
1.960000e-06	5.393261e-07	-1.496982e-10	3.750514e+00	-1.488043e+01
1.970000e-06	5.858054e-07	-1.262203e-10	4.073735e+00	-1.312718e+01
1.980000e-06	6.321810e-07	-1.024869e-10	4.396234e+00	-1.134124e+01
1.990000e-06	6.784996e-07	-7.724941e-11	4.718337e+00	-9.524806e+00
2.000000e-06	7.249011e-07	-5.064128e-11	5.041016e+00	-7.680250e+00
2.010000e-06	7.713172e-07	-2.430197e-11	5.363798e+00	-5.810091e+00
2.020000e-06	8.176054e-07	2.770793e-12	5.685689e+00	-3.916987e+00
2.030000e-06	8.638443e-07	3.171698e-11	6.007238e+00	-2.003708e+00
2.040000e-06	9.100133e-07	6.164381e-11	6.328300e+00	-7.312471e-02
2.050000e-06	9.560686e-07	8.949322e-11	6.648573e+00	1.871825e+00
2.060000e-06	1.002111e-06	1.137855e-10	6.968755e+00	3.828148e+00
2.070000e-06	1.048111e-06	1.377055e-10	7.288645e+00	5.792825e+00
2.080000e-06	1.094012e-06	1.640185e-10	7.607842e+00	7.762828e+00
2.090000e-06	1.139850e-06	1.928307e-10	7.926603e+00	9.735143e+00
2.100000e-06	1.185608e-06	2.230945e-10	8.244810e+00	1.170679e+01
2.110000e-06	1.231257e-06	2.535587e-10	8.562251e+00	1.367483e+01
2.120000e-06	1.276822e-06	2.828229e-10	8.879112e+00	1.563642e+01
2.130000e-06	1.322282e-06	3.117115e-10	9.195250e+00	1.758879e+01
2.140000e-06	1.367591e-06	3.389586e-10	9.510331e+00	1.952926e+01
2.150000e-06	1.412807e-06	3.621975e-10	9.824765e+00	2.145529e+01
2.160000e-06	1.458034e-06	3.843879e-10	1.013928e+01	2.336444e+01
2.170000e-06	1.503177e-06	4.065908e-10	1.045321e+01	2.525444e+01
2.180000e-06	1.548162e-06	4.300677e-10	1.076603e+01	2.712313e+01
2.190000e-06	1.593067e-06	4.566765e-10	1.107831e+01	2.896854e+01
2.200000e-06	1.637862e-06	4.858042e-10	1.138982e+01	3.078883e+01
2.210000e-06	1.682452e-06	5.159257e-10	1.169990e+01	3.258232e+01
2.220000e-06	1.726837e-06	5.442862e-10	1.200856e+01	3.434751e+01
2.230000e-06	1.771062e-06	5.690930e-10	1.231610e+01	3.608303e+01
2.240000e-06	1.815159e-06	5.909727e-10	1.262275e+01	3.778770e+01
2.250000e-06	1.859222e-06	6.078721e-10	1.292917e+01	3.946047e+01
2.260000e-06	1.903225e-06	6.220977e-10	1.323517e+01	4.110046e+01
2.270000e-06	1.947150e-06	6.398860e-10	1.354063e+01	4.270691e+01
2.280000e-06	1.991033e-06	6.618951e-10	1.384580e+01	4.427923e+01
2.290000e-06	2.034862e-06	6.860854e-10	1.415058e+01	4.581693e+01
2.300000e-06	2.078655e-06	7.110907e-10	1.445512e+01	4.731967e+01
2.310000e-06	2.122405e-06	7.353095e-10	1.475936e+01	4.878720e+01
2.320000e-06	2.166113e-06	7.562467e-10	1.506331e+01	5.021939e+01
2.330000e-06	2.209708e-06	7.728486e-10	1.536647e+01	5.161620e+01
2.340000e-06	2.253118e-06	7.871801e-10	1.566835e+01	5.297770e+01
2.350000e-06	2.296384e-06	8.030718e-10	1.596923e+01	5.430401e+01
2.360000e-06	2.339396e-06	8.205292e-10	1.626833e+01	5.559533e+01
2.370000e-06	2.382022e-06	8.378541e-10	1.656476e+01	5.685193e+01
2.380000e-06	2.424231e-06	8.567399e-10	1.685828e+01	5.807413e+01
2.390000e-06	2.466083e-06	8.748403e-10	1.714933e+01	5.926230e+01
2.400000e-06	2.507658e-06	8.897940e-10	1.743844e+01	6.041685e+01
2.410000e-06	2.548935e-06	9.032825e-10	1.772549e+01	6.153821e+01
2.420000e-06	2.589928e-06	9.155976e-10	1.801055e+01	6.262686e+01
2.430000e-06	2.630766e-06	9.297229e-10	1.829454e+01	6.368329e+01
2.440000e-06	2.671405e-06	9.450516e-10	1.857715e+01	6.470802e+01
2.450000e-06	2.711744e-06	9.590543e-10	1.885767e+01	6.570158e+01
2.460000e-06	2.751912e-06	9.726347e-10	1.913700e+01	6.666450e+01
2.470000e-06	2.791960e-06	9.854504e-10	1.941550e+01	6.759733e+01
2.480000e-06	2.831912e-06	9.974404e-10	1.969333e+01	6.850064e+01
2.490000e-06	2.871733e-06	1.008053e-09	1.997024e+01	6.937499e+01
2.500000e-06	2.911398e-06	1.016239e-09	2.024608e+01	7.022095e+01
2.510000e-06	2.950960e-06	1.026705e-09	2.052120e+01	7.103909e+01
2.520000e-06	2.990316e-06	1.040089e-09	2.079488e+01	7.182999e+01
2.530000e-06	3.029465e-06	1.054728e-09	2.106713e+01	7.259424e+01
2.540000e-06	3.068392e-06	1.070021e-09	2.133783e+01	7.333243e+01
2.550000e-06	3.107015e-06	1.082949e-09	2.160642e+01	7.404515e+01
2.560000e-06	3.145486e-06	1.090374e-09	2.187395e+01	7.473300e+01
2.570000e-06	3.183843e-06	1.093396e-09	2.214068e+01	7.539658e+01
2.580000e-06	3.221922e-06	1.096804e-09	2.240549e+01	7.603651e+01
2.590000e-06	3.259752e-06	1.103357e-09	2.266856e+01	7.665341e+01
2.600000e-06	3.297424e-06	1.112906e-09	2.293053e+01	7.724790e+01
2.610000e-06	3.334863e-06	1.127555e-09	2.319088e+01	7.782062e+01
2.620000e-06	3.372033e-06	1.145882e-09	2.344937e+01	7.837220e+01
2.630000e-06	3.408883e-06	1.159271e-09	2.370563e+01	7.890330e+01
2.640000e-06	3.445425e-06	1.164961e-09	2.395974e+01	7.941457e+01
2.650000e-06	3.481800e-06	1.166928e-09	2.421270e+01	7.990666e+01
2.660000e-06	3.517959e-06	1.168673e-09	2.446415e+01	8.038024e+01
2.670000e-06	3.553889e-06	1.169453e-09	2.471401e+01	8.083595e+01
2.680000e-06	3.589725e-06	1.174166e-09	2.496322e+01	8.127448e+01
2.690000e-06	3.625447e-06	1.183289e-09	2.521163e+01	8.169646e+01
2.700000e-06	3.661080e-06	1.192986e-09	2.545942e+01	8.210257e+01
2.710000e-06	3.696628e-06	1.199349e-09	2.570662e+01	8.249343e+01
2.720000e-06	3.731957e-06	1.203071e-09	2.595231e+01	8.286969e+01
2.730000e-06	3.766839e-06	1.205564e-09	2.619488e+01	8.323196e+01
2.740000e-06	3.801210e-06	1.208247e-09	2.643390e+01	8.358085e+01
2.750000e-06	3.835165e-06	1.210318e-09	2.667003e+01	8.391694e+01
2.760000e-06	3.868656e-06	1.213641e-09	2.690292e+01	8.424079e+01
2.770000e-06	3.901641e-06	1.221161e-09	2.713230e+01	8.455293e+01
2.780000e-06	3.934220e-06	1.227408e-09	2.735886e+01	8.485388e+01
2.790000e-06	3.966547e-06	1.231487e-09	2.758367e+01	8.514409e+01
2.800000e-06	3.998685e-06	1.235811e-09	2.780715e+01	8.542401e+01
2.810000e-06	4.030659e-06	1.240215e-09	2.802951e+01	8.569405e+01
2.820000e-06	4.062419e-06	1.244762e-09	2.825037e+01	8.595457e+01
2.830000e-06	4.093908e-06	1.249568e-09	2.846934e+01	8.620589e+01
2.840000e-06	4.125187e-06	1.255858e-09	2.868686e+01	8.644831e+01
2.850000e-06	4.156281e-06	1.261618e-09	2.890309e+01	8.668206e+01
2.860000e-06	4.187010e-06	1.265571e-09	2.911678e+01	8.690737e+01
2.870000e-06	4.217296e-06	1.269654e-09	2.932739e+01	8.712439e+01
2.880000e-06	4.247235e-06	1.272249e-09	2.953559e+01	8.733326e+01
2.890000e-06	4.276921e-06	1.272632e-09	2.974203e+01	8.753408e+01
2.900000e-06	4.306440e-06	1.273895e-09	2.994731e+01	8.772691e+01
