# Temperatura_=_-25.75
# Concentracion g/m^3_=_1620.0
# C_Vs_to_Am_M_A/Vsm_=_65563218390.804596
# pendiente_HvsI_1/m_=_3716.3
# ordenada_HvsI_A/m_=_1297.0
# frecuencia_Hz_=_135095.06992042126

Tiempo_(s)	Campo_(V.s)	Magnetizacion_(V.s)	Campo_(kA/m)	Magnetizacion_(A/m)
0.000000e+00	-5.526987e-06	-1.134521e-09	-3.837175e+01	-7.312857e+01
1.000000e-08	-5.527095e-06	-1.134920e-09	-3.837250e+01	-7.314612e+01
2.000000e-08	-5.526961e-06	-1.138346e-09	-3.837157e+01	-7.316570e+01
3.000000e-08	-5.526412e-06	-1.139146e-09	-3.836775e+01	-7.318740e+01
4.000000e-08	-5.525224e-06	-1.136469e-09	-3.835951e+01	-7.321127e+01
5.000000e-08	-5.523437e-06	-1.127900e-09	-3.834710e+01	-7.323736e+01
6.000000e-08	-5.521135e-06	-1.110216e-09	-3.833112e+01	-7.326572e+01
7.000000e-08	-5.518216e-06	-1.122291e-09	-3.831085e+01	-7.329635e+01
8.000000e-08	-5.514833e-06	-1.182394e-09	-3.828737e+01	-7.332925e+01
9.000000e-08	-5.511089e-06	-1.210612e-09	-3.826138e+01	-7.336440e+01
1.000000e-07	-5.506877e-06	-1.129201e-09	-3.823213e+01	-7.340173e+01
1.100000e-07	-5.502443e-06	-1.065399e-09	-3.820135e+01	-7.344119e+01
1.200000e-07	-5.497938e-06	-1.100166e-09	-3.817007e+01	-7.348266e+01
1.300000e-07	-5.493004e-06	-1.166094e-09	-3.813582e+01	-7.352602e+01
1.400000e-07	-5.487493e-06	-1.129080e-09	-3.809756e+01	-7.357111e+01
1.500000e-07	-5.481615e-06	-1.080736e-09	-3.805675e+01	-7.361776e+01
1.600000e-07	-5.475485e-06	-1.126956e-09	-3.801419e+01	-7.366576e+01
1.700000e-07	-5.469010e-06	-1.180509e-09	-3.796924e+01	-7.371488e+01
1.800000e-07	-5.462055e-06	-1.131116e-09	-3.792095e+01	-7.376487e+01
1.900000e-07	-5.454672e-06	-1.072738e-09	-3.786970e+01	-7.381544e+01
2.000000e-07	-5.447042e-06	-1.101865e-09	-3.781672e+01	-7.386630e+01
2.100000e-07	-5.439246e-06	-1.166386e-09	-3.776260e+01	-7.391714e+01
2.200000e-07	-5.431220e-06	-1.161590e-09	-3.770687e+01	-7.396763e+01
2.300000e-07	-5.422914e-06	-1.127663e-09	-3.764921e+01	-7.401744e+01
2.400000e-07	-5.414074e-06	-1.128122e-09	-3.758784e+01	-7.406623e+01
2.500000e-07	-5.404452e-06	-1.134868e-09	-3.752103e+01	-7.411365e+01
2.600000e-07	-5.394044e-06	-1.129496e-09	-3.744877e+01	-7.415937e+01
2.700000e-07	-5.383064e-06	-1.117807e-09	-3.737255e+01	-7.420307e+01
2.800000e-07	-5.371682e-06	-1.133386e-09	-3.729353e+01	-7.424442e+01
2.900000e-07	-5.359961e-06	-1.149814e-09	-3.721215e+01	-7.428314e+01
3.000000e-07	-5.347998e-06	-1.147101e-09	-3.712909e+01	-7.431894e+01
3.100000e-07	-5.335588e-06	-1.115409e-09	-3.704294e+01	-7.435160e+01
3.200000e-07	-5.322617e-06	-1.119992e-09	-3.695288e+01	-7.438089e+01
3.300000e-07	-5.309260e-06	-1.135632e-09	-3.686015e+01	-7.440664e+01
3.400000e-07	-5.295599e-06	-1.128752e-09	-3.676531e+01	-7.442872e+01
3.500000e-07	-5.281502e-06	-1.105581e-09	-3.666744e+01	-7.444702e+01
3.600000e-07	-5.266874e-06	-1.137383e-09	-3.656588e+01	-7.446152e+01
3.700000e-07	-5.251632e-06	-1.152678e-09	-3.646007e+01	-7.447219e+01
3.800000e-07	-5.235877e-06	-1.122416e-09	-3.635068e+01	-7.447908e+01
3.900000e-07	-5.219664e-06	-1.122216e-09	-3.623813e+01	-7.448228e+01
4.000000e-07	-5.203034e-06	-1.153589e-09	-3.612267e+01	-7.448192e+01
4.100000e-07	-5.186089e-06	-1.122276e-09	-3.600503e+01	-7.447817e+01
4.200000e-07	-5.168776e-06	-1.094302e-09	-3.588482e+01	-7.447126e+01
4.300000e-07	-5.151294e-06	-1.147206e-09	-3.576346e+01	-7.446143e+01
4.400000e-07	-5.133582e-06	-1.164223e-09	-3.564049e+01	-7.444898e+01
4.500000e-07	-5.115305e-06	-1.109176e-09	-3.551360e+01	-7.443421e+01
4.600000e-07	-5.096540e-06	-1.117633e-09	-3.538332e+01	-7.441746e+01
4.700000e-07	-5.077476e-06	-1.158371e-09	-3.525097e+01	-7.439909e+01
4.800000e-07	-5.058190e-06	-1.122033e-09	-3.511707e+01	-7.437945e+01
4.900000e-07	-5.038666e-06	-1.099685e-09	-3.498152e+01	-7.435893e+01
5.000000e-07	-5.018864e-06	-1.139024e-09	-3.484405e+01	-7.433789e+01
5.100000e-07	-4.998809e-06	-1.125856e-09	-3.470481e+01	-7.431669e+01
5.200000e-07	-4.978343e-06	-1.095208e-09	-3.456272e+01	-7.429567e+01
5.300000e-07	-4.957461e-06	-1.141052e-09	-3.441775e+01	-7.427516e+01
5.400000e-07	-4.936378e-06	-1.156937e-09	-3.427138e+01	-7.425547e+01
5.500000e-07	-4.914964e-06	-1.108801e-09	-3.412271e+01	-7.423685e+01
5.600000e-07	-4.893120e-06	-1.117548e-09	-3.397106e+01	-7.421955e+01
5.700000e-07	-4.871034e-06	-1.156868e-09	-3.381772e+01	-7.420375e+01
5.800000e-07	-4.848649e-06	-1.128063e-09	-3.366231e+01	-7.418960e+01
5.900000e-07	-4.825810e-06	-1.112648e-09	-3.350375e+01	-7.417720e+01
6.000000e-07	-4.802640e-06	-1.141047e-09	-3.334289e+01	-7.416662e+01
6.100000e-07	-4.779242e-06	-1.130163e-09	-3.318044e+01	-7.415785e+01
6.200000e-07	-4.755636e-06	-1.102827e-09	-3.301656e+01	-7.415085e+01
6.300000e-07	-4.731831e-06	-1.124527e-09	-3.285129e+01	-7.414554e+01
6.400000e-07	-4.707780e-06	-1.133054e-09	-3.268431e+01	-7.414177e+01
6.500000e-07	-4.683291e-06	-1.114192e-09	-3.251429e+01	-7.413937e+01
6.600000e-07	-4.658304e-06	-1.120425e-09	-3.234082e+01	-7.413813e+01
6.700000e-07	-4.632810e-06	-1.133113e-09	-3.216382e+01	-7.413777e+01
6.800000e-07	-4.606695e-06	-1.115524e-09	-3.198251e+01	-7.413802e+01
6.900000e-07	-4.580078e-06	-1.110534e-09	-3.179772e+01	-7.413856e+01
7.000000e-07	-4.553073e-06	-1.123801e-09	-3.161024e+01	-7.413904e+01
7.100000e-07	-4.525754e-06	-1.120332e-09	-3.142057e+01	-7.413913e+01
7.200000e-07	-4.498176e-06	-1.112787e-09	-3.122911e+01	-7.413845e+01
7.300000e-07	-4.470405e-06	-1.123965e-09	-3.103630e+01	-7.413663e+01
7.400000e-07	-4.442420e-06	-1.124228e-09	-3.084201e+01	-7.413331e+01
7.500000e-07	-4.414122e-06	-1.112256e-09	-3.064555e+01	-7.412813e+01
7.600000e-07	-4.385569e-06	-1.113497e-09	-3.044732e+01	-7.412073e+01
7.700000e-07	-4.356754e-06	-1.116656e-09	-3.024727e+01	-7.411078e+01
7.800000e-07	-4.327522e-06	-1.108923e-09	-3.004433e+01	-7.409798e+01
7.900000e-07	-4.297950e-06	-1.109938e-09	-2.983902e+01	-7.408203e+01
8.000000e-07	-4.268189e-06	-1.116349e-09	-2.963240e+01	-7.406267e+01
8.100000e-07	-4.238205e-06	-1.108570e-09	-2.942423e+01	-7.403969e+01
8.200000e-07	-4.207920e-06	-1.102637e-09	-2.921397e+01	-7.401289e+01
8.300000e-07	-4.177301e-06	-1.106527e-09	-2.900140e+01	-7.398211e+01
8.400000e-07	-4.146416e-06	-1.105884e-09	-2.878698e+01	-7.394724e+01
8.500000e-07	-4.115250e-06	-1.104395e-09	-2.857060e+01	-7.390819e+01
8.600000e-07	-4.083817e-06	-1.112344e-09	-2.835237e+01	-7.386492e+01
8.700000e-07	-4.052205e-06	-1.112100e-09	-2.813290e+01	-7.381741e+01
8.800000e-07	-4.020480e-06	-1.104464e-09	-2.791265e+01	-7.376570e+01
8.900000e-07	-3.988652e-06	-1.103918e-09	-2.769168e+01	-7.370983e+01
9.000000e-07	-3.956577e-06	-1.102036e-09	-2.746900e+01	-7.364989e+01
9.100000e-07	-3.924107e-06	-1.092146e-09	-2.724357e+01	-7.358601e+01
9.200000e-07	-3.891234e-06	-1.091536e-09	-2.701534e+01	-7.351831e+01
9.300000e-07	-3.857915e-06	-1.095845e-09	-2.678402e+01	-7.344697e+01
9.400000e-07	-3.824127e-06	-1.090354e-09	-2.654945e+01	-7.337215e+01
9.500000e-07	-3.789962e-06	-1.083263e-09	-2.631225e+01	-7.329405e+01
9.600000e-07	-3.755384e-06	-1.085536e-09	-2.607219e+01	-7.321289e+01
9.700000e-07	-3.720282e-06	-1.081550e-09	-2.582849e+01	-7.312886e+01
9.800000e-07	-3.684782e-06	-1.076488e-09	-2.558203e+01	-7.304220e+01
9.900000e-07	-3.649223e-06	-1.080199e-09	-2.533516e+01	-7.295311e+01
1.000000e-06	-3.613612e-06	-1.081923e-09	-2.508792e+01	-7.286183e+01
1.010000e-06	-3.577838e-06	-1.073508e-09	-2.483955e+01	-7.276855e+01
1.020000e-06	-3.541914e-06	-1.071036e-09	-2.459015e+01	-7.267349e+01
1.030000e-06	-3.505777e-06	-1.074441e-09	-2.433927e+01	-7.257684e+01
1.040000e-06	-3.469325e-06	-1.072692e-09	-2.408619e+01	-7.247878e+01
1.050000e-06	-3.432641e-06	-1.070850e-09	-2.383151e+01	-7.237949e+01
1.060000e-06	-3.395832e-06	-1.070932e-09	-2.357596e+01	-7.227913e+01
1.070000e-06	-3.358696e-06	-1.064739e-09	-2.331813e+01	-7.217781e+01
1.080000e-06	-3.321238e-06	-1.059111e-09	-2.305808e+01	-7.207567e+01
1.090000e-06	-3.283611e-06	-1.059661e-09	-2.279685e+01	-7.197279e+01
1.100000e-06	-3.245737e-06	-1.057773e-09	-2.253391e+01	-7.186924e+01
1.110000e-06	-3.207570e-06	-1.050402e-09	-2.226892e+01	-7.176508e+01
1.120000e-06	-3.169128e-06	-1.045658e-09	-2.200204e+01	-7.166034e+01
1.130000e-06	-3.130496e-06	-1.043653e-09	-2.173383e+01	-7.155500e+01
1.140000e-06	-3.091634e-06	-1.037777e-09	-2.146403e+01	-7.144904e+01
1.150000e-06	-3.052666e-06	-1.036942e-09	-2.119349e+01	-7.134240e+01
1.160000e-06	-3.013579e-06	-1.041974e-09	-2.092212e+01	-7.123501e+01
1.170000e-06	-2.974252e-06	-1.043773e-09	-2.064909e+01	-7.112674e+01
1.180000e-06	-2.934740e-06	-1.041935e-09	-2.037477e+01	-7.101746e+01
1.190000e-06	-2.895056e-06	-1.041272e-09	-2.009926e+01	-7.090699e+01
1.200000e-06	-2.855312e-06	-1.036090e-09	-1.982334e+01	-7.079513e+01
1.210000e-06	-2.815429e-06	-1.029496e-09	-1.954644e+01	-7.068165e+01
1.220000e-06	-2.775344e-06	-1.025904e-09	-1.926815e+01	-7.056628e+01
1.230000e-06	-2.735077e-06	-1.025055e-09	-1.898859e+01	-7.044873e+01
1.240000e-06	-2.694641e-06	-1.023520e-09	-1.870786e+01	-7.032867e+01
1.250000e-06	-2.654011e-06	-1.022203e-09	-1.842578e+01	-7.020576e+01
1.260000e-06	-2.613180e-06	-1.022105e-09	-1.814231e+01	-7.007961e+01
1.270000e-06	-2.572060e-06	-1.017874e-09	-1.785683e+01	-6.994983e+01
1.280000e-06	-2.530722e-06	-1.008893e-09	-1.756983e+01	-6.981598e+01
1.290000e-06	-2.489127e-06	-1.001904e-09	-1.728105e+01	-6.967762e+01
1.300000e-06	-2.447031e-06	-9.947998e-10	-1.698880e+01	-6.953427e+01
1.310000e-06	-2.404528e-06	-9.886859e-10	-1.669372e+01	-6.938547e+01
1.320000e-06	-2.361779e-06	-9.872852e-10	-1.639692e+01	-6.923071e+01
1.330000e-06	-2.318873e-06	-9.877299e-10	-1.609905e+01	-6.906950e+01
1.340000e-06	-2.275742e-06	-9.866595e-10	-1.579961e+01	-6.890134e+01
1.350000e-06	-2.232389e-06	-9.858014e-10	-1.549862e+01	-6.872571e+01
1.360000e-06	-2.188973e-06	-9.844346e-10	-1.519720e+01	-6.854214e+01
1.370000e-06	-2.145446e-06	-9.803574e-10	-1.489501e+01	-6.835014e+01
1.380000e-06	-2.101739e-06	-9.744132e-10	-1.459157e+01	-6.814923e+01
1.390000e-06	-2.057912e-06	-9.681430e-10	-1.428729e+01	-6.793897e+01
1.400000e-06	-2.014053e-06	-9.623370e-10	-1.398279e+01	-6.771894e+01
1.410000e-06	-1.970158e-06	-9.560528e-10	-1.367805e+01	-6.748875e+01
1.420000e-06	-1.926138e-06	-9.518713e-10	-1.337243e+01	-6.724802e+01
1.430000e-06	-1.881950e-06	-9.513647e-10	-1.306566e+01	-6.699644e+01
1.440000e-06	-1.837650e-06	-9.511826e-10	-1.275810e+01	-6.673371e+01
1.450000e-06	-1.793318e-06	-9.479648e-10	-1.245032e+01	-6.645959e+01
1.460000e-06	-1.748914e-06	-9.427511e-10	-1.214204e+01	-6.617387e+01
1.470000e-06	-1.704403e-06	-9.361158e-10	-1.183302e+01	-6.587638e+01
1.480000e-06	-1.659713e-06	-9.296042e-10	-1.152275e+01	-6.556697e+01
1.490000e-06	-1.614832e-06	-9.230181e-10	-1.121116e+01	-6.524558e+01
1.500000e-06	-1.569831e-06	-9.143980e-10	-1.089873e+01	-6.491211e+01
1.510000e-06	-1.524762e-06	-9.064815e-10	-1.058583e+01	-6.456656e+01
1.520000e-06	-1.479548e-06	-9.005375e-10	-1.027193e+01	-6.420889e+01
1.530000e-06	-1.434161e-06	-8.936987e-10	-9.956828e+00	-6.383913e+01
1.540000e-06	-1.388782e-06	-8.877458e-10	-9.641778e+00	-6.345728e+01
1.550000e-06	-1.343325e-06	-8.810764e-10	-9.326190e+00	-6.306336e+01
1.560000e-06	-1.297688e-06	-8.718512e-10	-9.009346e+00	-6.265737e+01
1.570000e-06	-1.251960e-06	-8.611325e-10	-8.691879e+00	-6.223931e+01
1.580000e-06	-1.206236e-06	-8.515503e-10	-8.374434e+00	-6.180913e+01
1.590000e-06	-1.160471e-06	-8.427034e-10	-8.056701e+00	-6.136676e+01
1.600000e-06	-1.114517e-06	-8.339742e-10	-7.737666e+00	-6.091206e+01
1.610000e-06	-1.068462e-06	-8.282757e-10	-7.417923e+00	-6.044486e+01
1.620000e-06	-1.022378e-06	-8.216070e-10	-7.097979e+00	-5.996489e+01
1.630000e-06	-9.761980e-07	-8.118219e-10	-6.777368e+00	-5.947183e+01
1.640000e-06	-9.299099e-07	-8.023506e-10	-6.456008e+00	-5.896527e+01
1.650000e-06	-8.835709e-07	-7.955605e-10	-6.134293e+00	-5.844469e+01
1.660000e-06	-8.372546e-07	-7.902571e-10	-5.812737e+00	-5.790948e+01
1.670000e-06	-7.908603e-07	-7.839268e-10	-5.490639e+00	-5.735894e+01
1.680000e-06	-7.443574e-07	-7.774211e-10	-5.167788e+00	-5.679226e+01
1.690000e-06	-6.978292e-07	-7.701082e-10	-4.844761e+00	-5.620850e+01
1.700000e-06	-6.512398e-07	-7.589864e-10	-4.521308e+00	-5.560667e+01
1.710000e-06	-6.046050e-07	-7.441052e-10	-4.197541e+00	-5.498562e+01
1.720000e-06	-5.579774e-07	-7.297939e-10	-3.873823e+00	-5.434413e+01
1.730000e-06	-5.113383e-07	-7.164707e-10	-3.550025e+00	-5.368091e+01
1.740000e-06	-4.646239e-07	-7.072131e-10	-3.225705e+00	-5.299457e+01
1.750000e-06	-4.178407e-07	-7.005191e-10	-2.900908e+00	-5.228365e+01
1.760000e-06	-3.710512e-07	-6.907282e-10	-2.576066e+00	-5.154665e+01
1.770000e-06	-3.241698e-07	-6.788784e-10	-2.250586e+00	-5.078203e+01
1.780000e-06	-2.771980e-07	-6.679217e-10	-1.924479e+00	-4.998823e+01
1.790000e-06	-2.302599e-07	-6.581934e-10	-1.598606e+00	-4.916367e+01
1.800000e-06	-1.833366e-07	-6.470923e-10	-1.272836e+00	-4.830681e+01
1.810000e-06	-1.364909e-07	-6.344761e-10	-9.476040e-01	-4.741613e+01
1.820000e-06	-8.967801e-08	-6.215362e-10	-6.226000e-01	-4.649020e+01
1.830000e-06	-4.279500e-08	-6.069629e-10	-2.971092e-01	-4.552763e+01
1.840000e-06	4.025521e-09	-5.910910e-10	2.794765e-02	-4.452714e+01
1.850000e-06	5.076840e-08	-5.783313e-10	3.524655e-01	-4.348760e+01
1.860000e-06	9.760874e-08	-5.656151e-10	6.776600e-01	-4.240799e+01
1.870000e-06	1.444299e-07	-5.514342e-10	1.002721e+00	-4.128746e+01
1.880000e-06	1.912130e-07	-5.361059e-10	1.327518e+00	-4.012535e+01
1.890000e-06	2.380795e-07	-5.186082e-10	1.652894e+00	-3.892117e+01
1.900000e-06	2.848765e-07	-4.969623e-10	1.977788e+00	-3.767466e+01
1.910000e-06	3.315933e-07	-4.733589e-10	2.302125e+00	-3.638576e+01
1.920000e-06	3.783418e-07	-4.522786e-10	2.626681e+00	-3.505466e+01
1.930000e-06	4.251134e-07	-4.354205e-10	2.951399e+00	-3.368177e+01
1.940000e-06	4.718458e-07	-4.223757e-10	3.275844e+00	-3.226775e+01
1.950000e-06	5.184908e-07	-4.091754e-10	3.599682e+00	-3.081349e+01
1.960000e-06	5.650600e-07	-3.923163e-10	3.922995e+00	-2.932011e+01
1.970000e-06	6.116183e-07	-3.723953e-10	4.246231e+00	-2.778898e+01
1.980000e-06	6.581465e-07	-3.503699e-10	4.569259e+00	-2.622170e+01
1.990000e-06	7.046021e-07	-3.260042e-10	4.891781e+00	-2.462008e+01
2.000000e-06	7.510162e-07	-3.024786e-10	5.214017e+00	-2.298610e+01
2.010000e-06	7.973976e-07	-2.807480e-10	5.536025e+00	-2.132199e+01
2.020000e-06	8.436659e-07	-2.583297e-10	5.857248e+00	-1.963009e+01
2.030000e-06	8.898322e-07	-2.344271e-10	6.177763e+00	-1.791294e+01
2.040000e-06	9.360027e-07	-2.111433e-10	6.498307e+00	-1.617317e+01
2.050000e-06	9.821378e-07	-1.878509e-10	6.818605e+00	-1.441354e+01
2.060000e-06	1.028238e-06	-1.635785e-10	7.138664e+00	-1.263690e+01
2.070000e-06	1.074289e-06	-1.392959e-10	7.458376e+00	-1.084614e+01
2.080000e-06	1.120238e-06	-1.165039e-10	7.777382e+00	-9.044198e+00
2.090000e-06	1.166095e-06	-9.265834e-11	8.095749e+00	-7.234035e+00
2.100000e-06	1.211799e-06	-6.572624e-11	8.413053e+00	-5.418591e+00
2.110000e-06	1.257421e-06	-3.855128e-11	8.729794e+00	-3.600777e+00
2.120000e-06	1.303000e-06	-1.168651e-11	9.046228e+00	-1.783451e+00
2.130000e-06	1.348459e-06	1.580167e-11	9.361832e+00	3.060091e-02
2.140000e-06	1.393839e-06	4.045259e-11	9.676886e+00	1.838687e+00
2.150000e-06	1.439113e-06	6.125375e-11	9.991212e+00	3.638222e+00
2.160000e-06	1.484204e-06	8.181558e-11	1.030426e+01	5.426743e+00
2.170000e-06	1.529264e-06	1.023749e-10	1.061709e+01	7.201923e+00
2.180000e-06	1.574306e-06	1.253758e-10	1.092981e+01	8.961579e+00
2.190000e-06	1.619216e-06	1.533563e-10	1.124160e+01	1.070368e+01
2.200000e-06	1.664011e-06	1.831502e-10	1.155259e+01	1.242635e+01
2.210000e-06	1.708577e-06	2.129954e-10	1.186199e+01	1.412789e+01
2.220000e-06	1.753011e-06	2.398697e-10	1.217048e+01	1.580674e+01
2.230000e-06	1.797378e-06	2.618218e-10	1.247851e+01	1.746151e+01
2.240000e-06	1.841575e-06	2.799919e-10	1.278535e+01	1.909097e+01
2.250000e-06	1.885683e-06	2.956862e-10	1.309158e+01	2.069403e+01
2.260000e-06	1.929688e-06	3.127308e-10	1.339709e+01	2.226977e+01
2.270000e-06	1.973616e-06	3.329306e-10	1.370206e+01	2.381739e+01
2.280000e-06	2.017470e-06	3.561617e-10	1.400652e+01	2.533622e+01
2.290000e-06	2.061213e-06	3.812245e-10	1.431021e+01	2.682571e+01
2.300000e-06	2.104928e-06	4.047429e-10	1.461371e+01	2.828542e+01
2.310000e-06	2.148600e-06	4.253991e-10	1.491691e+01	2.971500e+01
2.320000e-06	2.192165e-06	4.435973e-10	1.521936e+01	3.111420e+01
2.330000e-06	2.235661e-06	4.583313e-10	1.552133e+01	3.248285e+01
2.340000e-06	2.279065e-06	4.733119e-10	1.582267e+01	3.382081e+01
2.350000e-06	2.322180e-06	4.917043e-10	1.612200e+01	3.512804e+01
2.360000e-06	2.364980e-06	5.102631e-10	1.641915e+01	3.640453e+01
2.370000e-06	2.407626e-06	5.299257e-10	1.671523e+01	3.765030e+01
2.380000e-06	2.450070e-06	5.474571e-10	1.700989e+01	3.886542e+01
2.390000e-06	2.492191e-06	5.617808e-10	1.730232e+01	4.004996e+01
2.400000e-06	2.533903e-06	5.742122e-10	1.759191e+01	4.120404e+01
2.410000e-06	2.575294e-06	5.871276e-10	1.787928e+01	4.232779e+01
2.420000e-06	2.616358e-06	6.023601e-10	1.816437e+01	4.342134e+01
2.430000e-06	2.657085e-06	6.192772e-10	1.844712e+01	4.448485e+01
2.440000e-06	2.697576e-06	6.364284e-10	1.872823e+01	4.551848e+01
2.450000e-06	2.737869e-06	6.499704e-10	1.900797e+01	4.652243e+01
2.460000e-06	2.778010e-06	6.632444e-10	1.928666e+01	4.749688e+01
2.470000e-06	2.818017e-06	6.770244e-10	1.956441e+01	4.844205e+01
2.480000e-06	2.857904e-06	6.889455e-10	1.984133e+01	4.935818e+01
2.490000e-06	2.897610e-06	6.998741e-10	2.011699e+01	5.024553e+01
2.500000e-06	2.937239e-06	7.120440e-10	2.039212e+01	5.110438e+01
2.510000e-06	2.976820e-06	7.271267e-10	2.066692e+01	5.193505e+01
2.520000e-06	3.016108e-06	7.389420e-10	2.093968e+01	5.273789e+01
2.530000e-06	3.055090e-06	7.510408e-10	2.121031e+01	5.351328e+01
2.540000e-06	3.093892e-06	7.648445e-10	2.147970e+01	5.426164e+01
2.550000e-06	3.132478e-06	7.731117e-10	2.174759e+01	5.498344e+01
2.560000e-06	3.170755e-06	7.810118e-10	2.201333e+01	5.567918e+01
2.570000e-06	3.208853e-06	7.896633e-10	2.227784e+01	5.634940e+01
2.580000e-06	3.246929e-06	7.981434e-10	2.254218e+01	5.699470e+01
2.590000e-06	3.284747e-06	8.066238e-10	2.280474e+01	5.761570e+01
2.600000e-06	3.322235e-06	8.178980e-10	2.306500e+01	5.821307e+01
2.610000e-06	3.359482e-06	8.307047e-10	2.332360e+01	5.878751e+01
2.620000e-06	3.396500e-06	8.433348e-10	2.358059e+01	5.933976e+01
2.630000e-06	3.433294e-06	8.532568e-10	2.383604e+01	5.987058e+01
2.640000e-06	3.469817e-06	8.602113e-10	2.408961e+01	6.038075e+01
2.650000e-06	3.506138e-06	8.654725e-10	2.434177e+01	6.087108e+01
2.660000e-06	3.542262e-06	8.698013e-10	2.459257e+01	6.134238e+01
2.670000e-06	3.578175e-06	8.744680e-10	2.484190e+01	6.179546e+01
2.680000e-06	3.613994e-06	8.802986e-10	2.509058e+01	6.223116e+01
2.690000e-06	3.649701e-06	8.888070e-10	2.533848e+01	6.265026e+01
2.700000e-06	3.685314e-06	8.970577e-10	2.558572e+01	6.305358e+01
2.710000e-06	3.720707e-06	9.008796e-10	2.583144e+01	6.344187e+01
2.720000e-06	3.755788e-06	9.031648e-10	2.607499e+01	6.381590e+01
2.730000e-06	3.790554e-06	9.044704e-10	2.631636e+01	6.417636e+01
2.740000e-06	3.824840e-06	9.056789e-10	2.655440e+01	6.452394e+01
2.750000e-06	3.858604e-06	9.103948e-10	2.678881e+01	6.485927e+01
2.760000e-06	3.891857e-06	9.184386e-10	2.701967e+01	6.518294e+01
2.770000e-06	3.924690e-06	9.276221e-10	2.724762e+01	6.549550e+01
2.780000e-06	3.957200e-06	9.344460e-10	2.747332e+01	6.579745e+01
2.790000e-06	3.989464e-06	9.403386e-10	2.769732e+01	6.608923e+01
2.800000e-06	4.021520e-06	9.443625e-10	2.791987e+01	6.637124e+01
2.810000e-06	4.053306e-06	9.469226e-10	2.814055e+01	6.664384e+01
2.820000e-06	4.084849e-06	9.507466e-10	2.835954e+01	6.690733e+01
2.830000e-06	4.116277e-06	9.564731e-10	2.857773e+01	6.716199e+01
2.840000e-06	4.147537e-06	9.632335e-10	2.879476e+01	6.740804e+01
2.850000e-06	4.178418e-06	9.699061e-10	2.900915e+01	6.764568e+01
2.860000e-06	4.208917e-06	9.758137e-10	2.922090e+01	6.787507e+01
2.870000e-06	4.239087e-06	9.806212e-10	2.943035e+01	6.809635e+01
2.880000e-06	4.268983e-06	9.825613e-10	2.963791e+01	6.830966e+01
2.890000e-06	4.298644e-06	9.857047e-10	2.984384e+01	6.851511e+01
2.900000e-06	4.328045e-06	9.902336e-10	3.004796e+01	6.871279e+01
