# Temperatura_=_9.27
# Concentracion g/m^3_=_1620.0
# C_Vs_to_Am_M_A/Vsm_=_65563218390.804596
# pendiente_HvsI_1/m_=_3716.3
# ordenada_HvsI_A/m_=_1297.0
# frecuencia_Hz_=_135108.16107610162

Tiempo_(s)	Campo_(V.s)	Magnetizacion_(V.s)	Campo_(kA/m)	Magnetizacion_(A/m)
0.000000e+00	-5.511283e-06	-1.654472e-09	-3.837522e+01	-1.083295e+02
1.000000e-08	-5.511532e-06	-1.649082e-09	-3.837695e+01	-1.082812e+02
2.000000e-08	-5.511533e-06	-1.648315e-09	-3.837696e+01	-1.082335e+02
3.000000e-08	-5.511178e-06	-1.650447e-09	-3.837449e+01	-1.081864e+02
4.000000e-08	-5.510308e-06	-1.652676e-09	-3.836843e+01	-1.081397e+02
5.000000e-08	-5.508820e-06	-1.651393e-09	-3.835807e+01	-1.080934e+02
6.000000e-08	-5.506700e-06	-1.645843e-09	-3.834331e+01	-1.080472e+02
7.000000e-08	-5.503999e-06	-1.652132e-09	-3.832450e+01	-1.080010e+02
8.000000e-08	-5.500806e-06	-1.680639e-09	-3.830227e+01	-1.079546e+02
9.000000e-08	-5.497178e-06	-1.681912e-09	-3.827700e+01	-1.079076e+02
1.000000e-07	-5.493105e-06	-1.638739e-09	-3.824865e+01	-1.078598e+02
1.100000e-07	-5.488767e-06	-1.616844e-09	-3.821844e+01	-1.078109e+02
1.200000e-07	-5.484269e-06	-1.668816e-09	-3.818712e+01	-1.077604e+02
1.300000e-07	-5.479461e-06	-1.671789e-09	-3.815364e+01	-1.077080e+02
1.400000e-07	-5.474268e-06	-1.630492e-09	-3.811748e+01	-1.076534e+02
1.500000e-07	-5.468679e-06	-1.602245e-09	-3.807857e+01	-1.075963e+02
1.600000e-07	-5.462713e-06	-1.667812e-09	-3.803703e+01	-1.075361e+02
1.700000e-07	-5.456221e-06	-1.697995e-09	-3.799182e+01	-1.074726e+02
1.800000e-07	-5.449245e-06	-1.635478e-09	-3.794324e+01	-1.074054e+02
1.900000e-07	-5.442004e-06	-1.591330e-09	-3.789283e+01	-1.073343e+02
2.000000e-07	-5.434532e-06	-1.627247e-09	-3.784080e+01	-1.072588e+02
2.100000e-07	-5.426791e-06	-1.680548e-09	-3.778690e+01	-1.071788e+02
2.200000e-07	-5.418786e-06	-1.656302e-09	-3.773116e+01	-1.070939e+02
2.300000e-07	-5.410502e-06	-1.630488e-09	-3.767348e+01	-1.070040e+02
2.400000e-07	-5.401672e-06	-1.642195e-09	-3.761199e+01	-1.069089e+02
2.500000e-07	-5.392204e-06	-1.663354e-09	-3.754607e+01	-1.068085e+02
2.600000e-07	-5.382165e-06	-1.629754e-09	-3.747617e+01	-1.067026e+02
2.700000e-07	-5.371489e-06	-1.613901e-09	-3.740183e+01	-1.065912e+02
2.800000e-07	-5.360330e-06	-1.621807e-09	-3.732413e+01	-1.064742e+02
2.900000e-07	-5.348802e-06	-1.643113e-09	-3.724386e+01	-1.063517e+02
3.000000e-07	-5.336885e-06	-1.620614e-09	-3.716088e+01	-1.062236e+02
3.100000e-07	-5.324596e-06	-1.605160e-09	-3.707531e+01	-1.060901e+02
3.200000e-07	-5.311868e-06	-1.613887e-09	-3.698669e+01	-1.059512e+02
3.300000e-07	-5.298774e-06	-1.630626e-09	-3.689551e+01	-1.058072e+02
3.400000e-07	-5.285369e-06	-1.603410e-09	-3.680217e+01	-1.056580e+02
3.500000e-07	-5.271452e-06	-1.588842e-09	-3.670527e+01	-1.055038e+02
3.600000e-07	-5.256970e-06	-1.608815e-09	-3.660443e+01	-1.053450e+02
3.700000e-07	-5.242162e-06	-1.622306e-09	-3.650132e+01	-1.051815e+02
3.800000e-07	-5.226866e-06	-1.596107e-09	-3.639482e+01	-1.050136e+02
3.900000e-07	-5.210887e-06	-1.601334e-09	-3.628355e+01	-1.048416e+02
4.000000e-07	-5.194487e-06	-1.616165e-09	-3.616936e+01	-1.046656e+02
4.100000e-07	-5.177856e-06	-1.583531e-09	-3.605356e+01	-1.044858e+02
4.200000e-07	-5.160888e-06	-1.566247e-09	-3.593541e+01	-1.043023e+02
4.300000e-07	-5.143541e-06	-1.605120e-09	-3.581462e+01	-1.041155e+02
4.400000e-07	-5.125929e-06	-1.609452e-09	-3.569199e+01	-1.039254e+02
4.500000e-07	-5.107932e-06	-1.559073e-09	-3.556667e+01	-1.037323e+02
4.600000e-07	-5.089420e-06	-1.578093e-09	-3.543777e+01	-1.035363e+02
4.700000e-07	-5.070545e-06	-1.606391e-09	-3.530635e+01	-1.033375e+02
4.800000e-07	-5.051349e-06	-1.571535e-09	-3.517268e+01	-1.031361e+02
4.900000e-07	-5.031868e-06	-1.549098e-09	-3.503704e+01	-1.029322e+02
5.000000e-07	-5.012235e-06	-1.582727e-09	-3.490033e+01	-1.027259e+02
5.100000e-07	-4.992383e-06	-1.553607e-09	-3.476211e+01	-1.025174e+02
5.200000e-07	-4.972174e-06	-1.522276e-09	-3.462139e+01	-1.023067e+02
5.300000e-07	-4.951588e-06	-1.560480e-09	-3.447805e+01	-1.020940e+02
5.400000e-07	-4.930671e-06	-1.574584e-09	-3.433240e+01	-1.018793e+02
5.500000e-07	-4.909439e-06	-1.521801e-09	-3.418457e+01	-1.016626e+02
5.600000e-07	-4.887873e-06	-1.535531e-09	-3.403439e+01	-1.014442e+02
5.700000e-07	-4.865966e-06	-1.570385e-09	-3.388186e+01	-1.012240e+02
5.800000e-07	-4.843751e-06	-1.538345e-09	-3.372718e+01	-1.010022e+02
5.900000e-07	-4.821121e-06	-1.514507e-09	-3.356960e+01	-1.007787e+02
6.000000e-07	-4.798105e-06	-1.545255e-09	-3.340934e+01	-1.005537e+02
6.100000e-07	-4.774825e-06	-1.526990e-09	-3.324724e+01	-1.003272e+02
6.200000e-07	-4.751324e-06	-1.492720e-09	-3.308360e+01	-1.000992e+02
6.300000e-07	-4.727612e-06	-1.511321e-09	-3.291850e+01	-9.986976e+01
6.400000e-07	-4.703638e-06	-1.523812e-09	-3.275156e+01	-9.963897e+01
6.500000e-07	-4.679304e-06	-1.499764e-09	-3.258213e+01	-9.940682e+01
6.600000e-07	-4.654533e-06	-1.504799e-09	-3.240964e+01	-9.917333e+01
6.700000e-07	-4.629356e-06	-1.515445e-09	-3.223434e+01	-9.893848e+01
6.800000e-07	-4.603661e-06	-1.490238e-09	-3.205542e+01	-9.870226e+01
6.900000e-07	-4.577314e-06	-1.478633e-09	-3.187197e+01	-9.846463e+01
7.000000e-07	-4.550464e-06	-1.488587e-09	-3.168501e+01	-9.822552e+01
7.100000e-07	-4.523261e-06	-1.478150e-09	-3.149559e+01	-9.798486e+01
7.200000e-07	-4.495772e-06	-1.465312e-09	-3.130418e+01	-9.774253e+01
7.300000e-07	-4.468068e-06	-1.478017e-09	-3.111128e+01	-9.749841e+01
7.400000e-07	-4.440200e-06	-1.477373e-09	-3.091724e+01	-9.725232e+01
7.500000e-07	-4.412161e-06	-1.461321e-09	-3.072200e+01	-9.700407e+01
7.600000e-07	-4.383899e-06	-1.456361e-09	-3.052521e+01	-9.675344e+01
7.700000e-07	-4.355358e-06	-1.456375e-09	-3.032648e+01	-9.650018e+01
7.800000e-07	-4.326440e-06	-1.440982e-09	-3.012513e+01	-9.624402e+01
7.900000e-07	-4.297140e-06	-1.436601e-09	-2.992110e+01	-9.598464e+01
8.000000e-07	-4.267525e-06	-1.436519e-09	-2.971489e+01	-9.572172e+01
8.100000e-07	-4.237618e-06	-1.426883e-09	-2.950665e+01	-9.545492e+01
8.200000e-07	-4.207432e-06	-1.416186e-09	-2.929647e+01	-9.518387e+01
8.300000e-07	-4.176982e-06	-1.418723e-09	-2.908444e+01	-9.490819e+01
8.400000e-07	-4.146239e-06	-1.411616e-09	-2.887038e+01	-9.462750e+01
8.500000e-07	-4.115163e-06	-1.406701e-09	-2.865399e+01	-9.434143e+01
8.600000e-07	-4.083807e-06	-1.412074e-09	-2.843566e+01	-9.404959e+01
8.700000e-07	-4.052321e-06	-1.410593e-09	-2.821642e+01	-9.375162e+01
8.800000e-07	-4.020725e-06	-1.396713e-09	-2.799642e+01	-9.344717e+01
8.900000e-07	-3.988905e-06	-1.392141e-09	-2.777486e+01	-9.313592e+01
9.000000e-07	-3.956797e-06	-1.385787e-09	-2.755129e+01	-9.281759e+01
9.100000e-07	-3.924438e-06	-1.371957e-09	-2.732597e+01	-9.249191e+01
9.200000e-07	-3.891826e-06	-1.364990e-09	-2.709890e+01	-9.215869e+01
9.300000e-07	-3.858905e-06	-1.365151e-09	-2.686967e+01	-9.181777e+01
9.400000e-07	-3.825561e-06	-1.356381e-09	-2.663749e+01	-9.146904e+01
9.500000e-07	-3.791607e-06	-1.349186e-09	-2.640106e+01	-9.111247e+01
9.600000e-07	-3.757110e-06	-1.349022e-09	-2.616086e+01	-9.074806e+01
9.700000e-07	-3.722265e-06	-1.338879e-09	-2.591824e+01	-9.037592e+01
9.800000e-07	-3.687125e-06	-1.325321e-09	-2.567355e+01	-8.999617e+01
9.900000e-07	-3.651722e-06	-1.323327e-09	-2.542705e+01	-8.960904e+01
1.000000e-06	-3.616160e-06	-1.321775e-09	-2.517943e+01	-8.921479e+01
1.010000e-06	-3.580497e-06	-1.309301e-09	-2.493110e+01	-8.881377e+01
1.020000e-06	-3.544716e-06	-1.304328e-09	-2.468196e+01	-8.840636e+01
1.030000e-06	-3.508786e-06	-1.303835e-09	-2.443178e+01	-8.799301e+01
1.040000e-06	-3.472652e-06	-1.294706e-09	-2.418018e+01	-8.757419e+01
1.050000e-06	-3.436286e-06	-1.286503e-09	-2.392695e+01	-8.715043e+01
1.060000e-06	-3.399627e-06	-1.285409e-09	-2.367170e+01	-8.672226e+01
1.070000e-06	-3.362705e-06	-1.275240e-09	-2.341461e+01	-8.629026e+01
1.080000e-06	-3.325542e-06	-1.263752e-09	-2.315584e+01	-8.585498e+01
1.090000e-06	-3.288154e-06	-1.258052e-09	-2.289551e+01	-8.541700e+01
1.100000e-06	-3.250542e-06	-1.253243e-09	-2.263362e+01	-8.497686e+01
1.110000e-06	-3.212675e-06	-1.240815e-09	-2.236995e+01	-8.453509e+01
1.120000e-06	-3.174638e-06	-1.231271e-09	-2.210509e+01	-8.409216e+01
1.130000e-06	-3.136352e-06	-1.219515e-09	-2.183851e+01	-8.364851e+01
1.140000e-06	-3.097792e-06	-1.206724e-09	-2.157001e+01	-8.320452e+01
1.150000e-06	-3.059022e-06	-1.201845e-09	-2.130006e+01	-8.276049e+01
1.160000e-06	-3.020053e-06	-1.203542e-09	-2.102871e+01	-8.231664e+01
1.170000e-06	-2.980863e-06	-1.200471e-09	-2.075583e+01	-8.187313e+01
1.180000e-06	-2.941473e-06	-1.193138e-09	-2.048156e+01	-8.142999e+01
1.190000e-06	-2.901992e-06	-1.187583e-09	-2.020665e+01	-8.098720e+01
1.200000e-06	-2.862340e-06	-1.176353e-09	-1.993055e+01	-8.054460e+01
1.210000e-06	-2.822493e-06	-1.160758e-09	-1.965309e+01	-8.010195e+01
1.220000e-06	-2.782535e-06	-1.152384e-09	-1.937487e+01	-7.965892e+01
1.230000e-06	-2.742510e-06	-1.146480e-09	-1.909618e+01	-7.921507e+01
1.240000e-06	-2.702376e-06	-1.136690e-09	-1.881672e+01	-7.876986e+01
1.250000e-06	-2.662012e-06	-1.128497e-09	-1.853566e+01	-7.832268e+01
1.260000e-06	-2.621351e-06	-1.124466e-09	-1.825254e+01	-7.787284e+01
1.270000e-06	-2.580300e-06	-1.119190e-09	-1.796670e+01	-7.741957e+01
1.280000e-06	-2.538934e-06	-1.108082e-09	-1.767867e+01	-7.696205e+01
1.290000e-06	-2.497363e-06	-1.099072e-09	-1.738921e+01	-7.649940e+01
1.300000e-06	-2.455574e-06	-1.089028e-09	-1.709823e+01	-7.603073e+01
1.310000e-06	-2.413422e-06	-1.077366e-09	-1.680473e+01	-7.555510e+01
1.320000e-06	-2.370911e-06	-1.067202e-09	-1.650872e+01	-7.507158e+01
1.330000e-06	-2.328194e-06	-1.058513e-09	-1.621128e+01	-7.457924e+01
1.340000e-06	-2.285296e-06	-1.048964e-09	-1.591258e+01	-7.407715e+01
1.350000e-06	-2.242175e-06	-1.042344e-09	-1.561233e+01	-7.356446e+01
1.360000e-06	-2.198827e-06	-1.039121e-09	-1.531049e+01	-7.304031e+01
1.370000e-06	-2.155357e-06	-1.033997e-09	-1.500781e+01	-7.250394e+01
1.380000e-06	-2.111792e-06	-1.023585e-09	-1.470447e+01	-7.195464e+01
1.390000e-06	-2.068115e-06	-1.009548e-09	-1.440034e+01	-7.139177e+01
1.400000e-06	-2.024392e-06	-9.920615e-10	-1.409590e+01	-7.081479e+01
1.410000e-06	-1.980637e-06	-9.755133e-10	-1.379123e+01	-7.022324e+01
1.420000e-06	-1.936780e-06	-9.620197e-10	-1.348585e+01	-6.961675e+01
1.430000e-06	-1.892856e-06	-9.525078e-10	-1.318001e+01	-6.899504e+01
1.440000e-06	-1.848837e-06	-9.453989e-10	-1.287350e+01	-6.835794e+01
1.450000e-06	-1.804714e-06	-9.385933e-10	-1.256628e+01	-6.770536e+01
1.460000e-06	-1.760470e-06	-9.296367e-10	-1.225820e+01	-6.703730e+01
1.470000e-06	-1.716112e-06	-9.168510e-10	-1.194933e+01	-6.635382e+01
1.480000e-06	-1.671666e-06	-9.047164e-10	-1.163986e+01	-6.565507e+01
1.490000e-06	-1.627030e-06	-8.931872e-10	-1.132906e+01	-6.494125e+01
1.500000e-06	-1.582276e-06	-8.796544e-10	-1.101743e+01	-6.421259e+01
1.510000e-06	-1.537420e-06	-8.658948e-10	-1.070510e+01	-6.346937e+01
1.520000e-06	-1.492407e-06	-8.523751e-10	-1.039167e+01	-6.271188e+01
1.530000e-06	-1.447301e-06	-8.392124e-10	-1.007760e+01	-6.194040e+01
1.540000e-06	-1.402115e-06	-8.288974e-10	-9.762966e+00	-6.115519e+01
1.550000e-06	-1.356798e-06	-8.203379e-10	-9.447426e+00	-6.035649e+01
1.560000e-06	-1.311352e-06	-8.097324e-10	-9.130981e+00	-5.954448e+01
1.570000e-06	-1.265798e-06	-7.962727e-10	-8.813785e+00	-5.871925e+01
1.580000e-06	-1.220157e-06	-7.830906e-10	-8.495986e+00	-5.788085e+01
1.590000e-06	-1.174503e-06	-7.686385e-10	-8.178101e+00	-5.702918e+01
1.600000e-06	-1.128813e-06	-7.516735e-10	-7.859958e+00	-5.616407e+01
1.610000e-06	-1.082994e-06	-7.362329e-10	-7.540919e+00	-5.528521e+01
1.620000e-06	-1.037044e-06	-7.213211e-10	-7.220970e+00	-5.439216e+01
1.630000e-06	-9.909732e-07	-7.073188e-10	-6.900175e+00	-5.348435e+01
1.640000e-06	-9.448452e-07	-6.942529e-10	-6.578984e+00	-5.256105e+01
1.650000e-06	-8.987213e-07	-6.824928e-10	-6.257822e+00	-5.162140e+01
1.660000e-06	-8.525290e-07	-6.731325e-10	-5.936184e+00	-5.066440e+01
1.670000e-06	-8.062750e-07	-6.607318e-10	-5.614115e+00	-4.968891e+01
1.680000e-06	-7.600449e-07	-6.458642e-10	-5.292214e+00	-4.869366e+01
1.690000e-06	-7.137358e-07	-6.288101e-10	-4.969763e+00	-4.767725e+01
1.700000e-06	-6.672432e-07	-6.095592e-10	-4.646033e+00	-4.663818e+01
1.710000e-06	-6.207246e-07	-5.865551e-10	-4.322123e+00	-4.557487e+01
1.720000e-06	-5.743200e-07	-5.659041e-10	-3.999006e+00	-4.448565e+01
1.730000e-06	-5.278925e-07	-5.486022e-10	-3.675730e+00	-4.336878e+01
1.740000e-06	-4.813098e-07	-5.348500e-10	-3.351374e+00	-4.222252e+01
1.750000e-06	-4.346719e-07	-5.219372e-10	-3.026632e+00	-4.104509e+01
1.760000e-06	-3.880819e-07	-5.052624e-10	-2.702225e+00	-3.983475e+01
1.770000e-06	-3.414480e-07	-4.848352e-10	-2.377512e+00	-3.858977e+01
1.780000e-06	-2.947037e-07	-4.617046e-10	-2.052030e+00	-3.730850e+01
1.790000e-06	-2.479384e-07	-4.390097e-10	-1.726402e+00	-3.598938e+01
1.800000e-06	-2.011532e-07	-4.193587e-10	-1.400635e+00	-3.463097e+01
1.810000e-06	-1.543684e-07	-4.036266e-10	-1.074872e+00	-3.323194e+01
1.820000e-06	-1.076104e-07	-3.882188e-10	-7.492942e-01	-3.179117e+01
1.830000e-06	-6.084113e-08	-3.693948e-10	-4.236385e-01	-3.030769e+01
1.840000e-06	-1.410942e-08	-3.475622e-10	-9.824429e-02	-2.878074e+01
1.850000e-06	3.261545e-08	-3.246719e-10	2.271023e-01	-2.720979e+01
1.860000e-06	7.932408e-08	-3.018191e-10	5.523358e-01	-2.559455e+01
1.870000e-06	1.260600e-07	-2.792519e-10	8.777596e-01	-2.393498e+01
1.880000e-06	1.728766e-07	-2.561206e-10	1.203745e+00	-2.223129e+01
1.890000e-06	2.196633e-07	-2.322054e-10	1.529522e+00	-2.048397e+01
1.900000e-06	2.663987e-07	-2.065986e-10	1.854942e+00	-1.869378e+01
1.910000e-06	3.131179e-07	-1.801638e-10	2.180249e+00	-1.686175e+01
1.920000e-06	3.597665e-07	-1.518800e-10	2.505064e+00	-1.498919e+01
1.930000e-06	4.063423e-07	-1.236319e-10	2.829373e+00	-1.307765e+01
1.940000e-06	4.529480e-07	-9.613711e-11	3.153890e+00	-1.112895e+01
1.950000e-06	4.995704e-07	-6.964238e-11	3.478523e+00	-9.145170e+00
1.960000e-06	5.460990e-07	-4.376947e-11	3.802503e+00	-7.128591e+00
1.970000e-06	5.924886e-07	-1.894020e-11	4.125515e+00	-5.081721e+00
1.980000e-06	6.388686e-07	6.920219e-12	4.448460e+00	-3.007256e+00
1.990000e-06	6.852261e-07	3.580977e-11	4.771248e+00	-9.080639e-01
2.000000e-06	7.314920e-07	6.630418e-11	5.093399e+00	1.212838e+00
2.010000e-06	7.777197e-07	9.707722e-11	5.415284e+00	3.352309e+00
2.020000e-06	8.239206e-07	1.298982e-10	5.736982e+00	5.507110e+00
2.030000e-06	8.701109e-07	1.636347e-10	6.058607e+00	7.673930e+00
2.040000e-06	9.162405e-07	1.961431e-10	6.379808e+00	9.849410e+00
2.050000e-06	9.622295e-07	2.259650e-10	6.700031e+00	1.203017e+01
2.060000e-06	1.008116e-06	2.531803e-10	7.019538e+00	1.421284e+01
2.070000e-06	1.053946e-06	2.794907e-10	7.338652e+00	1.639408e+01
2.080000e-06	1.099756e-06	3.067049e-10	7.657631e+00	1.857059e+01
2.090000e-06	1.145538e-06	3.368949e-10	7.976414e+00	2.073917e+01
2.100000e-06	1.191228e-06	3.706535e-10	8.294552e+00	2.289670e+01
2.110000e-06	1.236840e-06	4.050865e-10	8.612150e+00	2.504019e+01
2.120000e-06	1.282388e-06	4.376873e-10	8.929305e+00	2.716678e+01
2.130000e-06	1.327873e-06	4.677351e-10	9.246017e+00	2.927376e+01
2.140000e-06	1.373248e-06	4.951948e-10	9.561967e+00	3.135858e+01
2.150000e-06	1.418522e-06	5.186674e-10	9.877207e+00	3.341887e+01
2.160000e-06	1.463685e-06	5.418320e-10	1.019168e+01	3.545245e+01
2.170000e-06	1.508667e-06	5.660604e-10	1.050489e+01	3.745729e+01
2.180000e-06	1.553566e-06	5.922209e-10	1.081753e+01	3.943161e+01
2.190000e-06	1.598354e-06	6.219396e-10	1.112938e+01	4.137378e+01
2.200000e-06	1.642931e-06	6.530929e-10	1.143978e+01	4.328238e+01
2.210000e-06	1.687357e-06	6.855922e-10	1.174912e+01	4.515618e+01
2.220000e-06	1.731676e-06	7.140325e-10	1.205771e+01	4.699414e+01
2.230000e-06	1.775892e-06	7.383372e-10	1.236559e+01	4.879538e+01
2.240000e-06	1.819994e-06	7.580327e-10	1.267267e+01	5.055921e+01
2.250000e-06	1.864025e-06	7.745777e-10	1.297926e+01	5.228511e+01
2.260000e-06	1.907982e-06	7.911312e-10	1.328533e+01	5.397270e+01
2.270000e-06	1.951857e-06	8.123163e-10	1.359084e+01	5.562174e+01
2.280000e-06	1.995670e-06	8.367888e-10	1.389591e+01	5.723215e+01
2.290000e-06	2.039376e-06	8.618720e-10	1.420023e+01	5.880393e+01
2.300000e-06	2.083026e-06	8.871015e-10	1.450417e+01	6.033721e+01
2.310000e-06	2.126665e-06	9.106400e-10	1.480803e+01	6.183223e+01
2.320000e-06	2.170231e-06	9.304071e-10	1.511138e+01	6.328929e+01
2.330000e-06	2.213658e-06	9.450524e-10	1.541376e+01	6.470878e+01
2.340000e-06	2.256905e-06	9.582146e-10	1.571489e+01	6.609113e+01
2.350000e-06	2.299972e-06	9.738980e-10	1.601477e+01	6.743685e+01
2.360000e-06	2.342854e-06	9.915413e-10	1.631336e+01	6.874647e+01
2.370000e-06	2.385404e-06	1.012168e-09	1.660963e+01	7.002058e+01
2.380000e-06	2.427590e-06	1.031856e-09	1.690338e+01	7.125977e+01
2.390000e-06	2.469521e-06	1.047809e-09	1.719534e+01	7.246466e+01
2.400000e-06	2.511096e-06	1.060428e-09	1.748483e+01	7.363588e+01
2.410000e-06	2.552322e-06	1.072006e-09	1.777189e+01	7.477408e+01
2.420000e-06	2.593323e-06	1.085929e-09	1.805738e+01	7.587990e+01
2.430000e-06	2.634057e-06	1.102350e-09	1.834101e+01	7.695399e+01
2.440000e-06	2.674521e-06	1.120912e-09	1.862277e+01	7.799700e+01
2.450000e-06	2.714788e-06	1.138081e-09	1.890314e+01	7.900957e+01
2.460000e-06	2.754933e-06	1.154188e-09	1.918267e+01	7.999233e+01
2.470000e-06	2.794937e-06	1.167010e-09	1.946122e+01	8.094592e+01
2.480000e-06	2.834744e-06	1.176572e-09	1.973840e+01	8.187098e+01
2.490000e-06	2.874428e-06	1.185519e-09	2.001472e+01	8.276813e+01
2.500000e-06	2.914057e-06	1.195355e-09	2.029066e+01	8.363800e+01
2.510000e-06	2.953579e-06	1.209161e-09	2.056586e+01	8.448122e+01
2.520000e-06	2.992886e-06	1.225271e-09	2.083955e+01	8.529842e+01
2.530000e-06	3.031943e-06	1.241100e-09	2.111150e+01	8.609021e+01
2.540000e-06	3.070671e-06	1.255909e-09	2.138117e+01	8.685724e+01
2.550000e-06	3.109145e-06	1.265873e-09	2.164907e+01	8.760014e+01
2.560000e-06	3.147488e-06	1.270024e-09	2.191605e+01	8.831956e+01
2.570000e-06	3.185626e-06	1.271216e-09	2.218160e+01	8.901614e+01
2.580000e-06	3.223594e-06	1.274975e-09	2.244597e+01	8.969054e+01
2.590000e-06	3.261407e-06	1.283204e-09	2.270927e+01	9.034341e+01
2.600000e-06	3.298979e-06	1.297522e-09	2.297088e+01	9.097544e+01
2.610000e-06	3.336272e-06	1.314041e-09	2.323056e+01	9.158728e+01
2.620000e-06	3.373326e-06	1.330174e-09	2.348856e+01	9.217963e+01
2.630000e-06	3.410191e-06	1.342898e-09	2.374526e+01	9.275316e+01
2.640000e-06	3.446789e-06	1.349281e-09	2.400009e+01	9.330856e+01
2.650000e-06	3.483094e-06	1.351586e-09	2.425288e+01	9.384650e+01
2.660000e-06	3.519159e-06	1.353048e-09	2.450400e+01	9.436768e+01
2.670000e-06	3.555068e-06	1.355602e-09	2.475404e+01	9.487275e+01
2.680000e-06	3.590863e-06	1.361589e-09	2.500328e+01	9.536239e+01
2.690000e-06	3.626531e-06	1.373211e-09	2.525164e+01	9.583726e+01
2.700000e-06	3.662109e-06	1.387680e-09	2.549937e+01	9.629798e+01
2.710000e-06	3.697444e-06	1.397911e-09	2.574541e+01	9.674518e+01
2.720000e-06	3.732507e-06	1.402410e-09	2.598955e+01	9.717946e+01
2.730000e-06	3.767341e-06	1.403886e-09	2.623210e+01	9.760140e+01
2.740000e-06	3.801739e-06	1.405098e-09	2.647162e+01	9.801154e+01
2.750000e-06	3.835540e-06	1.408560e-09	2.670697e+01	9.841041e+01
2.760000e-06	3.868725e-06	1.415501e-09	2.693804e+01	9.879848e+01
2.770000e-06	3.901501e-06	1.426627e-09	2.716626e+01	9.917623e+01
2.780000e-06	3.933956e-06	1.437574e-09	2.739224e+01	9.954406e+01
2.790000e-06	3.966085e-06	1.446293e-09	2.761596e+01	9.990237e+01
2.800000e-06	3.997989e-06	1.453323e-09	2.783811e+01	1.002515e+02
2.810000e-06	4.029716e-06	1.456984e-09	2.805903e+01	1.005917e+02
2.820000e-06	4.061286e-06	1.457962e-09	2.827885e+01	1.009234e+02
2.830000e-06	4.092703e-06	1.460849e-09	2.849761e+01	1.012467e+02
2.840000e-06	4.123909e-06	1.466027e-09	2.871489e+01	1.015618e+02
2.850000e-06	4.154798e-06	1.474037e-09	2.892998e+01	1.018690e+02
2.860000e-06	4.185350e-06	1.483629e-09	2.914271e+01	1.021683e+02
2.870000e-06	4.215559e-06	1.492722e-09	2.935306e+01	1.024598e+02
2.880000e-06	4.245473e-06	1.497906e-09	2.956135e+01	1.027437e+02
2.890000e-06	4.275162e-06	1.498743e-09	2.976808e+01	1.030200e+02
2.900000e-06	4.304603e-06	1.499115e-09	2.997307e+01	1.032887e+02
