# Temperatura_=_15.1
# Concentracion g/m^3_=_1620.0
# C_Vs_to_Am_M_A/Vsm_=_65563218390.804596
# pendiente_HvsI_1/m_=_3716.3
# ordenada_HvsI_A/m_=_1297.0
# frecuencia_Hz_=_135105.1998439917

Tiempo_(s)	Campo_(V.s)	Magnetizacion_(V.s)	Campo_(kA/m)	Magnetizacion_(A/m)
0.000000e+00	-5.532123e-06	-1.848174e-09	-3.836534e+01	-1.197033e+02
1.000000e-08	-5.532326e-06	-1.848786e-09	-3.836674e+01	-1.196312e+02
2.000000e-08	-5.532228e-06	-1.852011e-09	-3.836607e+01	-1.195515e+02
3.000000e-08	-5.531850e-06	-1.852215e-09	-3.836344e+01	-1.194644e+02
4.000000e-08	-5.531069e-06	-1.848447e-09	-3.835802e+01	-1.193704e+02
5.000000e-08	-5.529671e-06	-1.843591e-09	-3.834833e+01	-1.192699e+02
6.000000e-08	-5.527732e-06	-1.844231e-09	-3.833488e+01	-1.191634e+02
7.000000e-08	-5.525327e-06	-1.867918e-09	-3.831820e+01	-1.190515e+02
8.000000e-08	-5.522383e-06	-1.901693e-09	-3.829779e+01	-1.189349e+02
9.000000e-08	-5.518921e-06	-1.851441e-09	-3.827378e+01	-1.188142e+02
1.000000e-07	-5.514987e-06	-1.741320e-09	-3.824650e+01	-1.186902e+02
1.100000e-07	-5.510718e-06	-1.744555e-09	-3.821689e+01	-1.185638e+02
1.200000e-07	-5.506217e-06	-1.867310e-09	-3.818568e+01	-1.184355e+02
1.300000e-07	-5.501407e-06	-1.897704e-09	-3.815232e+01	-1.183062e+02
1.400000e-07	-5.496197e-06	-1.805617e-09	-3.811619e+01	-1.181766e+02
1.500000e-07	-5.490620e-06	-1.778024e-09	-3.807751e+01	-1.180473e+02
1.600000e-07	-5.484755e-06	-1.885818e-09	-3.803684e+01	-1.179190e+02
1.700000e-07	-5.478452e-06	-1.897989e-09	-3.799312e+01	-1.177923e+02
1.800000e-07	-5.471635e-06	-1.782303e-09	-3.794585e+01	-1.176676e+02
1.900000e-07	-5.464477e-06	-1.733304e-09	-3.789621e+01	-1.175452e+02
2.000000e-07	-5.457107e-06	-1.816790e-09	-3.784510e+01	-1.174256e+02
2.100000e-07	-5.449437e-06	-1.854624e-09	-3.779190e+01	-1.173089e+02
2.200000e-07	-5.441437e-06	-1.805944e-09	-3.773642e+01	-1.171951e+02
2.300000e-07	-5.433177e-06	-1.771235e-09	-3.767914e+01	-1.170843e+02
2.400000e-07	-5.424440e-06	-1.805250e-09	-3.761855e+01	-1.169763e+02
2.500000e-07	-5.414994e-06	-1.813176e-09	-3.755305e+01	-1.168710e+02
2.600000e-07	-5.404933e-06	-1.783047e-09	-3.748327e+01	-1.167679e+02
2.700000e-07	-5.394401e-06	-1.776872e-09	-3.741023e+01	-1.166667e+02
2.800000e-07	-5.383405e-06	-1.788385e-09	-3.733397e+01	-1.165669e+02
2.900000e-07	-5.371981e-06	-1.785459e-09	-3.725475e+01	-1.164679e+02
3.000000e-07	-5.360173e-06	-1.769717e-09	-3.717286e+01	-1.163691e+02
3.100000e-07	-5.347908e-06	-1.769214e-09	-3.708780e+01	-1.162699e+02
3.200000e-07	-5.335185e-06	-1.778748e-09	-3.699956e+01	-1.161695e+02
3.300000e-07	-5.322064e-06	-1.793829e-09	-3.690857e+01	-1.160672e+02
3.400000e-07	-5.308563e-06	-1.767243e-09	-3.681494e+01	-1.159624e+02
3.500000e-07	-5.294665e-06	-1.756107e-09	-3.671856e+01	-1.158542e+02
3.600000e-07	-5.280403e-06	-1.769989e-09	-3.661965e+01	-1.157420e+02
3.700000e-07	-5.265672e-06	-1.773245e-09	-3.651749e+01	-1.156252e+02
3.800000e-07	-5.250300e-06	-1.743839e-09	-3.641089e+01	-1.155030e+02
3.900000e-07	-5.234481e-06	-1.770113e-09	-3.630118e+01	-1.153751e+02
4.000000e-07	-5.218195e-06	-1.786412e-09	-3.618824e+01	-1.152408e+02
4.100000e-07	-5.201480e-06	-1.729483e-09	-3.607232e+01	-1.150998e+02
4.200000e-07	-5.184472e-06	-1.710561e-09	-3.595437e+01	-1.149517e+02
4.300000e-07	-5.167115e-06	-1.782350e-09	-3.583400e+01	-1.147962e+02
4.400000e-07	-5.149470e-06	-1.768549e-09	-3.571163e+01	-1.146331e+02
4.500000e-07	-5.131371e-06	-1.703010e-09	-3.558612e+01	-1.144624e+02
4.600000e-07	-5.112799e-06	-1.742563e-09	-3.545732e+01	-1.142840e+02
4.700000e-07	-5.093925e-06	-1.781807e-09	-3.532643e+01	-1.140979e+02
4.800000e-07	-5.074735e-06	-1.710978e-09	-3.519334e+01	-1.139043e+02
4.900000e-07	-5.055229e-06	-1.699738e-09	-3.505807e+01	-1.137033e+02
5.000000e-07	-5.035508e-06	-1.743739e-09	-3.492130e+01	-1.134952e+02
5.100000e-07	-5.015566e-06	-1.698588e-09	-3.478301e+01	-1.132802e+02
5.200000e-07	-4.995266e-06	-1.672525e-09	-3.464222e+01	-1.130586e+02
5.300000e-07	-4.974657e-06	-1.739866e-09	-3.449930e+01	-1.128308e+02
5.400000e-07	-4.953770e-06	-1.726008e-09	-3.435445e+01	-1.125972e+02
5.500000e-07	-4.932514e-06	-1.658103e-09	-3.420704e+01	-1.123581e+02
5.600000e-07	-4.910911e-06	-1.697390e-09	-3.405722e+01	-1.121138e+02
5.700000e-07	-4.888969e-06	-1.723493e-09	-3.390505e+01	-1.118647e+02
5.800000e-07	-4.866633e-06	-1.660460e-09	-3.375016e+01	-1.116111e+02
5.900000e-07	-4.843920e-06	-1.659843e-09	-3.359264e+01	-1.113533e+02
6.000000e-07	-4.820902e-06	-1.700693e-09	-3.343301e+01	-1.110917e+02
6.100000e-07	-4.797642e-06	-1.658175e-09	-3.327170e+01	-1.108263e+02
6.200000e-07	-4.774122e-06	-1.633658e-09	-3.310859e+01	-1.105575e+02
6.300000e-07	-4.750359e-06	-1.667915e-09	-3.294379e+01	-1.102853e+02
6.400000e-07	-4.726318e-06	-1.657368e-09	-3.277706e+01	-1.100098e+02
6.500000e-07	-4.701981e-06	-1.630765e-09	-3.260829e+01	-1.097311e+02
6.600000e-07	-4.677259e-06	-1.658983e-09	-3.243684e+01	-1.094492e+02
6.700000e-07	-4.651945e-06	-1.657418e-09	-3.226129e+01	-1.091640e+02
6.800000e-07	-4.626066e-06	-1.622595e-09	-3.208182e+01	-1.088754e+02
6.900000e-07	-4.599724e-06	-1.624716e-09	-3.189914e+01	-1.085834e+02
7.000000e-07	-4.572958e-06	-1.630424e-09	-3.171351e+01	-1.082877e+02
7.100000e-07	-4.545794e-06	-1.601563e-09	-3.152513e+01	-1.079882e+02
7.200000e-07	-4.518311e-06	-1.602688e-09	-3.133454e+01	-1.076847e+02
7.300000e-07	-4.490605e-06	-1.621120e-09	-3.114239e+01	-1.073771e+02
7.400000e-07	-4.462731e-06	-1.610790e-09	-3.094909e+01	-1.070650e+02
7.500000e-07	-4.434617e-06	-1.599952e-09	-3.075412e+01	-1.067483e+02
7.600000e-07	-4.406161e-06	-1.608066e-09	-3.055678e+01	-1.064269e+02
7.700000e-07	-4.377364e-06	-1.595589e-09	-3.035707e+01	-1.061004e+02
7.800000e-07	-4.348324e-06	-1.578804e-09	-3.015568e+01	-1.057688e+02
7.900000e-07	-4.319047e-06	-1.581449e-09	-2.995264e+01	-1.054319e+02
8.000000e-07	-4.289479e-06	-1.574342e-09	-2.974758e+01	-1.050896e+02
8.100000e-07	-4.259638e-06	-1.556128e-09	-2.954064e+01	-1.047418e+02
8.200000e-07	-4.229475e-06	-1.558283e-09	-2.933146e+01	-1.043884e+02
8.300000e-07	-4.198908e-06	-1.561044e-09	-2.911947e+01	-1.040295e+02
8.400000e-07	-4.168073e-06	-1.546223e-09	-2.890563e+01	-1.036650e+02
8.500000e-07	-4.137016e-06	-1.543381e-09	-2.869025e+01	-1.032950e+02
8.600000e-07	-4.105699e-06	-1.549077e-09	-2.847307e+01	-1.029195e+02
8.700000e-07	-4.074167e-06	-1.535811e-09	-2.825439e+01	-1.025386e+02
8.800000e-07	-4.042424e-06	-1.519443e-09	-2.803425e+01	-1.021525e+02
8.900000e-07	-4.010552e-06	-1.515660e-09	-2.781322e+01	-1.017612e+02
9.000000e-07	-3.978479e-06	-1.503701e-09	-2.759080e+01	-1.013650e+02
9.100000e-07	-3.946095e-06	-1.491059e-09	-2.736621e+01	-1.009640e+02
9.200000e-07	-3.913389e-06	-1.491823e-09	-2.713940e+01	-1.005583e+02
9.300000e-07	-3.880319e-06	-1.490312e-09	-2.691005e+01	-1.001482e+02
9.400000e-07	-3.846816e-06	-1.476324e-09	-2.667771e+01	-9.973372e+01
9.500000e-07	-3.812799e-06	-1.471907e-09	-2.644180e+01	-9.931518e+01
9.600000e-07	-3.778337e-06	-1.468583e-09	-2.620281e+01	-9.889267e+01
9.700000e-07	-3.743508e-06	-1.454937e-09	-2.596127e+01	-9.846636e+01
9.800000e-07	-3.708346e-06	-1.441878e-09	-2.571742e+01	-9.803637e+01
9.900000e-07	-3.672915e-06	-1.439337e-09	-2.547171e+01	-9.760284e+01
1.000000e-06	-3.637270e-06	-1.432446e-09	-2.522451e+01	-9.716585e+01
1.010000e-06	-3.601505e-06	-1.420299e-09	-2.497648e+01	-9.672551e+01
1.020000e-06	-3.565601e-06	-1.414936e-09	-2.472748e+01	-9.628187e+01
1.030000e-06	-3.529500e-06	-1.411164e-09	-2.447712e+01	-9.583499e+01
1.040000e-06	-3.493163e-06	-1.401017e-09	-2.422513e+01	-9.538488e+01
1.050000e-06	-3.456531e-06	-1.396753e-09	-2.397108e+01	-9.493157e+01
1.060000e-06	-3.419637e-06	-1.394102e-09	-2.371522e+01	-9.447505e+01
1.070000e-06	-3.382526e-06	-1.383596e-09	-2.345785e+01	-9.401529e+01
1.080000e-06	-3.345144e-06	-1.371528e-09	-2.319861e+01	-9.355226e+01
1.090000e-06	-3.307539e-06	-1.363051e-09	-2.293782e+01	-9.308591e+01
1.100000e-06	-3.269772e-06	-1.350767e-09	-2.267591e+01	-9.261618e+01
1.110000e-06	-3.231790e-06	-1.336725e-09	-2.241250e+01	-9.214300e+01
1.120000e-06	-3.193540e-06	-1.328115e-09	-2.214724e+01	-9.166628e+01
1.130000e-06	-3.155016e-06	-1.320423e-09	-2.188007e+01	-9.118593e+01
1.140000e-06	-3.116305e-06	-1.311581e-09	-2.161161e+01	-9.070185e+01
1.150000e-06	-3.077434e-06	-1.306629e-09	-2.134204e+01	-9.021393e+01
1.160000e-06	-3.038355e-06	-1.302831e-09	-2.107103e+01	-8.972203e+01
1.170000e-06	-2.999009e-06	-1.293344e-09	-2.079816e+01	-8.922601e+01
1.180000e-06	-2.959449e-06	-1.282912e-09	-2.052381e+01	-8.872574e+01
1.190000e-06	-2.919810e-06	-1.274757e-09	-2.024892e+01	-8.822103e+01
1.200000e-06	-2.880044e-06	-1.264217e-09	-1.997313e+01	-8.771169e+01
1.210000e-06	-2.840134e-06	-1.251224e-09	-1.969636e+01	-8.719752e+01
1.220000e-06	-2.800101e-06	-1.242563e-09	-1.941873e+01	-8.667829e+01
1.230000e-06	-2.759939e-06	-1.235667e-09	-1.914020e+01	-8.615373e+01
1.240000e-06	-2.719653e-06	-1.228110e-09	-1.886082e+01	-8.562356e+01
1.250000e-06	-2.679153e-06	-1.220358e-09	-1.857995e+01	-8.508747e+01
1.260000e-06	-2.638455e-06	-1.213536e-09	-1.829772e+01	-8.454510e+01
1.270000e-06	-2.597604e-06	-1.203928e-09	-1.801441e+01	-8.399608e+01
1.280000e-06	-2.556406e-06	-1.192172e-09	-1.772870e+01	-8.343999e+01
1.290000e-06	-2.514785e-06	-1.181039e-09	-1.744006e+01	-8.287639e+01
1.300000e-06	-2.472854e-06	-1.170471e-09	-1.714927e+01	-8.230482e+01
1.310000e-06	-2.430565e-06	-1.157448e-09	-1.685599e+01	-8.172476e+01
1.320000e-06	-2.387928e-06	-1.144174e-09	-1.656031e+01	-8.113569e+01
1.330000e-06	-2.345141e-06	-1.132719e-09	-1.626358e+01	-8.053706e+01
1.340000e-06	-2.302186e-06	-1.122869e-09	-1.596569e+01	-7.992831e+01
1.350000e-06	-2.258956e-06	-1.114575e-09	-1.566589e+01	-7.930887e+01
1.360000e-06	-2.215518e-06	-1.106596e-09	-1.536464e+01	-7.867814e+01
1.370000e-06	-2.171972e-06	-1.097399e-09	-1.506265e+01	-7.803557e+01
1.380000e-06	-2.128297e-06	-1.088577e-09	-1.475976e+01	-7.738056e+01
1.390000e-06	-2.084442e-06	-1.076312e-09	-1.445563e+01	-7.671258e+01
1.400000e-06	-2.040490e-06	-1.061907e-09	-1.415082e+01	-7.603110e+01
1.410000e-06	-1.996526e-06	-1.047985e-09	-1.384593e+01	-7.533561e+01
1.420000e-06	-1.952528e-06	-1.033306e-09	-1.354081e+01	-7.462566e+01
1.430000e-06	-1.908407e-06	-1.019756e-09	-1.323482e+01	-7.390083e+01
1.440000e-06	-1.864172e-06	-1.008796e-09	-1.292806e+01	-7.316076e+01
1.450000e-06	-1.819859e-06	-9.996037e-10	-1.262074e+01	-7.240515e+01
1.460000e-06	-1.775454e-06	-9.909752e-10	-1.231279e+01	-7.163372e+01
1.470000e-06	-1.730912e-06	-9.815930e-10	-1.200389e+01	-7.084630e+01
1.480000e-06	-1.686192e-06	-9.716512e-10	-1.169376e+01	-7.004274e+01
1.490000e-06	-1.641360e-06	-9.612069e-10	-1.138285e+01	-6.922298e+01
1.500000e-06	-1.596423e-06	-9.463802e-10	-1.107121e+01	-6.838698e+01
1.510000e-06	-1.551348e-06	-9.277200e-10	-1.075861e+01	-6.753478e+01
1.520000e-06	-1.506152e-06	-9.085001e-10	-1.044518e+01	-6.666645e+01
1.530000e-06	-1.460816e-06	-8.898106e-10	-1.013078e+01	-6.578208e+01
1.540000e-06	-1.415376e-06	-8.739478e-10	-9.815645e+00	-6.488181e+01
1.550000e-06	-1.369902e-06	-8.646381e-10	-9.500284e+00	-6.396577e+01
1.560000e-06	-1.324280e-06	-8.560809e-10	-9.183897e+00	-6.303411e+01
1.570000e-06	-1.278502e-06	-8.425440e-10	-8.866427e+00	-6.208694e+01
1.580000e-06	-1.232684e-06	-8.269422e-10	-8.548677e+00	-6.112436e+01
1.590000e-06	-1.186830e-06	-8.104212e-10	-8.230677e+00	-6.014641e+01
1.600000e-06	-1.140958e-06	-7.893260e-10	-7.912556e+00	-5.915308e+01
1.610000e-06	-1.095037e-06	-7.673263e-10	-7.594093e+00	-5.814427e+01
1.620000e-06	-1.049066e-06	-7.487595e-10	-7.275284e+00	-5.711980e+01
1.630000e-06	-1.002959e-06	-7.316496e-10	-6.955534e+00	-5.607939e+01
1.640000e-06	-9.566809e-07	-7.166450e-10	-6.634593e+00	-5.502262e+01
1.650000e-06	-9.103954e-07	-7.055215e-10	-6.313602e+00	-5.394896e+01
1.660000e-06	-8.641215e-07	-6.961787e-10	-5.992692e+00	-5.285775e+01
1.670000e-06	-8.177563e-07	-6.850902e-10	-5.671149e+00	-5.174818e+01
1.680000e-06	-7.712878e-07	-6.702440e-10	-5.348889e+00	-5.061930e+01
1.690000e-06	-7.247098e-07	-6.512369e-10	-5.025870e+00	-4.947001e+01
1.700000e-06	-6.780159e-07	-6.285324e-10	-4.702048e+00	-4.829908e+01
1.710000e-06	-6.313477e-07	-6.032477e-10	-4.378404e+00	-4.710513e+01
1.720000e-06	-5.847311e-07	-5.784338e-10	-4.055117e+00	-4.588669e+01
1.730000e-06	-5.380925e-07	-5.574861e-10	-3.731678e+00	-4.464214e+01
1.740000e-06	-4.913948e-07	-5.419009e-10	-3.407829e+00	-4.336979e+01
1.750000e-06	-4.446129e-07	-5.303035e-10	-3.083395e+00	-4.206788e+01
1.760000e-06	-3.978268e-07	-5.157093e-10	-2.758933e+00	-4.073460e+01
1.770000e-06	-3.509278e-07	-4.944612e-10	-2.433688e+00	-3.936810e+01
1.780000e-06	-3.039173e-07	-4.687113e-10	-2.107670e+00	-3.796655e+01
1.790000e-06	-2.569894e-07	-4.428189e-10	-1.782224e+00	-3.652815e+01
1.800000e-06	-2.101725e-07	-4.192751e-10	-1.457549e+00	-3.505116e+01
1.810000e-06	-1.632927e-07	-3.983179e-10	-1.132437e+00	-3.353393e+01
1.820000e-06	-1.163038e-07	-3.788565e-10	-8.065681e-01	-3.197497e+01
1.830000e-06	-6.926395e-08	-3.593744e-10	-4.803463e-01	-3.037291e+01
1.840000e-06	-2.221093e-08	-3.387782e-10	-1.540330e-01	-2.872659e+01
1.850000e-06	2.480868e-08	-3.149433e-10	1.720485e-01	-2.703507e+01
1.860000e-06	7.184043e-08	-2.905393e-10	4.982142e-01	-2.529767e+01
1.870000e-06	1.187985e-07	-2.637499e-10	8.238691e-01	-2.351395e+01
1.880000e-06	1.656827e-07	-2.389842e-10	1.149011e+00	-2.168381e+01
1.890000e-06	2.125097e-07	-2.157480e-10	1.473757e+00	-1.980743e+01
1.900000e-06	2.593842e-07	-1.895305e-10	1.798832e+00	-1.788531e+01
1.910000e-06	3.062875e-07	-1.617995e-10	2.124108e+00	-1.591833e+01
1.920000e-06	3.531232e-07	-1.312507e-10	2.448913e+00	-1.390768e+01
1.930000e-06	3.998869e-07	-1.011232e-10	2.773220e+00	-1.185489e+01
1.940000e-06	4.465630e-07	-7.306760e-11	3.096919e+00	-9.761858e+00
1.950000e-06	4.932406e-07	-4.644516e-11	3.420629e+00	-7.630785e+00
1.960000e-06	5.398927e-07	-1.953351e-11	3.744162e+00	-5.464202e+00
1.970000e-06	5.865261e-07	8.282175e-12	4.067565e+00	-3.264936e+00
1.980000e-06	6.331151e-07	3.804253e-11	4.390660e+00	-1.036091e+00
1.990000e-06	6.796642e-07	7.070333e-11	4.713479e+00	1.218982e+00
2.000000e-06	7.261811e-07	1.053583e-10	5.036074e+00	3.496713e+00
2.010000e-06	7.726151e-07	1.390627e-10	5.358094e+00	5.793348e+00
2.020000e-06	8.189378e-07	1.725811e-10	5.679342e+00	8.104980e+00
2.030000e-06	8.651760e-07	2.061600e-10	6.000005e+00	1.042760e+01
2.040000e-06	9.114330e-07	2.379215e-10	6.320798e+00	1.275711e+01
2.050000e-06	9.576419e-07	2.682697e-10	6.641257e+00	1.508940e+01
2.060000e-06	1.003772e-06	2.993736e-10	6.961173e+00	1.742037e+01
2.070000e-06	1.049857e-06	3.292042e-10	7.280769e+00	1.974594e+01
2.080000e-06	1.095803e-06	3.599814e-10	7.599405e+00	2.206215e+01
2.090000e-06	1.141647e-06	3.916932e-10	7.917338e+00	2.436514e+01
2.100000e-06	1.187457e-06	4.242853e-10	8.235030e+00	2.665123e+01
2.110000e-06	1.233231e-06	4.571671e-10	8.552472e+00	2.891691e+01
2.120000e-06	1.278905e-06	4.885647e-10	8.869219e+00	3.115890e+01
2.130000e-06	1.324445e-06	5.211428e-10	9.185042e+00	3.337414e+01
2.140000e-06	1.369914e-06	5.540568e-10	9.500368e+00	3.555986e+01
2.150000e-06	1.415290e-06	5.845707e-10	9.815055e+00	3.771353e+01
2.160000e-06	1.460633e-06	6.113984e-10	1.012950e+01	3.983295e+01
2.170000e-06	1.505943e-06	6.348100e-10	1.044373e+01	4.191617e+01
2.180000e-06	1.551091e-06	6.581037e-10	1.075683e+01	4.396158e+01
2.190000e-06	1.596075e-06	6.848254e-10	1.106880e+01	4.596782e+01
2.200000e-06	1.640862e-06	7.146260e-10	1.137940e+01	4.793385e+01
2.210000e-06	1.685525e-06	7.475339e-10	1.168914e+01	4.985889e+01
2.220000e-06	1.730094e-06	7.799709e-10	1.199822e+01	5.174243e+01
2.230000e-06	1.774503e-06	8.078666e-10	1.230620e+01	5.358420e+01
2.240000e-06	1.818760e-06	8.290767e-10	1.261312e+01	5.538417e+01
2.250000e-06	1.862894e-06	8.461945e-10	1.291919e+01	5.714249e+01
2.260000e-06	1.906983e-06	8.636864e-10	1.322495e+01	5.885952e+01
2.270000e-06	1.951031e-06	8.849059e-10	1.353042e+01	6.053575e+01
2.280000e-06	1.995014e-06	9.079793e-10	1.383544e+01	6.217182e+01
2.290000e-06	2.038897e-06	9.322843e-10	1.413977e+01	6.376846e+01
2.300000e-06	2.082692e-06	9.582266e-10	1.444349e+01	6.532650e+01
2.310000e-06	2.126439e-06	9.835924e-10	1.474688e+01	6.684681e+01
2.320000e-06	2.170122e-06	1.005093e-09	1.504982e+01	6.833030e+01
2.330000e-06	2.213717e-06	1.022663e-09	1.535215e+01	6.977790e+01
2.340000e-06	2.257203e-06	1.037389e-09	1.565373e+01	7.119052e+01
2.350000e-06	2.300442e-06	1.052627e-09	1.595359e+01	7.256907e+01
2.360000e-06	2.343440e-06	1.070491e-09	1.625178e+01	7.391442e+01
2.370000e-06	2.386234e-06	1.088966e-09	1.654856e+01	7.522737e+01
2.380000e-06	2.428773e-06	1.107684e-09	1.684357e+01	7.650870e+01
2.390000e-06	2.471062e-06	1.125532e-09	1.713684e+01	7.775912e+01
2.400000e-06	2.512995e-06	1.141714e-09	1.742765e+01	7.897927e+01
2.410000e-06	2.554573e-06	1.157468e-09	1.771599e+01	8.016975e+01
2.420000e-06	2.595860e-06	1.172355e-09	1.800231e+01	8.133109e+01
2.430000e-06	2.636757e-06	1.188193e-09	1.828594e+01	8.246375e+01
2.440000e-06	2.677359e-06	1.205719e-09	1.856751e+01	8.356817e+01
2.450000e-06	2.717825e-06	1.222800e-09	1.884815e+01	8.464474e+01
2.460000e-06	2.758131e-06	1.239433e-09	1.912767e+01	8.569382e+01
2.470000e-06	2.798300e-06	1.253073e-09	1.940624e+01	8.671576e+01
2.480000e-06	2.838331e-06	1.264478e-09	1.968386e+01	8.771087e+01
2.490000e-06	2.878199e-06	1.275576e-09	1.996034e+01	8.867950e+01
2.500000e-06	2.917912e-06	1.286930e-09	2.023575e+01	8.962198e+01
2.510000e-06	2.957503e-06	1.302036e-09	2.051032e+01	9.053868e+01
2.520000e-06	2.996926e-06	1.318916e-09	2.078372e+01	9.142999e+01
2.530000e-06	3.036150e-06	1.334523e-09	2.105573e+01	9.229633e+01
2.540000e-06	3.075192e-06	1.350153e-09	2.132649e+01	9.313817e+01
2.550000e-06	3.113929e-06	1.362898e-09	2.159513e+01	9.395602e+01
2.560000e-06	3.152415e-06	1.371023e-09	2.186203e+01	9.475042e+01
2.570000e-06	3.190801e-06	1.376140e-09	2.212824e+01	9.552200e+01
2.580000e-06	3.228998e-06	1.380854e-09	2.239314e+01	9.627140e+01
2.590000e-06	3.266925e-06	1.386986e-09	2.265616e+01	9.699930e+01
2.600000e-06	3.304655e-06	1.397966e-09	2.291782e+01	9.770644e+01
2.610000e-06	3.342185e-06	1.414353e-09	2.317809e+01	9.839357e+01
2.620000e-06	3.379464e-06	1.433866e-09	2.343662e+01	9.906149e+01
2.630000e-06	3.416520e-06	1.449673e-09	2.369360e+01	9.971097e+01
2.640000e-06	3.453336e-06	1.459234e-09	2.394892e+01	1.003428e+02
2.650000e-06	3.489899e-06	1.465270e-09	2.420249e+01	1.009579e+02
2.660000e-06	3.526283e-06	1.468512e-09	2.445481e+01	1.015569e+02
2.670000e-06	3.562462e-06	1.471139e-09	2.470571e+01	1.021405e+02
2.680000e-06	3.598422e-06	1.475757e-09	2.495510e+01	1.027096e+02
2.690000e-06	3.634279e-06	1.484988e-09	2.520376e+01	1.032648e+02
2.700000e-06	3.670023e-06	1.497307e-09	2.545165e+01	1.038067e+02
2.710000e-06	3.705552e-06	1.507983e-09	2.569804e+01	1.043358e+02
2.720000e-06	3.740790e-06	1.515961e-09	2.594242e+01	1.048527e+02
2.730000e-06	3.775638e-06	1.522655e-09	2.618409e+01	1.053577e+02
2.740000e-06	3.810051e-06	1.527413e-09	2.642274e+01	1.058512e+02
2.750000e-06	3.844003e-06	1.530827e-09	2.665820e+01	1.063335e+02
2.760000e-06	3.877447e-06	1.534904e-09	2.689014e+01	1.068047e+02
2.770000e-06	3.910467e-06	1.541682e-09	2.711913e+01	1.072650e+02
2.780000e-06	3.943200e-06	1.549535e-09	2.734614e+01	1.077144e+02
2.790000e-06	3.975675e-06	1.556962e-09	2.757135e+01	1.081530e+02
2.800000e-06	4.007937e-06	1.564210e-09	2.779509e+01	1.085806e+02
2.810000e-06	4.040031e-06	1.570855e-09	2.801766e+01	1.089973e+02
2.820000e-06	4.071892e-06	1.576211e-09	2.823861e+01	1.094027e+02
2.830000e-06	4.103531e-06	1.581408e-09	2.845803e+01	1.097969e+02
2.840000e-06	4.134940e-06	1.587988e-09	2.867585e+01	1.101797e+02
2.850000e-06	4.166019e-06	1.594419e-09	2.889139e+01	1.105508e+02
2.860000e-06	4.196748e-06	1.600672e-09	2.910449e+01	1.109102e+02
2.870000e-06	4.227205e-06	1.607534e-09	2.931571e+01	1.112578e+02
2.880000e-06	4.257402e-06	1.611733e-09	2.952513e+01	1.115934e+02
2.890000e-06	4.287278e-06	1.612969e-09	2.973232e+01	1.119170e+02
2.900000e-06	4.316942e-06	1.616905e-09	2.993804e+01	1.122287e+02
