# Temperatura_=_10.9
# Concentracion g/m^3_=_1620.0
# C_Vs_to_Am_M_A/Vsm_=_65563218390.804596
# pendiente_HvsI_1/m_=_3716.3
# ordenada_HvsI_A/m_=_1297.0
# frecuencia_Hz_=_135109.40324534394

Tiempo_(s)	Campo_(V.s)	Magnetizacion_(V.s)	Campo_(kA/m)	Magnetizacion_(A/m)
0.000000e+00	-5.524381e-06	-1.675771e-09	-3.836666e+01	-1.098710e+02
1.000000e-08	-5.524510e-06	-1.675465e-09	-3.836755e+01	-1.098017e+02
2.000000e-08	-5.524425e-06	-1.678041e-09	-3.836696e+01	-1.097335e+02
3.000000e-08	-5.523993e-06	-1.677442e-09	-3.836396e+01	-1.096666e+02
4.000000e-08	-5.523029e-06	-1.674281e-09	-3.835726e+01	-1.096009e+02
5.000000e-08	-5.521374e-06	-1.670257e-09	-3.834577e+01	-1.095365e+02
6.000000e-08	-5.519146e-06	-1.668758e-09	-3.833030e+01	-1.094734e+02
7.000000e-08	-5.516520e-06	-1.676206e-09	-3.831206e+01	-1.094112e+02
8.000000e-08	-5.513408e-06	-1.667787e-09	-3.829045e+01	-1.093499e+02
9.000000e-08	-5.509784e-06	-1.653209e-09	-3.826528e+01	-1.092891e+02
1.000000e-07	-5.505728e-06	-1.684591e-09	-3.823711e+01	-1.092284e+02
1.100000e-07	-5.501292e-06	-1.713904e-09	-3.820630e+01	-1.091675e+02
1.200000e-07	-5.496556e-06	-1.656518e-09	-3.817341e+01	-1.091059e+02
1.300000e-07	-5.491633e-06	-1.609443e-09	-3.813922e+01	-1.090430e+02
1.400000e-07	-5.486341e-06	-1.629131e-09	-3.810247e+01	-1.089784e+02
1.500000e-07	-5.480632e-06	-1.711579e-09	-3.806282e+01	-1.089116e+02
1.600000e-07	-5.474629e-06	-1.686305e-09	-3.802113e+01	-1.088419e+02
1.700000e-07	-5.468339e-06	-1.629753e-09	-3.797745e+01	-1.087689e+02
1.800000e-07	-5.461562e-06	-1.620233e-09	-3.793038e+01	-1.086921e+02
1.900000e-07	-5.454274e-06	-1.674218e-09	-3.787976e+01	-1.086109e+02
2.000000e-07	-5.446719e-06	-1.674823e-09	-3.782729e+01	-1.085250e+02
2.100000e-07	-5.438984e-06	-1.643954e-09	-3.777357e+01	-1.084339e+02
2.200000e-07	-5.431057e-06	-1.641642e-09	-3.771852e+01	-1.083373e+02
2.300000e-07	-5.422829e-06	-1.677577e-09	-3.766137e+01	-1.082348e+02
2.400000e-07	-5.414097e-06	-1.678080e-09	-3.760073e+01	-1.081264e+02
2.500000e-07	-5.404748e-06	-1.637380e-09	-3.753580e+01	-1.080118e+02
2.600000e-07	-5.394641e-06	-1.630718e-09	-3.746561e+01	-1.078909e+02
2.700000e-07	-5.383869e-06	-1.645110e-09	-3.739080e+01	-1.077639e+02
2.800000e-07	-5.372657e-06	-1.649334e-09	-3.731293e+01	-1.076307e+02
2.900000e-07	-5.361019e-06	-1.618125e-09	-3.723211e+01	-1.074915e+02
3.000000e-07	-5.349035e-06	-1.625647e-09	-3.714888e+01	-1.073465e+02
3.100000e-07	-5.336677e-06	-1.630328e-09	-3.706306e+01	-1.071960e+02
3.200000e-07	-5.323808e-06	-1.633729e-09	-3.697368e+01	-1.070404e+02
3.300000e-07	-5.310420e-06	-1.595024e-09	-3.688070e+01	-1.068800e+02
3.400000e-07	-5.296704e-06	-1.603349e-09	-3.678545e+01	-1.067152e+02
3.500000e-07	-5.282639e-06	-1.620260e-09	-3.668777e+01	-1.065465e+02
3.600000e-07	-5.268124e-06	-1.627640e-09	-3.658696e+01	-1.063744e+02
3.700000e-07	-5.253094e-06	-1.602362e-09	-3.648258e+01	-1.061994e+02
3.800000e-07	-5.237622e-06	-1.624861e-09	-3.637512e+01	-1.060218e+02
3.900000e-07	-5.221674e-06	-1.617936e-09	-3.626436e+01	-1.058422e+02
4.000000e-07	-5.205196e-06	-1.575098e-09	-3.614992e+01	-1.056611e+02
4.100000e-07	-5.188434e-06	-1.572736e-09	-3.603351e+01	-1.054787e+02
4.200000e-07	-5.171399e-06	-1.618487e-09	-3.591520e+01	-1.052954e+02
4.300000e-07	-5.153993e-06	-1.593860e-09	-3.579432e+01	-1.051116e+02
4.400000e-07	-5.136200e-06	-1.563854e-09	-3.567075e+01	-1.049275e+02
4.500000e-07	-5.118029e-06	-1.606939e-09	-3.554455e+01	-1.047433e+02
4.600000e-07	-5.099464e-06	-1.612034e-09	-3.541562e+01	-1.045590e+02
4.700000e-07	-5.080509e-06	-1.554638e-09	-3.528398e+01	-1.043747e+02
4.800000e-07	-5.061283e-06	-1.566279e-09	-3.515045e+01	-1.041904e+02
4.900000e-07	-5.041806e-06	-1.594963e-09	-3.501519e+01	-1.040060e+02
5.000000e-07	-5.022034e-06	-1.544291e-09	-3.487787e+01	-1.038212e+02
5.100000e-07	-5.002046e-06	-1.535539e-09	-3.473905e+01	-1.036359e+02
5.200000e-07	-4.981920e-06	-1.582360e-09	-3.459928e+01	-1.034497e+02
5.300000e-07	-4.961461e-06	-1.562559e-09	-3.445719e+01	-1.032622e+02
5.400000e-07	-4.940506e-06	-1.526177e-09	-3.431166e+01	-1.030732e+02
5.500000e-07	-4.919127e-06	-1.570277e-09	-3.416318e+01	-1.028821e+02
5.600000e-07	-4.897387e-06	-1.574003e-09	-3.401220e+01	-1.026886e+02
5.700000e-07	-4.875376e-06	-1.531668e-09	-3.385933e+01	-1.024920e+02
5.800000e-07	-4.853081e-06	-1.542585e-09	-3.370450e+01	-1.022920e+02
5.900000e-07	-4.830411e-06	-1.562725e-09	-3.354706e+01	-1.020881e+02
6.000000e-07	-4.807397e-06	-1.518625e-09	-3.338722e+01	-1.018798e+02
6.100000e-07	-4.784133e-06	-1.509748e-09	-3.322566e+01	-1.016667e+02
6.200000e-07	-4.760545e-06	-1.528360e-09	-3.306183e+01	-1.014485e+02
6.300000e-07	-4.736677e-06	-1.515108e-09	-3.289607e+01	-1.012246e+02
6.400000e-07	-4.712599e-06	-1.503630e-09	-3.272885e+01	-1.009950e+02
6.500000e-07	-4.688222e-06	-1.526864e-09	-3.255956e+01	-1.007593e+02
6.600000e-07	-4.663410e-06	-1.516622e-09	-3.238724e+01	-1.005174e+02
6.700000e-07	-4.638151e-06	-1.495333e-09	-3.221182e+01	-1.002692e+02
6.800000e-07	-4.612346e-06	-1.493935e-09	-3.203260e+01	-1.000146e+02
6.900000e-07	-4.585887e-06	-1.488613e-09	-3.184884e+01	-9.975367e+01
7.000000e-07	-4.558942e-06	-1.469636e-09	-3.166171e+01	-9.948654e+01
7.100000e-07	-4.531618e-06	-1.474235e-09	-3.147195e+01	-9.921337e+01
7.200000e-07	-4.504053e-06	-1.480336e-09	-3.128051e+01	-9.893438e+01
7.300000e-07	-4.476350e-06	-1.475943e-09	-3.108811e+01	-9.864985e+01
7.400000e-07	-4.448486e-06	-1.471421e-09	-3.089459e+01	-9.836011e+01
7.500000e-07	-4.420335e-06	-1.465640e-09	-3.069908e+01	-9.806551e+01
7.600000e-07	-4.391846e-06	-1.452908e-09	-3.050123e+01	-9.776646e+01
7.700000e-07	-4.363057e-06	-1.447196e-09	-3.030129e+01	-9.746337e+01
7.800000e-07	-4.333952e-06	-1.444198e-09	-3.009916e+01	-9.715665e+01
7.900000e-07	-4.304604e-06	-1.437019e-09	-2.989534e+01	-9.684672e+01
8.000000e-07	-4.275021e-06	-1.435318e-09	-2.968988e+01	-9.653399e+01
8.100000e-07	-4.245125e-06	-1.435225e-09	-2.948226e+01	-9.621884e+01
8.200000e-07	-4.214927e-06	-1.427545e-09	-2.927254e+01	-9.590162e+01
8.300000e-07	-4.184426e-06	-1.417542e-09	-2.906071e+01	-9.558264e+01
8.400000e-07	-4.153626e-06	-1.418457e-09	-2.884680e+01	-9.526216e+01
8.500000e-07	-4.122557e-06	-1.417210e-09	-2.863103e+01	-9.494040e+01
8.600000e-07	-4.091242e-06	-1.413999e-09	-2.841355e+01	-9.461751e+01
8.700000e-07	-4.059683e-06	-1.409933e-09	-2.819437e+01	-9.429356e+01
8.800000e-07	-4.027888e-06	-1.404939e-09	-2.797356e+01	-9.396859e+01
8.900000e-07	-3.995958e-06	-1.388289e-09	-2.775181e+01	-9.364256e+01
9.000000e-07	-3.963818e-06	-1.378906e-09	-2.752859e+01	-9.331535e+01
9.100000e-07	-3.931400e-06	-1.374748e-09	-2.730345e+01	-9.298681e+01
9.200000e-07	-3.898694e-06	-1.369446e-09	-2.707631e+01	-9.265672e+01
9.300000e-07	-3.865551e-06	-1.363093e-09	-2.684613e+01	-9.232480e+01
9.400000e-07	-3.831846e-06	-1.364825e-09	-2.661205e+01	-9.199073e+01
9.500000e-07	-3.797674e-06	-1.360328e-09	-2.637473e+01	-9.165417e+01
9.600000e-07	-3.763165e-06	-1.350304e-09	-2.613506e+01	-9.131473e+01
9.700000e-07	-3.728296e-06	-1.342281e-09	-2.589290e+01	-9.097203e+01
9.800000e-07	-3.693103e-06	-1.336347e-09	-2.564848e+01	-9.062564e+01
9.900000e-07	-3.657643e-06	-1.325779e-09	-2.540222e+01	-9.027518e+01
1.000000e-06	-3.621989e-06	-1.319527e-09	-2.515460e+01	-8.992024e+01
1.010000e-06	-3.586187e-06	-1.315588e-09	-2.490596e+01	-8.956046e+01
1.020000e-06	-3.550209e-06	-1.311432e-09	-2.465609e+01	-8.919549e+01
1.030000e-06	-3.514058e-06	-1.305048e-09	-2.440503e+01	-8.882502e+01
1.040000e-06	-3.477729e-06	-1.302064e-09	-2.415272e+01	-8.844879e+01
1.050000e-06	-3.441153e-06	-1.297408e-09	-2.389870e+01	-8.806659e+01
1.060000e-06	-3.404288e-06	-1.290881e-09	-2.364267e+01	-8.767825e+01
1.070000e-06	-3.367141e-06	-1.283020e-09	-2.338469e+01	-8.728367e+01
1.080000e-06	-3.329757e-06	-1.273994e-09	-2.312506e+01	-8.688279e+01
1.090000e-06	-3.292148e-06	-1.263901e-09	-2.286387e+01	-8.647563e+01
1.100000e-06	-3.254334e-06	-1.254166e-09	-2.260125e+01	-8.606223e+01
1.110000e-06	-3.216311e-06	-1.246837e-09	-2.233718e+01	-8.564270e+01
1.120000e-06	-3.178018e-06	-1.236211e-09	-2.207124e+01	-8.521720e+01
1.130000e-06	-3.139540e-06	-1.226325e-09	-2.180401e+01	-8.478591e+01
1.140000e-06	-3.100870e-06	-1.219789e-09	-2.153544e+01	-8.434904e+01
1.150000e-06	-3.061967e-06	-1.218783e-09	-2.126527e+01	-8.390683e+01
1.160000e-06	-3.022890e-06	-1.215460e-09	-2.099387e+01	-8.345952e+01
1.170000e-06	-2.983585e-06	-1.210023e-09	-2.072091e+01	-8.300737e+01
1.180000e-06	-2.944086e-06	-1.200639e-09	-2.044658e+01	-8.255059e+01
1.190000e-06	-2.904457e-06	-1.190046e-09	-2.017137e+01	-8.208942e+01
1.200000e-06	-2.864692e-06	-1.176738e-09	-1.989520e+01	-8.162402e+01
1.210000e-06	-2.824781e-06	-1.166065e-09	-1.961802e+01	-8.115453e+01
1.220000e-06	-2.784669e-06	-1.158538e-09	-1.933944e+01	-8.068105e+01
1.230000e-06	-2.744435e-06	-1.152624e-09	-1.906002e+01	-8.020361e+01
1.240000e-06	-2.704101e-06	-1.145405e-09	-1.877990e+01	-7.972217e+01
1.250000e-06	-2.663553e-06	-1.138470e-09	-1.849829e+01	-7.923662e+01
1.260000e-06	-2.622744e-06	-1.131805e-09	-1.821488e+01	-7.874679e+01
1.270000e-06	-2.581656e-06	-1.124789e-09	-1.792952e+01	-7.825244e+01
1.280000e-06	-2.540281e-06	-1.113534e-09	-1.764217e+01	-7.775321e+01
1.290000e-06	-2.498535e-06	-1.102887e-09	-1.735225e+01	-7.724873e+01
1.300000e-06	-2.456400e-06	-1.090870e-09	-1.705962e+01	-7.673850e+01
1.310000e-06	-2.413940e-06	-1.079552e-09	-1.676474e+01	-7.622200e+01
1.320000e-06	-2.371305e-06	-1.069555e-09	-1.646864e+01	-7.569863e+01
1.330000e-06	-2.328484e-06	-1.061895e-09	-1.617125e+01	-7.516775e+01
1.340000e-06	-2.285393e-06	-1.054226e-09	-1.587198e+01	-7.462867e+01
1.350000e-06	-2.242103e-06	-1.048674e-09	-1.557133e+01	-7.408068e+01
1.360000e-06	-2.198649e-06	-1.044355e-09	-1.526955e+01	-7.352305e+01
1.370000e-06	-2.155092e-06	-1.036910e-09	-1.496705e+01	-7.295504e+01
1.380000e-06	-2.111459e-06	-1.026184e-09	-1.466402e+01	-7.237594e+01
1.390000e-06	-2.067715e-06	-1.010976e-09	-1.436021e+01	-7.178503e+01
1.400000e-06	-2.023852e-06	-9.930665e-10	-1.405559e+01	-7.118163e+01
1.410000e-06	-1.979939e-06	-9.773304e-10	-1.375061e+01	-7.056512e+01
1.420000e-06	-1.935955e-06	-9.659361e-10	-1.344515e+01	-6.993492e+01
1.430000e-06	-1.891848e-06	-9.566779e-10	-1.313882e+01	-6.929051e+01
1.440000e-06	-1.847704e-06	-9.492110e-10	-1.283225e+01	-6.863144e+01
1.450000e-06	-1.803550e-06	-9.407739e-10	-1.252560e+01	-6.795734e+01
1.460000e-06	-1.759279e-06	-9.316760e-10	-1.221813e+01	-6.726792e+01
1.470000e-06	-1.714811e-06	-9.193847e-10	-1.190931e+01	-6.656295e+01
1.480000e-06	-1.670182e-06	-9.067466e-10	-1.159936e+01	-6.584229e+01
1.490000e-06	-1.625375e-06	-8.949156e-10	-1.128818e+01	-6.510589e+01
1.500000e-06	-1.580401e-06	-8.812841e-10	-1.097583e+01	-6.435375e+01
1.510000e-06	-1.535250e-06	-8.651558e-10	-1.066227e+01	-6.358593e+01
1.520000e-06	-1.489942e-06	-8.525165e-10	-1.034760e+01	-6.280256e+01
1.530000e-06	-1.444624e-06	-8.415865e-10	-1.003287e+01	-6.200378e+01
1.540000e-06	-1.399290e-06	-8.331038e-10	-9.718028e+00	-6.118979e+01
1.550000e-06	-1.353810e-06	-8.252005e-10	-9.402171e+00	-6.036078e+01
1.560000e-06	-1.308206e-06	-8.149515e-10	-9.085450e+00	-5.951693e+01
1.570000e-06	-1.262557e-06	-7.992821e-10	-8.768416e+00	-5.865842e+01
1.580000e-06	-1.216883e-06	-7.831315e-10	-8.451216e+00	-5.778537e+01
1.590000e-06	-1.171136e-06	-7.666258e-10	-8.133501e+00	-5.689786e+01
1.600000e-06	-1.125255e-06	-7.484443e-10	-7.814862e+00	-5.599588e+01
1.610000e-06	-1.079297e-06	-7.319035e-10	-7.495686e+00	-5.507934e+01
1.620000e-06	-1.033207e-06	-7.186628e-10	-7.175588e+00	-5.414805e+01
1.630000e-06	-9.870219e-07	-7.075191e-10	-6.854836e+00	-5.320170e+01
1.640000e-06	-9.408487e-07	-6.968118e-10	-6.534165e+00	-5.223983e+01
1.650000e-06	-8.945622e-07	-6.850183e-10	-6.212707e+00	-5.126189e+01
1.660000e-06	-8.481871e-07	-6.704755e-10	-5.890633e+00	-5.026713e+01
1.670000e-06	-8.018595e-07	-6.529809e-10	-5.568889e+00	-4.925469e+01
1.680000e-06	-7.554965e-07	-6.330332e-10	-5.246900e+00	-4.822356e+01
1.690000e-06	-7.090701e-07	-6.148906e-10	-4.924469e+00	-4.717256e+01
1.700000e-06	-6.626329e-07	-5.955522e-10	-4.601965e+00	-4.610040e+01
1.710000e-06	-6.162231e-07	-5.736096e-10	-4.279651e+00	-4.500565e+01
1.720000e-06	-5.697420e-07	-5.514057e-10	-3.956840e+00	-4.388675e+01
1.730000e-06	-5.231303e-07	-5.316609e-10	-3.633124e+00	-4.274205e+01
1.740000e-06	-4.765027e-07	-5.162591e-10	-3.309296e+00	-4.156983e+01
1.750000e-06	-4.298058e-07	-5.015487e-10	-2.984988e+00	-4.036828e+01
1.760000e-06	-3.830142e-07	-4.834706e-10	-2.660021e+00	-3.913558e+01
1.770000e-06	-3.362435e-07	-4.640084e-10	-2.335201e+00	-3.786989e+01
1.780000e-06	-2.894521e-07	-4.426295e-10	-2.010236e+00	-3.656938e+01
1.790000e-06	-2.425737e-07	-4.217213e-10	-1.684667e+00	-3.523226e+01
1.800000e-06	-1.957141e-07	-4.013835e-10	-1.359229e+00	-3.385685e+01
1.810000e-06	-1.489469e-07	-3.805825e-10	-1.034432e+00	-3.244154e+01
1.820000e-06	-1.021509e-07	-3.604245e-10	-7.094347e-01	-3.098486e+01
1.830000e-06	-5.526138e-08	-3.397492e-10	-3.837886e-01	-2.948552e+01
1.840000e-06	-8.327717e-09	-3.180646e-10	-5.783574e-02	-2.794241e+01
1.850000e-06	3.858379e-08	-2.983855e-10	2.679632e-01	-2.635464e+01
1.860000e-06	8.539768e-08	-2.810302e-10	5.930842e-01	-2.472156e+01
1.870000e-06	1.322238e-07	-2.609732e-10	9.182900e-01	-2.304278e+01
1.880000e-06	1.791615e-07	-2.364329e-10	1.244271e+00	-2.131821e+01
1.890000e-06	2.260785e-07	-2.100605e-10	1.570108e+00	-1.954803e+01
1.900000e-06	2.728425e-07	-1.824882e-10	1.894883e+00	-1.773274e+01
1.910000e-06	3.195282e-07	-1.539707e-10	2.219113e+00	-1.587317e+01
1.920000e-06	3.662381e-07	-1.250624e-10	2.543512e+00	-1.397043e+01
1.930000e-06	4.130215e-07	-9.860322e-11	2.868421e+00	-1.202599e+01
1.940000e-06	4.597672e-07	-7.482513e-11	3.193069e+00	-1.004160e+01
1.950000e-06	5.063262e-07	-5.125277e-11	3.516419e+00	-8.019324e+00
1.960000e-06	5.528215e-07	-2.701817e-11	3.839328e+00	-5.961528e+00
1.970000e-06	5.993451e-07	-1.105720e-12	4.162433e+00	-3.870838e+00
1.980000e-06	6.458694e-07	2.694026e-11	4.485543e+00	-1.750138e+00
1.990000e-06	6.923355e-07	5.886153e-11	4.808248e+00	3.974565e-01
2.000000e-06	7.386507e-07	9.241742e-11	5.129906e+00	2.568628e+00
2.010000e-06	7.849114e-07	1.248881e-10	5.451185e+00	4.759884e+00
2.020000e-06	8.312175e-07	1.567305e-10	5.772779e+00	6.967587e+00
2.030000e-06	8.774779e-07	1.873695e-10	6.094057e+00	9.187988e+00
2.040000e-06	9.236501e-07	2.164801e-10	6.414721e+00	1.141726e+01
2.050000e-06	9.697271e-07	2.439767e-10	6.734724e+00	1.365153e+01
2.060000e-06	1.015714e-06	2.714252e-10	7.054099e+00	1.588693e+01
2.070000e-06	1.061642e-06	3.011947e-10	7.373068e+00	1.811959e+01
2.080000e-06	1.107541e-06	3.325051e-10	7.691837e+00	2.034572e+01
2.090000e-06	1.153425e-06	3.649006e-10	8.010497e+00	2.256161e+01
2.100000e-06	1.199248e-06	3.965963e-10	8.328738e+00	2.476366e+01
2.110000e-06	1.244908e-06	4.263131e-10	8.645845e+00	2.694845e+01
2.120000e-06	1.290448e-06	4.549172e-10	8.962120e+00	2.911269e+01
2.130000e-06	1.335893e-06	4.845759e-10	9.277736e+00	3.125331e+01
2.140000e-06	1.381218e-06	5.133164e-10	9.592516e+00	3.336745e+01
2.150000e-06	1.426486e-06	5.394437e-10	9.906897e+00	3.545248e+01
2.160000e-06	1.471715e-06	5.641336e-10	1.022101e+01	3.750600e+01
2.170000e-06	1.516839e-06	5.874730e-10	1.053440e+01	3.952588e+01
2.180000e-06	1.561827e-06	6.128278e-10	1.084684e+01	4.151024e+01
2.190000e-06	1.606722e-06	6.413655e-10	1.115864e+01	4.345747e+01
2.200000e-06	1.651450e-06	6.719239e-10	1.146927e+01	4.536620e+01
2.210000e-06	1.695987e-06	7.029366e-10	1.177857e+01	4.723533e+01
2.220000e-06	1.740399e-06	7.322519e-10	1.208702e+01	4.906400e+01
2.230000e-06	1.784714e-06	7.588026e-10	1.239479e+01	5.085161e+01
2.240000e-06	1.828921e-06	7.790670e-10	1.270180e+01	5.259777e+01
2.250000e-06	1.873012e-06	7.935785e-10	1.300801e+01	5.430229e+01
2.260000e-06	1.917049e-06	8.092289e-10	1.331385e+01	5.596522e+01
2.270000e-06	1.961052e-06	8.284423e-10	1.361944e+01	5.758673e+01
2.280000e-06	2.004977e-06	8.500199e-10	1.392450e+01	5.916720e+01
2.290000e-06	2.048810e-06	8.741941e-10	1.422892e+01	6.070714e+01
2.300000e-06	2.092594e-06	9.003827e-10	1.453300e+01	6.220716e+01
2.310000e-06	2.136322e-06	9.241570e-10	1.483669e+01	6.366799e+01
2.320000e-06	2.179884e-06	9.428673e-10	1.513922e+01	6.509044e+01
2.330000e-06	2.223318e-06	9.582780e-10	1.544087e+01	6.647538e+01
2.340000e-06	2.266750e-06	9.728343e-10	1.574251e+01	6.782372e+01
2.350000e-06	2.310075e-06	9.881484e-10	1.604340e+01	6.913642e+01
2.360000e-06	2.353106e-06	1.004012e-09	1.634225e+01	7.041442e+01
2.370000e-06	2.395797e-06	1.021338e-09	1.663873e+01	7.165868e+01
2.380000e-06	2.438178e-06	1.039797e-09	1.693307e+01	7.287014e+01
2.390000e-06	2.480209e-06	1.058533e-09	1.722498e+01	7.404971e+01
2.400000e-06	2.521882e-06	1.076091e-09	1.751439e+01	7.519826e+01
2.410000e-06	2.563229e-06	1.090935e-09	1.780155e+01	7.631665e+01
2.420000e-06	2.604277e-06	1.103898e-09	1.808662e+01	7.740566e+01
2.430000e-06	2.645098e-06	1.116851e-09	1.837013e+01	7.846603e+01
2.440000e-06	2.685752e-06	1.132108e-09	1.865246e+01	7.949845e+01
2.450000e-06	2.726217e-06	1.146940e-09	1.893349e+01	8.050356e+01
2.460000e-06	2.766419e-06	1.160829e-09	1.921269e+01	8.148196e+01
2.470000e-06	2.806422e-06	1.173222e-09	1.949052e+01	8.243417e+01
2.480000e-06	2.846275e-06	1.185085e-09	1.976729e+01	8.336071e+01
2.490000e-06	2.885979e-06	1.198344e-09	2.004303e+01	8.426202e+01
2.500000e-06	2.925596e-06	1.210642e-09	2.031817e+01	8.513854e+01
2.510000e-06	2.965075e-06	1.225508e-09	2.059235e+01	8.599066e+01
2.520000e-06	3.004349e-06	1.239737e-09	2.086511e+01	8.681876e+01
2.530000e-06	3.043421e-06	1.253084e-09	2.113646e+01	8.762321e+01
2.540000e-06	3.082349e-06	1.267147e-09	2.140682e+01	8.840436e+01
2.550000e-06	3.121121e-06	1.277681e-09	2.167609e+01	8.916258e+01
2.560000e-06	3.159591e-06	1.284391e-09	2.194326e+01	8.989821e+01
2.570000e-06	3.197801e-06	1.290682e-09	2.220863e+01	9.061165e+01
2.580000e-06	3.235849e-06	1.298728e-09	2.247287e+01	9.130327e+01
2.590000e-06	3.273711e-06	1.307233e-09	2.273582e+01	9.197349e+01
2.600000e-06	3.311391e-06	1.318633e-09	2.299751e+01	9.262273e+01
2.610000e-06	3.348903e-06	1.332609e-09	2.325803e+01	9.325147e+01
2.620000e-06	3.386145e-06	1.347561e-09	2.351667e+01	9.386017e+01
2.630000e-06	3.423072e-06	1.359762e-09	2.377313e+01	9.444937e+01
2.640000e-06	3.459712e-06	1.367852e-09	2.402759e+01	9.501959e+01
2.650000e-06	3.496076e-06	1.373109e-09	2.428014e+01	9.557141e+01
2.660000e-06	3.532220e-06	1.375899e-09	2.453116e+01	9.610541e+01
2.670000e-06	3.568183e-06	1.378725e-09	2.478092e+01	9.662222e+01
2.680000e-06	3.603996e-06	1.382865e-09	2.502964e+01	9.712245e+01
2.690000e-06	3.639694e-06	1.389872e-09	2.527756e+01	9.760676e+01
2.700000e-06	3.675242e-06	1.400278e-09	2.552444e+01	9.807579e+01
2.710000e-06	3.710584e-06	1.409480e-09	2.576989e+01	9.853019e+01
2.720000e-06	3.745658e-06	1.416349e-09	2.601348e+01	9.897063e+01
2.730000e-06	3.780353e-06	1.421651e-09	2.625444e+01	9.939775e+01
2.740000e-06	3.814618e-06	1.425920e-09	2.649240e+01	9.981216e+01
2.750000e-06	3.848422e-06	1.429314e-09	2.672717e+01	1.002145e+02
2.760000e-06	3.881812e-06	1.433303e-09	2.695907e+01	1.006053e+02
2.770000e-06	3.914757e-06	1.438855e-09	2.718786e+01	1.009852e+02
2.780000e-06	3.947290e-06	1.444856e-09	2.741380e+01	1.013547e+02
2.790000e-06	3.979477e-06	1.451697e-09	2.763734e+01	1.017143e+02
2.800000e-06	4.011409e-06	1.458944e-09	2.785911e+01	1.020643e+02
2.810000e-06	4.043253e-06	1.465390e-09	2.808026e+01	1.024053e+02
2.820000e-06	4.074987e-06	1.470227e-09	2.830066e+01	1.027376e+02
2.830000e-06	4.106444e-06	1.474881e-09	2.851912e+01	1.030614e+02
2.840000e-06	4.137592e-06	1.479155e-09	2.873545e+01	1.033770e+02
2.850000e-06	4.168499e-06	1.482010e-09	2.895009e+01	1.036847e+02
2.860000e-06	4.199119e-06	1.484516e-09	2.916275e+01	1.039846e+02
2.870000e-06	4.229472e-06	1.488630e-09	2.937355e+01	1.042768e+02
2.880000e-06	4.259585e-06	1.492590e-09	2.958269e+01	1.045615e+02
2.890000e-06	4.289418e-06	1.496342e-09	2.978987e+01	1.048385e+02
2.900000e-06	4.318934e-06	1.502295e-09	2.999486e+01	1.051080e+02
