# Temperatura_=_12.2
# Concentracion g/m^3_=_1620.0
# C_Vs_to_Am_M_A/Vsm_=_65563218390.804596
# pendiente_HvsI_1/m_=_3716.3
# ordenada_HvsI_A/m_=_1297.0
# frecuencia_Hz_=_135111.68462701014

Tiempo_(s)	Campo_(V.s)	Magnetizacion_(V.s)	Campo_(kA/m)	Magnetizacion_(A/m)
0.000000e+00	-5.518404e-06	-1.786382e-09	-3.837282e+01	-1.154669e+02
1.000000e-08	-5.518559e-06	-1.784751e-09	-3.837389e+01	-1.154284e+02
2.000000e-08	-5.518521e-06	-1.787178e-09	-3.837363e+01	-1.153877e+02
3.000000e-08	-5.518304e-06	-1.789404e-09	-3.837212e+01	-1.153446e+02
4.000000e-08	-5.517731e-06	-1.787836e-09	-3.836813e+01	-1.152991e+02
5.000000e-08	-5.516608e-06	-1.786326e-09	-3.836032e+01	-1.152508e+02
6.000000e-08	-5.514864e-06	-1.783366e-09	-3.834820e+01	-1.151997e+02
7.000000e-08	-5.512432e-06	-1.791004e-09	-3.833129e+01	-1.151455e+02
8.000000e-08	-5.509359e-06	-1.798480e-09	-3.830992e+01	-1.150882e+02
9.000000e-08	-5.505809e-06	-1.751745e-09	-3.828524e+01	-1.150275e+02
1.000000e-07	-5.501857e-06	-1.741444e-09	-3.825775e+01	-1.149634e+02
1.100000e-07	-5.497599e-06	-1.846092e-09	-3.822815e+01	-1.148955e+02
1.200000e-07	-5.493027e-06	-1.852995e-09	-3.819635e+01	-1.148239e+02
1.300000e-07	-5.488207e-06	-1.717732e-09	-3.816284e+01	-1.147483e+02
1.400000e-07	-5.483174e-06	-1.672589e-09	-3.812784e+01	-1.146687e+02
1.500000e-07	-5.477746e-06	-1.788626e-09	-3.809010e+01	-1.145849e+02
1.600000e-07	-5.471825e-06	-1.882436e-09	-3.804893e+01	-1.144969e+02
1.700000e-07	-5.465561e-06	-1.725734e-09	-3.800537e+01	-1.144046e+02
1.800000e-07	-5.459004e-06	-1.657598e-09	-3.795977e+01	-1.143080e+02
1.900000e-07	-5.451982e-06	-1.738072e-09	-3.791094e+01	-1.142069e+02
2.000000e-07	-5.444563e-06	-1.852269e-09	-3.785935e+01	-1.141015e+02
2.100000e-07	-5.436911e-06	-1.767830e-09	-3.780615e+01	-1.139917e+02
2.200000e-07	-5.429077e-06	-1.705493e-09	-3.775167e+01	-1.138775e+02
2.300000e-07	-5.420875e-06	-1.738698e-09	-3.769464e+01	-1.137590e+02
2.400000e-07	-5.412173e-06	-1.804487e-09	-3.763413e+01	-1.136362e+02
2.500000e-07	-5.403011e-06	-1.757000e-09	-3.757042e+01	-1.135092e+02
2.600000e-07	-5.393390e-06	-1.695120e-09	-3.750352e+01	-1.133780e+02
2.700000e-07	-5.383052e-06	-1.725630e-09	-3.743163e+01	-1.132428e+02
2.800000e-07	-5.371998e-06	-1.761740e-09	-3.735476e+01	-1.131036e+02
2.900000e-07	-5.360490e-06	-1.739587e-09	-3.727474e+01	-1.129606e+02
3.000000e-07	-5.348546e-06	-1.680344e-09	-3.719169e+01	-1.128138e+02
3.100000e-07	-5.336257e-06	-1.706837e-09	-3.710623e+01	-1.126634e+02
3.200000e-07	-5.323690e-06	-1.721961e-09	-3.701885e+01	-1.125094e+02
3.300000e-07	-5.310703e-06	-1.705598e-09	-3.692854e+01	-1.123519e+02
3.400000e-07	-5.297233e-06	-1.635778e-09	-3.683488e+01	-1.121911e+02
3.500000e-07	-5.283483e-06	-1.691168e-09	-3.673927e+01	-1.120269e+02
3.600000e-07	-5.269435e-06	-1.721085e-09	-3.664158e+01	-1.118595e+02
3.700000e-07	-5.254848e-06	-1.685160e-09	-3.654015e+01	-1.116889e+02
3.800000e-07	-5.239686e-06	-1.644039e-09	-3.643472e+01	-1.115151e+02
3.900000e-07	-5.223999e-06	-1.720283e-09	-3.632564e+01	-1.113382e+02
4.000000e-07	-5.207806e-06	-1.677333e-09	-3.621303e+01	-1.111582e+02
4.100000e-07	-5.191120e-06	-1.609920e-09	-3.609701e+01	-1.109751e+02
4.200000e-07	-5.174072e-06	-1.679663e-09	-3.597847e+01	-1.107888e+02
4.300000e-07	-5.156785e-06	-1.743181e-09	-3.585826e+01	-1.105993e+02
4.400000e-07	-5.139172e-06	-1.615849e-09	-3.573578e+01	-1.104065e+02
4.500000e-07	-5.121283e-06	-1.615521e-09	-3.561139e+01	-1.102105e+02
4.600000e-07	-5.103058e-06	-1.738246e-09	-3.548466e+01	-1.100110e+02
4.700000e-07	-5.084359e-06	-1.670849e-09	-3.535464e+01	-1.098081e+02
4.800000e-07	-5.065139e-06	-1.566710e-09	-3.522099e+01	-1.096017e+02
4.900000e-07	-5.045618e-06	-1.681552e-09	-3.508525e+01	-1.093916e+02
5.000000e-07	-5.025960e-06	-1.696274e-09	-3.494855e+01	-1.091778e+02
5.100000e-07	-5.006045e-06	-1.561109e-09	-3.481007e+01	-1.089602e+02
5.200000e-07	-4.985915e-06	-1.623694e-09	-3.467009e+01	-1.087387e+02
5.300000e-07	-4.965440e-06	-1.712236e-09	-3.452772e+01	-1.085133e+02
5.400000e-07	-4.944493e-06	-1.587860e-09	-3.438206e+01	-1.082840e+02
5.500000e-07	-4.923219e-06	-1.569080e-09	-3.423414e+01	-1.080506e+02
5.600000e-07	-4.901701e-06	-1.705477e-09	-3.408450e+01	-1.078131e+02
5.700000e-07	-4.879908e-06	-1.638448e-09	-3.393296e+01	-1.075717e+02
5.800000e-07	-4.857760e-06	-1.549278e-09	-3.377895e+01	-1.073262e+02
5.900000e-07	-4.835226e-06	-1.641316e-09	-3.362227e+01	-1.070768e+02
6.000000e-07	-4.812297e-06	-1.649397e-09	-3.346282e+01	-1.068236e+02
6.100000e-07	-4.788927e-06	-1.538311e-09	-3.330031e+01	-1.065665e+02
6.200000e-07	-4.765338e-06	-1.586611e-09	-3.313629e+01	-1.063058e+02
6.300000e-07	-4.741579e-06	-1.632306e-09	-3.297108e+01	-1.060415e+02
6.400000e-07	-4.717527e-06	-1.565140e-09	-3.280383e+01	-1.057739e+02
6.500000e-07	-4.693247e-06	-1.565045e-09	-3.263499e+01	-1.055030e+02
6.600000e-07	-4.668742e-06	-1.623563e-09	-3.246460e+01	-1.052291e+02
6.700000e-07	-4.643837e-06	-1.569810e-09	-3.229142e+01	-1.049524e+02
6.800000e-07	-4.618355e-06	-1.544952e-09	-3.211423e+01	-1.046730e+02
6.900000e-07	-4.592283e-06	-1.579649e-09	-3.193293e+01	-1.043911e+02
7.000000e-07	-4.565609e-06	-1.563222e-09	-3.174745e+01	-1.041069e+02
7.100000e-07	-4.538514e-06	-1.527714e-09	-3.155904e+01	-1.038206e+02
7.200000e-07	-4.511162e-06	-1.561983e-09	-3.136885e+01	-1.035323e+02
7.300000e-07	-4.483525e-06	-1.563199e-09	-3.117667e+01	-1.032422e+02
7.400000e-07	-4.455678e-06	-1.533204e-09	-3.098304e+01	-1.029504e+02
7.500000e-07	-4.427619e-06	-1.532687e-09	-3.078792e+01	-1.026569e+02
7.600000e-07	-4.399318e-06	-1.537179e-09	-3.059113e+01	-1.023618e+02
7.700000e-07	-4.370766e-06	-1.516527e-09	-3.039259e+01	-1.020651e+02
7.800000e-07	-4.341914e-06	-1.518412e-09	-3.019196e+01	-1.017668e+02
7.900000e-07	-4.312707e-06	-1.522091e-09	-2.998887e+01	-1.014668e+02
8.000000e-07	-4.283147e-06	-1.504032e-09	-2.978332e+01	-1.011650e+02
8.100000e-07	-4.253315e-06	-1.499511e-09	-2.957589e+01	-1.008613e+02
8.200000e-07	-4.223264e-06	-1.506567e-09	-2.936692e+01	-1.005554e+02
8.300000e-07	-4.192953e-06	-1.490922e-09	-2.915615e+01	-1.002472e+02
8.400000e-07	-4.162302e-06	-1.475581e-09	-2.894301e+01	-9.993635e+01
8.500000e-07	-4.131332e-06	-1.487595e-09	-2.872766e+01	-9.962259e+01
8.600000e-07	-4.100060e-06	-1.482840e-09	-2.851021e+01	-9.930559e+01
8.700000e-07	-4.068472e-06	-1.467206e-09	-2.829056e+01	-9.898503e+01
8.800000e-07	-4.036711e-06	-1.466323e-09	-2.806970e+01	-9.866052e+01
8.900000e-07	-4.004845e-06	-1.465441e-09	-2.784812e+01	-9.833172e+01
9.000000e-07	-3.972836e-06	-1.440512e-09	-2.762554e+01	-9.799825e+01
9.100000e-07	-3.940649e-06	-1.437865e-09	-2.740173e+01	-9.765976e+01
9.200000e-07	-3.908109e-06	-1.444051e-09	-2.717546e+01	-9.731588e+01
9.300000e-07	-3.875107e-06	-1.431984e-09	-2.694597e+01	-9.696629e+01
9.400000e-07	-3.841734e-06	-1.418713e-09	-2.671391e+01	-9.661069e+01
9.500000e-07	-3.807954e-06	-1.424851e-09	-2.647902e+01	-9.624880e+01
9.600000e-07	-3.773655e-06	-1.411123e-09	-2.624052e+01	-9.588039e+01
9.700000e-07	-3.738910e-06	-1.390957e-09	-2.599891e+01	-9.550527e+01
9.800000e-07	-3.703788e-06	-1.387381e-09	-2.575469e+01	-9.512331e+01
9.900000e-07	-3.668322e-06	-1.388139e-09	-2.550807e+01	-9.473441e+01
1.000000e-06	-3.632639e-06	-1.372395e-09	-2.525994e+01	-9.433854e+01
1.010000e-06	-3.596880e-06	-1.368637e-09	-2.501129e+01	-9.393573e+01
1.020000e-06	-3.561039e-06	-1.369892e-09	-2.476207e+01	-9.352604e+01
1.030000e-06	-3.525049e-06	-1.357688e-09	-2.451181e+01	-9.310961e+01
1.040000e-06	-3.488889e-06	-1.343944e-09	-2.426036e+01	-9.268661e+01
1.050000e-06	-3.452483e-06	-1.345017e-09	-2.400721e+01	-9.225727e+01
1.060000e-06	-3.415796e-06	-1.337698e-09	-2.375210e+01	-9.182187e+01
1.070000e-06	-3.378844e-06	-1.324313e-09	-2.349515e+01	-9.138069e+01
1.080000e-06	-3.341702e-06	-1.318550e-09	-2.323688e+01	-9.093407e+01
1.090000e-06	-3.304330e-06	-1.311340e-09	-2.297701e+01	-9.048235e+01
1.100000e-06	-3.266627e-06	-1.295574e-09	-2.271485e+01	-9.002589e+01
1.110000e-06	-3.228641e-06	-1.286368e-09	-2.245070e+01	-8.956504e+01
1.120000e-06	-3.190446e-06	-1.282310e-09	-2.218511e+01	-8.910016e+01
1.130000e-06	-3.152022e-06	-1.269288e-09	-2.191793e+01	-8.863155e+01
1.140000e-06	-3.113425e-06	-1.259918e-09	-2.164954e+01	-8.815953e+01
1.150000e-06	-3.074659e-06	-1.259934e-09	-2.137997e+01	-8.768434e+01
1.160000e-06	-3.035581e-06	-1.256696e-09	-2.110824e+01	-8.720619e+01
1.170000e-06	-2.996322e-06	-1.242944e-09	-2.083525e+01	-8.672523e+01
1.180000e-06	-2.956906e-06	-1.232133e-09	-2.056117e+01	-8.624154e+01
1.190000e-06	-2.917295e-06	-1.221244e-09	-2.028572e+01	-8.575514e+01
1.200000e-06	-2.877576e-06	-1.210564e-09	-2.000953e+01	-8.526596e+01
1.210000e-06	-2.837732e-06	-1.201150e-09	-1.973247e+01	-8.477386e+01
1.220000e-06	-2.797728e-06	-1.195259e-09	-1.945430e+01	-8.427862e+01
1.230000e-06	-2.757578e-06	-1.185002e-09	-1.917512e+01	-8.377994e+01
1.240000e-06	-2.717358e-06	-1.175441e-09	-1.889544e+01	-8.327744e+01
1.250000e-06	-2.677059e-06	-1.167901e-09	-1.861521e+01	-8.277066e+01
1.260000e-06	-2.636549e-06	-1.162599e-09	-1.833353e+01	-8.225906e+01
1.270000e-06	-2.595753e-06	-1.156169e-09	-1.804985e+01	-8.174208e+01
1.280000e-06	-2.554702e-06	-1.149643e-09	-1.776439e+01	-8.121905e+01
1.290000e-06	-2.513390e-06	-1.141595e-09	-1.747713e+01	-8.068928e+01
1.300000e-06	-2.471717e-06	-1.131493e-09	-1.718735e+01	-8.015204e+01
1.310000e-06	-2.429730e-06	-1.117106e-09	-1.689539e+01	-7.960659e+01
1.320000e-06	-2.387477e-06	-1.105125e-09	-1.660158e+01	-7.905216e+01
1.330000e-06	-2.344922e-06	-1.094758e-09	-1.630567e+01	-7.848798e+01
1.340000e-06	-2.302123e-06	-1.086257e-09	-1.600806e+01	-7.791330e+01
1.350000e-06	-2.259013e-06	-1.080425e-09	-1.570829e+01	-7.732741e+01
1.360000e-06	-2.215619e-06	-1.077410e-09	-1.540654e+01	-7.672960e+01
1.370000e-06	-2.172054e-06	-1.071336e-09	-1.510361e+01	-7.611926e+01
1.380000e-06	-2.128404e-06	-1.060552e-09	-1.480009e+01	-7.549579e+01
1.390000e-06	-2.084718e-06	-1.045992e-09	-1.449631e+01	-7.485870e+01
1.400000e-06	-2.040937e-06	-1.029027e-09	-1.419187e+01	-7.420756e+01
1.410000e-06	-1.997095e-06	-1.013091e-09	-1.388701e+01	-7.354201e+01
1.420000e-06	-1.953175e-06	-1.001004e-09	-1.358161e+01	-7.286179e+01
1.430000e-06	-1.909164e-06	-9.897365e-10	-1.327558e+01	-7.216673e+01
1.440000e-06	-1.865099e-06	-9.786787e-10	-1.296917e+01	-7.145675e+01
1.450000e-06	-1.820968e-06	-9.695312e-10	-1.266230e+01	-7.073184e+01
1.460000e-06	-1.776735e-06	-9.603297e-10	-1.235472e+01	-6.999208e+01
1.470000e-06	-1.732427e-06	-9.492482e-10	-1.204661e+01	-6.923762e+01
1.480000e-06	-1.687992e-06	-9.356507e-10	-1.173763e+01	-6.846868e+01
1.490000e-06	-1.643398e-06	-9.239389e-10	-1.142754e+01	-6.768553e+01
1.500000e-06	-1.598626e-06	-9.105159e-10	-1.111622e+01	-6.688847e+01
1.510000e-06	-1.553596e-06	-8.940732e-10	-1.080309e+01	-6.607782e+01
1.520000e-06	-1.508383e-06	-8.783833e-10	-1.048870e+01	-6.525394e+01
1.530000e-06	-1.463153e-06	-8.654468e-10	-1.017419e+01	-6.441715e+01
1.540000e-06	-1.417955e-06	-8.525597e-10	-9.859899e+00	-6.356775e+01
1.550000e-06	-1.372675e-06	-8.418940e-10	-9.545042e+00	-6.270599e+01
1.560000e-06	-1.327207e-06	-8.291538e-10	-9.228874e+00	-6.183209e+01
1.570000e-06	-1.281606e-06	-8.131110e-10	-8.911786e+00	-6.094615e+01
1.580000e-06	-1.235919e-06	-7.966801e-10	-8.594094e+00	-6.004819e+01
1.590000e-06	-1.190144e-06	-7.822574e-10	-8.275793e+00	-5.913812e+01
1.600000e-06	-1.144283e-06	-7.667518e-10	-7.956898e+00	-5.821572e+01
1.610000e-06	-1.098307e-06	-7.504912e-10	-7.637192e+00	-5.728063e+01
1.620000e-06	-1.052298e-06	-7.342078e-10	-7.317266e+00	-5.633235e+01
1.630000e-06	-1.006238e-06	-7.199615e-10	-6.996987e+00	-5.537022e+01
1.640000e-06	-9.601279e-07	-7.078349e-10	-6.676353e+00	-5.439343e+01
1.650000e-06	-9.139352e-07	-6.978995e-10	-6.355147e+00	-5.340100e+01
1.660000e-06	-8.676587e-07	-6.879307e-10	-6.033358e+00	-5.239178e+01
1.670000e-06	-8.213674e-07	-6.755901e-10	-5.711467e+00	-5.136450e+01
1.680000e-06	-7.749538e-07	-6.588553e-10	-5.388724e+00	-5.031770e+01
1.690000e-06	-7.285298e-07	-6.373947e-10	-5.065910e+00	-4.924984e+01
1.700000e-06	-6.821181e-07	-6.162888e-10	-4.743182e+00	-4.815921e+01
1.710000e-06	-6.355940e-07	-5.939391e-10	-4.419671e+00	-4.704402e+01
1.720000e-06	-5.890753e-07	-5.706208e-10	-4.096198e+00	-4.590240e+01
1.730000e-06	-5.425574e-07	-5.499571e-10	-3.772731e+00	-4.473242e+01
1.740000e-06	-4.959580e-07	-5.320285e-10	-3.448697e+00	-4.353210e+01
1.750000e-06	-4.492754e-07	-5.167182e-10	-3.124085e+00	-4.229946e+01
1.760000e-06	-4.025402e-07	-4.992982e-10	-2.799107e+00	-4.103253e+01
1.770000e-06	-3.558594e-07	-4.782624e-10	-2.474506e+00	-3.972942e+01
1.780000e-06	-3.091740e-07	-4.546725e-10	-2.149875e+00	-3.838826e+01
1.790000e-06	-2.624294e-07	-4.314526e-10	-1.824831e+00	-3.700733e+01
1.800000e-06	-2.156456e-07	-4.110214e-10	-1.499515e+00	-3.558503e+01
1.810000e-06	-1.688189e-07	-3.921336e-10	-1.173900e+00	-3.411991e+01
1.820000e-06	-1.219625e-07	-3.741283e-10	-8.480794e-01	-3.261073e+01
1.830000e-06	-7.508484e-08	-3.548967e-10	-5.221105e-01	-3.105644e+01
1.840000e-06	-2.826975e-08	-3.345535e-10	-1.965768e-01	-2.945623e+01
1.850000e-06	1.846613e-08	-3.130430e-10	1.284062e-01	-2.780955e+01
1.860000e-06	6.520846e-08	-2.907921e-10	4.534340e-01	-2.611612e+01
1.870000e-06	1.119376e-07	-2.670069e-10	7.783704e-01	-2.437595e+01
1.880000e-06	1.586563e-07	-2.421275e-10	1.103234e+00	-2.258933e+01
1.890000e-06	2.054336e-07	-2.170305e-10	1.428505e+00	-2.075687e+01
1.900000e-06	2.522331e-07	-1.913910e-10	1.753930e+00	-1.887947e+01
1.910000e-06	2.990488e-07	-1.651004e-10	2.079468e+00	-1.695834e+01
1.920000e-06	3.458655e-07	-1.383298e-10	2.405013e+00	-1.499499e+01
1.930000e-06	3.925921e-07	-1.106570e-10	2.729931e+00	-1.299123e+01
1.940000e-06	4.392194e-07	-8.364083e-11	3.054159e+00	-1.094914e+01
1.950000e-06	4.858109e-07	-5.652664e-11	3.378138e+00	-8.871058e+00
1.960000e-06	5.323650e-07	-2.899176e-11	3.701857e+00	-6.759589e+00
1.970000e-06	5.788780e-07	-2.174686e-12	4.025290e+00	-4.617550e+00
1.980000e-06	6.253286e-07	2.549087e-11	4.348289e+00	-2.447962e+00
1.990000e-06	6.717265e-07	5.628893e-11	4.670923e+00	-2.540269e-01
2.000000e-06	7.180676e-07	8.796013e-11	4.993160e+00	1.960908e+00
2.010000e-06	7.643766e-07	1.192588e-10	5.315175e+00	4.193373e+00
2.020000e-06	8.106777e-07	1.512049e-10	5.637134e+00	6.439809e+00
2.030000e-06	8.569168e-07	1.845451e-10	5.958663e+00	8.696593e+00
2.040000e-06	9.030700e-07	2.178328e-10	6.279595e+00	1.096007e+01
2.050000e-06	9.491378e-07	2.494048e-10	6.599932e+00	1.322660e+01
2.060000e-06	9.951358e-07	2.797474e-10	6.919783e+00	1.549255e+01
2.070000e-06	1.041087e-06	3.099950e-10	7.239309e+00	1.775436e+01
2.080000e-06	1.087022e-06	3.402419e-10	7.558724e+00	2.000853e+01
2.090000e-06	1.132879e-06	3.693912e-10	7.877596e+00	2.225170e+01
2.100000e-06	1.178651e-06	3.988917e-10	8.195876e+00	2.448062e+01
2.110000e-06	1.224395e-06	4.294379e-10	8.513960e+00	2.669219e+01
2.120000e-06	1.270043e-06	4.612478e-10	8.831381e+00	2.888349e+01
2.130000e-06	1.315507e-06	4.931649e-10	9.147516e+00	3.105177e+01
2.140000e-06	1.360892e-06	5.236472e-10	9.463105e+00	3.319448e+01
2.150000e-06	1.406279e-06	5.517148e-10	9.778714e+00	3.530929e+01
2.160000e-06	1.451509e-06	5.774920e-10	1.009322e+01	3.739407e+01
2.170000e-06	1.496566e-06	6.020801e-10	1.040653e+01	3.944691e+01
2.180000e-06	1.541519e-06	6.282142e-10	1.071912e+01	4.146610e+01
2.190000e-06	1.586364e-06	6.564107e-10	1.103095e+01	4.345019e+01
2.200000e-06	1.631061e-06	6.860707e-10	1.134175e+01	4.539790e+01
2.210000e-06	1.675599e-06	7.166506e-10	1.165145e+01	4.730818e+01
2.220000e-06	1.720055e-06	7.468721e-10	1.196059e+01	4.918020e+01
2.230000e-06	1.764428e-06	7.747644e-10	1.226914e+01	5.101328e+01
2.240000e-06	1.808704e-06	7.988452e-10	1.257702e+01	5.280696e+01
2.250000e-06	1.852840e-06	8.177979e-10	1.288392e+01	5.456093e+01
2.260000e-06	1.896870e-06	8.342451e-10	1.319009e+01	5.627506e+01
2.270000e-06	1.940835e-06	8.527616e-10	1.349580e+01	5.794933e+01
2.280000e-06	1.984749e-06	8.741938e-10	1.380117e+01	5.958388e+01
2.290000e-06	2.028617e-06	8.976672e-10	1.410621e+01	6.117897e+01
2.300000e-06	2.072455e-06	9.223873e-10	1.441104e+01	6.273495e+01
2.310000e-06	2.116268e-06	9.468283e-10	1.471570e+01	6.425226e+01
2.320000e-06	2.159936e-06	9.684355e-10	1.501934e+01	6.573144e+01
2.330000e-06	2.203370e-06	9.860960e-10	1.532137e+01	6.717307e+01
2.340000e-06	2.246626e-06	1.001538e-09	1.562215e+01	6.857780e+01
2.350000e-06	2.289859e-06	1.017420e-09	1.592278e+01	6.994633e+01
2.360000e-06	2.332929e-06	1.034447e-09	1.622227e+01	7.127936e+01
2.370000e-06	2.375615e-06	1.052734e-09	1.651909e+01	7.257767e+01
2.380000e-06	2.417926e-06	1.072150e-09	1.681331e+01	7.384201e+01
2.390000e-06	2.459798e-06	1.091122e-09	1.710447e+01	7.507316e+01
2.400000e-06	2.501359e-06	1.108337e-09	1.739347e+01	7.627190e+01
2.410000e-06	2.542740e-06	1.125342e-09	1.768121e+01	7.743903e+01
2.420000e-06	2.583901e-06	1.141265e-09	1.796743e+01	7.857532e+01
2.430000e-06	2.624846e-06	1.154294e-09	1.825215e+01	7.968153e+01
2.440000e-06	2.665512e-06	1.167079e-09	1.853492e+01	8.075845e+01
2.450000e-06	2.705963e-06	1.181865e-09	1.881621e+01	8.180681e+01
2.460000e-06	2.746183e-06	1.197436e-09	1.909588e+01	8.282735e+01
2.470000e-06	2.786215e-06	1.213130e-09	1.937425e+01	8.382080e+01
2.480000e-06	2.826138e-06	1.227329e-09	1.965186e+01	8.478786e+01
2.490000e-06	2.865931e-06	1.239843e-09	1.992856e+01	8.572923e+01
2.500000e-06	2.905661e-06	1.249593e-09	2.020483e+01	8.664558e+01
2.510000e-06	2.945285e-06	1.259684e-09	2.048035e+01	8.753758e+01
2.520000e-06	2.984737e-06	1.271692e-09	2.075469e+01	8.840587e+01
2.530000e-06	3.023925e-06	1.284509e-09	2.102719e+01	8.925108e+01
2.540000e-06	3.062846e-06	1.299636e-09	2.129783e+01	9.007381e+01
2.550000e-06	3.101577e-06	1.313586e-09	2.156715e+01	9.087467e+01
2.560000e-06	3.140043e-06	1.323780e-09	2.183463e+01	9.165423e+01
2.570000e-06	3.178211e-06	1.329333e-09	2.210003e+01	9.241304e+01
2.580000e-06	3.216213e-06	1.334145e-09	2.236428e+01	9.315164e+01
2.590000e-06	3.254101e-06	1.338263e-09	2.262774e+01	9.387056e+01
2.600000e-06	3.291807e-06	1.344326e-09	2.288993e+01	9.457029e+01
2.610000e-06	3.329298e-06	1.356062e-09	2.315063e+01	9.525131e+01
2.620000e-06	3.366462e-06	1.371215e-09	2.340905e+01	9.591407e+01
2.630000e-06	3.403303e-06	1.384328e-09	2.366523e+01	9.655901e+01
2.640000e-06	3.439956e-06	1.394673e-09	2.392010e+01	9.718653e+01
2.650000e-06	3.476432e-06	1.403151e-09	2.417374e+01	9.779702e+01
2.660000e-06	3.512721e-06	1.407888e-09	2.442608e+01	9.839084e+01
2.670000e-06	3.548800e-06	1.409916e-09	2.467696e+01	9.896834e+01
2.680000e-06	3.584737e-06	1.412519e-09	2.492685e+01	9.952983e+01
2.690000e-06	3.620564e-06	1.418638e-09	2.517598e+01	1.000756e+02
2.700000e-06	3.656206e-06	1.429230e-09	2.542382e+01	1.006059e+02
2.710000e-06	3.691598e-06	1.440716e-09	2.566992e+01	1.011211e+02
2.720000e-06	3.726693e-06	1.449623e-09	2.591396e+01	1.016214e+02
2.730000e-06	3.761401e-06	1.455827e-09	2.615531e+01	1.021069e+02
2.740000e-06	3.795744e-06	1.459635e-09	2.639411e+01	1.025780e+02
2.750000e-06	3.829671e-06	1.461154e-09	2.663003e+01	1.030348e+02
2.760000e-06	3.863063e-06	1.462022e-09	2.686222e+01	1.034775e+02
2.770000e-06	3.896007e-06	1.466340e-09	2.709131e+01	1.039064e+02
2.780000e-06	3.928623e-06	1.474501e-09	2.731810e+01	1.043216e+02
2.790000e-06	3.960898e-06	1.485010e-09	2.754253e+01	1.047234e+02
2.800000e-06	3.992912e-06	1.496699e-09	2.776514e+01	1.051121e+02
2.810000e-06	4.024837e-06	1.507230e-09	2.798714e+01	1.054877e+02
2.820000e-06	4.056651e-06	1.512722e-09	2.820836e+01	1.058506e+02
2.830000e-06	4.088243e-06	1.515685e-09	2.842804e+01	1.062011e+02
2.840000e-06	4.119526e-06	1.518233e-09	2.864556e+01	1.065394e+02
2.850000e-06	4.150508e-06	1.520331e-09	2.886100e+01	1.068658e+02
2.860000e-06	4.181258e-06	1.524118e-09	2.907483e+01	1.071807e+02
2.870000e-06	4.211735e-06	1.531731e-09	2.928675e+01	1.074844e+02
2.880000e-06	4.241854e-06	1.539039e-09	2.949618e+01	1.077774e+02
2.890000e-06	4.271682e-06	1.543992e-09	2.970360e+01	1.080599e+02
2.900000e-06	4.301269e-06	1.549289e-09	2.990934e+01	1.083325e+02
