# Temperatura_=_-34.27
# Concentracion g/m^3_=_1620.0
# C_Vs_to_Am_M_A/Vsm_=_65563218390.804596
# pendiente_HvsI_1/m_=_3716.3
# ordenada_HvsI_A/m_=_1297.0
# frecuencia_Hz_=_135091.49365166045

Tiempo_(s)	Campo_(V.s)	Magnetizacion_(V.s)	Campo_(kA/m)	Magnetizacion_(A/m)
0.000000e+00	-5.500527e-06	-1.223931e-09	-3.836516e+01	-7.709053e+01
1.000000e-08	-5.500807e-06	-1.224551e-09	-3.836711e+01	-7.713327e+01
2.000000e-08	-5.500866e-06	-1.227627e-09	-3.836753e+01	-7.717720e+01
3.000000e-08	-5.500668e-06	-1.230163e-09	-3.836614e+01	-7.722176e+01
4.000000e-08	-5.499981e-06	-1.231080e-09	-3.836135e+01	-7.726630e+01
5.000000e-08	-5.498631e-06	-1.228807e-09	-3.835194e+01	-7.731011e+01
6.000000e-08	-5.496698e-06	-1.219466e-09	-3.833845e+01	-7.735243e+01
7.000000e-08	-5.494197e-06	-1.228717e-09	-3.832100e+01	-7.739251e+01
8.000000e-08	-5.491179e-06	-1.271600e-09	-3.829996e+01	-7.742953e+01
9.000000e-08	-5.487663e-06	-1.254388e-09	-3.827544e+01	-7.746273e+01
1.000000e-07	-5.483718e-06	-1.154244e-09	-3.824792e+01	-7.749135e+01
1.100000e-07	-5.479465e-06	-1.156813e-09	-3.821826e+01	-7.751466e+01
1.200000e-07	-5.474934e-06	-1.250809e-09	-3.818666e+01	-7.753202e+01
1.300000e-07	-5.470098e-06	-1.298731e-09	-3.815292e+01	-7.754283e+01
1.400000e-07	-5.464823e-06	-1.198086e-09	-3.811613e+01	-7.754661e+01
1.500000e-07	-5.459249e-06	-1.151090e-09	-3.807725e+01	-7.754296e+01
1.600000e-07	-5.453395e-06	-1.265090e-09	-3.803642e+01	-7.753161e+01
1.700000e-07	-5.447165e-06	-1.297716e-09	-3.799297e+01	-7.751240e+01
1.800000e-07	-5.440488e-06	-1.220937e-09	-3.794639e+01	-7.748530e+01
1.900000e-07	-5.433359e-06	-1.120691e-09	-3.789668e+01	-7.745042e+01
2.000000e-07	-5.426052e-06	-1.222899e-09	-3.784571e+01	-7.740800e+01
2.100000e-07	-5.418485e-06	-1.282663e-09	-3.779293e+01	-7.735841e+01
2.200000e-07	-5.410561e-06	-1.258773e-09	-3.773766e+01	-7.730215e+01
2.300000e-07	-5.402391e-06	-1.167368e-09	-3.768068e+01	-7.723982e+01
2.400000e-07	-5.393810e-06	-1.211584e-09	-3.762083e+01	-7.717215e+01
2.500000e-07	-5.384572e-06	-1.239360e-09	-3.755639e+01	-7.709996e+01
2.600000e-07	-5.374668e-06	-1.215104e-09	-3.748732e+01	-7.702415e+01
2.700000e-07	-5.364204e-06	-1.163853e-09	-3.741433e+01	-7.694566e+01
2.800000e-07	-5.353249e-06	-1.188477e-09	-3.733792e+01	-7.686552e+01
2.900000e-07	-5.341849e-06	-1.212794e-09	-3.725841e+01	-7.678474e+01
3.000000e-07	-5.330021e-06	-1.179350e-09	-3.717591e+01	-7.670436e+01
3.100000e-07	-5.317808e-06	-1.157505e-09	-3.709073e+01	-7.662540e+01
3.200000e-07	-5.305201e-06	-1.172473e-09	-3.700280e+01	-7.654884e+01
3.300000e-07	-5.292196e-06	-1.212892e-09	-3.691209e+01	-7.647561e+01
3.400000e-07	-5.278855e-06	-1.158320e-09	-3.681904e+01	-7.640655e+01
3.500000e-07	-5.265141e-06	-1.145598e-09	-3.672338e+01	-7.634243e+01
3.600000e-07	-5.251003e-06	-1.171081e-09	-3.662478e+01	-7.628389e+01
3.700000e-07	-5.236378e-06	-1.200565e-09	-3.652276e+01	-7.623147e+01
3.800000e-07	-5.221208e-06	-1.143542e-09	-3.641696e+01	-7.618556e+01
3.900000e-07	-5.205474e-06	-1.179828e-09	-3.630722e+01	-7.614642e+01
4.000000e-07	-5.189227e-06	-1.212030e-09	-3.619390e+01	-7.611418e+01
4.100000e-07	-5.172601e-06	-1.171457e-09	-3.607793e+01	-7.608881e+01
4.200000e-07	-5.155739e-06	-1.123822e-09	-3.596033e+01	-7.607012e+01
4.300000e-07	-5.138525e-06	-1.204923e-09	-3.584026e+01	-7.605781e+01
4.400000e-07	-5.120865e-06	-1.197341e-09	-3.571709e+01	-7.605143e+01
4.500000e-07	-5.102878e-06	-1.130991e-09	-3.559163e+01	-7.605041e+01
4.600000e-07	-5.084444e-06	-1.159182e-09	-3.546305e+01	-7.605408e+01
4.700000e-07	-5.065618e-06	-1.229139e-09	-3.533175e+01	-7.606166e+01
4.800000e-07	-5.046564e-06	-1.166648e-09	-3.519885e+01	-7.607231e+01
4.900000e-07	-5.027270e-06	-1.151441e-09	-3.506428e+01	-7.608510e+01
5.000000e-07	-5.007707e-06	-1.195759e-09	-3.492783e+01	-7.609910e+01
5.100000e-07	-4.987830e-06	-1.166482e-09	-3.478919e+01	-7.611334e+01
5.200000e-07	-4.967638e-06	-1.122883e-09	-3.464836e+01	-7.612685e+01
5.300000e-07	-4.947194e-06	-1.189555e-09	-3.450577e+01	-7.613869e+01
5.400000e-07	-4.926453e-06	-1.192595e-09	-3.436110e+01	-7.614796e+01
5.500000e-07	-4.905409e-06	-1.130271e-09	-3.421432e+01	-7.615382e+01
5.600000e-07	-4.884022e-06	-1.160153e-09	-3.406515e+01	-7.615551e+01
5.700000e-07	-4.862293e-06	-1.201545e-09	-3.391359e+01	-7.615237e+01
5.800000e-07	-4.840240e-06	-1.150240e-09	-3.375978e+01	-7.614384e+01
5.900000e-07	-4.817786e-06	-1.136508e-09	-3.360317e+01	-7.612946e+01
6.000000e-07	-4.794946e-06	-1.179601e-09	-3.344386e+01	-7.610894e+01
6.100000e-07	-4.771795e-06	-1.155363e-09	-3.328238e+01	-7.608208e+01
6.200000e-07	-4.748462e-06	-1.133942e-09	-3.311965e+01	-7.604882e+01
6.300000e-07	-4.724854e-06	-1.159852e-09	-3.295498e+01	-7.600923e+01
6.400000e-07	-4.700901e-06	-1.161997e-09	-3.278792e+01	-7.596353e+01
6.500000e-07	-4.676659e-06	-1.133932e-09	-3.261883e+01	-7.591202e+01
6.600000e-07	-4.652093e-06	-1.155779e-09	-3.244749e+01	-7.585513e+01
6.700000e-07	-4.627121e-06	-1.154792e-09	-3.227331e+01	-7.579339e+01
6.800000e-07	-4.601732e-06	-1.133972e-09	-3.209623e+01	-7.572739e+01
6.900000e-07	-4.575732e-06	-1.136446e-09	-3.191489e+01	-7.565782e+01
7.000000e-07	-4.549105e-06	-1.156228e-09	-3.172917e+01	-7.558537e+01
7.100000e-07	-4.522077e-06	-1.133998e-09	-3.154065e+01	-7.551081e+01
7.200000e-07	-4.494789e-06	-1.135109e-09	-3.135032e+01	-7.543488e+01
7.300000e-07	-4.467283e-06	-1.142952e-09	-3.115848e+01	-7.535832e+01
7.400000e-07	-4.439511e-06	-1.136733e-09	-3.096477e+01	-7.528186e+01
7.500000e-07	-4.411552e-06	-1.123488e-09	-3.076976e+01	-7.520616e+01
7.600000e-07	-4.383341e-06	-1.138262e-09	-3.057299e+01	-7.513184e+01
7.700000e-07	-4.354804e-06	-1.133675e-09	-3.037395e+01	-7.505941e+01
7.800000e-07	-4.325970e-06	-1.128674e-09	-3.017284e+01	-7.498931e+01
7.900000e-07	-4.296836e-06	-1.133657e-09	-2.996963e+01	-7.492188e+01
8.000000e-07	-4.267398e-06	-1.134724e-09	-2.976431e+01	-7.485735e+01
8.100000e-07	-4.237667e-06	-1.118672e-09	-2.955694e+01	-7.479582e+01
8.200000e-07	-4.207700e-06	-1.121732e-09	-2.934793e+01	-7.473728e+01
8.300000e-07	-4.177433e-06	-1.126234e-09	-2.913682e+01	-7.468162e+01
8.400000e-07	-4.146958e-06	-1.118971e-09	-2.892426e+01	-7.462858e+01
8.500000e-07	-4.116247e-06	-1.121241e-09	-2.871006e+01	-7.457783e+01
8.600000e-07	-4.085164e-06	-1.135154e-09	-2.849326e+01	-7.452892e+01
8.700000e-07	-4.053770e-06	-1.134536e-09	-2.827430e+01	-7.448132e+01
8.800000e-07	-4.022195e-06	-1.125670e-09	-2.805407e+01	-7.443442e+01
8.900000e-07	-3.990509e-06	-1.127136e-09	-2.783306e+01	-7.438755e+01
9.000000e-07	-3.958591e-06	-1.120806e-09	-2.761044e+01	-7.434001e+01
9.100000e-07	-3.926466e-06	-1.110997e-09	-2.738638e+01	-7.429106e+01
9.200000e-07	-3.894067e-06	-1.112051e-09	-2.716040e+01	-7.423996e+01
9.300000e-07	-3.861239e-06	-1.119095e-09	-2.693143e+01	-7.418600e+01
9.400000e-07	-3.827918e-06	-1.111471e-09	-2.669902e+01	-7.412846e+01
9.500000e-07	-3.794165e-06	-1.113187e-09	-2.646360e+01	-7.406670e+01
9.600000e-07	-3.760038e-06	-1.116961e-09	-2.622557e+01	-7.400013e+01
9.700000e-07	-3.725504e-06	-1.112851e-09	-2.598470e+01	-7.392824e+01
9.800000e-07	-3.690574e-06	-1.102257e-09	-2.574107e+01	-7.385061e+01
9.900000e-07	-3.655301e-06	-1.105676e-09	-2.549505e+01	-7.376690e+01
1.000000e-06	-3.619813e-06	-1.101667e-09	-2.524752e+01	-7.367691e+01
1.010000e-06	-3.584148e-06	-1.095380e-09	-2.499877e+01	-7.358053e+01
1.020000e-06	-3.548370e-06	-1.090940e-09	-2.474922e+01	-7.347777e+01
1.030000e-06	-3.512548e-06	-1.093385e-09	-2.449937e+01	-7.336874e+01
1.040000e-06	-3.476557e-06	-1.089090e-09	-2.424834e+01	-7.325369e+01
1.050000e-06	-3.440260e-06	-1.091533e-09	-2.399518e+01	-7.313294e+01
1.060000e-06	-3.403663e-06	-1.093814e-09	-2.373992e+01	-7.300692e+01
1.070000e-06	-3.366815e-06	-1.091394e-09	-2.348291e+01	-7.287614e+01
1.080000e-06	-3.329704e-06	-1.085577e-09	-2.322407e+01	-7.274116e+01
1.090000e-06	-3.292386e-06	-1.087228e-09	-2.296378e+01	-7.260262e+01
1.100000e-06	-3.254853e-06	-1.085337e-09	-2.270199e+01	-7.246119e+01
1.110000e-06	-3.217056e-06	-1.079280e-09	-2.243837e+01	-7.231752e+01
1.120000e-06	-3.179054e-06	-1.074360e-09	-2.217331e+01	-7.217232e+01
1.130000e-06	-3.140867e-06	-1.069767e-09	-2.190697e+01	-7.202622e+01
1.140000e-06	-3.102430e-06	-1.062866e-09	-2.163888e+01	-7.187985e+01
1.150000e-06	-3.063744e-06	-1.061469e-09	-2.136905e+01	-7.173376e+01
1.160000e-06	-3.024806e-06	-1.064617e-09	-2.109746e+01	-7.158844e+01
1.170000e-06	-2.985646e-06	-1.063255e-09	-2.082433e+01	-7.144428e+01
1.180000e-06	-2.946380e-06	-1.062893e-09	-2.055045e+01	-7.130158e+01
1.190000e-06	-2.906995e-06	-1.063420e-09	-2.027575e+01	-7.116052e+01
1.200000e-06	-2.867466e-06	-1.059080e-09	-2.000005e+01	-7.102115e+01
1.210000e-06	-2.827800e-06	-1.048237e-09	-1.972338e+01	-7.088340e+01
1.220000e-06	-2.787970e-06	-1.039444e-09	-1.944558e+01	-7.074707e+01
1.230000e-06	-2.747977e-06	-1.032690e-09	-1.916663e+01	-7.061184e+01
1.240000e-06	-2.707912e-06	-1.029594e-09	-1.888719e+01	-7.047725e+01
1.250000e-06	-2.667731e-06	-1.028129e-09	-1.860693e+01	-7.034272e+01
1.260000e-06	-2.627306e-06	-1.031692e-09	-1.832498e+01	-7.020756e+01
1.270000e-06	-2.586617e-06	-1.030700e-09	-1.804117e+01	-7.007098e+01
1.280000e-06	-2.545704e-06	-1.026056e-09	-1.775581e+01	-6.993211e+01
1.290000e-06	-2.504477e-06	-1.018551e-09	-1.746826e+01	-6.979001e+01
1.300000e-06	-2.462851e-06	-1.014073e-09	-1.717793e+01	-6.964368e+01
1.310000e-06	-2.420981e-06	-1.007501e-09	-1.688590e+01	-6.949208e+01
1.320000e-06	-2.378953e-06	-1.002108e-09	-1.659276e+01	-6.933417e+01
1.330000e-06	-2.336696e-06	-9.969287e-10	-1.629802e+01	-6.916890e+01
1.340000e-06	-2.294085e-06	-9.939214e-10	-1.600082e+01	-6.899527e+01
1.350000e-06	-2.251082e-06	-9.921868e-10	-1.570088e+01	-6.881229e+01
1.360000e-06	-2.207865e-06	-9.940127e-10	-1.539945e+01	-6.861906e+01
1.370000e-06	-2.164531e-06	-9.936697e-10	-1.509720e+01	-6.841475e+01
1.380000e-06	-2.121057e-06	-9.908937e-10	-1.479398e+01	-6.819861e+01
1.390000e-06	-2.077557e-06	-9.862436e-10	-1.449058e+01	-6.797002e+01
1.400000e-06	-2.033990e-06	-9.792665e-10	-1.418670e+01	-6.772846e+01
1.410000e-06	-1.990298e-06	-9.711054e-10	-1.388196e+01	-6.747355e+01
1.420000e-06	-1.946508e-06	-9.640683e-10	-1.357653e+01	-6.720502e+01
1.430000e-06	-1.902639e-06	-9.594403e-10	-1.327055e+01	-6.692274e+01
1.440000e-06	-1.858684e-06	-9.558879e-10	-1.296397e+01	-6.662670e+01
1.450000e-06	-1.814632e-06	-9.532295e-10	-1.265672e+01	-6.631703e+01
1.460000e-06	-1.770512e-06	-9.515664e-10	-1.234900e+01	-6.599397e+01
1.470000e-06	-1.726267e-06	-9.472416e-10	-1.204039e+01	-6.565785e+01
1.480000e-06	-1.681861e-06	-9.391477e-10	-1.173067e+01	-6.530911e+01
1.490000e-06	-1.637324e-06	-9.294411e-10	-1.142004e+01	-6.494825e+01
1.500000e-06	-1.592638e-06	-9.187181e-10	-1.110835e+01	-6.457586e+01
1.510000e-06	-1.547721e-06	-9.112806e-10	-1.079507e+01	-6.419252e+01
1.520000e-06	-1.502676e-06	-9.077381e-10	-1.048089e+01	-6.379888e+01
1.530000e-06	-1.457655e-06	-9.045194e-10	-1.016688e+01	-6.339555e+01
1.540000e-06	-1.412566e-06	-8.975981e-10	-9.852384e+00	-6.298314e+01
1.550000e-06	-1.367315e-06	-8.915560e-10	-9.536769e+00	-6.256219e+01
1.560000e-06	-1.322006e-06	-8.852232e-10	-9.220745e+00	-6.213320e+01
1.570000e-06	-1.276560e-06	-8.756323e-10	-8.903769e+00	-6.169657e+01
1.580000e-06	-1.230923e-06	-8.646394e-10	-8.585463e+00	-6.125260e+01
1.590000e-06	-1.185287e-06	-8.559826e-10	-8.267155e+00	-6.080145e+01
1.600000e-06	-1.139618e-06	-8.460434e-10	-7.948623e+00	-6.034317e+01
1.610000e-06	-1.093860e-06	-8.354280e-10	-7.629471e+00	-5.987766e+01
1.620000e-06	-1.048092e-06	-8.249548e-10	-7.310247e+00	-5.940463e+01
1.630000e-06	-1.002230e-06	-8.159639e-10	-6.990372e+00	-5.892368e+01
1.640000e-06	-9.562936e-07	-8.063006e-10	-6.669971e+00	-5.843419e+01
1.650000e-06	-9.103552e-07	-8.004138e-10	-6.349559e+00	-5.793541e+01
1.660000e-06	-8.642895e-07	-7.973445e-10	-6.028260e+00	-5.742643e+01
1.670000e-06	-8.181250e-07	-7.930567e-10	-5.706271e+00	-5.690615e+01
1.680000e-06	-7.718833e-07	-7.849039e-10	-5.383743e+00	-5.637335e+01
1.690000e-06	-7.256675e-07	-7.745246e-10	-5.061396e+00	-5.582668e+01
1.700000e-06	-6.794697e-07	-7.620916e-10	-4.739176e+00	-5.526466e+01
1.710000e-06	-6.331500e-07	-7.474095e-10	-4.416104e+00	-5.468571e+01
1.720000e-06	-5.867525e-07	-7.322856e-10	-4.092490e+00	-5.408815e+01
1.730000e-06	-5.403270e-07	-7.201809e-10	-3.768681e+00	-5.347028e+01
1.740000e-06	-4.939635e-07	-7.116015e-10	-3.445304e+00	-5.283031e+01
1.750000e-06	-4.474755e-07	-7.044763e-10	-3.121059e+00	-5.216648e+01
1.760000e-06	-4.008019e-07	-6.962175e-10	-2.795519e+00	-5.147700e+01
1.770000e-06	-3.541992e-07	-6.843349e-10	-2.470474e+00	-5.076013e+01
1.780000e-06	-3.076443e-07	-6.713531e-10	-2.145762e+00	-5.001417e+01
1.790000e-06	-2.610219e-07	-6.578582e-10	-1.820579e+00	-4.923751e+01
1.800000e-06	-2.143986e-07	-6.453105e-10	-1.495390e+00	-4.842863e+01
1.810000e-06	-1.677252e-07	-6.324250e-10	-1.169852e+00	-4.758612e+01
1.820000e-06	-1.210462e-07	-6.194509e-10	-8.442748e-01	-4.670870e+01
1.830000e-06	-7.440278e-08	-6.056607e-10	-5.189457e-01	-4.579525e+01
1.840000e-06	-2.773824e-08	-5.924976e-10	-1.934691e-01	-4.484483e+01
1.850000e-06	1.889684e-08	-5.786009e-10	1.318020e-01	-4.385663e+01
1.860000e-06	6.554137e-08	-5.651723e-10	4.571390e-01	-4.283006e+01
1.870000e-06	1.121495e-07	-5.519366e-10	7.822220e-01	-4.176471e+01
1.880000e-06	1.587613e-07	-5.365141e-10	1.107331e+00	-4.066036e+01
1.890000e-06	2.054132e-07	-5.190405e-10	1.432719e+00	-3.951698e+01
1.900000e-06	2.520609e-07	-5.005592e-10	1.758078e+00	-3.833476e+01
1.910000e-06	2.987058e-07	-4.810039e-10	2.083418e+00	-3.711404e+01
1.920000e-06	3.452795e-07	-4.622464e-10	2.408261e+00	-3.585537e+01
1.930000e-06	3.917675e-07	-4.446592e-10	2.732506e+00	-3.455948e+01
1.940000e-06	4.382908e-07	-4.274838e-10	3.056998e+00	-3.322725e+01
1.950000e-06	4.847994e-07	-4.109235e-10	3.381386e+00	-3.185974e+01
1.960000e-06	5.312041e-07	-3.939500e-10	3.705050e+00	-3.045813e+01
1.970000e-06	5.775664e-07	-3.754069e-10	4.028419e+00	-2.902374e+01
1.980000e-06	6.239090e-07	-3.556091e-10	4.351650e+00	-2.755804e+01
1.990000e-06	6.702092e-07	-3.342813e-10	4.674585e+00	-2.606256e+01
2.000000e-06	7.163856e-07	-3.120564e-10	4.996657e+00	-2.453894e+01
2.010000e-06	7.624690e-07	-2.914059e-10	5.318080e+00	-2.298891e+01
2.020000e-06	8.085558e-07	-2.695343e-10	5.639527e+00	-2.141425e+01
2.030000e-06	8.545728e-07	-2.443503e-10	5.960487e+00	-1.981680e+01
2.040000e-06	9.004967e-07	-2.189460e-10	6.280798e+00	-1.819843e+01
2.050000e-06	9.463748e-07	-1.967307e-10	6.600789e+00	-1.656105e+01
2.060000e-06	9.922023e-07	-1.766198e-10	6.920427e+00	-1.490657e+01
2.070000e-06	1.038026e-06	-1.576410e-10	7.240038e+00	-1.323694e+01
2.080000e-06	1.083816e-06	-1.383948e-10	7.559417e+00	-1.155408e+01
2.090000e-06	1.129496e-06	-1.157466e-10	7.878026e+00	-9.859915e+00
2.100000e-06	1.175078e-06	-8.964256e-11	8.195949e+00	-8.156354e+00
2.110000e-06	1.220546e-06	-6.281976e-11	8.513082e+00	-6.445291e+00
2.120000e-06	1.265957e-06	-3.795439e-11	8.829817e+00	-4.728596e+00
2.130000e-06	1.311342e-06	-1.410730e-11	9.146368e+00	-3.008113e+00
2.140000e-06	1.356595e-06	1.150187e-11	9.461998e+00	-1.285657e+00
2.150000e-06	1.401737e-06	3.510669e-11	9.776858e+00	4.369851e-01
2.160000e-06	1.446820e-06	5.597611e-11	1.009130e+01	2.158061e+00
2.170000e-06	1.491817e-06	7.498574e-11	1.040515e+01	3.875851e+00
2.180000e-06	1.536678e-06	9.466659e-11	1.071804e+01	5.588667e+00
2.190000e-06	1.581393e-06	1.182688e-10	1.102993e+01	7.294858e+00
2.200000e-06	1.625949e-06	1.445783e-10	1.134069e+01	8.992806e+00
2.210000e-06	1.670424e-06	1.722135e-10	1.165090e+01	1.068093e+01
2.220000e-06	1.714794e-06	1.999017e-10	1.196037e+01	1.235768e+01
2.230000e-06	1.758910e-06	2.267057e-10	1.226808e+01	1.402156e+01
2.240000e-06	1.802860e-06	2.494682e-10	1.257461e+01	1.567110e+01
2.250000e-06	1.846807e-06	2.677476e-10	1.288114e+01	1.730487e+01
2.260000e-06	1.890776e-06	2.844447e-10	1.318781e+01	1.892148e+01
2.270000e-06	1.934660e-06	3.033168e-10	1.349390e+01	2.051960e+01
2.280000e-06	1.978442e-06	3.244137e-10	1.379927e+01	2.209795e+01
2.290000e-06	2.022176e-06	3.458869e-10	1.410430e+01	2.365528e+01
2.300000e-06	2.065850e-06	3.709186e-10	1.440892e+01	2.519042e+01
2.310000e-06	2.109456e-06	3.980284e-10	1.471307e+01	2.670223e+01
2.320000e-06	2.152983e-06	4.210251e-10	1.501666e+01	2.818967e+01
2.330000e-06	2.196361e-06	4.391670e-10	1.531921e+01	2.965174e+01
2.340000e-06	2.239556e-06	4.545252e-10	1.562049e+01	3.108752e+01
2.350000e-06	2.282536e-06	4.695687e-10	1.592027e+01	3.249616e+01
2.360000e-06	2.325268e-06	4.863630e-10	1.621832e+01	3.387688e+01
2.370000e-06	2.367845e-06	5.046827e-10	1.651528e+01	3.522901e+01
2.380000e-06	2.410067e-06	5.242769e-10	1.680977e+01	3.655192e+01
2.390000e-06	2.451826e-06	5.447157e-10	1.710103e+01	3.784510e+01
2.400000e-06	2.493296e-06	5.640370e-10	1.739028e+01	3.910812e+01
2.410000e-06	2.534594e-06	5.806504e-10	1.767833e+01	4.034062e+01
2.420000e-06	2.575636e-06	5.955260e-10	1.796458e+01	4.154235e+01
2.430000e-06	2.616349e-06	6.113746e-10	1.824855e+01	4.271314e+01
2.440000e-06	2.656865e-06	6.295277e-10	1.853114e+01	4.385290e+01
2.450000e-06	2.697127e-06	6.485885e-10	1.881196e+01	4.496163e+01
2.460000e-06	2.737193e-06	6.669684e-10	1.909142e+01	4.603943e+01
2.470000e-06	2.777159e-06	6.832684e-10	1.937017e+01	4.708646e+01
2.480000e-06	2.816940e-06	6.959273e-10	1.964763e+01	4.810296e+01
2.490000e-06	2.856650e-06	7.073921e-10	1.992461e+01	4.908925e+01
2.500000e-06	2.896286e-06	7.188945e-10	2.020106e+01	5.004572e+01
2.510000e-06	2.935751e-06	7.314095e-10	2.047632e+01	5.097282e+01
2.520000e-06	2.975016e-06	7.458238e-10	2.075019e+01	5.187106e+01
2.530000e-06	3.014120e-06	7.612684e-10	2.102293e+01	5.274099e+01
2.540000e-06	3.053009e-06	7.769340e-10	2.129417e+01	5.358323e+01
2.550000e-06	3.091622e-06	7.892546e-10	2.156349e+01	5.439844e+01
2.560000e-06	3.130079e-06	7.970605e-10	2.183172e+01	5.518730e+01
2.570000e-06	3.168237e-06	8.033945e-10	2.209787e+01	5.595053e+01
2.580000e-06	3.206116e-06	8.104185e-10	2.236207e+01	5.668888e+01
2.590000e-06	3.243804e-06	8.187701e-10	2.262493e+01	5.740310e+01
2.600000e-06	3.281325e-06	8.280612e-10	2.288664e+01	5.809398e+01
2.610000e-06	3.318626e-06	8.396374e-10	2.314680e+01	5.876230e+01
2.620000e-06	3.355671e-06	8.524371e-10	2.340519e+01	5.940884e+01
2.630000e-06	3.392532e-06	8.649769e-10	2.366228e+01	6.003441e+01
2.640000e-06	3.429120e-06	8.762766e-10	2.391748e+01	6.063977e+01
2.650000e-06	3.465458e-06	8.847771e-10	2.417093e+01	6.122570e+01
2.660000e-06	3.501576e-06	8.905833e-10	2.442284e+01	6.179296e+01
2.670000e-06	3.537438e-06	8.939778e-10	2.467298e+01	6.234228e+01
2.680000e-06	3.573168e-06	8.970993e-10	2.492218e+01	6.287439e+01
2.690000e-06	3.608837e-06	9.034526e-10	2.517097e+01	6.338998e+01
2.700000e-06	3.644306e-06	9.140588e-10	2.541836e+01	6.388971e+01
2.710000e-06	3.679595e-06	9.242089e-10	2.566450e+01	6.437423e+01
2.720000e-06	3.714725e-06	9.315688e-10	2.590952e+01	6.484414e+01
2.730000e-06	3.749523e-06	9.373324e-10	2.615223e+01	6.530002e+01
2.740000e-06	3.783872e-06	9.415203e-10	2.639181e+01	6.574239e+01
2.750000e-06	3.817799e-06	9.441396e-10	2.662844e+01	6.617176e+01
2.760000e-06	3.851283e-06	9.491475e-10	2.686199e+01	6.658858e+01
2.770000e-06	3.884214e-06	9.571637e-10	2.709167e+01	6.699328e+01
2.780000e-06	3.916747e-06	9.645774e-10	2.731858e+01	6.738623e+01
2.790000e-06	3.949078e-06	9.714619e-10	2.754409e+01	6.776776e+01
2.800000e-06	3.981168e-06	9.785936e-10	2.776791e+01	6.813817e+01
2.810000e-06	4.012948e-06	9.848451e-10	2.798957e+01	6.849771e+01
2.820000e-06	4.044523e-06	9.893513e-10	2.820980e+01	6.884659e+01
2.830000e-06	4.075968e-06	9.943006e-10	2.842913e+01	6.918499e+01
2.840000e-06	4.107218e-06	1.001520e-09	2.864708e+01	6.951303e+01
2.850000e-06	4.138147e-06	1.007499e-09	2.886281e+01	6.983081e+01
2.860000e-06	4.168686e-06	1.012106e-09	2.907581e+01	7.013840e+01
2.870000e-06	4.198949e-06	1.017166e-09	2.928689e+01	7.043582e+01
2.880000e-06	4.228961e-06	1.021114e-09	2.949622e+01	7.072309e+01
2.890000e-06	4.258682e-06	1.023389e-09	2.970352e+01	7.100018e+01
2.900000e-06	4.288160e-06	1.026219e-09	2.990912e+01	7.126705e+01
