# Temperatura_=_-11.5
# Concentracion g/m^3_=_1620.0
# C_Vs_to_Am_M_A/Vsm_=_65563218390.804596
# pendiente_HvsI_1/m_=_3716.3
# ordenada_HvsI_A/m_=_1297.0
# frecuencia_Hz_=_135106.29907120438

Tiempo_(s)	Campo_(V.s)	Magnetizacion_(V.s)	Campo_(kA/m)	Magnetizacion_(A/m)
0.000000e+00	-5.517945e-06	-1.352398e-09	-3.836575e+01	-8.714613e+01
1.000000e-08	-5.518171e-06	-1.352063e-09	-3.836732e+01	-8.712340e+01
2.000000e-08	-5.518211e-06	-1.359290e-09	-3.836760e+01	-8.709986e+01
3.000000e-08	-5.517907e-06	-1.368112e-09	-3.836549e+01	-8.707509e+01
4.000000e-08	-5.517104e-06	-1.371109e-09	-3.835990e+01	-8.704864e+01
5.000000e-08	-5.515700e-06	-1.366392e-09	-3.835014e+01	-8.702008e+01
6.000000e-08	-5.513655e-06	-1.349948e-09	-3.833592e+01	-8.698902e+01
7.000000e-08	-5.511041e-06	-1.335023e-09	-3.831775e+01	-8.695505e+01
8.000000e-08	-5.507977e-06	-1.348381e-09	-3.829644e+01	-8.691780e+01
9.000000e-08	-5.504445e-06	-1.374328e-09	-3.827188e+01	-8.687697e+01
1.000000e-07	-5.500424e-06	-1.390229e-09	-3.824393e+01	-8.683224e+01
1.100000e-07	-5.495999e-06	-1.389715e-09	-3.821316e+01	-8.678338e+01
1.200000e-07	-5.491349e-06	-1.350979e-09	-3.818083e+01	-8.673020e+01
1.300000e-07	-5.486622e-06	-1.305881e-09	-3.814796e+01	-8.667253e+01
1.400000e-07	-5.481597e-06	-1.326740e-09	-3.811302e+01	-8.661029e+01
1.500000e-07	-5.476047e-06	-1.365302e-09	-3.807444e+01	-8.654344e+01
1.600000e-07	-5.470120e-06	-1.376169e-09	-3.803322e+01	-8.647196e+01
1.700000e-07	-5.463885e-06	-1.329427e-09	-3.798988e+01	-8.639594e+01
1.800000e-07	-5.457224e-06	-1.324916e-09	-3.794356e+01	-8.631545e+01
1.900000e-07	-5.450043e-06	-1.362608e-09	-3.789363e+01	-8.623067e+01
2.000000e-07	-5.442547e-06	-1.360620e-09	-3.784152e+01	-8.614176e+01
2.100000e-07	-5.434860e-06	-1.317662e-09	-3.778806e+01	-8.604895e+01
2.200000e-07	-5.426899e-06	-1.310142e-09	-3.773272e+01	-8.595249e+01
2.300000e-07	-5.418679e-06	-1.359899e-09	-3.767556e+01	-8.585267e+01
2.400000e-07	-5.410072e-06	-1.376234e-09	-3.761572e+01	-8.574978e+01
2.500000e-07	-5.400888e-06	-1.344988e-09	-3.755187e+01	-8.564413e+01
2.600000e-07	-5.391046e-06	-1.311150e-09	-3.748343e+01	-8.553605e+01
2.700000e-07	-5.380539e-06	-1.324990e-09	-3.741038e+01	-8.542585e+01
2.800000e-07	-5.369521e-06	-1.321445e-09	-3.733377e+01	-8.531386e+01
2.900000e-07	-5.358125e-06	-1.306772e-09	-3.725454e+01	-8.520039e+01
3.000000e-07	-5.346302e-06	-1.305192e-09	-3.717233e+01	-8.508574e+01
3.100000e-07	-5.334089e-06	-1.318468e-09	-3.708741e+01	-8.497021e+01
3.200000e-07	-5.321412e-06	-1.306432e-09	-3.699928e+01	-8.485406e+01
3.300000e-07	-5.308320e-06	-1.292977e-09	-3.690825e+01	-8.473755e+01
3.400000e-07	-5.294901e-06	-1.288382e-09	-3.681494e+01	-8.462089e+01
3.500000e-07	-5.281148e-06	-1.295772e-09	-3.671932e+01	-8.450429e+01
3.600000e-07	-5.266921e-06	-1.299428e-09	-3.662040e+01	-8.438793e+01
3.700000e-07	-5.252146e-06	-1.296410e-09	-3.651767e+01	-8.427196e+01
3.800000e-07	-5.236877e-06	-1.294703e-09	-3.641151e+01	-8.415651e+01
3.900000e-07	-5.221080e-06	-1.305957e-09	-3.630168e+01	-8.404168e+01
4.000000e-07	-5.204828e-06	-1.294926e-09	-3.618867e+01	-8.392756e+01
4.100000e-07	-5.188182e-06	-1.266050e-09	-3.607294e+01	-8.381421e+01
4.200000e-07	-5.171192e-06	-1.276851e-09	-3.595481e+01	-8.370168e+01
4.300000e-07	-5.153876e-06	-1.301035e-09	-3.583441e+01	-8.358999e+01
4.400000e-07	-5.136244e-06	-1.284586e-09	-3.571182e+01	-8.347918e+01
4.500000e-07	-5.118232e-06	-1.276694e-09	-3.558658e+01	-8.336924e+01
4.600000e-07	-5.099747e-06	-1.309217e-09	-3.545806e+01	-8.326017e+01
4.700000e-07	-5.080869e-06	-1.292754e-09	-3.532680e+01	-8.315198e+01
4.800000e-07	-5.061715e-06	-1.253912e-09	-3.519362e+01	-8.304466e+01
4.900000e-07	-5.042300e-06	-1.273480e-09	-3.505863e+01	-8.293819e+01
5.000000e-07	-5.022655e-06	-1.289174e-09	-3.492205e+01	-8.283256e+01
5.100000e-07	-5.002817e-06	-1.244575e-09	-3.478411e+01	-8.272777e+01
5.200000e-07	-4.982755e-06	-1.246940e-09	-3.464462e+01	-8.262381e+01
5.300000e-07	-4.962366e-06	-1.282841e-09	-3.450286e+01	-8.252068e+01
5.400000e-07	-4.941607e-06	-1.266455e-09	-3.435852e+01	-8.241836e+01
5.500000e-07	-4.920434e-06	-1.254530e-09	-3.421131e+01	-8.231685e+01
5.600000e-07	-4.898888e-06	-1.289362e-09	-3.406150e+01	-8.221615e+01
5.700000e-07	-4.877053e-06	-1.272990e-09	-3.390969e+01	-8.211624e+01
5.800000e-07	-4.854901e-06	-1.240503e-09	-3.375567e+01	-8.201712e+01
5.900000e-07	-4.832366e-06	-1.264744e-09	-3.359898e+01	-8.191876e+01
6.000000e-07	-4.809474e-06	-1.271415e-09	-3.343981e+01	-8.182113e+01
6.100000e-07	-4.786263e-06	-1.230557e-09	-3.327843e+01	-8.172420e+01
6.200000e-07	-4.762783e-06	-1.238069e-09	-3.311518e+01	-8.162791e+01
6.300000e-07	-4.739125e-06	-1.259798e-09	-3.295069e+01	-8.153219e+01
6.400000e-07	-4.715207e-06	-1.238229e-09	-3.278439e+01	-8.143696e+01
6.500000e-07	-4.690933e-06	-1.236074e-09	-3.261561e+01	-8.134210e+01
6.600000e-07	-4.666306e-06	-1.260379e-09	-3.244439e+01	-8.124748e+01
6.700000e-07	-4.641188e-06	-1.246373e-09	-3.226974e+01	-8.115296e+01
6.800000e-07	-4.615516e-06	-1.226497e-09	-3.209124e+01	-8.105836e+01
6.900000e-07	-4.589292e-06	-1.235756e-09	-3.190891e+01	-8.096348e+01
7.000000e-07	-4.562493e-06	-1.227608e-09	-3.172258e+01	-8.086809e+01
7.100000e-07	-4.535252e-06	-1.209660e-09	-3.153318e+01	-8.077195e+01
7.200000e-07	-4.507740e-06	-1.221086e-09	-3.134189e+01	-8.067480e+01
7.300000e-07	-4.480084e-06	-1.234972e-09	-3.114960e+01	-8.057634e+01
7.400000e-07	-4.452313e-06	-1.230066e-09	-3.095651e+01	-8.047628e+01
7.500000e-07	-4.424425e-06	-1.232802e-09	-3.076261e+01	-8.037431e+01
7.600000e-07	-4.396309e-06	-1.234358e-09	-3.056712e+01	-8.027010e+01
7.700000e-07	-4.367751e-06	-1.219325e-09	-3.036856e+01	-8.016333e+01
7.800000e-07	-4.338776e-06	-1.208629e-09	-3.016710e+01	-8.005367e+01
7.900000e-07	-4.309500e-06	-1.210880e-09	-2.996355e+01	-7.994080e+01
8.000000e-07	-4.279944e-06	-1.206579e-09	-2.975805e+01	-7.982441e+01
8.100000e-07	-4.250147e-06	-1.203182e-09	-2.955087e+01	-7.970420e+01
8.200000e-07	-4.220106e-06	-1.205461e-09	-2.934199e+01	-7.957990e+01
8.300000e-07	-4.189797e-06	-1.203508e-09	-2.913126e+01	-7.945125e+01
8.400000e-07	-4.159141e-06	-1.196099e-09	-2.891811e+01	-7.931804e+01
8.500000e-07	-4.128102e-06	-1.200415e-09	-2.870230e+01	-7.918009e+01
8.600000e-07	-4.096779e-06	-1.205628e-09	-2.848451e+01	-7.903724e+01
8.700000e-07	-4.065303e-06	-1.203531e-09	-2.826567e+01	-7.888940e+01
8.800000e-07	-4.033730e-06	-1.200817e-09	-2.804614e+01	-7.873650e+01
8.900000e-07	-4.002015e-06	-1.197383e-09	-2.782563e+01	-7.857853e+01
9.000000e-07	-3.970085e-06	-1.185169e-09	-2.760363e+01	-7.841552e+01
9.100000e-07	-3.937871e-06	-1.173461e-09	-2.737965e+01	-7.824757e+01
9.200000e-07	-3.905244e-06	-1.167186e-09	-2.715279e+01	-7.807479e+01
9.300000e-07	-3.872153e-06	-1.163978e-09	-2.692271e+01	-7.789737e+01
9.400000e-07	-3.838730e-06	-1.164822e-09	-2.669033e+01	-7.771552e+01
9.500000e-07	-3.804869e-06	-1.170495e-09	-2.645489e+01	-7.752950e+01
9.600000e-07	-3.770438e-06	-1.170470e-09	-2.621550e+01	-7.733961e+01
9.700000e-07	-3.735565e-06	-1.162662e-09	-2.597303e+01	-7.714618e+01
9.800000e-07	-3.700381e-06	-1.153889e-09	-2.572840e+01	-7.694956e+01
9.900000e-07	-3.664967e-06	-1.145062e-09	-2.548217e+01	-7.675011e+01
1.000000e-06	-3.629370e-06	-1.135805e-09	-2.523467e+01	-7.654822e+01
1.010000e-06	-3.593633e-06	-1.130242e-09	-2.498619e+01	-7.634427e+01
1.020000e-06	-3.557768e-06	-1.130647e-09	-2.473682e+01	-7.613865e+01
1.030000e-06	-3.521744e-06	-1.132116e-09	-2.448635e+01	-7.593173e+01
1.040000e-06	-3.485528e-06	-1.135878e-09	-2.423455e+01	-7.572385e+01
1.050000e-06	-3.449153e-06	-1.139881e-09	-2.398164e+01	-7.551533e+01
1.060000e-06	-3.412553e-06	-1.137518e-09	-2.372716e+01	-7.530648e+01
1.070000e-06	-3.375632e-06	-1.126878e-09	-2.347045e+01	-7.509752e+01
1.080000e-06	-3.338434e-06	-1.116428e-09	-2.321181e+01	-7.488867e+01
1.090000e-06	-3.300999e-06	-1.108497e-09	-2.295153e+01	-7.468005e+01
1.100000e-06	-3.263364e-06	-1.101233e-09	-2.268986e+01	-7.447175e+01
1.110000e-06	-3.225425e-06	-1.095703e-09	-2.242608e+01	-7.426377e+01
1.120000e-06	-3.187293e-06	-1.092343e-09	-2.216095e+01	-7.405608e+01
1.130000e-06	-3.148981e-06	-1.087719e-09	-2.189457e+01	-7.384853e+01
1.140000e-06	-3.110347e-06	-1.084301e-09	-2.162595e+01	-7.364094e+01
1.150000e-06	-3.071496e-06	-1.083816e-09	-2.135582e+01	-7.343303e+01
1.160000e-06	-3.032437e-06	-1.082824e-09	-2.108424e+01	-7.322445e+01
1.170000e-06	-2.993238e-06	-1.078056e-09	-2.081170e+01	-7.301480e+01
1.180000e-06	-2.953923e-06	-1.073930e-09	-2.053835e+01	-7.280359e+01
1.190000e-06	-2.914405e-06	-1.069482e-09	-2.026358e+01	-7.259029e+01
1.200000e-06	-2.874706e-06	-1.063210e-09	-1.998756e+01	-7.237430e+01
1.210000e-06	-2.834922e-06	-1.054855e-09	-1.971094e+01	-7.215498e+01
1.220000e-06	-2.795032e-06	-1.047633e-09	-1.943359e+01	-7.193163e+01
1.230000e-06	-2.755015e-06	-1.043192e-09	-1.915536e+01	-7.170354e+01
1.240000e-06	-2.714799e-06	-1.038930e-09	-1.887574e+01	-7.146996e+01
1.250000e-06	-2.674377e-06	-1.034268e-09	-1.859469e+01	-7.123013e+01
1.260000e-06	-2.633797e-06	-1.031511e-09	-1.831254e+01	-7.098330e+01
1.270000e-06	-2.592990e-06	-1.028961e-09	-1.802881e+01	-7.072869e+01
1.280000e-06	-2.551913e-06	-1.022257e-09	-1.774321e+01	-7.046558e+01
1.290000e-06	-2.510419e-06	-1.015405e-09	-1.745471e+01	-7.019323e+01
1.300000e-06	-2.468591e-06	-1.009152e-09	-1.716388e+01	-6.991098e+01
1.310000e-06	-2.426482e-06	-1.001426e-09	-1.687110e+01	-6.961819e+01
1.320000e-06	-2.384076e-06	-9.917788e-10	-1.657626e+01	-6.931426e+01
1.330000e-06	-2.341512e-06	-9.842159e-10	-1.628031e+01	-6.899868e+01
1.340000e-06	-2.298737e-06	-9.789228e-10	-1.598290e+01	-6.867100e+01
1.350000e-06	-2.255718e-06	-9.767020e-10	-1.568380e+01	-6.833083e+01
1.360000e-06	-2.212473e-06	-9.784264e-10	-1.538311e+01	-6.797788e+01
1.370000e-06	-2.169011e-06	-9.790736e-10	-1.508093e+01	-6.761192e+01
1.380000e-06	-2.125427e-06	-9.730006e-10	-1.477789e+01	-6.723282e+01
1.390000e-06	-2.081802e-06	-9.601139e-10	-1.447457e+01	-6.684053e+01
1.400000e-06	-2.038120e-06	-9.445279e-10	-1.417086e+01	-6.643507e+01
1.410000e-06	-1.994296e-06	-9.301316e-10	-1.386615e+01	-6.601655e+01
1.420000e-06	-1.950343e-06	-9.197600e-10	-1.356055e+01	-6.558517e+01
1.430000e-06	-1.906351e-06	-9.138291e-10	-1.325468e+01	-6.514118e+01
1.440000e-06	-1.862293e-06	-9.105152e-10	-1.294835e+01	-6.468489e+01
1.450000e-06	-1.818116e-06	-9.075305e-10	-1.264119e+01	-6.421668e+01
1.460000e-06	-1.773832e-06	-9.030810e-10	-1.233329e+01	-6.373697e+01
1.470000e-06	-1.729417e-06	-8.945999e-10	-1.202447e+01	-6.324620e+01
1.480000e-06	-1.684789e-06	-8.841781e-10	-1.171418e+01	-6.274486e+01
1.490000e-06	-1.639956e-06	-8.731018e-10	-1.140246e+01	-6.223341e+01
1.500000e-06	-1.595004e-06	-8.595001e-10	-1.108991e+01	-6.171233e+01
1.510000e-06	-1.549977e-06	-8.459930e-10	-1.077684e+01	-6.118209e+01
1.520000e-06	-1.504888e-06	-8.342348e-10	-1.046334e+01	-6.064310e+01
1.530000e-06	-1.459713e-06	-8.255732e-10	-1.014925e+01	-6.009574e+01
1.540000e-06	-1.414465e-06	-8.207355e-10	-9.834643e+00	-5.954032e+01
1.550000e-06	-1.369085e-06	-8.157816e-10	-9.519119e+00	-5.897709e+01
1.560000e-06	-1.323571e-06	-8.089991e-10	-9.202663e+00	-5.840620e+01
1.570000e-06	-1.277957e-06	-7.967314e-10	-8.885514e+00	-5.782770e+01
1.580000e-06	-1.232192e-06	-7.813673e-10	-8.567317e+00	-5.724153e+01
1.590000e-06	-1.186402e-06	-7.651012e-10	-8.248939e+00	-5.664751e+01
1.600000e-06	-1.140632e-06	-7.502094e-10	-7.930705e+00	-5.604533e+01
1.610000e-06	-1.094732e-06	-7.371348e-10	-7.611567e+00	-5.543456e+01
1.620000e-06	-1.048687e-06	-7.278817e-10	-7.291420e+00	-5.481460e+01
1.630000e-06	-1.002585e-06	-7.224338e-10	-6.970881e+00	-5.418473e+01
1.640000e-06	-9.564592e-07	-7.153800e-10	-6.650170e+00	-5.354409e+01
1.650000e-06	-9.103122e-07	-7.066564e-10	-6.329314e+00	-5.289165e+01
1.660000e-06	-8.641704e-07	-6.989579e-10	-6.008495e+00	-5.222627e+01
1.670000e-06	-8.179671e-07	-6.892816e-10	-5.687248e+00	-5.154666e+01
1.680000e-06	-7.716442e-07	-6.767615e-10	-5.365169e+00	-5.085141e+01
1.690000e-06	-7.252653e-07	-6.638035e-10	-5.042701e+00	-5.013900e+01
1.700000e-06	-6.788818e-07	-6.510748e-10	-4.720201e+00	-4.940779e+01
1.710000e-06	-6.324808e-07	-6.377541e-10	-4.397579e+00	-4.865607e+01
1.720000e-06	-5.859736e-07	-6.225901e-10	-4.074219e+00	-4.788205e+01
1.730000e-06	-5.393927e-07	-6.076990e-10	-3.750346e+00	-4.708387e+01
1.740000e-06	-4.927802e-07	-5.936033e-10	-3.426254e+00	-4.625965e+01
1.750000e-06	-4.461107e-07	-5.829098e-10	-3.101766e+00	-4.540748e+01
1.760000e-06	-3.993716e-07	-5.709523e-10	-2.776793e+00	-4.452546e+01
1.770000e-06	-3.525725e-07	-5.551726e-10	-2.451403e+00	-4.361172e+01
1.780000e-06	-3.057967e-07	-5.392545e-10	-2.126176e+00	-4.266442e+01
1.790000e-06	-2.590689e-07	-5.254807e-10	-1.801282e+00	-4.168180e+01
1.800000e-06	-2.123121e-07	-5.118785e-10	-1.476186e+00	-4.066219e+01
1.810000e-06	-1.654780e-07	-4.958397e-10	-1.150553e+00	-3.960403e+01
1.820000e-06	-1.185664e-07	-4.786805e-10	-8.243811e-01	-3.850590e+01
1.830000e-06	-7.163660e-08	-4.623093e-10	-4.980825e-01	-3.736654e+01
1.840000e-06	-2.476754e-08	-4.463239e-10	-1.722064e-01	-3.618483e+01
1.850000e-06	2.207432e-08	-4.323260e-10	1.534807e-01	-3.495988e+01
1.860000e-06	6.889623e-08	-4.198954e-10	4.790290e-01	-3.369098e+01
1.870000e-06	1.157679e-07	-4.077015e-10	8.049236e-01	-3.237765e+01
1.880000e-06	1.626450e-07	-3.923768e-10	1.130855e+00	-3.101963e+01
1.890000e-06	2.094661e-07	-3.713188e-10	1.456398e+00	-2.961690e+01
1.900000e-06	2.563020e-07	-3.445815e-10	1.782043e+00	-2.816969e+01
1.910000e-06	3.031125e-07	-3.161618e-10	2.107512e+00	-2.667848e+01
1.920000e-06	3.498650e-07	-2.892972e-10	2.432578e+00	-2.514400e+01
1.930000e-06	3.966142e-07	-2.662713e-10	2.757621e+00	-2.356721e+01
1.940000e-06	4.433606e-07	-2.477417e-10	3.082644e+00	-2.194934e+01
1.950000e-06	4.900164e-07	-2.315634e-10	3.407038e+00	-2.029184e+01
1.960000e-06	5.366213e-07	-2.143179e-10	3.731077e+00	-1.859640e+01
1.970000e-06	5.832192e-07	-1.925546e-10	4.055068e+00	-1.686491e+01
1.980000e-06	6.298056e-07	-1.673931e-10	4.378978e+00	-1.509947e+01
1.990000e-06	6.763055e-07	-1.381550e-10	4.702288e+00	-1.330239e+01
2.000000e-06	7.226824e-07	-1.059986e-10	5.024742e+00	-1.147612e+01
2.010000e-06	7.690306e-07	-7.540845e-11	5.346997e+00	-9.623274e+00
2.020000e-06	8.154109e-07	-4.739063e-11	5.669475e+00	-7.746591e+00
2.030000e-06	8.617151e-07	-2.058806e-11	5.991423e+00	-5.848924e+00
2.040000e-06	9.079394e-07	3.917553e-12	6.312816e+00	-3.933213e+00
2.050000e-06	9.541238e-07	2.582229e-11	6.633933e+00	-2.002459e+00
2.060000e-06	1.000211e-06	4.842362e-11	6.954373e+00	-5.970849e-02
2.070000e-06	1.046139e-06	7.376758e-11	7.273705e+00	1.891975e+00
2.080000e-06	1.091978e-06	1.015566e-10	7.592423e+00	3.849529e+00
2.090000e-06	1.137784e-06	1.325153e-10	7.910901e+00	5.809916e+00
2.100000e-06	1.183534e-06	1.654267e-10	8.229000e+00	7.770143e+00
2.110000e-06	1.229205e-06	1.971048e-10	8.546549e+00	9.727280e+00
2.120000e-06	1.274723e-06	2.229449e-10	8.863027e+00	1.167848e+01
2.130000e-06	1.320149e-06	2.462322e-10	9.178871e+00	1.362099e+01
2.140000e-06	1.365547e-06	2.700880e-10	9.494518e+00	1.555216e+01
2.150000e-06	1.410898e-06	2.936254e-10	9.809839e+00	1.746950e+01
2.160000e-06	1.456128e-06	3.177237e-10	1.012432e+01	1.937061e+01
2.170000e-06	1.501141e-06	3.418470e-10	1.043729e+01	2.125326e+01
2.180000e-06	1.546027e-06	3.680177e-10	1.074938e+01	2.311536e+01
2.190000e-06	1.590850e-06	3.959023e-10	1.106103e+01	2.495499e+01
2.200000e-06	1.635585e-06	4.243834e-10	1.137207e+01	2.677037e+01
2.210000e-06	1.680186e-06	4.538420e-10	1.168218e+01	2.855988e+01
2.220000e-06	1.724542e-06	4.817153e-10	1.199058e+01	3.032207e+01
2.230000e-06	1.768817e-06	5.064982e-10	1.229842e+01	3.205564e+01
2.240000e-06	1.813073e-06	5.276459e-10	1.260613e+01	3.375943e+01
2.250000e-06	1.857177e-06	5.448512e-10	1.291278e+01	3.543243e+01
2.260000e-06	1.901194e-06	5.616831e-10	1.321882e+01	3.707379e+01
2.270000e-06	1.945169e-06	5.818181e-10	1.352458e+01	3.868276e+01
2.280000e-06	1.989058e-06	6.027879e-10	1.382973e+01	4.025874e+01
2.290000e-06	2.032861e-06	6.241468e-10	1.413429e+01	4.180122e+01
2.300000e-06	2.076594e-06	6.483693e-10	1.443836e+01	4.330981e+01
2.310000e-06	2.120235e-06	6.731691e-10	1.474179e+01	4.478424e+01
2.320000e-06	2.163794e-06	6.953640e-10	1.504465e+01	4.622428e+01
2.330000e-06	2.207317e-06	7.134069e-10	1.534727e+01	4.762982e+01
2.340000e-06	2.250742e-06	7.277951e-10	1.564920e+01	4.900081e+01
2.350000e-06	2.293932e-06	7.411010e-10	1.594949e+01	5.033726e+01
2.360000e-06	2.336803e-06	7.553453e-10	1.624757e+01	5.163925e+01
2.370000e-06	2.379426e-06	7.721046e-10	1.654392e+01	5.290690e+01
2.380000e-06	2.421840e-06	7.914299e-10	1.683882e+01	5.414038e+01
2.390000e-06	2.463983e-06	8.113891e-10	1.713184e+01	5.533991e+01
2.400000e-06	2.505779e-06	8.299022e-10	1.742245e+01	5.650574e+01
2.410000e-06	2.547234e-06	8.462836e-10	1.771068e+01	5.763816e+01
2.420000e-06	2.588421e-06	8.597451e-10	1.799705e+01	5.873750e+01
2.430000e-06	2.629359e-06	8.712780e-10	1.828169e+01	5.980411e+01
2.440000e-06	2.669933e-06	8.831884e-10	1.856379e+01	6.083838e+01
2.450000e-06	2.710283e-06	8.946649e-10	1.884434e+01	6.184075e+01
2.460000e-06	2.750518e-06	9.073195e-10	1.912409e+01	6.281166e+01
2.470000e-06	2.790570e-06	9.224402e-10	1.940257e+01	6.375161e+01
2.480000e-06	2.830491e-06	9.388269e-10	1.968014e+01	6.466112e+01
2.490000e-06	2.870266e-06	9.534226e-10	1.995669e+01	6.554076e+01
2.500000e-06	2.909941e-06	9.651955e-10	2.023255e+01	6.639113e+01
2.510000e-06	2.949509e-06	9.780565e-10	2.050766e+01	6.721286e+01
2.520000e-06	2.988903e-06	9.912007e-10	2.078156e+01	6.800662e+01
2.530000e-06	3.028092e-06	1.003652e-09	2.105404e+01	6.877312e+01
2.540000e-06	3.067047e-06	1.016830e-09	2.132489e+01	6.951312e+01
2.550000e-06	3.105724e-06	1.027834e-09	2.159381e+01	7.022738e+01
2.560000e-06	3.144114e-06	1.034940e-09	2.186072e+01	7.091673e+01
2.570000e-06	3.182271e-06	1.039767e-09	2.212603e+01	7.158201e+01
2.580000e-06	3.220250e-06	1.045393e-09	2.239009e+01	7.222408e+01
2.590000e-06	3.258045e-06	1.052344e-09	2.265288e+01	7.284383e+01
2.600000e-06	3.295651e-06	1.062386e-09	2.291435e+01	7.344218e+01
2.610000e-06	3.333058e-06	1.075937e-09	2.317444e+01	7.402002e+01
2.620000e-06	3.370232e-06	1.089826e-09	2.343291e+01	7.457828e+01
2.630000e-06	3.407176e-06	1.102414e-09	2.368977e+01	7.511788e+01
2.640000e-06	3.443866e-06	1.111907e-09	2.394488e+01	7.563972e+01
2.650000e-06	3.480234e-06	1.117644e-09	2.419774e+01	7.614468e+01
2.660000e-06	3.516344e-06	1.120379e-09	2.444880e+01	7.663363e+01
2.670000e-06	3.552306e-06	1.121051e-09	2.469885e+01	7.710740e+01
2.680000e-06	3.588151e-06	1.122558e-09	2.494808e+01	7.756676e+01
2.690000e-06	3.623886e-06	1.129469e-09	2.519653e+01	7.801248e+01
2.700000e-06	3.659520e-06	1.139817e-09	2.544429e+01	7.844523e+01
2.710000e-06	3.694989e-06	1.149796e-09	2.569091e+01	7.886564e+01
2.720000e-06	3.730162e-06	1.156223e-09	2.593546e+01	7.927428e+01
2.730000e-06	3.764992e-06	1.158256e-09	2.617763e+01	7.967165e+01
2.740000e-06	3.799404e-06	1.158923e-09	2.641690e+01	8.005819e+01
2.750000e-06	3.833364e-06	1.159693e-09	2.665302e+01	8.043425e+01
2.760000e-06	3.866924e-06	1.163452e-09	2.688636e+01	8.080011e+01
2.770000e-06	3.899995e-06	1.168458e-09	2.711630e+01	8.115601e+01
2.780000e-06	3.932567e-06	1.174966e-09	2.734276e+01	8.150209e+01
2.790000e-06	3.964841e-06	1.182657e-09	2.756717e+01	8.183843e+01
2.800000e-06	3.996919e-06	1.190139e-09	2.779020e+01	8.216506e+01
2.810000e-06	4.028772e-06	1.196068e-09	2.801167e+01	8.248196e+01
2.820000e-06	4.060436e-06	1.199847e-09	2.823183e+01	8.278905e+01
2.830000e-06	4.091993e-06	1.204169e-09	2.845124e+01	8.308622e+01
2.840000e-06	4.123353e-06	1.209046e-09	2.866928e+01	8.337331e+01
2.850000e-06	4.154360e-06	1.211385e-09	2.888487e+01	8.365016e+01
2.860000e-06	4.185007e-06	1.214342e-09	2.909796e+01	8.391660e+01
2.870000e-06	4.215336e-06	1.219654e-09	2.930883e+01	8.417243e+01
2.880000e-06	4.245338e-06	1.224860e-09	2.951743e+01	8.441748e+01
2.890000e-06	4.275094e-06	1.229440e-09	2.972432e+01	8.465159e+01
2.900000e-06	4.304593e-06	1.234628e-09	2.992943e+01	8.487462e+01
