# Temperatura_=_10.95
# Concentracion g/m^3_=_1620.0
# C_Vs_to_Am_M_A/Vsm_=_65563218390.804596
# pendiente_HvsI_1/m_=_3716.3
# ordenada_HvsI_A/m_=_1297.0
# frecuencia_Hz_=_135107.9751639505

Tiempo_(s)	Campo_(V.s)	Magnetizacion_(V.s)	Campo_(kA/m)	Magnetizacion_(A/m)
0.000000e+00	-5.531332e-06	-1.684844e-09	-3.837011e+01	-1.107846e+02
1.000000e-08	-5.531407e-06	-1.685982e-09	-3.837063e+01	-1.107438e+02
2.000000e-08	-5.531210e-06	-1.689726e-09	-3.836926e+01	-1.107033e+02
3.000000e-08	-5.530546e-06	-1.690920e-09	-3.836465e+01	-1.106630e+02
4.000000e-08	-5.529314e-06	-1.687939e-09	-3.835610e+01	-1.106228e+02
5.000000e-08	-5.527530e-06	-1.679934e-09	-3.834373e+01	-1.105825e+02
6.000000e-08	-5.525241e-06	-1.670723e-09	-3.832785e+01	-1.105420e+02
7.000000e-08	-5.522417e-06	-1.679151e-09	-3.830826e+01	-1.105011e+02
8.000000e-08	-5.519028e-06	-1.709206e-09	-3.828475e+01	-1.104594e+02
9.000000e-08	-5.515117e-06	-1.717513e-09	-3.825762e+01	-1.104167e+02
1.000000e-07	-5.510841e-06	-1.699307e-09	-3.822796e+01	-1.103726e+02
1.100000e-07	-5.506363e-06	-1.704617e-09	-3.819690e+01	-1.103268e+02
1.200000e-07	-5.501629e-06	-1.680590e-09	-3.816406e+01	-1.102789e+02
1.300000e-07	-5.496550e-06	-1.658246e-09	-3.812883e+01	-1.102285e+02
1.400000e-07	-5.491116e-06	-1.664798e-09	-3.809113e+01	-1.101752e+02
1.500000e-07	-5.485306e-06	-1.701866e-09	-3.805083e+01	-1.101187e+02
1.600000e-07	-5.479176e-06	-1.726052e-09	-3.800831e+01	-1.100585e+02
1.700000e-07	-5.472589e-06	-1.642136e-09	-3.796261e+01	-1.099943e+02
1.800000e-07	-5.465540e-06	-1.627646e-09	-3.791371e+01	-1.099257e+02
1.900000e-07	-5.458220e-06	-1.656312e-09	-3.786293e+01	-1.098524e+02
2.000000e-07	-5.450591e-06	-1.711146e-09	-3.781002e+01	-1.097740e+02
2.100000e-07	-5.442644e-06	-1.680016e-09	-3.775489e+01	-1.096903e+02
2.200000e-07	-5.434400e-06	-1.676648e-09	-3.769770e+01	-1.096010e+02
2.300000e-07	-5.425831e-06	-1.698852e-09	-3.763826e+01	-1.095060e+02
2.400000e-07	-5.416834e-06	-1.713667e-09	-3.757585e+01	-1.094050e+02
2.500000e-07	-5.407181e-06	-1.678588e-09	-3.750889e+01	-1.092980e+02
2.600000e-07	-5.396793e-06	-1.658770e-09	-3.743683e+01	-1.091849e+02
2.700000e-07	-5.385778e-06	-1.677915e-09	-3.736042e+01	-1.090656e+02
2.800000e-07	-5.374391e-06	-1.693375e-09	-3.728143e+01	-1.089402e+02
2.900000e-07	-5.362690e-06	-1.683088e-09	-3.720026e+01	-1.088087e+02
3.000000e-07	-5.350592e-06	-1.660109e-09	-3.711634e+01	-1.086712e+02
3.100000e-07	-5.338053e-06	-1.675693e-09	-3.702935e+01	-1.085280e+02
3.200000e-07	-5.325064e-06	-1.667680e-09	-3.693925e+01	-1.083791e+02
3.300000e-07	-5.311783e-06	-1.650052e-09	-3.684712e+01	-1.082248e+02
3.400000e-07	-5.298154e-06	-1.617475e-09	-3.675258e+01	-1.080653e+02
3.500000e-07	-5.284078e-06	-1.652223e-09	-3.665494e+01	-1.079008e+02
3.600000e-07	-5.269478e-06	-1.670456e-09	-3.655365e+01	-1.077317e+02
3.700000e-07	-5.254315e-06	-1.656340e-09	-3.644847e+01	-1.075582e+02
3.800000e-07	-5.238604e-06	-1.629981e-09	-3.633949e+01	-1.073806e+02
3.900000e-07	-5.222432e-06	-1.656093e-09	-3.622730e+01	-1.071992e+02
4.000000e-07	-5.205866e-06	-1.634109e-09	-3.611239e+01	-1.070142e+02
4.100000e-07	-5.188911e-06	-1.610266e-09	-3.599477e+01	-1.068260e+02
4.200000e-07	-5.171694e-06	-1.636165e-09	-3.587535e+01	-1.066348e+02
4.300000e-07	-5.154267e-06	-1.666401e-09	-3.575446e+01	-1.064407e+02
4.400000e-07	-5.136485e-06	-1.616310e-09	-3.563110e+01	-1.062441e+02
4.500000e-07	-5.118186e-06	-1.622845e-09	-3.550417e+01	-1.060450e+02
4.600000e-07	-5.099338e-06	-1.664815e-09	-3.537342e+01	-1.058436e+02
4.700000e-07	-5.080147e-06	-1.633730e-09	-3.524029e+01	-1.056400e+02
4.800000e-07	-5.060710e-06	-1.595450e-09	-3.510546e+01	-1.054344e+02
4.900000e-07	-5.041058e-06	-1.642042e-09	-3.496914e+01	-1.052267e+02
5.000000e-07	-5.021199e-06	-1.632638e-09	-3.483138e+01	-1.050169e+02
5.100000e-07	-5.001124e-06	-1.576708e-09	-3.469213e+01	-1.048051e+02
5.200000e-07	-4.980758e-06	-1.613187e-09	-3.455085e+01	-1.045912e+02
5.300000e-07	-4.959994e-06	-1.648433e-09	-3.440681e+01	-1.043751e+02
5.400000e-07	-4.938812e-06	-1.587776e-09	-3.425987e+01	-1.041568e+02
5.500000e-07	-4.917236e-06	-1.582131e-09	-3.411020e+01	-1.039362e+02
5.600000e-07	-4.895391e-06	-1.637553e-09	-3.395867e+01	-1.037131e+02
5.700000e-07	-4.873249e-06	-1.600199e-09	-3.380507e+01	-1.034875e+02
5.800000e-07	-4.850724e-06	-1.563602e-09	-3.364882e+01	-1.032591e+02
5.900000e-07	-4.827815e-06	-1.604380e-09	-3.348990e+01	-1.030280e+02
6.000000e-07	-4.804579e-06	-1.600525e-09	-3.332872e+01	-1.027940e+02
6.100000e-07	-4.781074e-06	-1.548613e-09	-3.316567e+01	-1.025569e+02
6.200000e-07	-4.757349e-06	-1.572942e-09	-3.300109e+01	-1.023168e+02
6.300000e-07	-4.733431e-06	-1.588214e-09	-3.283517e+01	-1.020735e+02
6.400000e-07	-4.709167e-06	-1.556182e-09	-3.266685e+01	-1.018270e+02
6.500000e-07	-4.684512e-06	-1.554190e-09	-3.249583e+01	-1.015773e+02
6.600000e-07	-4.659503e-06	-1.575894e-09	-3.232234e+01	-1.013243e+02
6.700000e-07	-4.633897e-06	-1.545639e-09	-3.214472e+01	-1.010681e+02
6.800000e-07	-4.607636e-06	-1.533583e-09	-3.196255e+01	-1.008087e+02
6.900000e-07	-4.580866e-06	-1.545061e-09	-3.177685e+01	-1.005461e+02
7.000000e-07	-4.553659e-06	-1.536613e-09	-3.158812e+01	-1.002804e+02
7.100000e-07	-4.526132e-06	-1.518410e-09	-3.139717e+01	-1.000117e+02
7.200000e-07	-4.498425e-06	-1.533734e-09	-3.120497e+01	-9.974009e+01
7.300000e-07	-4.470558e-06	-1.533087e-09	-3.101166e+01	-9.946565e+01
7.400000e-07	-4.442482e-06	-1.515883e-09	-3.081690e+01	-9.918847e+01
7.500000e-07	-4.414150e-06	-1.508281e-09	-3.062037e+01	-9.890865e+01
7.600000e-07	-4.385573e-06	-1.510241e-09	-3.042213e+01	-9.862625e+01
7.700000e-07	-4.356711e-06	-1.497922e-09	-3.022191e+01	-9.834136e+01
7.800000e-07	-4.327525e-06	-1.492026e-09	-3.001946e+01	-9.805400e+01
7.900000e-07	-4.298027e-06	-1.490861e-09	-2.981483e+01	-9.776421e+01
8.000000e-07	-4.268201e-06	-1.480465e-09	-2.960793e+01	-9.747198e+01
8.100000e-07	-4.238114e-06	-1.469178e-09	-2.939923e+01	-9.717727e+01
8.200000e-07	-4.207758e-06	-1.466906e-09	-2.918865e+01	-9.688002e+01
8.300000e-07	-4.177019e-06	-1.460206e-09	-2.897542e+01	-9.658012e+01
8.400000e-07	-4.145963e-06	-1.453083e-09	-2.875998e+01	-9.627744e+01
8.500000e-07	-4.114683e-06	-1.459440e-09	-2.854300e+01	-9.597179e+01
8.600000e-07	-4.083209e-06	-1.456834e-09	-2.832467e+01	-9.566297e+01
8.700000e-07	-4.051558e-06	-1.441915e-09	-2.810511e+01	-9.535074e+01
8.800000e-07	-4.019781e-06	-1.431925e-09	-2.788468e+01	-9.503483e+01
8.900000e-07	-3.987863e-06	-1.426007e-09	-2.766327e+01	-9.471495e+01
9.000000e-07	-3.955711e-06	-1.409099e-09	-2.744023e+01	-9.439079e+01
9.100000e-07	-3.923211e-06	-1.404721e-09	-2.721478e+01	-9.406201e+01
9.200000e-07	-3.890292e-06	-1.406882e-09	-2.698643e+01	-9.372829e+01
9.300000e-07	-3.856903e-06	-1.402303e-09	-2.675482e+01	-9.338930e+01
9.400000e-07	-3.823005e-06	-1.393040e-09	-2.651967e+01	-9.304472e+01
9.500000e-07	-3.788711e-06	-1.391268e-09	-2.628178e+01	-9.269423e+01
9.600000e-07	-3.753965e-06	-1.377508e-09	-2.604075e+01	-9.233756e+01
9.700000e-07	-3.718727e-06	-1.361508e-09	-2.579631e+01	-9.197444e+01
9.800000e-07	-3.683229e-06	-1.355775e-09	-2.555006e+01	-9.160467e+01
9.900000e-07	-3.647620e-06	-1.354839e-09	-2.530305e+01	-9.122807e+01
1.000000e-06	-3.611897e-06	-1.346490e-09	-2.505524e+01	-9.084452e+01
1.010000e-06	-3.576025e-06	-1.343106e-09	-2.480641e+01	-9.045395e+01
1.020000e-06	-3.539973e-06	-1.338762e-09	-2.455632e+01	-9.005635e+01
1.030000e-06	-3.503718e-06	-1.328791e-09	-2.430482e+01	-8.965177e+01
1.040000e-06	-3.467220e-06	-1.320084e-09	-2.405164e+01	-8.924032e+01
1.050000e-06	-3.430450e-06	-1.319931e-09	-2.379657e+01	-8.882216e+01
1.060000e-06	-3.393461e-06	-1.311650e-09	-2.353998e+01	-8.839752e+01
1.070000e-06	-3.356312e-06	-1.299508e-09	-2.328228e+01	-8.796667e+01
1.080000e-06	-3.318923e-06	-1.293856e-09	-2.302292e+01	-8.752994e+01
1.090000e-06	-3.281168e-06	-1.287089e-09	-2.276102e+01	-8.708770e+01
1.100000e-06	-3.243132e-06	-1.274545e-09	-2.249717e+01	-8.664035e+01
1.110000e-06	-3.204993e-06	-1.264949e-09	-2.223260e+01	-8.618831e+01
1.120000e-06	-3.166730e-06	-1.255386e-09	-2.196718e+01	-8.573202e+01
1.130000e-06	-3.128218e-06	-1.240622e-09	-2.170002e+01	-8.527192e+01
1.140000e-06	-3.089444e-06	-1.232509e-09	-2.143106e+01	-8.480844e+01
1.150000e-06	-3.050477e-06	-1.232498e-09	-2.116075e+01	-8.434200e+01
1.160000e-06	-3.011274e-06	-1.230992e-09	-2.088880e+01	-8.387297e+01
1.170000e-06	-2.971905e-06	-1.224343e-09	-2.061571e+01	-8.340170e+01
1.180000e-06	-2.932442e-06	-1.218743e-09	-2.034195e+01	-8.292846e+01
1.190000e-06	-2.892788e-06	-1.207394e-09	-2.006688e+01	-8.245347e+01
1.200000e-06	-2.852950e-06	-1.189859e-09	-1.979053e+01	-8.197688e+01
1.210000e-06	-2.812997e-06	-1.175038e-09	-1.951338e+01	-8.149873e+01
1.220000e-06	-2.772933e-06	-1.167407e-09	-1.923546e+01	-8.101901e+01
1.230000e-06	-2.732667e-06	-1.159340e-09	-1.895615e+01	-8.053759e+01
1.240000e-06	-2.692216e-06	-1.154667e-09	-1.867554e+01	-8.005425e+01
1.250000e-06	-2.651649e-06	-1.151704e-09	-1.839413e+01	-7.956865e+01
1.260000e-06	-2.610768e-06	-1.146737e-09	-1.811055e+01	-7.908040e+01
1.270000e-06	-2.569503e-06	-1.134956e-09	-1.782430e+01	-7.858896e+01
1.280000e-06	-2.527878e-06	-1.121827e-09	-1.753555e+01	-7.809375e+01
1.290000e-06	-2.485995e-06	-1.107163e-09	-1.724501e+01	-7.759406e+01
1.300000e-06	-2.443928e-06	-1.092226e-09	-1.695320e+01	-7.708914e+01
1.310000e-06	-2.401599e-06	-1.083274e-09	-1.665957e+01	-7.657816e+01
1.320000e-06	-2.358907e-06	-1.079732e-09	-1.636342e+01	-7.606024e+01
1.330000e-06	-2.315807e-06	-1.074513e-09	-1.606444e+01	-7.553446e+01
1.340000e-06	-2.272522e-06	-1.066330e-09	-1.576418e+01	-7.499989e+01
1.350000e-06	-2.229094e-06	-1.056793e-09	-1.546293e+01	-7.445556e+01
1.360000e-06	-2.185481e-06	-1.046074e-09	-1.516039e+01	-7.390053e+01
1.370000e-06	-2.141737e-06	-1.033040e-09	-1.485694e+01	-7.333387e+01
1.380000e-06	-2.097905e-06	-1.021979e-09	-1.455288e+01	-7.275470e+01
1.390000e-06	-2.054032e-06	-1.012070e-09	-1.424855e+01	-7.216216e+01
1.400000e-06	-2.010175e-06	-1.003052e-09	-1.394431e+01	-7.155549e+01
1.410000e-06	-1.966316e-06	-9.942598e-10	-1.364007e+01	-7.093397e+01
1.420000e-06	-1.922362e-06	-9.836651e-10	-1.333516e+01	-7.029700e+01
1.430000e-06	-1.878232e-06	-9.705798e-10	-1.302904e+01	-6.964404e+01
1.440000e-06	-1.833965e-06	-9.559262e-10	-1.272197e+01	-6.897468e+01
1.450000e-06	-1.789612e-06	-9.412177e-10	-1.241430e+01	-6.828858e+01
1.460000e-06	-1.745037e-06	-9.284704e-10	-1.210508e+01	-6.758554e+01
1.470000e-06	-1.700350e-06	-9.184870e-10	-1.179510e+01	-6.686544e+01
1.480000e-06	-1.655657e-06	-9.095107e-10	-1.148507e+01	-6.612826e+01
1.490000e-06	-1.610817e-06	-8.996976e-10	-1.117402e+01	-6.537408e+01
1.500000e-06	-1.565796e-06	-8.855195e-10	-1.086172e+01	-6.460307e+01
1.510000e-06	-1.520607e-06	-8.700280e-10	-1.054825e+01	-6.381545e+01
1.520000e-06	-1.475265e-06	-8.532554e-10	-1.023372e+01	-6.301152e+01
1.530000e-06	-1.429856e-06	-8.370699e-10	-9.918718e+00	-6.219160e+01
1.540000e-06	-1.384401e-06	-8.251874e-10	-9.603404e+00	-6.135605e+01
1.550000e-06	-1.338802e-06	-8.178305e-10	-9.287090e+00	-6.050523e+01
1.560000e-06	-1.293125e-06	-8.089920e-10	-8.970237e+00	-5.963949e+01
1.570000e-06	-1.247440e-06	-7.970189e-10	-8.653321e+00	-5.875913e+01
1.580000e-06	-1.201705e-06	-7.830031e-10	-8.336066e+00	-5.786442e+01
1.590000e-06	-1.155829e-06	-7.661726e-10	-8.017831e+00	-5.695553e+01
1.600000e-06	-1.109820e-06	-7.469828e-10	-7.698671e+00	-5.603256e+01
1.610000e-06	-1.063727e-06	-7.304881e-10	-7.378932e+00	-5.509549e+01
1.620000e-06	-1.017517e-06	-7.159245e-10	-7.058379e+00	-5.414416e+01
1.630000e-06	-9.712632e-07	-7.023960e-10	-6.737522e+00	-5.317829e+01
1.640000e-06	-9.250021e-07	-6.909022e-10	-6.416615e+00	-5.219743e+01
1.650000e-06	-8.786608e-07	-6.802534e-10	-6.095152e+00	-5.120100e+01
1.660000e-06	-8.323202e-07	-6.681242e-10	-5.773693e+00	-5.018822e+01
1.670000e-06	-7.859718e-07	-6.525358e-10	-5.452181e+00	-4.915818e+01
1.680000e-06	-7.394817e-07	-6.330143e-10	-5.129685e+00	-4.810976e+01
1.690000e-06	-6.929013e-07	-6.115708e-10	-4.806563e+00	-4.704173e+01
1.700000e-06	-6.463678e-07	-5.893527e-10	-4.483766e+00	-4.595268e+01
1.710000e-06	-5.998689e-07	-5.686218e-10	-4.161210e+00	-4.484108e+01
1.720000e-06	-5.533148e-07	-5.510595e-10	-3.838270e+00	-4.370525e+01
1.730000e-06	-5.066392e-07	-5.379685e-10	-3.514488e+00	-4.254346e+01
1.740000e-06	-4.598242e-07	-5.264283e-10	-3.189738e+00	-4.135385e+01
1.750000e-06	-4.129406e-07	-5.111419e-10	-2.864513e+00	-4.013454e+01
1.760000e-06	-3.660519e-07	-4.905585e-10	-2.539253e+00	-3.888362e+01
1.770000e-06	-3.191679e-07	-4.659860e-10	-2.214024e+00	-3.759917e+01
1.780000e-06	-2.722397e-07	-4.415763e-10	-1.888490e+00	-3.627932e+01
1.790000e-06	-2.253086e-07	-4.195539e-10	-1.562936e+00	-3.492226e+01
1.800000e-06	-1.784272e-07	-4.006433e-10	-1.237726e+00	-3.352629e+01
1.810000e-06	-1.315777e-07	-3.834720e-10	-9.127366e-01	-3.208982e+01
1.820000e-06	-8.464430e-08	-3.666751e-10	-5.871661e-01	-3.061144e+01
1.830000e-06	-3.768572e-08	-3.475766e-10	-2.614208e-01	-2.908993e+01
1.840000e-06	9.176120e-09	-3.253752e-10	6.365351e-02	-2.752428e+01
1.850000e-06	5.607147e-08	-3.017146e-10	3.889602e-01	-2.591375e+01
1.860000e-06	1.030137e-07	-2.789435e-10	7.145923e-01	-2.425783e+01
1.870000e-06	1.499304e-07	-2.565640e-10	1.040047e+00	-2.255634e+01
1.880000e-06	1.967939e-07	-2.337094e-10	1.365133e+00	-2.080937e+01
1.890000e-06	2.436326e-07	-2.084292e-10	1.690046e+00	-1.901735e+01
1.900000e-06	2.904816e-07	-1.815446e-10	2.015032e+00	-1.718102e+01
1.910000e-06	3.373669e-07	-1.552603e-10	2.340268e+00	-1.530146e+01
1.920000e-06	3.842736e-07	-1.288905e-10	2.665654e+00	-1.338005e+01
1.930000e-06	4.310737e-07	-1.016566e-10	2.990300e+00	-1.141854e+01
1.940000e-06	4.778366e-07	-7.389958e-11	3.314688e+00	-9.418940e+00
1.950000e-06	5.245445e-07	-4.574976e-11	3.638694e+00	-7.383589e+00
1.960000e-06	5.711327e-07	-1.744334e-11	3.961870e+00	-5.315096e+00
1.970000e-06	6.176615e-07	1.141275e-11	4.284635e+00	-3.216330e+00
1.980000e-06	6.641386e-07	4.072007e-11	4.607040e+00	-1.090394e+00
1.990000e-06	7.105923e-07	7.038264e-11	4.929283e+00	1.059404e+00
2.000000e-06	7.570510e-07	1.002572e-10	5.251561e+00	3.229583e+00
2.010000e-06	8.034902e-07	1.306577e-10	5.573703e+00	5.416516e+00
2.020000e-06	8.498550e-07	1.639305e-10	5.895329e+00	7.616472e+00
2.030000e-06	8.961536e-07	1.968946e-10	6.216497e+00	9.825643e+00
2.040000e-06	9.423995e-07	2.262640e-10	6.537298e+00	1.204019e+01
2.050000e-06	9.885514e-07	2.533393e-10	6.857448e+00	1.425625e+01
2.060000e-06	1.034593e-06	2.805151e-10	7.176833e+00	1.647004e+01
2.070000e-06	1.080600e-06	3.085034e-10	7.495977e+00	1.867778e+01
2.080000e-06	1.126567e-06	3.381957e-10	7.814845e+00	2.087585e+01
2.090000e-06	1.172492e-06	3.717075e-10	8.133418e+00	2.306072e+01
2.100000e-06	1.218304e-06	4.059838e-10	8.451210e+00	2.522902e+01
2.110000e-06	1.263967e-06	4.378523e-10	8.767966e+00	2.737757e+01
2.120000e-06	1.309518e-06	4.686253e-10	9.083948e+00	2.950339e+01
2.130000e-06	1.355029e-06	4.985604e-10	9.399652e+00	3.160372e+01
2.140000e-06	1.400512e-06	5.263610e-10	9.715166e+00	3.367604e+01
2.150000e-06	1.445894e-06	5.517348e-10	1.002997e+01	3.571806e+01
2.160000e-06	1.491181e-06	5.757759e-10	1.034412e+01	3.772776e+01
2.170000e-06	1.536335e-06	6.011840e-10	1.065735e+01	3.970336e+01
2.180000e-06	1.581295e-06	6.287154e-10	1.096923e+01	4.164337e+01
2.190000e-06	1.626094e-06	6.587496e-10	1.128000e+01	4.354652e+01
2.200000e-06	1.670787e-06	6.894430e-10	1.159003e+01	4.541179e+01
2.210000e-06	1.715400e-06	7.182448e-10	1.189950e+01	4.723843e+01
2.220000e-06	1.759972e-06	7.446177e-10	1.220869e+01	4.902589e+01
2.230000e-06	1.804415e-06	7.671859e-10	1.251698e+01	5.077383e+01
2.240000e-06	1.848644e-06	7.864262e-10	1.282380e+01	5.248212e+01
2.250000e-06	1.892744e-06	8.040396e-10	1.312971e+01	5.415081e+01
2.260000e-06	1.936779e-06	8.226538e-10	1.343518e+01	5.578011e+01
2.270000e-06	1.980738e-06	8.411417e-10	1.374011e+01	5.737035e+01
2.280000e-06	2.024658e-06	8.602890e-10	1.404478e+01	5.892202e+01
2.290000e-06	2.068533e-06	8.818293e-10	1.434913e+01	6.043569e+01
2.300000e-06	2.112330e-06	9.061473e-10	1.465295e+01	6.191200e+01
2.310000e-06	2.156027e-06	9.289239e-10	1.495607e+01	6.335167e+01
2.320000e-06	2.199616e-06	9.477128e-10	1.525844e+01	6.475547e+01
2.330000e-06	2.243104e-06	9.633547e-10	1.556011e+01	6.612420e+01
2.340000e-06	2.286432e-06	9.765386e-10	1.586067e+01	6.745865e+01
2.350000e-06	2.329524e-06	9.901697e-10	1.615959e+01	6.875965e+01
2.360000e-06	2.372397e-06	1.004124e-09	1.645700e+01	7.002799e+01
2.370000e-06	2.415120e-06	1.021323e-09	1.675336e+01	7.126445e+01
2.380000e-06	2.457536e-06	1.041709e-09	1.704760e+01	7.246980e+01
2.390000e-06	2.499523e-06	1.062058e-09	1.733885e+01	7.364474e+01
2.400000e-06	2.541158e-06	1.079497e-09	1.762767e+01	7.478996e+01
2.410000e-06	2.582540e-06	1.094576e-09	1.791473e+01	7.590612e+01
2.420000e-06	2.623618e-06	1.108700e-09	1.819968e+01	7.699381e+01
2.430000e-06	2.664358e-06	1.121763e-09	1.848229e+01	7.805361e+01
2.440000e-06	2.704883e-06	1.134889e-09	1.876341e+01	7.908605e+01
2.450000e-06	2.745272e-06	1.148926e-09	1.904358e+01	8.009164e+01
2.460000e-06	2.785521e-06	1.164333e-09	1.932278e+01	8.107083e+01
2.470000e-06	2.825557e-06	1.179739e-09	1.960051e+01	8.202409e+01
2.480000e-06	2.865427e-06	1.192461e-09	1.987708e+01	8.295184e+01
2.490000e-06	2.905187e-06	1.203072e-09	2.015289e+01	8.385451e+01
2.500000e-06	2.944797e-06	1.213277e-09	2.042766e+01	8.473251e+01
2.510000e-06	2.984272e-06	1.225274e-09	2.070149e+01	8.558626e+01
2.520000e-06	3.023599e-06	1.237315e-09	2.097430e+01	8.641617e+01
2.530000e-06	3.062745e-06	1.250521e-09	2.124585e+01	8.722268e+01
2.540000e-06	3.101657e-06	1.265686e-09	2.151577e+01	8.800622e+01
2.550000e-06	3.140244e-06	1.276890e-09	2.178345e+01	8.876726e+01
2.560000e-06	3.178564e-06	1.282883e-09	2.204927e+01	8.950627e+01
2.570000e-06	3.216674e-06	1.287097e-09	2.231363e+01	9.022376e+01
2.580000e-06	3.254625e-06	1.292997e-09	2.257690e+01	9.092025e+01
2.590000e-06	3.292434e-06	1.301956e-09	2.283917e+01	9.159627e+01
2.600000e-06	3.330021e-06	1.314245e-09	2.309991e+01	9.225239e+01
2.610000e-06	3.367352e-06	1.328869e-09	2.335887e+01	9.288919e+01
2.620000e-06	3.404422e-06	1.344365e-09	2.361602e+01	9.350726e+01
2.630000e-06	3.441181e-06	1.356028e-09	2.387101e+01	9.410720e+01
2.640000e-06	3.477732e-06	1.363669e-09	2.412456e+01	9.468962e+01
2.650000e-06	3.514090e-06	1.368228e-09	2.437677e+01	9.525513e+01
2.660000e-06	3.550195e-06	1.370706e-09	2.462722e+01	9.580434e+01
2.670000e-06	3.586156e-06	1.374262e-09	2.487668e+01	9.633784e+01
2.680000e-06	3.622023e-06	1.380815e-09	2.512548e+01	9.685623e+01
2.690000e-06	3.657733e-06	1.390493e-09	2.537320e+01	9.736006e+01
2.700000e-06	3.693220e-06	1.401358e-09	2.561937e+01	9.784988e+01
2.710000e-06	3.728458e-06	1.408606e-09	2.586381e+01	9.832620e+01
2.720000e-06	3.763374e-06	1.412943e-09	2.610602e+01	9.878951e+01
2.730000e-06	3.797940e-06	1.417338e-09	2.634580e+01	9.924025e+01
2.740000e-06	3.832131e-06	1.421477e-09	2.658297e+01	9.967883e+01
2.750000e-06	3.865929e-06	1.425465e-09	2.681743e+01	1.001056e+02
2.760000e-06	3.899238e-06	1.431626e-09	2.704849e+01	1.005210e+02
2.770000e-06	3.932028e-06	1.440432e-09	2.727595e+01	1.009252e+02
2.780000e-06	3.964505e-06	1.450428e-09	2.750123e+01	1.013185e+02
2.790000e-06	3.996715e-06	1.459836e-09	2.772467e+01	1.017010e+02
2.800000e-06	4.028687e-06	1.466997e-09	2.794646e+01	1.020731e+02
2.810000e-06	4.060519e-06	1.471606e-09	2.816727e+01	1.024348e+02
2.820000e-06	4.092213e-06	1.476251e-09	2.838713e+01	1.027863e+02
2.830000e-06	4.123700e-06	1.482189e-09	2.860555e+01	1.031276e+02
2.840000e-06	4.154894e-06	1.487245e-09	2.882194e+01	1.034589e+02
2.850000e-06	4.185829e-06	1.492615e-09	2.903653e+01	1.037801e+02
2.860000e-06	4.216442e-06	1.499494e-09	2.924889e+01	1.040913e+02
2.870000e-06	4.246682e-06	1.506432e-09	2.945866e+01	1.043927e+02
2.880000e-06	4.276636e-06	1.511372e-09	2.966645e+01	1.046841e+02
2.890000e-06	4.306285e-06	1.515731e-09	2.987212e+01	1.049657e+02
2.900000e-06	4.335653e-06	1.520575e-09	3.007584e+01	1.052376e+02
