# Temperatura_=_-29.62
# Concentracion g/m^3_=_1620.0
# C_Vs_to_Am_M_A/Vsm_=_65563218390.804596
# pendiente_HvsI_1/m_=_3716.3
# ordenada_HvsI_A/m_=_1297.0
# frecuencia_Hz_=_135092.2980180835

Tiempo_(s)	Campo_(V.s)	Magnetizacion_(V.s)	Campo_(kA/m)	Magnetizacion_(A/m)
0.000000e+00	-5.518642e-06	-1.147609e-09	-3.838029e+01	-7.238729e+01
1.000000e-08	-5.518837e-06	-1.147785e-09	-3.838165e+01	-7.239494e+01
2.000000e-08	-5.518773e-06	-1.150269e-09	-3.838121e+01	-7.240299e+01
3.000000e-08	-5.518405e-06	-1.151855e-09	-3.837865e+01	-7.241150e+01
4.000000e-08	-5.517604e-06	-1.150149e-09	-3.837308e+01	-7.242055e+01
5.000000e-08	-5.516260e-06	-1.145626e-09	-3.836373e+01	-7.243022e+01
6.000000e-08	-5.514301e-06	-1.131227e-09	-3.835011e+01	-7.244060e+01
7.000000e-08	-5.511738e-06	-1.121096e-09	-3.833228e+01	-7.245176e+01
8.000000e-08	-5.508627e-06	-1.164487e-09	-3.831065e+01	-7.246380e+01
9.000000e-08	-5.505020e-06	-1.181891e-09	-3.828556e+01	-7.247681e+01
1.000000e-07	-5.500956e-06	-1.140304e-09	-3.825730e+01	-7.249086e+01
1.100000e-07	-5.496531e-06	-1.156530e-09	-3.822652e+01	-7.250602e+01
1.200000e-07	-5.491905e-06	-1.152619e-09	-3.819435e+01	-7.252236e+01
1.300000e-07	-5.487090e-06	-1.128471e-09	-3.816086e+01	-7.253990e+01
1.400000e-07	-5.481940e-06	-1.091852e-09	-3.812505e+01	-7.255868e+01
1.500000e-07	-5.476328e-06	-1.102998e-09	-3.808602e+01	-7.257870e+01
1.600000e-07	-5.470398e-06	-1.198346e-09	-3.804478e+01	-7.259994e+01
1.700000e-07	-5.464051e-06	-1.136875e-09	-3.800063e+01	-7.262235e+01
1.800000e-07	-5.457244e-06	-1.106375e-09	-3.795330e+01	-7.264586e+01
1.900000e-07	-5.450108e-06	-1.094477e-09	-3.790367e+01	-7.267037e+01
2.000000e-07	-5.442619e-06	-1.174881e-09	-3.785158e+01	-7.269576e+01
2.100000e-07	-5.434827e-06	-1.127558e-09	-3.779739e+01	-7.272186e+01
2.200000e-07	-5.426847e-06	-1.096094e-09	-3.774189e+01	-7.274851e+01
2.300000e-07	-5.418646e-06	-1.106768e-09	-3.768485e+01	-7.277549e+01
2.400000e-07	-5.410047e-06	-1.155143e-09	-3.762505e+01	-7.280258e+01
2.500000e-07	-5.400819e-06	-1.124870e-09	-3.756088e+01	-7.282953e+01
2.600000e-07	-5.390865e-06	-1.091380e-09	-3.749165e+01	-7.285606e+01
2.700000e-07	-5.380271e-06	-1.107955e-09	-3.741797e+01	-7.288191e+01
2.800000e-07	-5.369131e-06	-1.127603e-09	-3.734049e+01	-7.290678e+01
2.900000e-07	-5.357595e-06	-1.136054e-09	-3.726027e+01	-7.293038e+01
3.000000e-07	-5.345677e-06	-1.109150e-09	-3.717738e+01	-7.295240e+01
3.100000e-07	-5.333296e-06	-1.123683e-09	-3.709128e+01	-7.297256e+01
3.200000e-07	-5.320570e-06	-1.108896e-09	-3.700277e+01	-7.299057e+01
3.300000e-07	-5.307503e-06	-1.124312e-09	-3.691189e+01	-7.300616e+01
3.400000e-07	-5.293965e-06	-1.075898e-09	-3.681774e+01	-7.301908e+01
3.500000e-07	-5.279955e-06	-1.095596e-09	-3.672031e+01	-7.302910e+01
3.600000e-07	-5.265604e-06	-1.123097e-09	-3.662050e+01	-7.303602e+01
3.700000e-07	-5.250953e-06	-1.136188e-09	-3.651861e+01	-7.303967e+01
3.800000e-07	-5.235556e-06	-1.085389e-09	-3.641153e+01	-7.303990e+01
3.900000e-07	-5.219492e-06	-1.130392e-09	-3.629981e+01	-7.303662e+01
4.000000e-07	-5.203097e-06	-1.136706e-09	-3.618579e+01	-7.302978e+01
4.100000e-07	-5.186316e-06	-1.078525e-09	-3.606908e+01	-7.301935e+01
4.200000e-07	-5.169106e-06	-1.067860e-09	-3.594939e+01	-7.300537e+01
4.300000e-07	-5.151668e-06	-1.159644e-09	-3.582811e+01	-7.298789e+01
4.400000e-07	-5.134139e-06	-1.116938e-09	-3.570621e+01	-7.296704e+01
4.500000e-07	-5.116261e-06	-1.070197e-09	-3.558187e+01	-7.294297e+01
4.600000e-07	-5.097852e-06	-1.141300e-09	-3.545384e+01	-7.291587e+01
4.700000e-07	-5.079030e-06	-1.162907e-09	-3.532295e+01	-7.288598e+01
4.800000e-07	-5.059854e-06	-1.063252e-09	-3.518958e+01	-7.285357e+01
4.900000e-07	-5.040346e-06	-1.096836e-09	-3.505391e+01	-7.281893e+01
5.000000e-07	-5.020640e-06	-1.154869e-09	-3.491686e+01	-7.278239e+01
5.100000e-07	-5.000708e-06	-1.076185e-09	-3.477824e+01	-7.274430e+01
5.200000e-07	-4.980460e-06	-1.062534e-09	-3.463742e+01	-7.270503e+01
5.300000e-07	-4.960016e-06	-1.158231e-09	-3.449524e+01	-7.266494e+01
5.400000e-07	-4.939257e-06	-1.118340e-09	-3.435087e+01	-7.262443e+01
5.500000e-07	-4.918011e-06	-1.052432e-09	-3.420311e+01	-7.258387e+01
5.600000e-07	-4.896426e-06	-1.132274e-09	-3.405299e+01	-7.254363e+01
5.700000e-07	-4.874499e-06	-1.141049e-09	-3.390050e+01	-7.250408e+01
5.800000e-07	-4.852170e-06	-1.067023e-09	-3.374520e+01	-7.246556e+01
5.900000e-07	-4.829568e-06	-1.103688e-09	-3.358802e+01	-7.242839e+01
6.000000e-07	-4.806582e-06	-1.149684e-09	-3.342816e+01	-7.239286e+01
6.100000e-07	-4.783249e-06	-1.076266e-09	-3.326588e+01	-7.235922e+01
6.200000e-07	-4.759739e-06	-1.076795e-09	-3.310238e+01	-7.232769e+01
6.300000e-07	-4.735911e-06	-1.121932e-09	-3.293667e+01	-7.229844e+01
6.400000e-07	-4.711794e-06	-1.096586e-09	-3.276894e+01	-7.227160e+01
6.500000e-07	-4.687439e-06	-1.074515e-09	-3.259956e+01	-7.224725e+01
6.600000e-07	-4.662693e-06	-1.125368e-09	-3.242746e+01	-7.222542e+01
6.700000e-07	-4.637479e-06	-1.111725e-09	-3.225210e+01	-7.220609e+01
6.800000e-07	-4.611798e-06	-1.089445e-09	-3.207350e+01	-7.218917e+01
6.900000e-07	-4.585534e-06	-1.103273e-09	-3.189084e+01	-7.217456e+01
7.000000e-07	-4.558705e-06	-1.107841e-09	-3.170426e+01	-7.216207e+01
7.100000e-07	-4.531453e-06	-1.081067e-09	-3.151473e+01	-7.215148e+01
7.200000e-07	-4.503931e-06	-1.099821e-09	-3.132332e+01	-7.214253e+01
7.300000e-07	-4.476231e-06	-1.108440e-09	-3.113068e+01	-7.213490e+01
7.400000e-07	-4.448369e-06	-1.098376e-09	-3.093691e+01	-7.212826e+01
7.500000e-07	-4.420320e-06	-1.096368e-09	-3.074183e+01	-7.212223e+01
7.600000e-07	-4.392034e-06	-1.106188e-09	-3.054511e+01	-7.211640e+01
7.700000e-07	-4.363454e-06	-1.095122e-09	-3.034635e+01	-7.211035e+01
7.800000e-07	-4.334568e-06	-1.093374e-09	-3.014546e+01	-7.210363e+01
7.900000e-07	-4.305372e-06	-1.097065e-09	-2.994241e+01	-7.209579e+01
8.000000e-07	-4.275811e-06	-1.092563e-09	-2.973683e+01	-7.208640e+01
8.100000e-07	-4.245967e-06	-1.086920e-09	-2.952927e+01	-7.207498e+01
8.200000e-07	-4.215904e-06	-1.091697e-09	-2.932019e+01	-7.206111e+01
8.300000e-07	-4.185545e-06	-1.087273e-09	-2.910906e+01	-7.204436e+01
8.400000e-07	-4.154887e-06	-1.078711e-09	-2.889584e+01	-7.202434e+01
8.500000e-07	-4.123898e-06	-1.087791e-09	-2.868032e+01	-7.200067e+01
8.600000e-07	-4.092705e-06	-1.093916e-09	-2.846338e+01	-7.197301e+01
8.700000e-07	-4.061248e-06	-1.089463e-09	-2.824461e+01	-7.194108e+01
8.800000e-07	-4.029524e-06	-1.085909e-09	-2.802398e+01	-7.190460e+01
8.900000e-07	-3.997680e-06	-1.088254e-09	-2.780252e+01	-7.186339e+01
9.000000e-07	-3.965582e-06	-1.074075e-09	-2.757929e+01	-7.181726e+01
9.100000e-07	-3.933287e-06	-1.067717e-09	-2.735468e+01	-7.176613e+01
9.200000e-07	-3.900748e-06	-1.069245e-09	-2.712839e+01	-7.170992e+01
9.300000e-07	-3.867800e-06	-1.069546e-09	-2.689924e+01	-7.164865e+01
9.400000e-07	-3.834319e-06	-1.062161e-09	-2.666640e+01	-7.158236e+01
9.500000e-07	-3.800350e-06	-1.070169e-09	-2.643015e+01	-7.151116e+01
9.600000e-07	-3.765950e-06	-1.070293e-09	-2.619091e+01	-7.143521e+01
9.700000e-07	-3.731125e-06	-1.063749e-09	-2.594872e+01	-7.135469e+01
9.800000e-07	-3.695940e-06	-1.058206e-09	-2.570402e+01	-7.126985e+01
9.900000e-07	-3.660449e-06	-1.061535e-09	-2.545719e+01	-7.118098e+01
1.000000e-06	-3.624804e-06	-1.052791e-09	-2.520929e+01	-7.108840e+01
1.010000e-06	-3.589016e-06	-1.047488e-09	-2.496040e+01	-7.099244e+01
1.020000e-06	-3.553044e-06	-1.047816e-09	-2.471023e+01	-7.089346e+01
1.030000e-06	-3.516912e-06	-1.048529e-09	-2.445894e+01	-7.079186e+01
1.040000e-06	-3.480616e-06	-1.042672e-09	-2.420651e+01	-7.068802e+01
1.050000e-06	-3.444099e-06	-1.047293e-09	-2.395254e+01	-7.058233e+01
1.060000e-06	-3.407406e-06	-1.049599e-09	-2.369736e+01	-7.047517e+01
1.070000e-06	-3.370485e-06	-1.043856e-09	-2.344059e+01	-7.036691e+01
1.080000e-06	-3.333229e-06	-1.038584e-09	-2.318149e+01	-7.025789e+01
1.090000e-06	-3.295655e-06	-1.035613e-09	-2.292017e+01	-7.014844e+01
1.100000e-06	-3.257823e-06	-1.027313e-09	-2.265706e+01	-7.003884e+01
1.110000e-06	-3.219836e-06	-1.021322e-09	-2.239287e+01	-6.992934e+01
1.120000e-06	-3.181701e-06	-1.021680e-09	-2.212766e+01	-6.982013e+01
1.130000e-06	-3.143328e-06	-1.019813e-09	-2.186079e+01	-6.971135e+01
1.140000e-06	-3.104685e-06	-1.018980e-09	-2.159204e+01	-6.960310e+01
1.150000e-06	-3.065809e-06	-1.022715e-09	-2.132167e+01	-6.949541e+01
1.160000e-06	-3.026723e-06	-1.025661e-09	-2.104984e+01	-6.938824e+01
1.170000e-06	-2.987408e-06	-1.020502e-09	-2.077642e+01	-6.928150e+01
1.180000e-06	-2.947938e-06	-1.018252e-09	-2.050191e+01	-6.917504e+01
1.190000e-06	-2.908389e-06	-1.016638e-09	-2.022687e+01	-6.906863e+01
1.200000e-06	-2.868660e-06	-1.011911e-09	-1.995056e+01	-6.896198e+01
1.210000e-06	-2.828758e-06	-1.002474e-09	-1.967306e+01	-6.885476e+01
1.220000e-06	-2.788746e-06	-1.000432e-09	-1.939479e+01	-6.874657e+01
1.230000e-06	-2.748655e-06	-9.984373e-10	-1.911597e+01	-6.863695e+01
1.240000e-06	-2.708401e-06	-9.970428e-10	-1.883602e+01	-6.852541e+01
1.250000e-06	-2.667943e-06	-9.939222e-10	-1.855464e+01	-6.841142e+01
1.260000e-06	-2.627244e-06	-9.953093e-10	-1.827160e+01	-6.829440e+01
1.270000e-06	-2.586275e-06	-9.934637e-10	-1.798667e+01	-6.817376e+01
1.280000e-06	-2.545080e-06	-9.907344e-10	-1.770017e+01	-6.804889e+01
1.290000e-06	-2.503583e-06	-9.865386e-10	-1.741158e+01	-6.791916e+01
1.300000e-06	-2.461766e-06	-9.813085e-10	-1.712075e+01	-6.778395e+01
1.310000e-06	-2.419669e-06	-9.729700e-10	-1.682798e+01	-6.764264e+01
1.320000e-06	-2.377377e-06	-9.663802e-10	-1.653386e+01	-6.749462e+01
1.330000e-06	-2.334837e-06	-9.620214e-10	-1.623801e+01	-6.733932e+01
1.340000e-06	-2.292011e-06	-9.590005e-10	-1.594016e+01	-6.717618e+01
1.350000e-06	-2.248944e-06	-9.585190e-10	-1.564065e+01	-6.700470e+01
1.360000e-06	-2.205647e-06	-9.605345e-10	-1.533953e+01	-6.682440e+01
1.370000e-06	-2.162146e-06	-9.606625e-10	-1.503700e+01	-6.663486e+01
1.380000e-06	-2.118517e-06	-9.590798e-10	-1.473357e+01	-6.643572e+01
1.390000e-06	-2.074864e-06	-9.559960e-10	-1.442998e+01	-6.622666e+01
1.400000e-06	-2.031110e-06	-9.494992e-10	-1.412568e+01	-6.600745e+01
1.410000e-06	-1.987223e-06	-9.401573e-10	-1.382047e+01	-6.577788e+01
1.420000e-06	-1.943272e-06	-9.306049e-10	-1.351480e+01	-6.553783e+01
1.430000e-06	-1.899254e-06	-9.245311e-10	-1.320867e+01	-6.528723e+01
1.440000e-06	-1.855199e-06	-9.203864e-10	-1.290228e+01	-6.502606e+01
1.450000e-06	-1.810970e-06	-9.199237e-10	-1.259469e+01	-6.475436e+01
1.460000e-06	-1.766536e-06	-9.185026e-10	-1.228566e+01	-6.447221e+01
1.470000e-06	-1.722073e-06	-9.134081e-10	-1.197644e+01	-6.417974e+01
1.480000e-06	-1.677559e-06	-9.055073e-10	-1.166686e+01	-6.387709e+01
1.490000e-06	-1.632905e-06	-8.987541e-10	-1.135630e+01	-6.356445e+01
1.500000e-06	-1.588092e-06	-8.888274e-10	-1.104464e+01	-6.324200e+01
1.510000e-06	-1.543105e-06	-8.780969e-10	-1.073178e+01	-6.290993e+01
1.520000e-06	-1.497960e-06	-8.681307e-10	-1.041781e+01	-6.256844e+01
1.530000e-06	-1.452732e-06	-8.599077e-10	-1.010326e+01	-6.221769e+01
1.540000e-06	-1.407420e-06	-8.534038e-10	-9.788131e+00	-6.185783e+01
1.550000e-06	-1.362025e-06	-8.493910e-10	-9.472422e+00	-6.148893e+01
1.560000e-06	-1.316560e-06	-8.463377e-10	-9.156231e+00	-6.111106e+01
1.570000e-06	-1.270916e-06	-8.395679e-10	-8.838795e+00	-6.072419e+01
1.580000e-06	-1.225160e-06	-8.318368e-10	-8.520573e+00	-6.032824e+01
1.590000e-06	-1.179346e-06	-8.237540e-10	-8.201954e+00	-5.992302e+01
1.600000e-06	-1.133453e-06	-8.138148e-10	-7.882781e+00	-5.950829e+01
1.610000e-06	-1.087477e-06	-8.021662e-10	-7.563037e+00	-5.908367e+01
1.620000e-06	-1.041471e-06	-7.903900e-10	-7.243077e+00	-5.864871e+01
1.630000e-06	-9.954241e-07	-7.827441e-10	-6.922839e+00	-5.820285e+01
1.640000e-06	-9.492587e-07	-7.764854e-10	-6.601774e+00	-5.774540e+01
1.650000e-06	-9.030284e-07	-7.727270e-10	-6.280258e+00	-5.727559e+01
1.660000e-06	-8.567188e-07	-7.690413e-10	-5.958191e+00	-5.679251e+01
1.670000e-06	-8.103877e-07	-7.642813e-10	-5.635973e+00	-5.629517e+01
1.680000e-06	-7.640766e-07	-7.560993e-10	-5.313895e+00	-5.578246e+01
1.690000e-06	-7.177254e-07	-7.464906e-10	-4.991538e+00	-5.525319e+01
1.700000e-06	-6.713013e-07	-7.357907e-10	-4.668674e+00	-5.470607e+01
1.710000e-06	-6.248304e-07	-7.235121e-10	-4.345485e+00	-5.413975e+01
1.720000e-06	-5.782848e-07	-7.109324e-10	-4.021776e+00	-5.355280e+01
1.730000e-06	-5.317293e-07	-6.996465e-10	-3.697998e+00	-5.294372e+01
1.740000e-06	-4.851178e-07	-6.933200e-10	-3.373831e+00	-5.231101e+01
1.750000e-06	-4.384397e-07	-6.884736e-10	-3.049201e+00	-5.165311e+01
1.760000e-06	-3.918242e-07	-6.791318e-10	-2.725005e+00	-5.096847e+01
1.770000e-06	-3.451476e-07	-6.666135e-10	-2.400386e+00	-5.025553e+01
1.780000e-06	-2.984035e-07	-6.543305e-10	-2.075296e+00	-4.951278e+01
1.790000e-06	-2.516341e-07	-6.433908e-10	-1.750031e+00	-4.873872e+01
1.800000e-06	-2.048643e-07	-6.326394e-10	-1.424762e+00	-4.793193e+01
1.810000e-06	-1.580920e-07	-6.208198e-10	-1.099477e+00	-4.709105e+01
1.820000e-06	-1.113440e-07	-6.079939e-10	-7.743601e-01	-4.621483e+01
1.830000e-06	-6.461304e-08	-5.940881e-10	-4.493619e-01	-4.530210e+01
1.840000e-06	-1.779222e-08	-5.817481e-10	-1.237389e-01	-4.435183e+01
1.850000e-06	2.904761e-08	-5.705088e-10	2.020163e-01	-4.336313e+01
1.860000e-06	7.579708e-08	-5.590756e-10	5.271431e-01	-4.233523e+01
1.870000e-06	1.225350e-07	-5.452320e-10	8.521893e-01	-4.126755e+01
1.880000e-06	1.692668e-07	-5.312595e-10	1.177194e+00	-4.015966e+01
1.890000e-06	2.159496e-07	-5.152795e-10	1.501857e+00	-3.901130e+01
1.900000e-06	2.626670e-07	-4.968115e-10	1.826760e+00	-3.782241e+01
1.910000e-06	3.094048e-07	-4.781506e-10	2.151806e+00	-3.659309e+01
1.920000e-06	3.561170e-07	-4.584178e-10	2.476674e+00	-3.532365e+01
1.930000e-06	4.028134e-07	-4.394032e-10	2.801432e+00	-3.401458e+01
1.940000e-06	4.494471e-07	-4.227611e-10	3.125753e+00	-3.266656e+01
1.950000e-06	4.959648e-07	-4.063420e-10	3.449268e+00	-3.128044e+01
1.960000e-06	5.424960e-07	-3.884487e-10	3.772877e+00	-2.985726e+01
1.970000e-06	5.890651e-07	-3.710134e-10	4.096749e+00	-2.839823e+01
1.980000e-06	6.355439e-07	-3.538678e-10	4.419994e+00	-2.690472e+01
1.990000e-06	6.819892e-07	-3.325490e-10	4.743005e+00	-2.537827e+01
2.000000e-06	7.284165e-07	-3.084183e-10	5.065891e+00	-2.382055e+01
2.010000e-06	7.747728e-07	-2.825577e-10	5.388284e+00	-2.223336e+01
2.020000e-06	8.210383e-07	-2.568273e-10	5.710045e+00	-2.061862e+01
2.030000e-06	8.672521e-07	-2.307036e-10	6.031446e+00	-1.897839e+01
2.040000e-06	9.134408e-07	-2.050242e-10	6.352673e+00	-1.731478e+01
2.050000e-06	9.595377e-07	-1.822584e-10	6.673261e+00	-1.563001e+01
2.060000e-06	1.005529e-06	-1.624244e-10	6.993116e+00	-1.392635e+01
2.070000e-06	1.051472e-06	-1.435473e-10	7.312631e+00	-1.220613e+01
2.080000e-06	1.097373e-06	-1.226406e-10	7.631863e+00	-1.047173e+01
2.090000e-06	1.143210e-06	-9.873222e-11	7.950642e+00	-8.725524e+00
2.100000e-06	1.188896e-06	-7.126058e-11	8.268369e+00	-6.969935e+00
2.110000e-06	1.234404e-06	-4.242556e-11	8.584862e+00	-5.207363e+00
2.120000e-06	1.279785e-06	-1.478669e-11	8.900472e+00	-3.440202e+00
2.130000e-06	1.325104e-06	1.232027e-11	9.215654e+00	-1.670825e+00
2.140000e-06	1.370359e-06	3.684099e-11	9.530383e+00	9.843320e-02
2.150000e-06	1.415508e-06	5.807838e-11	9.844378e+00	1.865277e+00
2.160000e-06	1.460545e-06	7.854004e-11	1.015760e+01	3.627464e+00
2.170000e-06	1.505568e-06	9.795111e-11	1.047072e+01	5.382811e+00
2.180000e-06	1.550539e-06	1.197266e-10	1.078348e+01	7.129202e+00
2.190000e-06	1.595377e-06	1.454258e-10	1.109531e+01	8.864592e+00
2.200000e-06	1.640127e-06	1.741874e-10	1.140653e+01	1.058702e+01
2.210000e-06	1.684703e-06	2.032876e-10	1.171654e+01	1.229459e+01
2.220000e-06	1.729187e-06	2.311188e-10	1.202591e+01	1.398552e+01
2.230000e-06	1.773527e-06	2.557825e-10	1.233428e+01	1.565809e+01
2.240000e-06	1.817713e-06	2.750042e-10	1.264158e+01	1.731069e+01
2.250000e-06	1.861858e-06	2.893897e-10	1.294859e+01	1.894179e+01
2.260000e-06	1.905962e-06	3.049130e-10	1.325532e+01	2.054998e+01
2.270000e-06	1.949956e-06	3.247000e-10	1.356129e+01	2.213391e+01
2.280000e-06	1.993828e-06	3.468363e-10	1.386640e+01	2.369236e+01
2.290000e-06	2.037661e-06	3.704574e-10	1.417124e+01	2.522419e+01
2.300000e-06	2.081484e-06	3.943657e-10	1.447602e+01	2.672836e+01
2.310000e-06	2.125246e-06	4.173476e-10	1.478037e+01	2.820393e+01
2.320000e-06	2.168910e-06	4.381654e-10	1.508404e+01	2.965005e+01
2.330000e-06	2.212456e-06	4.555514e-10	1.538689e+01	3.106599e+01
2.340000e-06	2.255813e-06	4.697688e-10	1.568842e+01	3.245108e+01
2.350000e-06	2.298913e-06	4.842758e-10	1.598817e+01	3.380478e+01
2.360000e-06	2.341767e-06	5.005585e-10	1.628620e+01	3.512662e+01
2.370000e-06	2.384309e-06	5.178188e-10	1.658207e+01	3.641624e+01
2.380000e-06	2.426529e-06	5.372255e-10	1.687569e+01	3.767335e+01
2.390000e-06	2.468479e-06	5.556222e-10	1.716744e+01	3.889777e+01
2.400000e-06	2.510160e-06	5.703723e-10	1.745732e+01	4.008941e+01
2.410000e-06	2.551502e-06	5.862472e-10	1.774484e+01	4.124825e+01
2.420000e-06	2.592409e-06	6.001505e-10	1.802933e+01	4.237435e+01
2.430000e-06	2.633064e-06	6.142232e-10	1.831207e+01	4.346788e+01
2.440000e-06	2.673612e-06	6.269724e-10	1.859407e+01	4.452907e+01
2.450000e-06	2.713941e-06	6.390566e-10	1.887454e+01	4.555821e+01
2.460000e-06	2.754081e-06	6.527973e-10	1.915370e+01	4.655568e+01
2.470000e-06	2.794116e-06	6.664281e-10	1.943213e+01	4.752192e+01
2.480000e-06	2.834041e-06	6.807522e-10	1.970980e+01	4.845744e+01
2.490000e-06	2.873865e-06	6.916952e-10	1.998676e+01	4.936279e+01
2.500000e-06	2.913578e-06	7.022429e-10	2.026295e+01	5.023858e+01
2.510000e-06	2.953156e-06	7.144028e-10	2.053820e+01	5.108547e+01
2.520000e-06	2.992558e-06	7.258541e-10	2.081223e+01	5.190415e+01
2.530000e-06	3.031782e-06	7.364267e-10	2.108502e+01	5.269535e+01
2.540000e-06	3.070720e-06	7.499576e-10	2.135583e+01	5.345983e+01
2.550000e-06	3.109347e-06	7.631329e-10	2.162446e+01	5.419836e+01
2.560000e-06	3.147739e-06	7.723965e-10	2.189147e+01	5.491173e+01
2.570000e-06	3.185948e-06	7.791712e-10	2.215720e+01	5.560074e+01
2.580000e-06	3.223986e-06	7.851582e-10	2.242174e+01	5.626619e+01
2.590000e-06	3.261804e-06	7.907953e-10	2.268475e+01	5.690887e+01
2.600000e-06	3.299447e-06	7.980621e-10	2.294654e+01	5.752956e+01
2.610000e-06	3.336885e-06	8.093562e-10	2.320691e+01	5.812904e+01
2.620000e-06	3.374022e-06	8.248387e-10	2.346519e+01	5.870804e+01
2.630000e-06	3.410829e-06	8.387189e-10	2.372117e+01	5.926728e+01
2.640000e-06	3.447375e-06	8.489469e-10	2.397533e+01	5.980746e+01
2.650000e-06	3.483740e-06	8.543870e-10	2.422824e+01	6.032923e+01
2.660000e-06	3.519970e-06	8.584692e-10	2.448020e+01	6.083322e+01
2.670000e-06	3.556064e-06	8.627583e-10	2.473122e+01	6.131999e+01
2.680000e-06	3.592039e-06	8.674356e-10	2.498142e+01	6.179011e+01
2.690000e-06	3.627888e-06	8.751980e-10	2.523074e+01	6.224407e+01
2.700000e-06	3.663481e-06	8.842573e-10	2.547828e+01	6.268235e+01
2.710000e-06	3.698834e-06	8.910416e-10	2.572414e+01	6.310536e+01
2.720000e-06	3.733942e-06	8.948764e-10	2.596831e+01	6.351351e+01
2.730000e-06	3.768639e-06	9.001170e-10	2.620961e+01	6.390715e+01
2.740000e-06	3.802851e-06	9.056796e-10	2.644754e+01	6.428661e+01
2.750000e-06	3.836633e-06	9.106401e-10	2.668249e+01	6.465220e+01
2.760000e-06	3.869986e-06	9.156408e-10	2.691445e+01	6.500419e+01
2.770000e-06	3.902894e-06	9.202927e-10	2.714331e+01	6.534284e+01
2.780000e-06	3.935412e-06	9.256079e-10	2.736946e+01	6.566841e+01
2.790000e-06	3.967659e-06	9.312336e-10	2.759373e+01	6.598112e+01
2.800000e-06	3.999718e-06	9.367281e-10	2.781669e+01	6.628121e+01
2.810000e-06	4.031606e-06	9.432048e-10	2.803846e+01	6.656892e+01
2.820000e-06	4.063286e-06	9.486905e-10	2.825878e+01	6.684446e+01
2.830000e-06	4.094657e-06	9.546275e-10	2.847696e+01	6.710810e+01
2.840000e-06	4.125831e-06	9.604227e-10	2.869377e+01	6.736007e+01
2.850000e-06	4.156758e-06	9.650899e-10	2.890885e+01	6.760066e+01
2.860000e-06	4.187404e-06	9.691063e-10	2.912198e+01	6.783015e+01
2.870000e-06	4.217838e-06	9.745248e-10	2.933364e+01	6.804884e+01
2.880000e-06	4.247918e-06	9.783961e-10	2.954284e+01	6.825706e+01
2.890000e-06	4.277647e-06	9.794635e-10	2.974959e+01	6.845516e+01
2.900000e-06	4.307116e-06	9.831786e-10	2.995454e+01	6.864351e+01
