# Temperatura_=_13.75
# Concentracion g/m^3_=_1620.0
# C_Vs_to_Am_M_A/Vsm_=_65563218390.804596
# pendiente_HvsI_1/m_=_3716.3
# ordenada_HvsI_A/m_=_1297.0
# frecuencia_Hz_=_135106.6138560047

Tiempo_(s)	Campo_(V.s)	Magnetizacion_(V.s)	Campo_(kA/m)	Magnetizacion_(A/m)
0.000000e+00	-5.530847e-06	-1.848191e-09	-3.837492e+01	-1.206378e+02
1.000000e-08	-5.531049e-06	-1.844221e-09	-3.837633e+01	-1.205969e+02
2.000000e-08	-5.531120e-06	-1.846086e-09	-3.837682e+01	-1.205569e+02
3.000000e-08	-5.530884e-06	-1.850567e-09	-3.837518e+01	-1.205179e+02
4.000000e-08	-5.530091e-06	-1.853914e-09	-3.836967e+01	-1.204800e+02
5.000000e-08	-5.528671e-06	-1.850353e-09	-3.835982e+01	-1.204432e+02
6.000000e-08	-5.526712e-06	-1.831988e-09	-3.834623e+01	-1.204077e+02
7.000000e-08	-5.524121e-06	-1.803409e-09	-3.832826e+01	-1.203732e+02
8.000000e-08	-5.520898e-06	-1.818336e-09	-3.830589e+01	-1.203397e+02
9.000000e-08	-5.517251e-06	-1.927458e-09	-3.828059e+01	-1.203069e+02
1.000000e-07	-5.513167e-06	-1.997816e-09	-3.825225e+01	-1.202746e+02
1.100000e-07	-5.508665e-06	-1.857046e-09	-3.822101e+01	-1.202423e+02
1.200000e-07	-5.504094e-06	-1.705293e-09	-3.818930e+01	-1.202097e+02
1.300000e-07	-5.499434e-06	-1.775261e-09	-3.815697e+01	-1.201764e+02
1.400000e-07	-5.494205e-06	-1.909478e-09	-3.812069e+01	-1.201417e+02
1.500000e-07	-5.488439e-06	-1.873312e-09	-3.808068e+01	-1.201053e+02
1.600000e-07	-5.482416e-06	-1.735197e-09	-3.803889e+01	-1.200664e+02
1.700000e-07	-5.476122e-06	-1.816167e-09	-3.799522e+01	-1.200245e+02
1.800000e-07	-5.469352e-06	-1.926061e-09	-3.794825e+01	-1.199789e+02
1.900000e-07	-5.462096e-06	-1.890954e-09	-3.789791e+01	-1.199292e+02
2.000000e-07	-5.454514e-06	-1.747671e-09	-3.784530e+01	-1.198745e+02
2.100000e-07	-5.446736e-06	-1.783811e-09	-3.779133e+01	-1.198143e+02
2.200000e-07	-5.438740e-06	-1.888982e-09	-3.773585e+01	-1.197482e+02
2.300000e-07	-5.430520e-06	-1.906438e-09	-3.767882e+01	-1.196754e+02
2.400000e-07	-5.421999e-06	-1.827912e-09	-3.761970e+01	-1.195955e+02
2.500000e-07	-5.412745e-06	-1.815871e-09	-3.755549e+01	-1.195082e+02
2.600000e-07	-5.402519e-06	-1.851772e-09	-3.748454e+01	-1.194129e+02
2.700000e-07	-5.391709e-06	-1.840504e-09	-3.740953e+01	-1.193094e+02
2.800000e-07	-5.380589e-06	-1.807548e-09	-3.733238e+01	-1.191975e+02
2.900000e-07	-5.368974e-06	-1.817947e-09	-3.725179e+01	-1.190768e+02
3.000000e-07	-5.356963e-06	-1.866034e-09	-3.716845e+01	-1.189475e+02
3.100000e-07	-5.344704e-06	-1.834436e-09	-3.708340e+01	-1.188093e+02
3.200000e-07	-5.331952e-06	-1.792256e-09	-3.699492e+01	-1.186624e+02
3.300000e-07	-5.318688e-06	-1.780995e-09	-3.690289e+01	-1.185069e+02
3.400000e-07	-5.305134e-06	-1.834639e-09	-3.680885e+01	-1.183429e+02
3.500000e-07	-5.291296e-06	-1.802983e-09	-3.671283e+01	-1.181707e+02
3.600000e-07	-5.277051e-06	-1.780543e-09	-3.661400e+01	-1.179906e+02
3.700000e-07	-5.262338e-06	-1.805818e-09	-3.651191e+01	-1.178029e+02
3.800000e-07	-5.247141e-06	-1.839061e-09	-3.640647e+01	-1.176081e+02
3.900000e-07	-5.231281e-06	-1.758705e-09	-3.629643e+01	-1.174065e+02
4.000000e-07	-5.214829e-06	-1.757558e-09	-3.618228e+01	-1.171986e+02
4.100000e-07	-5.198087e-06	-1.816544e-09	-3.606612e+01	-1.169848e+02
4.200000e-07	-5.181005e-06	-1.782525e-09	-3.594760e+01	-1.167656e+02
4.300000e-07	-5.163485e-06	-1.711947e-09	-3.582604e+01	-1.165415e+02
4.400000e-07	-5.145750e-06	-1.802911e-09	-3.570299e+01	-1.163129e+02
4.500000e-07	-5.127793e-06	-1.841168e-09	-3.557839e+01	-1.160802e+02
4.600000e-07	-5.109324e-06	-1.735096e-09	-3.545025e+01	-1.158438e+02
4.700000e-07	-5.090328e-06	-1.725545e-09	-3.531845e+01	-1.156040e+02
4.800000e-07	-5.071077e-06	-1.812431e-09	-3.518488e+01	-1.153612e+02
4.900000e-07	-5.051566e-06	-1.755225e-09	-3.504951e+01	-1.151156e+02
5.000000e-07	-5.031766e-06	-1.700115e-09	-3.491213e+01	-1.148675e+02
5.100000e-07	-5.011840e-06	-1.770581e-09	-3.477387e+01	-1.146169e+02
5.200000e-07	-4.991656e-06	-1.751807e-09	-3.463383e+01	-1.143639e+02
5.300000e-07	-4.971057e-06	-1.682240e-09	-3.449090e+01	-1.141087e+02
5.400000e-07	-4.950098e-06	-1.755642e-09	-3.434549e+01	-1.138512e+02
5.500000e-07	-4.928790e-06	-1.794957e-09	-3.419765e+01	-1.135913e+02
5.600000e-07	-4.907117e-06	-1.688760e-09	-3.404727e+01	-1.133290e+02
5.700000e-07	-4.885106e-06	-1.691780e-09	-3.389455e+01	-1.130640e+02
5.800000e-07	-4.862784e-06	-1.760833e-09	-3.373967e+01	-1.127963e+02
5.900000e-07	-4.840107e-06	-1.710291e-09	-3.358233e+01	-1.125257e+02
6.000000e-07	-4.817044e-06	-1.668638e-09	-3.342231e+01	-1.122518e+02
6.100000e-07	-4.793670e-06	-1.729325e-09	-3.326013e+01	-1.119745e+02
6.200000e-07	-4.770024e-06	-1.707289e-09	-3.309607e+01	-1.116936e+02
6.300000e-07	-4.746183e-06	-1.659115e-09	-3.293065e+01	-1.114088e+02
6.400000e-07	-4.722125e-06	-1.689007e-09	-3.276373e+01	-1.111199e+02
6.500000e-07	-4.697727e-06	-1.703998e-09	-3.259445e+01	-1.108266e+02
6.600000e-07	-4.672904e-06	-1.660212e-09	-3.242222e+01	-1.105290e+02
6.700000e-07	-4.647578e-06	-1.674716e-09	-3.224650e+01	-1.102267e+02
6.800000e-07	-4.621750e-06	-1.684653e-09	-3.206729e+01	-1.099196e+02
6.900000e-07	-4.595429e-06	-1.652461e-09	-3.188467e+01	-1.096078e+02
7.000000e-07	-4.568542e-06	-1.642074e-09	-3.169812e+01	-1.092912e+02
7.100000e-07	-4.541197e-06	-1.659620e-09	-3.150839e+01	-1.089697e+02
7.200000e-07	-4.513586e-06	-1.639248e-09	-3.131682e+01	-1.086435e+02
7.300000e-07	-4.485810e-06	-1.636047e-09	-3.112410e+01	-1.083125e+02
7.400000e-07	-4.457899e-06	-1.652092e-09	-3.093044e+01	-1.079770e+02
7.500000e-07	-4.429790e-06	-1.644321e-09	-3.073541e+01	-1.076372e+02
7.600000e-07	-4.401379e-06	-1.626628e-09	-3.053828e+01	-1.072930e+02
7.700000e-07	-4.372695e-06	-1.629607e-09	-3.033926e+01	-1.069449e+02
7.800000e-07	-4.343730e-06	-1.617006e-09	-3.013830e+01	-1.065930e+02
7.900000e-07	-4.314421e-06	-1.602365e-09	-2.993494e+01	-1.062375e+02
8.000000e-07	-4.284837e-06	-1.610487e-09	-2.972967e+01	-1.058787e+02
8.100000e-07	-4.254970e-06	-1.608780e-09	-2.952245e+01	-1.055168e+02
8.200000e-07	-4.224814e-06	-1.588707e-09	-2.931322e+01	-1.051520e+02
8.300000e-07	-4.194360e-06	-1.586671e-09	-2.910192e+01	-1.047846e+02
8.400000e-07	-4.163601e-06	-1.592183e-09	-2.888850e+01	-1.044145e+02
8.500000e-07	-4.132467e-06	-1.576085e-09	-2.867248e+01	-1.040421e+02
8.600000e-07	-4.101005e-06	-1.572280e-09	-2.845418e+01	-1.036674e+02
8.700000e-07	-4.069371e-06	-1.577832e-09	-2.823470e+01	-1.032904e+02
8.800000e-07	-4.037638e-06	-1.564004e-09	-2.801452e+01	-1.029112e+02
8.900000e-07	-4.005849e-06	-1.545292e-09	-2.779396e+01	-1.025297e+02
9.000000e-07	-3.973886e-06	-1.549280e-09	-2.757219e+01	-1.021458e+02
9.100000e-07	-3.941631e-06	-1.538456e-09	-2.734839e+01	-1.017594e+02
9.200000e-07	-3.908998e-06	-1.520992e-09	-2.712198e+01	-1.013703e+02
9.300000e-07	-3.875928e-06	-1.521021e-09	-2.689253e+01	-1.009783e+02
9.400000e-07	-3.842348e-06	-1.525444e-09	-2.665953e+01	-1.005831e+02
9.500000e-07	-3.808209e-06	-1.508594e-09	-2.642267e+01	-1.001844e+02
9.600000e-07	-3.773688e-06	-1.503160e-09	-2.618315e+01	-9.978200e+01
9.700000e-07	-3.738822e-06	-1.502340e-09	-2.594123e+01	-9.937543e+01
9.800000e-07	-3.703533e-06	-1.489929e-09	-2.569639e+01	-9.896438e+01
9.900000e-07	-3.667974e-06	-1.476291e-09	-2.544967e+01	-9.854852e+01
1.000000e-06	-3.632287e-06	-1.478805e-09	-2.520206e+01	-9.812749e+01
1.010000e-06	-3.596482e-06	-1.469822e-09	-2.495363e+01	-9.770096e+01
1.020000e-06	-3.560556e-06	-1.456281e-09	-2.470436e+01	-9.726863e+01
1.030000e-06	-3.524516e-06	-1.454323e-09	-2.445431e+01	-9.683022e+01
1.040000e-06	-3.488334e-06	-1.453652e-09	-2.420326e+01	-9.638547e+01
1.050000e-06	-3.451847e-06	-1.442843e-09	-2.395010e+01	-9.593419e+01
1.060000e-06	-3.415025e-06	-1.437277e-09	-2.369462e+01	-9.547623e+01
1.070000e-06	-3.377982e-06	-1.432385e-09	-2.343760e+01	-9.501146e+01
1.080000e-06	-3.340671e-06	-1.416538e-09	-2.317872e+01	-9.453985e+01
1.090000e-06	-3.303061e-06	-1.401977e-09	-2.291777e+01	-9.406138e+01
1.100000e-06	-3.265218e-06	-1.396232e-09	-2.265521e+01	-9.357609e+01
1.110000e-06	-3.227188e-06	-1.387086e-09	-2.239134e+01	-9.308409e+01
1.120000e-06	-3.188951e-06	-1.374378e-09	-2.212604e+01	-9.258551e+01
1.130000e-06	-3.150528e-06	-1.367544e-09	-2.185945e+01	-9.208053e+01
1.140000e-06	-3.111914e-06	-1.360151e-09	-2.159153e+01	-9.156935e+01
1.150000e-06	-3.073066e-06	-1.352713e-09	-2.132199e+01	-9.105222e+01
1.160000e-06	-3.034044e-06	-1.346870e-09	-2.105124e+01	-9.052937e+01
1.170000e-06	-2.994836e-06	-1.340822e-09	-2.077920e+01	-9.000107e+01
1.180000e-06	-2.955333e-06	-1.327981e-09	-2.050512e+01	-8.946757e+01
1.190000e-06	-2.915632e-06	-1.317104e-09	-2.022966e+01	-8.892910e+01
1.200000e-06	-2.875865e-06	-1.305906e-09	-1.995374e+01	-8.838586e+01
1.210000e-06	-2.835974e-06	-1.292495e-09	-1.967697e+01	-8.783805e+01
1.220000e-06	-2.795908e-06	-1.280469e-09	-1.939897e+01	-8.728578e+01
1.230000e-06	-2.755732e-06	-1.275190e-09	-1.912022e+01	-8.672913e+01
1.240000e-06	-2.715452e-06	-1.265551e-09	-1.884074e+01	-8.616812e+01
1.250000e-06	-2.675001e-06	-1.255540e-09	-1.856008e+01	-8.560270e+01
1.260000e-06	-2.634266e-06	-1.248862e-09	-1.827745e+01	-8.503273e+01
1.270000e-06	-2.593147e-06	-1.242043e-09	-1.799215e+01	-8.445802e+01
1.280000e-06	-2.551823e-06	-1.230043e-09	-1.770543e+01	-8.387828e+01
1.290000e-06	-2.510319e-06	-1.219523e-09	-1.741746e+01	-8.329315e+01
1.300000e-06	-2.468457e-06	-1.209342e-09	-1.712701e+01	-8.270219e+01
1.310000e-06	-2.426194e-06	-1.196936e-09	-1.683377e+01	-8.210490e+01
1.320000e-06	-2.383579e-06	-1.182895e-09	-1.653810e+01	-8.150069e+01
1.330000e-06	-2.340808e-06	-1.172847e-09	-1.624133e+01	-8.088893e+01
1.340000e-06	-2.297802e-06	-1.163773e-09	-1.594294e+01	-8.026892e+01
1.350000e-06	-2.254500e-06	-1.155964e-09	-1.564249e+01	-7.963994e+01
1.360000e-06	-2.211073e-06	-1.149174e-09	-1.534118e+01	-7.900121e+01
1.370000e-06	-2.167527e-06	-1.141013e-09	-1.503905e+01	-7.835197e+01
1.380000e-06	-2.123827e-06	-1.129471e-09	-1.473585e+01	-7.769142e+01
1.390000e-06	-2.080063e-06	-1.114343e-09	-1.443219e+01	-7.701877e+01
1.400000e-06	-2.036273e-06	-1.097089e-09	-1.412836e+01	-7.633329e+01
1.410000e-06	-1.992365e-06	-1.080192e-09	-1.382371e+01	-7.563422e+01
1.420000e-06	-1.948341e-06	-1.065728e-09	-1.351826e+01	-7.492090e+01
1.430000e-06	-1.904186e-06	-1.053499e-09	-1.321190e+01	-7.419270e+01
1.440000e-06	-1.859955e-06	-1.044330e-09	-1.290501e+01	-7.344904e+01
1.450000e-06	-1.815646e-06	-1.036911e-09	-1.259758e+01	-7.268943e+01
1.460000e-06	-1.771258e-06	-1.029098e-09	-1.228960e+01	-7.191346e+01
1.470000e-06	-1.726793e-06	-1.017029e-09	-1.198108e+01	-7.112080e+01
1.480000e-06	-1.682165e-06	-1.003975e-09	-1.167144e+01	-7.031118e+01
1.490000e-06	-1.637396e-06	-9.893782e-10	-1.136082e+01	-6.948444e+01
1.500000e-06	-1.592439e-06	-9.704556e-10	-1.104889e+01	-6.864048e+01
1.510000e-06	-1.547296e-06	-9.491165e-10	-1.073567e+01	-6.777928e+01
1.520000e-06	-1.502052e-06	-9.330887e-10	-1.042175e+01	-6.690089e+01
1.530000e-06	-1.456697e-06	-9.210585e-10	-1.010707e+01	-6.600540e+01
1.540000e-06	-1.411202e-06	-9.105126e-10	-9.791403e+00	-6.509295e+01
1.550000e-06	-1.365629e-06	-8.978950e-10	-9.475202e+00	-6.416371e+01
1.560000e-06	-1.319991e-06	-8.830265e-10	-9.158556e+00	-6.321786e+01
1.570000e-06	-1.274269e-06	-8.633222e-10	-8.841314e+00	-6.225557e+01
1.580000e-06	-1.228510e-06	-8.438132e-10	-8.523827e+00	-6.127700e+01
1.590000e-06	-1.182653e-06	-8.253250e-10	-8.205656e+00	-6.028226e+01
1.600000e-06	-1.136613e-06	-8.056551e-10	-7.886215e+00	-5.927142e+01
1.610000e-06	-1.090519e-06	-7.867060e-10	-7.566393e+00	-5.824446e+01
1.620000e-06	-1.044438e-06	-7.718206e-10	-7.246669e+00	-5.720126e+01
1.630000e-06	-9.982502e-07	-7.590091e-10	-6.926204e+00	-5.614163e+01
1.640000e-06	-9.519730e-07	-7.455322e-10	-6.605116e+00	-5.506523e+01
1.650000e-06	-9.056989e-07	-7.301649e-10	-6.284051e+00	-5.397160e+01
1.660000e-06	-8.593886e-07	-7.145316e-10	-5.962734e+00	-5.286014e+01
1.670000e-06	-8.130174e-07	-6.983199e-10	-5.640995e+00	-5.173012e+01
1.680000e-06	-7.666012e-07	-6.805055e-10	-5.318943e+00	-5.058063e+01
1.690000e-06	-7.201050e-07	-6.634237e-10	-4.996336e+00	-4.941064e+01
1.700000e-06	-6.735595e-07	-6.429919e-10	-4.673388e+00	-4.821898e+01
1.710000e-06	-6.269894e-07	-6.197940e-10	-4.350269e+00	-4.700433e+01
1.720000e-06	-5.803107e-07	-5.952429e-10	-4.026396e+00	-4.576526e+01
1.730000e-06	-5.335392e-07	-5.717090e-10	-3.701879e+00	-4.450022e+01
1.740000e-06	-4.868020e-07	-5.515994e-10	-3.377600e+00	-4.320756e+01
1.750000e-06	-4.400682e-07	-5.328174e-10	-3.053345e+00	-4.188559e+01
1.760000e-06	-3.932978e-07	-5.128473e-10	-2.728835e+00	-4.053254e+01
1.770000e-06	-3.465107e-07	-4.951886e-10	-2.404211e+00	-3.914664e+01
1.780000e-06	-2.996986e-07	-4.764759e-10	-2.079412e+00	-3.772613e+01
1.790000e-06	-2.528897e-07	-4.539253e-10	-1.754636e+00	-3.626925e+01
1.800000e-06	-2.059783e-07	-4.301735e-10	-1.429148e+00	-3.477435e+01
1.810000e-06	-1.590482e-07	-4.053693e-10	-1.103531e+00	-3.323987e+01
1.820000e-06	-1.121816e-07	-3.801720e-10	-7.783544e-01	-3.166435e+01
1.830000e-06	-6.531493e-08	-3.577589e-10	-4.531775e-01	-3.004654e+01
1.840000e-06	-1.845539e-08	-3.380570e-10	-1.280499e-01	-2.838533e+01
1.850000e-06	2.842078e-08	-3.201888e-10	1.971932e-01	-2.667986e+01
1.860000e-06	7.531505e-08	-3.005519e-10	5.225618e-01	-2.492951e+01
1.870000e-06	1.221559e-07	-2.762558e-10	8.475600e-01	-2.313391e+01
1.880000e-06	1.689014e-07	-2.482813e-10	1.171896e+00	-2.129301e+01
1.890000e-06	2.156748e-07	-2.173421e-10	1.496426e+00	-1.940704e+01
1.900000e-06	2.625074e-07	-1.858300e-10	1.821367e+00	-1.747654e+01
1.910000e-06	3.093522e-07	-1.551631e-10	2.146392e+00	-1.550241e+01
1.920000e-06	3.561743e-07	-1.266039e-10	2.471260e+00	-1.348583e+01
1.930000e-06	4.029812e-07	-1.000643e-10	2.796023e+00	-1.142836e+01
1.940000e-06	4.497771e-07	-7.409599e-11	3.120708e+00	-9.331846e+00
1.950000e-06	4.964997e-07	-4.858100e-11	3.444886e+00	-7.198472e+00
1.960000e-06	5.431756e-07	-2.061547e-11	3.768740e+00	-5.030715e+00
1.970000e-06	5.898363e-07	1.134616e-11	4.092488e+00	-2.831335e+00
1.980000e-06	6.364701e-07	4.498258e-11	4.416049e+00	-6.033567e-01
1.990000e-06	6.830583e-07	7.765684e-11	4.739294e+00	1.649959e+00
2.000000e-06	7.294946e-07	1.086134e-10	5.061485e+00	3.925143e+00
2.010000e-06	7.757874e-07	1.397421e-10	5.382680e+00	6.218551e+00
2.020000e-06	8.220684e-07	1.715863e-10	5.703793e+00	8.526393e+00
2.030000e-06	8.683885e-07	2.049490e-10	6.025178e+00	1.084477e+01
2.040000e-06	9.147100e-07	2.388454e-10	6.346573e+00	1.316972e+01
2.050000e-06	9.609825e-07	2.727776e-10	6.667628e+00	1.549724e+01
2.060000e-06	1.007149e-06	3.049171e-10	6.987944e+00	1.782332e+01
2.070000e-06	1.053169e-06	3.364741e-10	7.307252e+00	2.014402e+01
2.080000e-06	1.099136e-06	3.666832e-10	7.626185e+00	2.245543e+01
2.090000e-06	1.145038e-06	3.956368e-10	7.944669e+00	2.475379e+01
2.100000e-06	1.190852e-06	4.272076e-10	8.262541e+00	2.703547e+01
2.110000e-06	1.236607e-06	4.620384e-10	8.580002e+00	2.929699e+01
2.120000e-06	1.282280e-06	4.977857e-10	8.896901e+00	3.153510e+01
2.130000e-06	1.327961e-06	5.317564e-10	9.213851e+00	3.374674e+01
2.140000e-06	1.373567e-06	5.623428e-10	9.530282e+00	3.592910e+01
2.150000e-06	1.419017e-06	5.898660e-10	9.845631e+00	3.807964e+01
2.160000e-06	1.464384e-06	6.154593e-10	1.016040e+01	4.019607e+01
2.170000e-06	1.509620e-06	6.392237e-10	1.047427e+01	4.227637e+01
2.180000e-06	1.554665e-06	6.637098e-10	1.078680e+01	4.431884e+01
2.190000e-06	1.599620e-06	6.927773e-10	1.109871e+01	4.632201e+01
2.200000e-06	1.644470e-06	7.262643e-10	1.140990e+01	4.828471e+01
2.210000e-06	1.689189e-06	7.608049e-10	1.172018e+01	5.020605e+01
2.220000e-06	1.733795e-06	7.925342e-10	1.202967e+01	5.208540e+01
2.230000e-06	1.778223e-06	8.174569e-10	1.233793e+01	5.392235e+01
2.240000e-06	1.822503e-06	8.371825e-10	1.264515e+01	5.571675e+01
2.250000e-06	1.866700e-06	8.532467e-10	1.295181e+01	5.746867e+01
2.260000e-06	1.910805e-06	8.697626e-10	1.325782e+01	5.917835e+01
2.270000e-06	1.954801e-06	8.904350e-10	1.356308e+01	6.084623e+01
2.280000e-06	1.998763e-06	9.141905e-10	1.386811e+01	6.247288e+01
2.290000e-06	2.042667e-06	9.388482e-10	1.417273e+01	6.405901e+01
2.300000e-06	2.086488e-06	9.639744e-10	1.447678e+01	6.560546e+01
2.310000e-06	2.130256e-06	9.886927e-10	1.478045e+01	6.711312e+01
2.320000e-06	2.173927e-06	1.008958e-09	1.508345e+01	6.858296e+01
2.330000e-06	2.217455e-06	1.025060e-09	1.538547e+01	7.001602e+01
2.340000e-06	2.260876e-06	1.038896e-09	1.568673e+01	7.141332e+01
2.350000e-06	2.304164e-06	1.052308e-09	1.598708e+01	7.277592e+01
2.360000e-06	2.347244e-06	1.067561e-09	1.628599e+01	7.410486e+01
2.370000e-06	2.390021e-06	1.086492e-09	1.658279e+01	7.540116e+01
2.380000e-06	2.432534e-06	1.109285e-09	1.687776e+01	7.666582e+01
2.390000e-06	2.474782e-06	1.130269e-09	1.717089e+01	7.789977e+01
2.400000e-06	2.516579e-06	1.148469e-09	1.746089e+01	7.910392e+01
2.410000e-06	2.557991e-06	1.165332e-09	1.774822e+01	8.027909e+01
2.420000e-06	2.599163e-06	1.179307e-09	1.803389e+01	8.142608e+01
2.430000e-06	2.640034e-06	1.191705e-09	1.831747e+01	8.254561e+01
2.440000e-06	2.680616e-06	1.204885e-09	1.859904e+01	8.363832e+01
2.450000e-06	2.720970e-06	1.221353e-09	1.887903e+01	8.470484e+01
2.460000e-06	2.761172e-06	1.239752e-09	1.915796e+01	8.574570e+01
2.470000e-06	2.801299e-06	1.256216e-09	1.943638e+01	8.676141e+01
2.480000e-06	2.841319e-06	1.269438e-09	1.971405e+01	8.775243e+01
2.490000e-06	2.881263e-06	1.280887e-09	1.999120e+01	8.871917e+01
2.500000e-06	2.921082e-06	1.291163e-09	2.026747e+01	8.966203e+01
2.510000e-06	2.960697e-06	1.303541e-09	2.054233e+01	9.058138e+01
2.520000e-06	3.000170e-06	1.317309e-09	2.081621e+01	9.147756e+01
2.530000e-06	3.039451e-06	1.331922e-09	2.108876e+01	9.235093e+01
2.540000e-06	3.078514e-06	1.348217e-09	2.135979e+01	9.320182e+01
2.550000e-06	3.117373e-06	1.361387e-09	2.162941e+01	9.403059e+01
2.560000e-06	3.155899e-06	1.368897e-09	2.189671e+01	9.483758e+01
2.570000e-06	3.194132e-06	1.373701e-09	2.216199e+01	9.562317e+01
2.580000e-06	3.232201e-06	1.378292e-09	2.242612e+01	9.638776e+01
2.590000e-06	3.270094e-06	1.384164e-09	2.268904e+01	9.713174e+01
2.600000e-06	3.307781e-06	1.395080e-09	2.295052e+01	9.785556e+01
2.610000e-06	3.345186e-06	1.411415e-09	2.321005e+01	9.855966e+01
2.620000e-06	3.382287e-06	1.429010e-09	2.346747e+01	9.924453e+01
2.630000e-06	3.419124e-06	1.442630e-09	2.372306e+01	9.991066e+01
2.640000e-06	3.455788e-06	1.451620e-09	2.397745e+01	1.005586e+02
2.650000e-06	3.492298e-06	1.458219e-09	2.423077e+01	1.011888e+02
2.660000e-06	3.528560e-06	1.463160e-09	2.448237e+01	1.018019e+02
2.670000e-06	3.564590e-06	1.467055e-09	2.473235e+01	1.023983e+02
2.680000e-06	3.600474e-06	1.471910e-09	2.498133e+01	1.029788e+02
2.690000e-06	3.636207e-06	1.480836e-09	2.522926e+01	1.035438e+02
2.700000e-06	3.671770e-06	1.493327e-09	2.547601e+01	1.040938e+02
2.710000e-06	3.707226e-06	1.503202e-09	2.572201e+01	1.046295e+02
2.720000e-06	3.742508e-06	1.509816e-09	2.596681e+01	1.051513e+02
2.730000e-06	3.777418e-06	1.515776e-09	2.620903e+01	1.056597e+02
2.740000e-06	3.811872e-06	1.520130e-09	2.644808e+01	1.061553e+02
2.750000e-06	3.845889e-06	1.522595e-09	2.668410e+01	1.066384e+02
2.760000e-06	3.879437e-06	1.526616e-09	2.691687e+01	1.071095e+02
2.770000e-06	3.912468e-06	1.533754e-09	2.714605e+01	1.075690e+02
2.780000e-06	3.945050e-06	1.541885e-09	2.737211e+01	1.080173e+02
2.790000e-06	3.977324e-06	1.550515e-09	2.759604e+01	1.084546e+02
2.800000e-06	4.009357e-06	1.559412e-09	2.781830e+01	1.088813e+02
2.810000e-06	4.041224e-06	1.566763e-09	2.803940e+01	1.092975e+02
2.820000e-06	4.072994e-06	1.572370e-09	2.825983e+01	1.097036e+02
2.830000e-06	4.104654e-06	1.578301e-09	2.847950e+01	1.100997e+02
2.840000e-06	4.136124e-06	1.583620e-09	2.869786e+01	1.104860e+02
2.850000e-06	4.167230e-06	1.588339e-09	2.891368e+01	1.108625e+02
2.860000e-06	4.197965e-06	1.595232e-09	2.912693e+01	1.112294e+02
2.870000e-06	4.228334e-06	1.603710e-09	2.933764e+01	1.115868e+02
2.880000e-06	4.258360e-06	1.610059e-09	2.954597e+01	1.119348e+02
2.890000e-06	4.288180e-06	1.613925e-09	2.975287e+01	1.122734e+02
2.900000e-06	4.317769e-06	1.619277e-09	2.995817e+01	1.126027e+02
