# Temperatura_=_14.3
# Concentracion g/m^3_=_1620.0
# C_Vs_to_Am_M_A/Vsm_=_65563218390.804596
# pendiente_HvsI_1/m_=_3716.3
# ordenada_HvsI_A/m_=_1297.0
# frecuencia_Hz_=_135104.7964175023

Tiempo_(s)	Campo_(V.s)	Magnetizacion_(V.s)	Campo_(kA/m)	Magnetizacion_(A/m)
0.000000e+00	-5.530499e-06	-1.879773e-09	-3.836782e+01	-1.227717e+02
1.000000e-08	-5.530767e-06	-1.876111e-09	-3.836968e+01	-1.227290e+02
2.000000e-08	-5.530785e-06	-1.878888e-09	-3.836980e+01	-1.226845e+02
3.000000e-08	-5.530408e-06	-1.883553e-09	-3.836719e+01	-1.226379e+02
4.000000e-08	-5.529528e-06	-1.886622e-09	-3.836108e+01	-1.225889e+02
5.000000e-08	-5.528203e-06	-1.884131e-09	-3.835189e+01	-1.225374e+02
6.000000e-08	-5.526334e-06	-1.873316e-09	-3.833893e+01	-1.224831e+02
7.000000e-08	-5.523822e-06	-1.860837e-09	-3.832150e+01	-1.224257e+02
8.000000e-08	-5.520801e-06	-1.860577e-09	-3.830054e+01	-1.223649e+02
9.000000e-08	-5.517299e-06	-1.885449e-09	-3.827624e+01	-1.223005e+02
1.000000e-07	-5.513317e-06	-1.932965e-09	-3.824862e+01	-1.222320e+02
1.100000e-07	-5.508972e-06	-1.944013e-09	-3.821848e+01	-1.221594e+02
1.200000e-07	-5.504498e-06	-1.878669e-09	-3.818744e+01	-1.220821e+02
1.300000e-07	-5.499861e-06	-1.805652e-09	-3.815527e+01	-1.220000e+02
1.400000e-07	-5.494871e-06	-1.839800e-09	-3.812065e+01	-1.219128e+02
1.500000e-07	-5.489426e-06	-1.898633e-09	-3.808287e+01	-1.218201e+02
1.600000e-07	-5.483504e-06	-1.898454e-09	-3.804179e+01	-1.217219e+02
1.700000e-07	-5.477173e-06	-1.849713e-09	-3.799787e+01	-1.216179e+02
1.800000e-07	-5.470464e-06	-1.843276e-09	-3.795133e+01	-1.215078e+02
1.900000e-07	-5.463386e-06	-1.890609e-09	-3.790222e+01	-1.213916e+02
2.000000e-07	-5.455911e-06	-1.860276e-09	-3.785036e+01	-1.212692e+02
2.100000e-07	-5.448208e-06	-1.834013e-09	-3.779693e+01	-1.211404e+02
2.200000e-07	-5.440364e-06	-1.839176e-09	-3.774251e+01	-1.210053e+02
2.300000e-07	-5.432204e-06	-1.895458e-09	-3.768590e+01	-1.208637e+02
2.400000e-07	-5.423609e-06	-1.890581e-09	-3.762627e+01	-1.207159e+02
2.500000e-07	-5.414445e-06	-1.863861e-09	-3.756270e+01	-1.205617e+02
2.600000e-07	-5.404523e-06	-1.829038e-09	-3.749386e+01	-1.204014e+02
2.700000e-07	-5.393975e-06	-1.833183e-09	-3.742069e+01	-1.202350e+02
2.800000e-07	-5.382961e-06	-1.836025e-09	-3.734427e+01	-1.200627e+02
2.900000e-07	-5.371477e-06	-1.839636e-09	-3.726460e+01	-1.198848e+02
3.000000e-07	-5.359602e-06	-1.836180e-09	-3.718222e+01	-1.197014e+02
3.100000e-07	-5.347378e-06	-1.839076e-09	-3.709742e+01	-1.195127e+02
3.200000e-07	-5.334712e-06	-1.838972e-09	-3.700955e+01	-1.193191e+02
3.300000e-07	-5.321586e-06	-1.811487e-09	-3.691849e+01	-1.191207e+02
3.400000e-07	-5.308059e-06	-1.793809e-09	-3.682464e+01	-1.189179e+02
3.500000e-07	-5.294196e-06	-1.800986e-09	-3.672847e+01	-1.187109e+02
3.600000e-07	-5.280009e-06	-1.824422e-09	-3.663005e+01	-1.185000e+02
3.700000e-07	-5.265368e-06	-1.810503e-09	-3.652847e+01	-1.182854e+02
3.800000e-07	-5.250253e-06	-1.817223e-09	-3.642361e+01	-1.180675e+02
3.900000e-07	-5.234603e-06	-1.822998e-09	-3.631504e+01	-1.178464e+02
4.000000e-07	-5.218357e-06	-1.797316e-09	-3.620233e+01	-1.176224e+02
4.100000e-07	-5.201696e-06	-1.768831e-09	-3.608675e+01	-1.173956e+02
4.200000e-07	-5.184750e-06	-1.809557e-09	-3.596919e+01	-1.171663e+02
4.300000e-07	-5.167520e-06	-1.811330e-09	-3.584966e+01	-1.169347e+02
4.400000e-07	-5.150000e-06	-1.777046e-09	-3.572811e+01	-1.167007e+02
4.500000e-07	-5.132046e-06	-1.791551e-09	-3.560356e+01	-1.164646e+02
4.600000e-07	-5.113583e-06	-1.828444e-09	-3.547547e+01	-1.162264e+02
4.700000e-07	-5.094713e-06	-1.766439e-09	-3.534456e+01	-1.159862e+02
4.800000e-07	-5.075487e-06	-1.742367e-09	-3.521117e+01	-1.157439e+02
4.900000e-07	-5.056019e-06	-1.790667e-09	-3.507612e+01	-1.154995e+02
5.000000e-07	-5.036388e-06	-1.779158e-09	-3.493993e+01	-1.152530e+02
5.100000e-07	-5.016485e-06	-1.718448e-09	-3.480185e+01	-1.150044e+02
5.200000e-07	-4.996355e-06	-1.754364e-09	-3.466220e+01	-1.147535e+02
5.300000e-07	-4.975951e-06	-1.773756e-09	-3.452065e+01	-1.145003e+02
5.400000e-07	-4.955092e-06	-1.726705e-09	-3.437594e+01	-1.142446e+02
5.500000e-07	-4.933837e-06	-1.731080e-09	-3.422848e+01	-1.139862e+02
5.600000e-07	-4.912292e-06	-1.767353e-09	-3.407901e+01	-1.137252e+02
5.700000e-07	-4.890407e-06	-1.722558e-09	-3.392719e+01	-1.134612e+02
5.800000e-07	-4.868184e-06	-1.704625e-09	-3.377301e+01	-1.131943e+02
5.900000e-07	-4.845527e-06	-1.747228e-09	-3.361583e+01	-1.129242e+02
6.000000e-07	-4.822448e-06	-1.729453e-09	-3.345572e+01	-1.126508e+02
6.100000e-07	-4.799139e-06	-1.689718e-09	-3.329401e+01	-1.123739e+02
6.200000e-07	-4.775634e-06	-1.708595e-09	-3.313094e+01	-1.120935e+02
6.300000e-07	-4.751905e-06	-1.709229e-09	-3.296633e+01	-1.118094e+02
6.400000e-07	-4.727979e-06	-1.674791e-09	-3.280034e+01	-1.115216e+02
6.500000e-07	-4.703744e-06	-1.689873e-09	-3.263221e+01	-1.112300e+02
6.600000e-07	-4.679044e-06	-1.702349e-09	-3.246085e+01	-1.109344e+02
6.700000e-07	-4.653838e-06	-1.677377e-09	-3.228599e+01	-1.106348e+02
6.800000e-07	-4.628110e-06	-1.671828e-09	-3.210750e+01	-1.103313e+02
6.900000e-07	-4.601860e-06	-1.683128e-09	-3.192539e+01	-1.100237e+02
7.000000e-07	-4.575073e-06	-1.655821e-09	-3.173955e+01	-1.097120e+02
7.100000e-07	-4.547903e-06	-1.646193e-09	-3.155106e+01	-1.093962e+02
7.200000e-07	-4.520503e-06	-1.656628e-09	-3.136098e+01	-1.090763e+02
7.300000e-07	-4.492860e-06	-1.654364e-09	-3.116920e+01	-1.087523e+02
7.400000e-07	-4.464998e-06	-1.645381e-09	-3.097591e+01	-1.084241e+02
7.500000e-07	-4.436944e-06	-1.651746e-09	-3.078128e+01	-1.080918e+02
7.600000e-07	-4.408629e-06	-1.635368e-09	-3.058485e+01	-1.077554e+02
7.700000e-07	-4.379981e-06	-1.618778e-09	-3.038610e+01	-1.074147e+02
7.800000e-07	-4.350960e-06	-1.615741e-09	-3.018477e+01	-1.070698e+02
7.900000e-07	-4.321601e-06	-1.612103e-09	-2.998110e+01	-1.067205e+02
8.000000e-07	-4.291984e-06	-1.600630e-09	-2.977563e+01	-1.063669e+02
8.100000e-07	-4.262165e-06	-1.604223e-09	-2.956876e+01	-1.060089e+02
8.200000e-07	-4.232078e-06	-1.600797e-09	-2.936003e+01	-1.056463e+02
8.300000e-07	-4.201652e-06	-1.585044e-09	-2.914895e+01	-1.052790e+02
8.400000e-07	-4.170866e-06	-1.576388e-09	-2.893537e+01	-1.049069e+02
8.500000e-07	-4.139725e-06	-1.579093e-09	-2.871933e+01	-1.045298e+02
8.600000e-07	-4.108391e-06	-1.573942e-09	-2.850195e+01	-1.041477e+02
8.700000e-07	-4.076919e-06	-1.567404e-09	-2.828362e+01	-1.037602e+02
8.800000e-07	-4.045284e-06	-1.565583e-09	-2.806414e+01	-1.033673e+02
8.900000e-07	-4.013483e-06	-1.554682e-09	-2.784353e+01	-1.029687e+02
9.000000e-07	-3.981509e-06	-1.536957e-09	-2.762171e+01	-1.025642e+02
9.100000e-07	-3.949286e-06	-1.526481e-09	-2.739816e+01	-1.021538e+02
9.200000e-07	-3.916703e-06	-1.518347e-09	-2.717212e+01	-1.017372e+02
9.300000e-07	-3.883639e-06	-1.505728e-09	-2.694273e+01	-1.013142e+02
9.400000e-07	-3.850003e-06	-1.503191e-09	-2.670938e+01	-1.008848e+02
9.500000e-07	-3.815835e-06	-1.504745e-09	-2.647235e+01	-1.004488e+02
9.600000e-07	-3.781324e-06	-1.497164e-09	-2.623292e+01	-1.000062e+02
9.700000e-07	-3.746541e-06	-1.482040e-09	-2.599162e+01	-9.955693e+01
9.800000e-07	-3.711430e-06	-1.473408e-09	-2.574804e+01	-9.910093e+01
9.900000e-07	-3.676020e-06	-1.461597e-09	-2.550238e+01	-9.863827e+01
1.000000e-06	-3.640437e-06	-1.451617e-09	-2.525552e+01	-9.816900e+01
1.010000e-06	-3.604770e-06	-1.446341e-09	-2.500808e+01	-9.769325e+01
1.020000e-06	-3.568936e-06	-1.444909e-09	-2.475948e+01	-9.721117e+01
1.030000e-06	-3.532957e-06	-1.437672e-09	-2.450988e+01	-9.672295e+01
1.040000e-06	-3.496757e-06	-1.433203e-09	-2.425874e+01	-9.622883e+01
1.050000e-06	-3.460172e-06	-1.428662e-09	-2.400493e+01	-9.572908e+01
1.060000e-06	-3.423264e-06	-1.418910e-09	-2.374888e+01	-9.522400e+01
1.070000e-06	-3.386245e-06	-1.405145e-09	-2.349207e+01	-9.471393e+01
1.080000e-06	-3.349069e-06	-1.395420e-09	-2.323416e+01	-9.419921e+01
1.090000e-06	-3.311565e-06	-1.383695e-09	-2.297397e+01	-9.368021e+01
1.100000e-06	-3.273789e-06	-1.372739e-09	-2.271190e+01	-9.315730e+01
1.110000e-06	-3.235802e-06	-1.363326e-09	-2.244837e+01	-9.263083e+01
1.120000e-06	-3.197520e-06	-1.353900e-09	-2.218278e+01	-9.210118e+01
1.130000e-06	-3.159030e-06	-1.341614e-09	-2.191576e+01	-9.156866e+01
1.140000e-06	-3.120404e-06	-1.332730e-09	-2.164779e+01	-9.103358e+01
1.150000e-06	-3.081514e-06	-1.328027e-09	-2.137800e+01	-9.049621e+01
1.160000e-06	-3.042400e-06	-1.322262e-09	-2.110664e+01	-8.995676e+01
1.170000e-06	-3.003139e-06	-1.312689e-09	-2.083427e+01	-8.941538e+01
1.180000e-06	-2.963751e-06	-1.301742e-09	-2.056101e+01	-8.887216e+01
1.190000e-06	-2.924235e-06	-1.291078e-09	-2.028687e+01	-8.832713e+01
1.200000e-06	-2.884586e-06	-1.278575e-09	-2.001181e+01	-8.778022e+01
1.210000e-06	-2.844768e-06	-1.267448e-09	-1.973557e+01	-8.723130e+01
1.220000e-06	-2.804772e-06	-1.258483e-09	-1.945810e+01	-8.668013e+01
1.230000e-06	-2.764611e-06	-1.250406e-09	-1.917948e+01	-8.612642e+01
1.240000e-06	-2.724355e-06	-1.239939e-09	-1.890021e+01	-8.556975e+01
1.250000e-06	-2.683941e-06	-1.229323e-09	-1.861983e+01	-8.500966e+01
1.260000e-06	-2.643252e-06	-1.219350e-09	-1.833755e+01	-8.444557e+01
1.270000e-06	-2.602257e-06	-1.211027e-09	-1.805315e+01	-8.387685e+01
1.280000e-06	-2.560898e-06	-1.201351e-09	-1.776623e+01	-8.330280e+01
1.290000e-06	-2.519247e-06	-1.190576e-09	-1.747727e+01	-8.272264e+01
1.300000e-06	-2.477291e-06	-1.177794e-09	-1.718620e+01	-8.213557e+01
1.310000e-06	-2.435010e-06	-1.164840e-09	-1.689287e+01	-8.154074e+01
1.320000e-06	-2.392467e-06	-1.150285e-09	-1.659773e+01	-8.093725e+01
1.330000e-06	-2.349675e-06	-1.136907e-09	-1.630086e+01	-8.032423e+01
1.340000e-06	-2.306645e-06	-1.124875e-09	-1.600234e+01	-7.970078e+01
1.350000e-06	-2.263392e-06	-1.116237e-09	-1.570227e+01	-7.906601e+01
1.360000e-06	-2.220038e-06	-1.109728e-09	-1.540150e+01	-7.841908e+01
1.370000e-06	-2.176638e-06	-1.103140e-09	-1.510042e+01	-7.775918e+01
1.380000e-06	-2.133084e-06	-1.092938e-09	-1.479827e+01	-7.708554e+01
1.390000e-06	-2.089383e-06	-1.080120e-09	-1.449509e+01	-7.639749e+01
1.400000e-06	-2.045619e-06	-1.062892e-09	-1.419147e+01	-7.569439e+01
1.410000e-06	-2.001773e-06	-1.044523e-09	-1.388729e+01	-7.497573e+01
1.420000e-06	-1.957868e-06	-1.029667e-09	-1.358270e+01	-7.424106e+01
1.430000e-06	-1.913924e-06	-1.017492e-09	-1.327784e+01	-7.349003e+01
1.440000e-06	-1.869870e-06	-1.006668e-09	-1.297222e+01	-7.272242e+01
1.450000e-06	-1.825704e-06	-9.965587e-10	-1.266581e+01	-7.193808e+01
1.460000e-06	-1.781452e-06	-9.853005e-10	-1.235882e+01	-7.113697e+01
1.470000e-06	-1.737015e-06	-9.723162e-10	-1.205054e+01	-7.031915e+01
1.480000e-06	-1.692388e-06	-9.596742e-10	-1.174094e+01	-6.948476e+01
1.490000e-06	-1.647620e-06	-9.477055e-10	-1.143036e+01	-6.863403e+01
1.500000e-06	-1.602752e-06	-9.317237e-10	-1.111909e+01	-6.776725e+01
1.510000e-06	-1.557769e-06	-9.120436e-10	-1.080702e+01	-6.688478e+01
1.520000e-06	-1.512615e-06	-8.946070e-10	-1.049376e+01	-6.598701e+01
1.530000e-06	-1.467350e-06	-8.809090e-10	-1.017974e+01	-6.507436e+01
1.540000e-06	-1.421987e-06	-8.690529e-10	-9.865033e+00	-6.414726e+01
1.550000e-06	-1.376521e-06	-8.571563e-10	-9.549612e+00	-6.320611e+01
1.560000e-06	-1.330952e-06	-8.438562e-10	-9.233475e+00	-6.225130e+01
1.570000e-06	-1.285282e-06	-8.251769e-10	-8.916639e+00	-6.128315e+01
1.580000e-06	-1.239515e-06	-8.044701e-10	-8.599131e+00	-6.030193e+01
1.590000e-06	-1.193627e-06	-7.863878e-10	-8.280781e+00	-5.930779e+01
1.600000e-06	-1.147677e-06	-7.677507e-10	-7.962007e+00	-5.830081e+01
1.610000e-06	-1.101665e-06	-7.492799e-10	-7.642799e+00	-5.728092e+01
1.620000e-06	-1.055566e-06	-7.325444e-10	-7.322983e+00	-5.624790e+01
1.630000e-06	-1.009450e-06	-7.177615e-10	-7.003055e+00	-5.520140e+01
1.640000e-06	-9.632751e-07	-7.048109e-10	-6.682718e+00	-5.414091e+01
1.650000e-06	-9.169724e-07	-6.894160e-10	-6.361493e+00	-5.306574e+01
1.660000e-06	-8.705816e-07	-6.733062e-10	-6.039657e+00	-5.197502e+01
1.670000e-06	-8.241703e-07	-6.573506e-10	-5.717679e+00	-5.086773e+01
1.680000e-06	-7.777240e-07	-6.414741e-10	-5.395458e+00	-4.974267e+01
1.690000e-06	-7.311937e-07	-6.255862e-10	-5.072654e+00	-4.859846e+01
1.700000e-06	-6.847065e-07	-6.093996e-10	-4.750149e+00	-4.743360e+01
1.710000e-06	-6.382243e-07	-5.891401e-10	-4.427679e+00	-4.624642e+01
1.720000e-06	-5.916344e-07	-5.668672e-10	-4.104462e+00	-4.503515e+01
1.730000e-06	-5.449608e-07	-5.441165e-10	-3.780664e+00	-4.379791e+01
1.740000e-06	-4.981875e-07	-5.230711e-10	-3.456174e+00	-4.253272e+01
1.750000e-06	-4.513840e-07	-5.051878e-10	-3.131475e+00	-4.123758e+01
1.760000e-06	-4.045723e-07	-4.874275e-10	-2.806719e+00	-3.991045e+01
1.770000e-06	-3.577307e-07	-4.673370e-10	-2.481756e+00	-3.854928e+01
1.780000e-06	-3.108017e-07	-4.454988e-10	-2.156186e+00	-3.715209e+01
1.790000e-06	-2.638112e-07	-4.241234e-10	-1.830190e+00	-3.571693e+01
1.800000e-06	-2.168187e-07	-4.039092e-10	-1.504179e+00	-3.424197e+01
1.810000e-06	-1.698463e-07	-3.826739e-10	-1.178308e+00	-3.272551e+01
1.820000e-06	-1.229369e-07	-3.608327e-10	-8.528745e-01	-3.116601e+01
1.830000e-06	-7.599222e-08	-3.386468e-10	-5.271958e-01	-2.956212e+01
1.840000e-06	-2.894051e-08	-3.165973e-10	-2.007747e-01	-2.791274e+01
1.850000e-06	1.807708e-08	-2.950528e-10	1.254097e-01	-2.621697e+01
1.860000e-06	6.496328e-08	-2.730765e-10	4.506825e-01	-2.447424e+01
1.870000e-06	1.118554e-07	-2.493859e-10	7.759967e-01	-2.268422e+01
1.880000e-06	1.588078e-07	-2.241456e-10	1.101729e+00	-2.084692e+01
1.890000e-06	2.057350e-07	-1.984837e-10	1.427286e+00	-1.896267e+01
1.900000e-06	2.526816e-07	-1.703536e-10	1.752978e+00	-1.703212e+01
1.910000e-06	2.996368e-07	-1.403966e-10	2.078730e+00	-1.505628e+01
1.920000e-06	3.465542e-07	-1.098281e-10	2.404219e+00	-1.303648e+01
1.930000e-06	3.934444e-07	-7.959970e-11	2.729519e+00	-1.097437e+01
1.940000e-06	4.401874e-07	-5.056134e-11	3.053799e+00	-8.871963e+00
1.950000e-06	4.868446e-07	-2.450078e-11	3.377483e+00	-6.731550e+00
1.960000e-06	5.335445e-07	2.033932e-12	3.701463e+00	-4.555734e+00
1.970000e-06	5.802051e-07	3.207303e-11	4.025171e+00	-2.347390e+00
1.980000e-06	6.267911e-07	6.418120e-11	4.348361e+00	-1.096426e-01
1.990000e-06	6.733570e-07	9.736515e-11	4.671412e+00	2.154159e+00
2.000000e-06	7.198841e-07	1.319762e-10	4.994194e+00	4.440471e+00
2.010000e-06	7.663250e-07	1.657336e-10	5.316378e+00	6.745591e+00
2.020000e-06	8.126853e-07	1.990238e-10	5.638002e+00	9.065687e+00
2.030000e-06	8.589818e-07	2.335925e-10	5.959183e+00	1.139684e+01
2.040000e-06	9.052959e-07	2.669330e-10	6.280487e+00	1.373506e+01
2.050000e-06	9.515563e-07	2.973313e-10	6.601419e+00	1.607636e+01
2.060000e-06	9.977105e-07	3.270994e-10	6.921614e+00	1.841676e+01
2.070000e-06	1.043747e-06	3.585889e-10	7.240995e+00	2.075232e+01
2.080000e-06	1.089655e-06	3.907317e-10	7.559475e+00	2.307921e+01
2.090000e-06	1.135576e-06	4.235964e-10	7.878057e+00	2.539369e+01
2.100000e-06	1.181512e-06	4.593595e-10	8.196735e+00	2.769218e+01
2.110000e-06	1.227383e-06	4.938076e-10	8.514968e+00	2.997129e+01
2.120000e-06	1.273149e-06	5.253320e-10	8.832468e+00	3.222779e+01
2.130000e-06	1.318751e-06	5.565745e-10	9.148830e+00	3.445871e+01
2.140000e-06	1.364274e-06	5.852503e-10	9.464649e+00	3.666128e+01
2.150000e-06	1.409701e-06	6.123024e-10	9.779797e+00	3.883301e+01
2.160000e-06	1.454958e-06	6.399731e-10	1.009376e+01	4.097164e+01
2.170000e-06	1.500131e-06	6.667215e-10	1.040715e+01	4.307520e+01
2.180000e-06	1.545236e-06	6.934965e-10	1.072007e+01	4.514197e+01
2.190000e-06	1.590255e-06	7.220232e-10	1.103239e+01	4.717052e+01
2.200000e-06	1.635118e-06	7.521740e-10	1.134363e+01	4.915965e+01
2.210000e-06	1.679789e-06	7.827985e-10	1.165353e+01	5.110845e+01
2.220000e-06	1.724303e-06	8.129885e-10	1.196234e+01	5.301622e+01
2.230000e-06	1.768690e-06	8.412740e-10	1.227028e+01	5.488252e+01
2.240000e-06	1.812963e-06	8.648465e-10	1.257742e+01	5.670712e+01
2.250000e-06	1.857124e-06	8.836265e-10	1.288379e+01	5.848998e+01
2.260000e-06	1.901189e-06	9.009400e-10	1.318949e+01	6.023124e+01
2.270000e-06	1.945220e-06	9.210272e-10	1.349496e+01	6.193121e+01
2.280000e-06	1.989177e-06	9.440331e-10	1.379991e+01	6.359034e+01
2.290000e-06	2.033023e-06	9.686809e-10	1.410409e+01	6.520919e+01
2.300000e-06	2.076827e-06	9.939277e-10	1.440798e+01	6.678844e+01
2.310000e-06	2.120571e-06	1.017488e-09	1.471146e+01	6.832882e+01
2.320000e-06	2.164214e-06	1.036819e-09	1.501423e+01	6.983115e+01
2.330000e-06	2.207803e-06	1.051980e-09	1.531663e+01	7.129626e+01
2.340000e-06	2.251319e-06	1.065696e-09	1.561852e+01	7.272503e+01
2.350000e-06	2.294634e-06	1.081343e-09	1.591901e+01	7.411834e+01
2.360000e-06	2.337712e-06	1.100807e-09	1.621787e+01	7.547707e+01
2.370000e-06	2.380575e-06	1.120813e-09	1.651523e+01	7.680208e+01
2.380000e-06	2.423152e-06	1.141216e-09	1.681061e+01	7.809421e+01
2.390000e-06	2.465476e-06	1.158735e-09	1.710423e+01	7.935425e+01
2.400000e-06	2.507467e-06	1.172442e-09	1.739554e+01	8.058298e+01
2.410000e-06	2.549129e-06	1.187112e-09	1.768457e+01	8.178112e+01
2.420000e-06	2.590575e-06	1.203875e-09	1.797211e+01	8.294935e+01
2.430000e-06	2.631634e-06	1.221755e-09	1.825695e+01	8.408831e+01
2.440000e-06	2.672353e-06	1.239709e-09	1.853944e+01	8.519859e+01
2.450000e-06	2.712870e-06	1.257590e-09	1.882053e+01	8.628075e+01
2.460000e-06	2.753193e-06	1.272596e-09	1.910027e+01	8.733532e+01
2.470000e-06	2.793337e-06	1.285513e-09	1.937877e+01	8.836278e+01
2.480000e-06	2.833290e-06	1.297159e-09	1.965594e+01	8.936361e+01
2.490000e-06	2.873122e-06	1.309922e-09	1.993228e+01	9.033826e+01
2.500000e-06	2.912881e-06	1.324813e-09	2.020810e+01	9.128718e+01
2.510000e-06	2.952465e-06	1.341306e-09	2.048272e+01	9.221080e+01
2.520000e-06	2.991891e-06	1.357956e-09	2.075623e+01	9.310958e+01
2.530000e-06	3.031145e-06	1.370699e-09	2.102856e+01	9.398396e+01
2.540000e-06	3.070119e-06	1.382587e-09	2.129894e+01	9.483441e+01
2.550000e-06	3.108797e-06	1.395384e-09	2.156727e+01	9.566142e+01
2.560000e-06	3.147302e-06	1.404720e-09	2.183440e+01	9.646550e+01
2.570000e-06	3.185597e-06	1.413299e-09	2.210007e+01	9.724718e+01
2.580000e-06	3.223629e-06	1.422229e-09	2.236391e+01	9.800703e+01
2.590000e-06	3.261522e-06	1.431164e-09	2.262680e+01	9.874564e+01
2.600000e-06	3.299319e-06	1.441441e-09	2.288901e+01	9.946362e+01
2.610000e-06	3.336943e-06	1.454594e-09	2.315003e+01	1.001616e+02
2.620000e-06	3.374310e-06	1.470984e-09	2.340927e+01	1.008403e+02
2.630000e-06	3.411327e-06	1.485923e-09	2.366607e+01	1.015004e+02
2.640000e-06	3.447980e-06	1.496506e-09	2.392035e+01	1.021425e+02
2.650000e-06	3.484420e-06	1.503235e-09	2.417315e+01	1.027675e+02
2.660000e-06	3.520720e-06	1.506662e-09	2.442498e+01	1.033759e+02
2.670000e-06	3.556867e-06	1.508241e-09	2.467575e+01	1.039686e+02
2.680000e-06	3.592829e-06	1.512142e-09	2.492524e+01	1.045461e+02
2.690000e-06	3.628606e-06	1.521110e-09	2.517344e+01	1.051093e+02
2.700000e-06	3.664248e-06	1.533836e-09	2.542071e+01	1.056587e+02
2.710000e-06	3.699740e-06	1.545174e-09	2.566693e+01	1.061951e+02
2.720000e-06	3.735062e-06	1.552388e-09	2.591198e+01	1.067189e+02
2.730000e-06	3.770118e-06	1.556637e-09	2.615518e+01	1.072309e+02
2.740000e-06	3.804790e-06	1.560131e-09	2.639572e+01	1.077314e+02
2.750000e-06	3.838988e-06	1.564473e-09	2.663296e+01	1.082210e+02
2.760000e-06	3.872603e-06	1.571255e-09	2.686617e+01	1.087001e+02
2.770000e-06	3.905801e-06	1.580917e-09	2.709648e+01	1.091690e+02
2.780000e-06	3.938658e-06	1.590783e-09	2.732443e+01	1.096281e+02
2.790000e-06	3.971091e-06	1.598987e-09	2.754943e+01	1.100777e+02
2.800000e-06	4.003182e-06	1.605659e-09	2.777206e+01	1.105178e+02
2.810000e-06	4.035082e-06	1.611189e-09	2.799337e+01	1.109488e+02
2.820000e-06	4.066852e-06	1.617544e-09	2.821378e+01	1.113707e+02
2.830000e-06	4.098468e-06	1.626206e-09	2.843311e+01	1.117835e+02
2.840000e-06	4.129904e-06	1.635329e-09	2.865120e+01	1.121874e+02
2.850000e-06	4.161093e-06	1.641368e-09	2.886757e+01	1.125822e+02
2.860000e-06	4.191950e-06	1.646056e-09	2.908164e+01	1.129680e+02
2.870000e-06	4.222396e-06	1.652131e-09	2.929286e+01	1.133447e+02
2.880000e-06	4.252538e-06	1.657955e-09	2.950197e+01	1.137122e+02
2.890000e-06	4.282471e-06	1.662011e-09	2.970963e+01	1.140705e+02
2.900000e-06	4.312076e-06	1.666725e-09	2.991502e+01	1.144194e+02
