# Temperatura_=_-8.5
# Concentracion g/m^3_=_1620.0
# C_Vs_to_Am_M_A/Vsm_=_65563218390.804596
# pendiente_HvsI_1/m_=_3716.3
# ordenada_HvsI_A/m_=_1297.0
# frecuencia_Hz_=_135109.54417641595

Tiempo_(s)	Campo_(V.s)	Magnetizacion_(V.s)	Campo_(kA/m)	Magnetizacion_(A/m)
0.000000e+00	-5.512165e-06	-1.393773e-09	-3.836447e+01	-9.161197e+01
1.000000e-08	-5.512291e-06	-1.393748e-09	-3.836534e+01	-9.153473e+01
2.000000e-08	-5.512119e-06	-1.394823e-09	-3.836414e+01	-9.145850e+01
3.000000e-08	-5.511533e-06	-1.395480e-09	-3.836007e+01	-9.138306e+01
4.000000e-08	-5.510476e-06	-1.395570e-09	-3.835271e+01	-9.130816e+01
5.000000e-08	-5.508857e-06	-1.390514e-09	-3.834145e+01	-9.123348e+01
6.000000e-08	-5.506536e-06	-1.385055e-09	-3.832529e+01	-9.115866e+01
7.000000e-08	-5.503636e-06	-1.401703e-09	-3.830511e+01	-9.108331e+01
8.000000e-08	-5.500218e-06	-1.412893e-09	-3.828132e+01	-9.100702e+01
9.000000e-08	-5.496313e-06	-1.378326e-09	-3.825414e+01	-9.092936e+01
1.000000e-07	-5.492106e-06	-1.379937e-09	-3.822486e+01	-9.084991e+01
1.100000e-07	-5.487661e-06	-1.451488e-09	-3.819392e+01	-9.076825e+01
1.200000e-07	-5.482955e-06	-1.438433e-09	-3.816117e+01	-9.068399e+01
1.300000e-07	-5.477967e-06	-1.352070e-09	-3.812645e+01	-9.059675e+01
1.400000e-07	-5.472668e-06	-1.330926e-09	-3.808957e+01	-9.050622e+01
1.500000e-07	-5.466966e-06	-1.433296e-09	-3.804988e+01	-9.041213e+01
1.600000e-07	-5.460828e-06	-1.468901e-09	-3.800716e+01	-9.031424e+01
1.700000e-07	-5.454312e-06	-1.363891e-09	-3.796181e+01	-9.021242e+01
1.800000e-07	-5.447438e-06	-1.336943e-09	-3.791397e+01	-9.010656e+01
1.900000e-07	-5.440208e-06	-1.415386e-09	-3.786365e+01	-8.999667e+01
2.000000e-07	-5.432643e-06	-1.448269e-09	-3.781099e+01	-8.988279e+01
2.100000e-07	-5.424799e-06	-1.380994e-09	-3.775640e+01	-8.976506e+01
2.200000e-07	-5.416690e-06	-1.365242e-09	-3.769997e+01	-8.964368e+01
2.300000e-07	-5.408301e-06	-1.430726e-09	-3.764158e+01	-8.951890e+01
2.400000e-07	-5.399481e-06	-1.449263e-09	-3.758019e+01	-8.939106e+01
2.500000e-07	-5.390024e-06	-1.381734e-09	-3.751437e+01	-8.926054e+01
2.600000e-07	-5.379871e-06	-1.347506e-09	-3.744370e+01	-8.912776e+01
2.700000e-07	-5.369106e-06	-1.378731e-09	-3.736878e+01	-8.899318e+01
2.800000e-07	-5.357876e-06	-1.403146e-09	-3.729062e+01	-8.885729e+01
2.900000e-07	-5.346208e-06	-1.385308e-09	-3.720941e+01	-8.872057e+01
3.000000e-07	-5.334116e-06	-1.367216e-09	-3.712525e+01	-8.858354e+01
3.100000e-07	-5.321650e-06	-1.382340e-09	-3.703849e+01	-8.844668e+01
3.200000e-07	-5.308896e-06	-1.390273e-09	-3.694972e+01	-8.831046e+01
3.300000e-07	-5.295748e-06	-1.354700e-09	-3.685821e+01	-8.817530e+01
3.400000e-07	-5.282101e-06	-1.322430e-09	-3.676323e+01	-8.804159e+01
3.500000e-07	-5.268025e-06	-1.352189e-09	-3.666526e+01	-8.790968e+01
3.600000e-07	-5.253561e-06	-1.377244e-09	-3.656460e+01	-8.777981e+01
3.700000e-07	-5.238633e-06	-1.349321e-09	-3.646070e+01	-8.765220e+01
3.800000e-07	-5.223139e-06	-1.355048e-09	-3.635286e+01	-8.752697e+01
3.900000e-07	-5.207155e-06	-1.390692e-09	-3.624161e+01	-8.740414e+01
4.000000e-07	-5.190669e-06	-1.343780e-09	-3.612687e+01	-8.728368e+01
4.100000e-07	-5.173778e-06	-1.296737e-09	-3.600931e+01	-8.716546e+01
4.200000e-07	-5.156653e-06	-1.360914e-09	-3.589012e+01	-8.704926e+01
4.300000e-07	-5.139260e-06	-1.381371e-09	-3.576906e+01	-8.693479e+01
4.400000e-07	-5.121530e-06	-1.298983e-09	-3.564566e+01	-8.682168e+01
4.500000e-07	-5.103437e-06	-1.324525e-09	-3.551974e+01	-8.670951e+01
4.600000e-07	-5.084946e-06	-1.400639e-09	-3.539104e+01	-8.659777e+01
4.700000e-07	-5.066015e-06	-1.331402e-09	-3.525928e+01	-8.648592e+01
4.800000e-07	-5.046704e-06	-1.279456e-09	-3.512487e+01	-8.637339e+01
4.900000e-07	-5.027137e-06	-1.357658e-09	-3.498869e+01	-8.625956e+01
5.000000e-07	-5.007368e-06	-1.340617e-09	-3.485110e+01	-8.614380e+01
5.100000e-07	-4.987389e-06	-1.257893e-09	-3.471204e+01	-8.602551e+01
5.200000e-07	-4.967138e-06	-1.319888e-09	-3.457110e+01	-8.590406e+01
5.300000e-07	-4.946546e-06	-1.364017e-09	-3.442778e+01	-8.577887e+01
5.400000e-07	-4.925581e-06	-1.271873e-09	-3.428187e+01	-8.564939e+01
5.500000e-07	-4.904218e-06	-1.277906e-09	-3.413318e+01	-8.551512e+01
5.600000e-07	-4.882467e-06	-1.355753e-09	-3.398179e+01	-8.537563e+01
5.700000e-07	-4.860358e-06	-1.297709e-09	-3.382792e+01	-8.523053e+01
5.800000e-07	-4.837952e-06	-1.253859e-09	-3.367197e+01	-8.507954e+01
5.900000e-07	-4.815287e-06	-1.327348e-09	-3.351422e+01	-8.492244e+01
6.000000e-07	-4.792237e-06	-1.317087e-09	-3.335380e+01	-8.475911e+01
6.100000e-07	-4.768808e-06	-1.247894e-09	-3.319073e+01	-8.458952e+01
6.200000e-07	-4.745159e-06	-1.284582e-09	-3.302613e+01	-8.441371e+01
6.300000e-07	-4.721281e-06	-1.309875e-09	-3.285994e+01	-8.423184e+01
6.400000e-07	-4.697112e-06	-1.257375e-09	-3.269173e+01	-8.404413e+01
6.500000e-07	-4.672569e-06	-1.266055e-09	-3.252091e+01	-8.385088e+01
6.600000e-07	-4.647596e-06	-1.301597e-09	-3.234710e+01	-8.365248e+01
6.700000e-07	-4.622196e-06	-1.265006e-09	-3.217031e+01	-8.344937e+01
6.800000e-07	-4.596228e-06	-1.248535e-09	-3.198958e+01	-8.324204e+01
6.900000e-07	-4.569785e-06	-1.276688e-09	-3.180554e+01	-8.303103e+01
7.000000e-07	-4.542968e-06	-1.259415e-09	-3.161889e+01	-8.281692e+01
7.100000e-07	-4.515735e-06	-1.236367e-09	-3.142935e+01	-8.260028e+01
7.200000e-07	-4.488248e-06	-1.262092e-09	-3.123804e+01	-8.238171e+01
7.300000e-07	-4.460542e-06	-1.267658e-09	-3.104521e+01	-8.216179e+01
7.400000e-07	-4.432620e-06	-1.243953e-09	-3.085087e+01	-8.194108e+01
7.500000e-07	-4.404495e-06	-1.244351e-09	-3.065512e+01	-8.172011e+01
7.600000e-07	-4.376128e-06	-1.247168e-09	-3.045769e+01	-8.149936e+01
7.700000e-07	-4.347458e-06	-1.228548e-09	-3.025815e+01	-8.127926e+01
7.800000e-07	-4.318391e-06	-1.224861e-09	-3.005585e+01	-8.106018e+01
7.900000e-07	-4.288962e-06	-1.231365e-09	-2.985102e+01	-8.084241e+01
8.000000e-07	-4.259290e-06	-1.220793e-09	-2.964450e+01	-8.062617e+01
8.100000e-07	-4.229343e-06	-1.214696e-09	-2.943607e+01	-8.041160e+01
8.200000e-07	-4.199100e-06	-1.218953e-09	-2.922558e+01	-8.019876e+01
8.300000e-07	-4.168542e-06	-1.209515e-09	-2.901290e+01	-7.998762e+01
8.400000e-07	-4.137711e-06	-1.201989e-09	-2.879832e+01	-7.977809e+01
8.500000e-07	-4.106661e-06	-1.212166e-09	-2.858221e+01	-7.956998e+01
8.600000e-07	-4.075357e-06	-1.212829e-09	-2.836433e+01	-7.936306e+01
8.700000e-07	-4.043840e-06	-1.200522e-09	-2.814498e+01	-7.915700e+01
8.800000e-07	-4.012101e-06	-1.199251e-09	-2.792408e+01	-7.895145e+01
8.900000e-07	-3.980130e-06	-1.196205e-09	-2.770156e+01	-7.874599e+01
9.000000e-07	-3.947929e-06	-1.182057e-09	-2.747744e+01	-7.854019e+01
9.100000e-07	-3.915477e-06	-1.178033e-09	-2.725158e+01	-7.833359e+01
9.200000e-07	-3.882730e-06	-1.181903e-09	-2.702366e+01	-7.812571e+01
9.300000e-07	-3.849575e-06	-1.174449e-09	-2.679290e+01	-7.791607e+01
9.400000e-07	-3.815908e-06	-1.168755e-09	-2.655858e+01	-7.770423e+01
9.500000e-07	-3.781772e-06	-1.173287e-09	-2.632099e+01	-7.748974e+01
9.600000e-07	-3.747210e-06	-1.166308e-09	-2.608044e+01	-7.727220e+01
9.700000e-07	-3.712267e-06	-1.153449e-09	-2.583724e+01	-7.705127e+01
9.800000e-07	-3.677094e-06	-1.154016e-09	-2.559244e+01	-7.682663e+01
9.900000e-07	-3.641717e-06	-1.155187e-09	-2.534622e+01	-7.659804e+01
1.000000e-06	-3.606172e-06	-1.147055e-09	-2.509883e+01	-7.636531e+01
1.010000e-06	-3.570519e-06	-1.144543e-09	-2.485068e+01	-7.612832e+01
1.020000e-06	-3.534655e-06	-1.144238e-09	-2.460107e+01	-7.588703e+01
1.030000e-06	-3.498552e-06	-1.132899e-09	-2.434979e+01	-7.564144e+01
1.040000e-06	-3.462271e-06	-1.124180e-09	-2.409728e+01	-7.539164e+01
1.050000e-06	-3.425681e-06	-1.126803e-09	-2.384261e+01	-7.513776e+01
1.060000e-06	-3.388775e-06	-1.123629e-09	-2.358575e+01	-7.487999e+01
1.070000e-06	-3.351656e-06	-1.114553e-09	-2.332740e+01	-7.461857e+01
1.080000e-06	-3.314231e-06	-1.111661e-09	-2.306693e+01	-7.435376e+01
1.090000e-06	-3.276552e-06	-1.106413e-09	-2.280469e+01	-7.408586e+01
1.100000e-06	-3.238710e-06	-1.093942e-09	-2.254130e+01	-7.381517e+01
1.110000e-06	-3.200626e-06	-1.084897e-09	-2.227624e+01	-7.354202e+01
1.120000e-06	-3.162318e-06	-1.076878e-09	-2.200962e+01	-7.326669e+01
1.130000e-06	-3.123818e-06	-1.064804e-09	-2.174166e+01	-7.298947e+01
1.140000e-06	-3.085140e-06	-1.058179e-09	-2.147246e+01	-7.271059e+01
1.150000e-06	-3.046270e-06	-1.061052e-09	-2.120193e+01	-7.243026e+01
1.160000e-06	-3.007200e-06	-1.060522e-09	-2.093000e+01	-7.214861e+01
1.170000e-06	-2.968015e-06	-1.053694e-09	-2.065728e+01	-7.186572e+01
1.180000e-06	-2.928694e-06	-1.049692e-09	-2.038361e+01	-7.158158e+01
1.190000e-06	-2.889179e-06	-1.044318e-09	-2.010858e+01	-7.129610e+01
1.200000e-06	-2.849455e-06	-1.032236e-09	-1.983210e+01	-7.100913e+01
1.210000e-06	-2.809572e-06	-1.021764e-09	-1.955452e+01	-7.072040e+01
1.220000e-06	-2.769579e-06	-1.016180e-09	-1.927617e+01	-7.042956e+01
1.230000e-06	-2.729452e-06	-1.010515e-09	-1.899689e+01	-7.013617e+01
1.240000e-06	-2.689206e-06	-1.004565e-09	-1.871678e+01	-6.983972e+01
1.250000e-06	-2.648817e-06	-1.000857e-09	-1.843567e+01	-6.953961e+01
1.260000e-06	-2.608136e-06	-9.965544e-10	-1.815253e+01	-6.923516e+01
1.270000e-06	-2.567130e-06	-9.889955e-10	-1.786713e+01	-6.892563e+01
1.280000e-06	-2.525869e-06	-9.809047e-10	-1.757996e+01	-6.861025e+01
1.290000e-06	-2.484301e-06	-9.740206e-10	-1.729064e+01	-6.828818e+01
1.300000e-06	-2.442419e-06	-9.655856e-10	-1.699914e+01	-6.795858e+01
1.310000e-06	-2.400283e-06	-9.562369e-10	-1.670588e+01	-6.762057e+01
1.320000e-06	-2.357911e-06	-9.483064e-10	-1.641098e+01	-6.727329e+01
1.330000e-06	-2.315175e-06	-9.415910e-10	-1.611353e+01	-6.691591e+01
1.340000e-06	-2.272115e-06	-9.363450e-10	-1.581384e+01	-6.654761e+01
1.350000e-06	-2.228911e-06	-9.326064e-10	-1.551314e+01	-6.616761e+01
1.360000e-06	-2.185542e-06	-9.295166e-10	-1.521129e+01	-6.577522e+01
1.370000e-06	-2.142078e-06	-9.257129e-10	-1.490879e+01	-6.536981e+01
1.380000e-06	-2.098536e-06	-9.201040e-10	-1.460574e+01	-6.495081e+01
1.390000e-06	-2.054851e-06	-9.115581e-10	-1.430169e+01	-6.451778e+01
1.400000e-06	-2.011041e-06	-8.997518e-10	-1.399677e+01	-6.407034e+01
1.410000e-06	-1.967157e-06	-8.875996e-10	-1.369134e+01	-6.360825e+01
1.420000e-06	-1.923199e-06	-8.763828e-10	-1.338539e+01	-6.313136e+01
1.430000e-06	-1.879104e-06	-8.688868e-10	-1.307849e+01	-6.263961e+01
1.440000e-06	-1.834899e-06	-8.653327e-10	-1.277083e+01	-6.213308e+01
1.450000e-06	-1.790569e-06	-8.619489e-10	-1.246229e+01	-6.161192e+01
1.460000e-06	-1.746125e-06	-8.564804e-10	-1.215297e+01	-6.107638e+01
1.470000e-06	-1.701624e-06	-8.467064e-10	-1.184324e+01	-6.052680e+01
1.480000e-06	-1.657026e-06	-8.357142e-10	-1.153284e+01	-5.996358e+01
1.490000e-06	-1.612325e-06	-8.243871e-10	-1.122173e+01	-5.938720e+01
1.500000e-06	-1.567551e-06	-8.115077e-10	-1.091010e+01	-5.879814e+01
1.510000e-06	-1.522619e-06	-8.002789e-10	-1.059737e+01	-5.819695e+01
1.520000e-06	-1.477440e-06	-7.919995e-10	-1.028293e+01	-5.758415e+01
1.530000e-06	-1.432131e-06	-7.845064e-10	-9.967582e+00	-5.696027e+01
1.540000e-06	-1.386807e-06	-7.765590e-10	-9.652125e+00	-5.632581e+01
1.550000e-06	-1.341475e-06	-7.674873e-10	-9.336616e+00	-5.568120e+01
1.560000e-06	-1.296080e-06	-7.568007e-10	-9.020668e+00	-5.502682e+01
1.570000e-06	-1.250594e-06	-7.428183e-10	-8.704087e+00	-5.436295e+01
1.580000e-06	-1.205007e-06	-7.298696e-10	-8.386804e+00	-5.368977e+01
1.590000e-06	-1.159321e-06	-7.197924e-10	-8.068833e+00	-5.300733e+01
1.600000e-06	-1.113555e-06	-7.090422e-10	-7.750302e+00	-5.231557e+01
1.610000e-06	-1.067666e-06	-6.967362e-10	-7.430918e+00	-5.161426e+01
1.620000e-06	-1.021587e-06	-6.846193e-10	-7.110211e+00	-5.090303e+01
1.630000e-06	-9.754187e-07	-6.738872e-10	-6.788879e+00	-5.018132e+01
1.640000e-06	-9.292526e-07	-6.643082e-10	-6.467564e+00	-4.944845e+01
1.650000e-06	-8.830371e-07	-6.550300e-10	-6.145906e+00	-4.870353e+01
1.660000e-06	-8.368069e-07	-6.459026e-10	-5.824146e+00	-4.794553e+01
1.670000e-06	-7.904746e-07	-6.349597e-10	-5.501675e+00	-4.717325e+01
1.680000e-06	-7.441052e-07	-6.203452e-10	-5.178945e+00	-4.638534e+01
1.690000e-06	-6.977692e-07	-6.062885e-10	-4.856448e+00	-4.558031e+01
1.700000e-06	-6.513702e-07	-5.899296e-10	-4.533513e+00	-4.475652e+01
1.710000e-06	-6.049389e-07	-5.709491e-10	-4.210352e+00	-4.391226e+01
1.720000e-06	-5.584999e-07	-5.528733e-10	-3.887139e+00	-4.304570e+01
1.730000e-06	-5.120339e-07	-5.357702e-10	-3.563738e+00	-4.215492e+01
1.740000e-06	-4.654877e-07	-5.210888e-10	-3.239777e+00	-4.123799e+01
1.750000e-06	-4.188749e-07	-5.080137e-10	-2.915354e+00	-4.029292e+01
1.760000e-06	-3.722224e-07	-4.951530e-10	-2.590654e+00	-3.931773e+01
1.770000e-06	-3.255006e-07	-4.797576e-10	-2.265472e+00	-3.831047e+01
1.780000e-06	-2.787648e-07	-4.633687e-10	-1.940193e+00	-3.726923e+01
1.790000e-06	-2.320232e-07	-4.469030e-10	-1.614873e+00	-3.619216e+01
1.800000e-06	-1.852443e-07	-4.289439e-10	-1.289294e+00	-3.507755e+01
1.810000e-06	-1.384826e-07	-4.123215e-10	-9.638339e-01	-3.392379e+01
1.820000e-06	-9.172437e-08	-3.939442e-10	-6.383983e-01	-3.272941e+01
1.830000e-06	-4.497169e-08	-3.774741e-10	-3.130013e-01	-3.149314e+01
1.840000e-06	1.783701e-09	-3.625964e-10	1.241450e-02	-3.021387e+01
1.850000e-06	4.858182e-08	-3.471339e-10	3.381277e-01	-2.889073e+01
1.860000e-06	9.534525e-08	-3.326548e-10	6.635995e-01	-2.752305e+01
1.870000e-06	1.420749e-07	-3.141089e-10	9.888363e-01	-2.611043e+01
1.880000e-06	1.888542e-07	-2.922729e-10	1.314419e+00	-2.465269e+01
1.890000e-06	2.356729e-07	-2.673658e-10	1.640275e+00	-2.314992e+01
1.900000e-06	2.824010e-07	-2.421119e-10	1.965501e+00	-2.160248e+01
1.910000e-06	3.290132e-07	-2.185500e-10	2.289920e+00	-2.001099e+01
1.920000e-06	3.756084e-07	-1.969143e-10	2.614221e+00	-1.837634e+01
1.930000e-06	4.222126e-07	-1.771016e-10	2.938584e+00	-1.669968e+01
1.940000e-06	4.687645e-07	-1.566964e-10	3.262584e+00	-1.498241e+01
1.950000e-06	5.153276e-07	-1.338631e-10	3.586661e+00	-1.322619e+01
1.960000e-06	5.619391e-07	-1.092164e-10	3.911076e+00	-1.143291e+01
1.970000e-06	6.084333e-07	-8.316402e-11	4.234674e+00	-9.604680e+00
1.980000e-06	6.548042e-07	-5.490165e-11	4.557414e+00	-7.743817e+00
1.990000e-06	7.011291e-07	-2.609443e-11	4.879833e+00	-5.852831e+00
2.000000e-06	7.474562e-07	6.155571e-13	5.202268e+00	-3.934402e+00
2.010000e-06	7.937759e-07	2.746193e-11	5.524651e+00	-1.991358e+00
2.020000e-06	8.400283e-07	5.515147e-11	5.846566e+00	-2.665788e-02
2.030000e-06	8.861577e-07	8.434565e-11	6.167626e+00	1.956635e+00
2.040000e-06	9.321558e-07	1.132710e-10	6.487771e+00	3.955374e+00
2.050000e-06	9.780870e-07	1.409705e-10	6.807450e+00	5.966349e+00
2.060000e-06	1.023984e-06	1.687292e-10	7.126892e+00	7.986315e+00
2.070000e-06	1.069815e-06	1.959036e-10	7.445872e+00	1.001201e+01
2.080000e-06	1.115549e-06	2.222357e-10	7.764179e+00	1.204019e+01
2.090000e-06	1.161248e-06	2.483712e-10	8.082246e+00	1.406761e+01
2.100000e-06	1.206938e-06	2.766892e-10	8.400245e+00	1.609112e+01
2.110000e-06	1.252542e-06	3.044717e-10	8.717644e+00	1.810759e+01
2.120000e-06	1.298039e-06	3.313810e-10	9.034302e+00	2.011402e+01
2.130000e-06	1.343442e-06	3.590758e-10	9.350309e+00	2.210748e+01
2.140000e-06	1.388780e-06	3.855209e-10	9.665860e+00	2.408517e+01
2.150000e-06	1.433996e-06	4.101683e-10	9.980559e+00	2.604445e+01
2.160000e-06	1.479052e-06	4.331996e-10	1.029414e+01	2.798277e+01
2.170000e-06	1.523999e-06	4.556205e-10	1.060698e+01	2.989779e+01
2.180000e-06	1.568779e-06	4.798761e-10	1.091865e+01	3.178729e+01
2.190000e-06	1.613450e-06	5.064414e-10	1.122955e+01	3.364925e+01
2.200000e-06	1.658035e-06	5.340901e-10	1.153987e+01	3.548182e+01
2.210000e-06	1.702480e-06	5.617907e-10	1.184920e+01	3.728330e+01
2.220000e-06	1.746803e-06	5.894933e-10	1.215768e+01	3.905222e+01
2.230000e-06	1.791009e-06	6.141498e-10	1.246536e+01	4.078724e+01
2.240000e-06	1.835104e-06	6.350512e-10	1.277225e+01	4.248724e+01
2.250000e-06	1.879068e-06	6.529904e-10	1.307824e+01	4.415125e+01
2.260000e-06	1.922967e-06	6.714345e-10	1.338378e+01	4.577849e+01
2.270000e-06	1.966883e-06	6.919504e-10	1.368943e+01	4.736834e+01
2.280000e-06	2.010747e-06	7.131252e-10	1.399472e+01	4.892034e+01
2.290000e-06	2.054490e-06	7.352820e-10	1.429917e+01	5.043419e+01
2.300000e-06	2.098091e-06	7.594774e-10	1.460264e+01	5.190972e+01
2.310000e-06	2.141595e-06	7.828581e-10	1.490543e+01	5.334692e+01
2.320000e-06	2.185063e-06	8.031894e-10	1.520796e+01	5.474590e+01
2.330000e-06	2.228417e-06	8.205382e-10	1.550970e+01	5.610687e+01
2.340000e-06	2.271604e-06	8.354801e-10	1.581028e+01	5.743018e+01
2.350000e-06	2.314592e-06	8.502640e-10	1.610947e+01	5.871626e+01
2.360000e-06	2.357316e-06	8.670469e-10	1.640683e+01	5.996561e+01
2.370000e-06	2.399741e-06	8.860892e-10	1.670211e+01	6.117885e+01
2.380000e-06	2.441898e-06	9.054634e-10	1.699552e+01	6.235663e+01
2.390000e-06	2.483779e-06	9.226206e-10	1.728701e+01	6.349966e+01
2.400000e-06	2.525319e-06	9.368348e-10	1.757613e+01	6.460871e+01
2.410000e-06	2.566615e-06	9.491335e-10	1.786355e+01	6.568458e+01
2.420000e-06	2.607673e-06	9.599107e-10	1.814931e+01	6.672810e+01
2.430000e-06	2.648366e-06	9.718144e-10	1.843253e+01	6.774012e+01
2.440000e-06	2.688787e-06	9.852589e-10	1.871386e+01	6.872148e+01
2.450000e-06	2.729073e-06	1.000012e-09	1.899425e+01	6.967307e+01
2.460000e-06	2.769183e-06	1.016218e-09	1.927341e+01	7.059572e+01
2.470000e-06	2.809123e-06	1.031457e-09	1.955139e+01	7.149030e+01
2.480000e-06	2.848903e-06	1.044716e-09	1.982826e+01	7.235764e+01
2.490000e-06	2.888564e-06	1.056242e-09	2.010430e+01	7.319855e+01
2.500000e-06	2.928159e-06	1.066260e-09	2.037988e+01	7.401385e+01
2.510000e-06	2.967615e-06	1.078029e-09	2.065449e+01	7.480428e+01
2.520000e-06	3.006876e-06	1.090746e-09	2.092775e+01	7.557061e+01
2.530000e-06	3.045888e-06	1.105668e-09	2.119927e+01	7.631353e+01
2.540000e-06	3.084645e-06	1.122254e-09	2.146902e+01	7.703375e+01
2.550000e-06	3.123143e-06	1.134951e-09	2.173696e+01	7.773190e+01
2.560000e-06	3.161433e-06	1.140103e-09	2.200346e+01	7.840862e+01
2.570000e-06	3.199578e-06	1.142549e-09	2.226895e+01	7.906450e+01
2.580000e-06	3.237529e-06	1.146589e-09	2.253309e+01	7.970010e+01
2.590000e-06	3.275267e-06	1.153738e-09	2.279574e+01	8.031595e+01
2.600000e-06	3.312801e-06	1.165224e-09	2.305698e+01	8.091257e+01
2.610000e-06	3.350043e-06	1.179547e-09	2.331617e+01	8.149045e+01
2.620000e-06	3.387004e-06	1.194389e-09	2.357343e+01	8.205004e+01
2.630000e-06	3.423744e-06	1.204257e-09	2.382914e+01	8.259179e+01
2.640000e-06	3.460275e-06	1.209348e-09	2.408339e+01	8.311612e+01
2.650000e-06	3.496608e-06	1.211552e-09	2.433627e+01	8.362344e+01
2.660000e-06	3.532666e-06	1.213335e-09	2.458722e+01	8.411414e+01
2.670000e-06	3.568538e-06	1.217509e-09	2.483690e+01	8.458860e+01
2.680000e-06	3.604320e-06	1.225971e-09	2.508593e+01	8.504718e+01
2.690000e-06	3.639936e-06	1.237893e-09	2.533382e+01	8.549024e+01
2.700000e-06	3.675361e-06	1.247594e-09	2.558038e+01	8.591811e+01
2.710000e-06	3.710597e-06	1.249867e-09	2.582562e+01	8.633114e+01
2.720000e-06	3.745548e-06	1.248439e-09	2.606888e+01	8.672965e+01
2.730000e-06	3.780143e-06	1.248988e-09	2.630966e+01	8.711395e+01
2.740000e-06	3.814351e-06	1.252181e-09	2.654774e+01	8.748435e+01
2.750000e-06	3.848040e-06	1.255467e-09	2.678222e+01	8.784114e+01
2.760000e-06	3.881194e-06	1.260516e-09	2.701297e+01	8.818462e+01
2.770000e-06	3.913896e-06	1.269423e-09	2.724057e+01	8.851505e+01
2.780000e-06	3.946253e-06	1.278570e-09	2.746578e+01	8.883271e+01
2.790000e-06	3.978330e-06	1.284237e-09	2.768903e+01	8.913783e+01
2.800000e-06	4.010184e-06	1.287036e-09	2.791073e+01	8.943067e+01
2.810000e-06	4.041895e-06	1.288600e-09	2.813144e+01	8.971145e+01
2.820000e-06	4.073434e-06	1.290433e-09	2.835095e+01	8.998038e+01
2.830000e-06	4.104791e-06	1.293372e-09	2.856920e+01	9.023766e+01
2.840000e-06	4.135921e-06	1.297607e-09	2.878586e+01	9.048348e+01
2.850000e-06	4.166733e-06	1.304123e-09	2.900031e+01	9.071802e+01
2.860000e-06	4.197209e-06	1.312076e-09	2.921242e+01	9.094143e+01
2.870000e-06	4.227334e-06	1.317601e-09	2.942209e+01	9.115388e+01
2.880000e-06	4.257157e-06	1.318245e-09	2.962965e+01	9.135549e+01
2.890000e-06	4.286748e-06	1.317125e-09	2.983561e+01	9.154642e+01
2.900000e-06	4.316070e-06	1.317811e-09	3.003969e+01	9.172679e+01
