# Temperatura_=_14.3
# Concentracion g/m^3_=_1620.0
# C_Vs_to_Am_M_A/Vsm_=_65563218390.804596
# pendiente_HvsI_1/m_=_3716.3
# ordenada_HvsI_A/m_=_1297.0
# frecuencia_Hz_=_135105.4509719344

Tiempo_(s)	Campo_(V.s)	Magnetizacion_(V.s)	Campo_(kA/m)	Magnetizacion_(A/m)
0.000000e+00	-5.527857e-06	-1.861716e-09	-3.837228e+01	-1.217746e+02
1.000000e-08	-5.528051e-06	-1.858558e-09	-3.837363e+01	-1.216975e+02
2.000000e-08	-5.527976e-06	-1.858210e-09	-3.837310e+01	-1.216175e+02
3.000000e-08	-5.527522e-06	-1.860209e-09	-3.836995e+01	-1.215349e+02
4.000000e-08	-5.526703e-06	-1.861588e-09	-3.836427e+01	-1.214499e+02
5.000000e-08	-5.525419e-06	-1.858432e-09	-3.835535e+01	-1.213628e+02
6.000000e-08	-5.523536e-06	-1.847174e-09	-3.834228e+01	-1.212739e+02
7.000000e-08	-5.521089e-06	-1.843550e-09	-3.832529e+01	-1.211833e+02
8.000000e-08	-5.518125e-06	-1.876232e-09	-3.830472e+01	-1.210911e+02
9.000000e-08	-5.514621e-06	-1.910165e-09	-3.828040e+01	-1.209977e+02
1.000000e-07	-5.510628e-06	-1.879584e-09	-3.825268e+01	-1.209030e+02
1.100000e-07	-5.506376e-06	-1.817361e-09	-3.822317e+01	-1.208071e+02
1.200000e-07	-5.501890e-06	-1.825786e-09	-3.819202e+01	-1.207101e+02
1.300000e-07	-5.497074e-06	-1.866937e-09	-3.815859e+01	-1.206119e+02
1.400000e-07	-5.491920e-06	-1.851714e-09	-3.812282e+01	-1.205127e+02
1.500000e-07	-5.486406e-06	-1.811513e-09	-3.808454e+01	-1.204121e+02
1.600000e-07	-5.480536e-06	-1.849239e-09	-3.804379e+01	-1.203103e+02
1.700000e-07	-5.474198e-06	-1.910126e-09	-3.799979e+01	-1.202069e+02
1.800000e-07	-5.467334e-06	-1.866367e-09	-3.795215e+01	-1.201020e+02
1.900000e-07	-5.460161e-06	-1.788417e-09	-3.790236e+01	-1.199951e+02
2.000000e-07	-5.452794e-06	-1.802760e-09	-3.785122e+01	-1.198862e+02
2.100000e-07	-5.445208e-06	-1.866250e-09	-3.779856e+01	-1.197750e+02
2.200000e-07	-5.437349e-06	-1.864710e-09	-3.774401e+01	-1.196613e+02
2.300000e-07	-5.429150e-06	-1.826144e-09	-3.768709e+01	-1.195447e+02
2.400000e-07	-5.420569e-06	-1.832561e-09	-3.762753e+01	-1.194252e+02
2.500000e-07	-5.411386e-06	-1.861308e-09	-3.756378e+01	-1.193023e+02
2.600000e-07	-5.401431e-06	-1.844715e-09	-3.749468e+01	-1.191758e+02
2.700000e-07	-5.390915e-06	-1.810167e-09	-3.742168e+01	-1.190456e+02
2.800000e-07	-5.379950e-06	-1.817539e-09	-3.734556e+01	-1.189113e+02
2.900000e-07	-5.368478e-06	-1.849593e-09	-3.726593e+01	-1.187729e+02
3.000000e-07	-5.356661e-06	-1.845064e-09	-3.718390e+01	-1.186301e+02
3.100000e-07	-5.344457e-06	-1.810998e-09	-3.709918e+01	-1.184828e+02
3.200000e-07	-5.331664e-06	-1.802637e-09	-3.701038e+01	-1.183309e+02
3.300000e-07	-5.318399e-06	-1.818738e-09	-3.691830e+01	-1.181742e+02
3.400000e-07	-5.304857e-06	-1.807774e-09	-3.682429e+01	-1.180128e+02
3.500000e-07	-5.290995e-06	-1.784153e-09	-3.672807e+01	-1.178465e+02
3.600000e-07	-5.276715e-06	-1.803330e-09	-3.662894e+01	-1.176754e+02
3.700000e-07	-5.261957e-06	-1.834161e-09	-3.652650e+01	-1.174994e+02
3.800000e-07	-5.246690e-06	-1.808031e-09	-3.642052e+01	-1.173187e+02
3.900000e-07	-5.230807e-06	-1.781907e-09	-3.631027e+01	-1.171333e+02
4.000000e-07	-5.214391e-06	-1.803552e-09	-3.619631e+01	-1.169433e+02
4.100000e-07	-5.197673e-06	-1.794884e-09	-3.608026e+01	-1.167487e+02
4.200000e-07	-5.180669e-06	-1.755852e-09	-3.596223e+01	-1.165498e+02
4.300000e-07	-5.163425e-06	-1.785386e-09	-3.584253e+01	-1.163465e+02
4.400000e-07	-5.145911e-06	-1.823109e-09	-3.572095e+01	-1.161390e+02
4.500000e-07	-5.128007e-06	-1.774833e-09	-3.559667e+01	-1.159274e+02
4.600000e-07	-5.109603e-06	-1.751372e-09	-3.546892e+01	-1.157119e+02
4.700000e-07	-5.090773e-06	-1.796840e-09	-3.533820e+01	-1.154926e+02
4.800000e-07	-5.071646e-06	-1.783711e-09	-3.520544e+01	-1.152694e+02
4.900000e-07	-5.052240e-06	-1.738849e-09	-3.507072e+01	-1.150426e+02
5.000000e-07	-5.032596e-06	-1.765559e-09	-3.493436e+01	-1.148122e+02
5.100000e-07	-5.012744e-06	-1.773370e-09	-3.479656e+01	-1.145782e+02
5.200000e-07	-4.992621e-06	-1.725744e-09	-3.465687e+01	-1.143407e+02
5.300000e-07	-4.972111e-06	-1.743189e-09	-3.451450e+01	-1.140997e+02
5.400000e-07	-4.951204e-06	-1.779746e-09	-3.436937e+01	-1.138551e+02
5.500000e-07	-4.929938e-06	-1.733979e-09	-3.422175e+01	-1.136071e+02
5.600000e-07	-4.908302e-06	-1.713724e-09	-3.407156e+01	-1.133556e+02
5.700000e-07	-4.886378e-06	-1.758705e-09	-3.391937e+01	-1.131004e+02
5.800000e-07	-4.864059e-06	-1.749039e-09	-3.376445e+01	-1.128417e+02
5.900000e-07	-4.841349e-06	-1.709804e-09	-3.360680e+01	-1.125792e+02
6.000000e-07	-4.818378e-06	-1.727105e-09	-3.344734e+01	-1.123130e+02
6.100000e-07	-4.795091e-06	-1.727345e-09	-3.328570e+01	-1.120431e+02
6.200000e-07	-4.771571e-06	-1.689062e-09	-3.312243e+01	-1.117692e+02
6.300000e-07	-4.747854e-06	-1.694051e-09	-3.295779e+01	-1.114914e+02
6.400000e-07	-4.723924e-06	-1.712862e-09	-3.279168e+01	-1.112095e+02
6.500000e-07	-4.699610e-06	-1.694766e-09	-3.262290e+01	-1.109237e+02
6.600000e-07	-4.674773e-06	-1.690903e-09	-3.245050e+01	-1.106337e+02
6.700000e-07	-4.649469e-06	-1.701200e-09	-3.227484e+01	-1.103395e+02
6.800000e-07	-4.623638e-06	-1.683829e-09	-3.209553e+01	-1.100413e+02
6.900000e-07	-4.597223e-06	-1.668764e-09	-3.191217e+01	-1.097388e+02
7.000000e-07	-4.570370e-06	-1.673180e-09	-3.172576e+01	-1.094321e+02
7.100000e-07	-4.543242e-06	-1.665857e-09	-3.153745e+01	-1.091213e+02
7.200000e-07	-4.515884e-06	-1.658828e-09	-3.134754e+01	-1.088063e+02
7.300000e-07	-4.488268e-06	-1.668108e-09	-3.115585e+01	-1.084872e+02
7.400000e-07	-4.460409e-06	-1.666213e-09	-3.096246e+01	-1.081640e+02
7.500000e-07	-4.432322e-06	-1.652397e-09	-3.076749e+01	-1.078367e+02
7.600000e-07	-4.403931e-06	-1.646953e-09	-3.057041e+01	-1.075054e+02
7.700000e-07	-4.375280e-06	-1.640793e-09	-3.037153e+01	-1.071701e+02
7.800000e-07	-4.346379e-06	-1.631730e-09	-3.017091e+01	-1.068308e+02
7.900000e-07	-4.317139e-06	-1.632455e-09	-2.996793e+01	-1.064876e+02
8.000000e-07	-4.287626e-06	-1.631374e-09	-2.976306e+01	-1.061405e+02
8.100000e-07	-4.257777e-06	-1.620301e-09	-2.955587e+01	-1.057896e+02
8.200000e-07	-4.227586e-06	-1.613630e-09	-2.934629e+01	-1.054347e+02
8.300000e-07	-4.197089e-06	-1.610967e-09	-2.913459e+01	-1.050759e+02
8.400000e-07	-4.166274e-06	-1.599329e-09	-2.892068e+01	-1.047131e+02
8.500000e-07	-4.135187e-06	-1.591623e-09	-2.870489e+01	-1.043464e+02
8.600000e-07	-4.103879e-06	-1.596713e-09	-2.848757e+01	-1.039756e+02
8.700000e-07	-4.072373e-06	-1.594851e-09	-2.826886e+01	-1.036006e+02
8.800000e-07	-4.040679e-06	-1.582166e-09	-2.804885e+01	-1.032215e+02
8.900000e-07	-4.008844e-06	-1.575179e-09	-2.782787e+01	-1.028379e+02
9.000000e-07	-3.976850e-06	-1.567316e-09	-2.760578e+01	-1.024500e+02
9.100000e-07	-3.944559e-06	-1.552371e-09	-2.738162e+01	-1.020574e+02
9.200000e-07	-3.911870e-06	-1.545008e-09	-2.715471e+01	-1.016601e+02
9.300000e-07	-3.878795e-06	-1.544834e-09	-2.692512e+01	-1.012580e+02
9.400000e-07	-3.845300e-06	-1.535777e-09	-2.669261e+01	-1.008509e+02
9.500000e-07	-3.811267e-06	-1.525678e-09	-2.645637e+01	-1.004386e+02
9.600000e-07	-3.776736e-06	-1.523346e-09	-2.621666e+01	-1.000211e+02
9.700000e-07	-3.741890e-06	-1.514406e-09	-2.597478e+01	-9.959818e+01
9.800000e-07	-3.706808e-06	-1.497890e-09	-2.573125e+01	-9.916981e+01
9.900000e-07	-3.671480e-06	-1.490145e-09	-2.548601e+01	-9.873589e+01
1.000000e-06	-3.635986e-06	-1.486864e-09	-2.523963e+01	-9.829636e+01
1.010000e-06	-3.600382e-06	-1.475873e-09	-2.499248e+01	-9.785117e+01
1.020000e-06	-3.564596e-06	-1.466420e-09	-2.474407e+01	-9.740031e+01
1.030000e-06	-3.528602e-06	-1.460920e-09	-2.449421e+01	-9.694379e+01
1.040000e-06	-3.492362e-06	-1.450443e-09	-2.424265e+01	-9.648164e+01
1.050000e-06	-3.455829e-06	-1.440730e-09	-2.398905e+01	-9.601391e+01
1.060000e-06	-3.419028e-06	-1.435279e-09	-2.373359e+01	-9.554068e+01
1.070000e-06	-3.381961e-06	-1.426603e-09	-2.347628e+01	-9.506204e+01
1.080000e-06	-3.344652e-06	-1.415303e-09	-2.321730e+01	-9.457809e+01
1.090000e-06	-3.307162e-06	-1.406848e-09	-2.295706e+01	-9.408897e+01
1.100000e-06	-3.269468e-06	-1.397650e-09	-2.269540e+01	-9.359478e+01
1.110000e-06	-3.231467e-06	-1.384308e-09	-2.243161e+01	-9.309566e+01
1.120000e-06	-3.193303e-06	-1.371671e-09	-2.216670e+01	-9.259171e+01
1.130000e-06	-3.154969e-06	-1.359773e-09	-2.190059e+01	-9.208305e+01
1.140000e-06	-3.116349e-06	-1.345958e-09	-2.163251e+01	-9.156975e+01
1.150000e-06	-3.077432e-06	-1.335336e-09	-2.136236e+01	-9.105189e+01
1.160000e-06	-3.038239e-06	-1.330216e-09	-2.109030e+01	-9.052948e+01
1.170000e-06	-2.998980e-06	-1.323176e-09	-2.081778e+01	-9.000251e+01
1.180000e-06	-2.959598e-06	-1.312352e-09	-2.054440e+01	-8.947095e+01
1.190000e-06	-2.920049e-06	-1.301765e-09	-2.026987e+01	-8.893468e+01
1.200000e-06	-2.880415e-06	-1.289710e-09	-1.999475e+01	-8.839357e+01
1.210000e-06	-2.840616e-06	-1.275113e-09	-1.971847e+01	-8.784740e+01
1.220000e-06	-2.800643e-06	-1.263106e-09	-1.944100e+01	-8.729593e+01
1.230000e-06	-2.760577e-06	-1.253658e-09	-1.916287e+01	-8.673885e+01
1.240000e-06	-2.720335e-06	-1.242362e-09	-1.888353e+01	-8.617578e+01
1.250000e-06	-2.679854e-06	-1.231268e-09	-1.860253e+01	-8.560632e+01
1.260000e-06	-2.639070e-06	-1.224717e-09	-1.831942e+01	-8.502999e+01
1.270000e-06	-2.597927e-06	-1.217709e-09	-1.803382e+01	-8.444631e+01
1.280000e-06	-2.556571e-06	-1.205810e-09	-1.774674e+01	-8.385472e+01
1.290000e-06	-2.515039e-06	-1.193589e-09	-1.745844e+01	-8.325465e+01
1.300000e-06	-2.473159e-06	-1.182558e-09	-1.716773e+01	-8.264552e+01
1.310000e-06	-2.430983e-06	-1.171208e-09	-1.687496e+01	-8.202671e+01
1.320000e-06	-2.388484e-06	-1.159516e-09	-1.657994e+01	-8.139764e+01
1.330000e-06	-2.345619e-06	-1.148800e-09	-1.628239e+01	-8.075770e+01
1.340000e-06	-2.302544e-06	-1.139277e-09	-1.598338e+01	-8.010631e+01
1.350000e-06	-2.259275e-06	-1.130034e-09	-1.568302e+01	-7.944294e+01
1.360000e-06	-2.215869e-06	-1.123893e-09	-1.538172e+01	-7.876708e+01
1.370000e-06	-2.172370e-06	-1.117310e-09	-1.507977e+01	-7.807827e+01
1.380000e-06	-2.128733e-06	-1.107440e-09	-1.477685e+01	-7.737610e+01
1.390000e-06	-2.084999e-06	-1.094483e-09	-1.447327e+01	-7.666025e+01
1.400000e-06	-2.041188e-06	-1.077827e-09	-1.416915e+01	-7.593045e+01
1.410000e-06	-1.997282e-06	-1.059468e-09	-1.386437e+01	-7.518651e+01
1.420000e-06	-1.953323e-06	-1.041969e-09	-1.355923e+01	-7.442832e+01
1.430000e-06	-1.909239e-06	-1.028319e-09	-1.325321e+01	-7.365584e+01
1.440000e-06	-1.865059e-06	-1.019095e-09	-1.294653e+01	-7.286911e+01
1.450000e-06	-1.820825e-06	-1.011456e-09	-1.263947e+01	-7.206825e+01
1.460000e-06	-1.776515e-06	-1.002313e-09	-1.233189e+01	-7.125345e+01
1.470000e-06	-1.732124e-06	-9.901627e-10	-1.202375e+01	-7.042495e+01
1.480000e-06	-1.687553e-06	-9.745182e-10	-1.171435e+01	-6.958304e+01
1.490000e-06	-1.642772e-06	-9.587781e-10	-1.140350e+01	-6.872806e+01
1.500000e-06	-1.597775e-06	-9.430586e-10	-1.109114e+01	-6.786036e+01
1.510000e-06	-1.552631e-06	-9.258006e-10	-1.077777e+01	-6.698031e+01
1.520000e-06	-1.507432e-06	-9.111718e-10	-1.046402e+01	-6.608828e+01
1.530000e-06	-1.462150e-06	-9.000393e-10	-1.014969e+01	-6.518461e+01
1.540000e-06	-1.416812e-06	-8.887930e-10	-9.834966e+00	-6.426961e+01
1.550000e-06	-1.371440e-06	-8.767272e-10	-9.520011e+00	-6.334351e+01
1.560000e-06	-1.325973e-06	-8.616686e-10	-9.204398e+00	-6.240649e+01
1.570000e-06	-1.280426e-06	-8.443761e-10	-8.888227e+00	-6.145862e+01
1.580000e-06	-1.234740e-06	-8.280912e-10	-8.571093e+00	-6.049988e+01
1.590000e-06	-1.188907e-06	-8.118110e-10	-8.252938e+00	-5.953011e+01
1.600000e-06	-1.143012e-06	-7.932110e-10	-7.934355e+00	-5.854902e+01
1.610000e-06	-1.097112e-06	-7.747072e-10	-7.615730e+00	-5.755618e+01
1.620000e-06	-1.051175e-06	-7.575447e-10	-7.296854e+00	-5.655097e+01
1.630000e-06	-1.005107e-06	-7.403587e-10	-6.977067e+00	-5.553265e+01
1.640000e-06	-9.588941e-07	-7.255667e-10	-6.656277e+00	-5.450029e+01
1.650000e-06	-9.125535e-07	-7.129346e-10	-6.334599e+00	-5.345279e+01
1.660000e-06	-8.661715e-07	-6.990648e-10	-6.012633e+00	-5.238889e+01
1.670000e-06	-8.197878e-07	-6.826341e-10	-5.690654e+00	-5.130719e+01
1.680000e-06	-7.732880e-07	-6.647101e-10	-5.367870e+00	-5.020611e+01
1.690000e-06	-7.267436e-07	-6.460770e-10	-5.044777e+00	-4.908394e+01
1.700000e-06	-6.802860e-07	-6.254059e-10	-4.722287e+00	-4.793888e+01
1.710000e-06	-6.337915e-07	-6.032595e-10	-4.399539e+00	-4.676899e+01
1.720000e-06	-5.871901e-07	-5.827494e-10	-4.076050e+00	-4.557226e+01
1.730000e-06	-5.405453e-07	-5.627376e-10	-3.752260e+00	-4.434664e+01
1.740000e-06	-4.939123e-07	-5.425369e-10	-3.428551e+00	-4.309003e+01
1.750000e-06	-4.472199e-07	-5.242912e-10	-3.104430e+00	-4.180033e+01
1.760000e-06	-4.004391e-07	-5.043760e-10	-2.779696e+00	-4.047549e+01
1.770000e-06	-3.534531e-07	-4.830353e-10	-2.453537e+00	-3.911348e+01
1.780000e-06	-3.064460e-07	-4.631834e-10	-2.127231e+00	-3.771238e+01
1.790000e-06	-2.596153e-07	-4.432208e-10	-1.802150e+00	-3.627038e+01
1.800000e-06	-2.127687e-07	-4.223279e-10	-1.476959e+00	-3.478583e+01
1.810000e-06	-1.658668e-07	-4.000204e-10	-1.151384e+00	-3.325723e+01
1.820000e-06	-1.189316e-07	-3.773619e-10	-8.255780e-01	-3.168331e+01
1.830000e-06	-7.192478e-08	-3.537151e-10	-4.992744e-01	-3.006302e+01
1.840000e-06	-2.490365e-08	-3.305379e-10	-1.728717e-01	-2.839554e+01
1.850000e-06	2.205414e-08	-3.099124e-10	1.530914e-01	-2.668034e+01
1.860000e-06	6.900458e-08	-2.899710e-10	4.790035e-01	-2.491719e+01
1.870000e-06	1.158943e-07	-2.675427e-10	8.044940e-01	-2.310613e+01
1.880000e-06	1.628005e-07	-2.419885e-10	1.130099e+00	-2.124753e+01
1.890000e-06	2.098243e-07	-2.123676e-10	1.456520e+00	-1.934208e+01
1.900000e-06	2.568330e-07	-1.804091e-10	1.782837e+00	-1.739076e+01
1.910000e-06	3.037930e-07	-1.498833e-10	2.108815e+00	-1.539491e+01
1.920000e-06	3.507317e-07	-1.210030e-10	2.434646e+00	-1.335614e+01
1.930000e-06	3.975890e-07	-9.446478e-11	2.759911e+00	-1.127639e+01
1.940000e-06	4.444246e-07	-6.972886e-11	3.085026e+00	-9.157874e+00
1.950000e-06	4.912530e-07	-4.414410e-11	3.410091e+00	-7.003071e+00
1.960000e-06	5.379315e-07	-1.702872e-11	3.734116e+00	-4.814724e+00
1.970000e-06	5.844467e-07	1.212282e-11	4.057006e+00	-2.595798e+00
1.980000e-06	6.308858e-07	4.374711e-11	4.379369e+00	-3.494640e-01
1.990000e-06	6.773419e-07	7.745993e-11	4.701849e+00	1.920933e+00
2.000000e-06	7.237659e-07	1.105031e-10	5.024107e+00	4.211898e+00
2.010000e-06	7.700842e-07	1.410570e-10	5.345631e+00	6.519821e+00
2.020000e-06	8.163848e-07	1.722294e-10	5.667032e+00	8.841005e+00
2.030000e-06	8.626522e-07	2.052285e-10	5.988203e+00	1.117170e+01
2.040000e-06	9.088148e-07	2.385490e-10	6.308646e+00	1.350811e+01
2.050000e-06	9.549240e-07	2.713935e-10	6.628718e+00	1.584649e+01
2.060000e-06	1.001031e-06	3.027156e-10	6.948776e+00	1.818308e+01
2.070000e-06	1.047048e-06	3.328650e-10	7.268206e+00	2.051422e+01
2.080000e-06	1.092963e-06	3.636004e-10	7.586930e+00	2.283631e+01
2.090000e-06	1.138831e-06	3.932919e-10	7.905329e+00	2.514589e+01
2.100000e-06	1.184604e-06	4.230250e-10	8.223072e+00	2.743962e+01
2.110000e-06	1.230322e-06	4.549211e-10	8.540423e+00	2.971432e+01
2.120000e-06	1.275938e-06	4.875834e-10	8.857078e+00	3.196697e+01
2.130000e-06	1.321419e-06	5.202644e-10	9.172785e+00	3.419477e+01
2.140000e-06	1.366873e-06	5.525922e-10	9.488310e+00	3.639507e+01
2.150000e-06	1.412210e-06	5.814868e-10	9.803023e+00	3.856548e+01
2.160000e-06	1.457419e-06	6.070627e-10	1.011685e+01	4.070379e+01
2.170000e-06	1.502618e-06	6.306912e-10	1.043060e+01	4.280800e+01
2.180000e-06	1.547764e-06	6.567083e-10	1.074399e+01	4.487637e+01
2.190000e-06	1.592763e-06	6.857627e-10	1.105636e+01	4.690733e+01
2.200000e-06	1.637587e-06	7.158318e-10	1.136750e+01	4.889956e+01
2.210000e-06	1.682233e-06	7.481201e-10	1.167742e+01	5.085193e+01
2.220000e-06	1.726674e-06	7.786152e-10	1.198591e+01	5.276352e+01
2.230000e-06	1.771008e-06	8.072039e-10	1.229366e+01	5.463361e+01
2.240000e-06	1.815298e-06	8.300652e-10	1.260111e+01	5.646164e+01
2.250000e-06	1.859451e-06	8.472864e-10	1.290760e+01	5.824726e+01
2.260000e-06	1.903444e-06	8.640268e-10	1.321298e+01	5.999025e+01
2.270000e-06	1.947365e-06	8.833448e-10	1.351787e+01	6.169058e+01
2.280000e-06	1.991276e-06	9.074257e-10	1.382268e+01	6.334834e+01
2.290000e-06	2.035087e-06	9.325923e-10	1.412680e+01	6.496373e+01
2.300000e-06	2.078810e-06	9.589340e-10	1.443031e+01	6.653712e+01
2.310000e-06	2.122496e-06	9.848014e-10	1.473356e+01	6.806894e+01
2.320000e-06	2.166085e-06	1.006615e-09	1.503613e+01	6.955974e+01
2.330000e-06	2.209598e-06	1.022421e-09	1.533819e+01	7.101015e+01
2.340000e-06	2.253063e-06	1.037688e-09	1.563990e+01	7.242089e+01
2.350000e-06	2.296427e-06	1.054407e-09	1.594092e+01	7.379273e+01
2.360000e-06	2.339580e-06	1.072470e-09	1.624047e+01	7.512652e+01
2.370000e-06	2.382437e-06	1.092844e-09	1.653797e+01	7.642315e+01
2.380000e-06	2.424985e-06	1.113995e-09	1.683332e+01	7.768356e+01
2.390000e-06	2.467154e-06	1.133393e-09	1.712604e+01	7.890873e+01
2.400000e-06	2.509048e-06	1.149308e-09	1.741686e+01	8.009968e+01
2.410000e-06	2.550791e-06	1.163446e-09	1.770662e+01	8.125744e+01
2.420000e-06	2.592169e-06	1.175850e-09	1.799385e+01	8.238310e+01
2.430000e-06	2.633061e-06	1.187870e-09	1.827770e+01	8.347772e+01
2.440000e-06	2.673633e-06	1.203916e-09	1.855934e+01	8.454241e+01
2.450000e-06	2.714026e-06	1.221910e-09	1.883974e+01	8.557827e+01
2.460000e-06	2.754325e-06	1.239556e-09	1.911947e+01	8.658641e+01
2.470000e-06	2.794518e-06	1.255248e-09	1.939848e+01	8.756794e+01
2.480000e-06	2.834554e-06	1.268041e-09	1.967639e+01	8.852395e+01
2.490000e-06	2.874459e-06	1.278834e-09	1.995340e+01	8.945554e+01
2.500000e-06	2.914161e-06	1.287549e-09	2.022899e+01	9.036378e+01
2.510000e-06	2.953645e-06	1.299384e-09	2.050308e+01	9.124970e+01
2.520000e-06	2.992948e-06	1.314344e-09	2.077591e+01	9.211434e+01
2.530000e-06	3.032086e-06	1.330577e-09	2.104758e+01	9.295866e+01
2.540000e-06	3.071037e-06	1.347976e-09	2.131797e+01	9.378362e+01
2.550000e-06	3.109739e-06	1.363034e-09	2.158662e+01	9.459011e+01
2.560000e-06	3.148235e-06	1.371600e-09	2.185385e+01	9.537898e+01
2.570000e-06	3.186525e-06	1.375895e-09	2.211964e+01	9.615102e+01
2.580000e-06	3.224598e-06	1.380357e-09	2.238393e+01	9.690695e+01
2.590000e-06	3.262497e-06	1.387556e-09	2.264701e+01	9.764745e+01
2.600000e-06	3.300211e-06	1.398774e-09	2.290881e+01	9.837309e+01
2.610000e-06	3.337766e-06	1.414393e-09	2.316950e+01	9.908441e+01
2.620000e-06	3.375097e-06	1.430846e-09	2.342863e+01	9.978186e+01
2.630000e-06	3.412086e-06	1.444601e-09	2.368540e+01	1.004658e+02
2.640000e-06	3.448829e-06	1.454278e-09	2.394045e+01	1.011365e+02
2.650000e-06	3.485337e-06	1.460929e-09	2.419388e+01	1.017943e+02
2.660000e-06	3.521572e-06	1.465391e-09	2.444541e+01	1.024392e+02
2.670000e-06	3.557627e-06	1.469355e-09	2.469569e+01	1.030714e+02
2.680000e-06	3.593464e-06	1.474298e-09	2.494446e+01	1.036909e+02
2.690000e-06	3.629142e-06	1.482844e-09	2.519212e+01	1.042976e+02
2.700000e-06	3.664725e-06	1.494897e-09	2.543913e+01	1.048915e+02
2.710000e-06	3.700172e-06	1.506375e-09	2.568519e+01	1.054723e+02
2.720000e-06	3.735478e-06	1.515522e-09	2.593027e+01	1.060400e+02
2.730000e-06	3.770497e-06	1.522028e-09	2.617335e+01	1.065942e+02
2.740000e-06	3.805088e-06	1.524182e-09	2.641347e+01	1.071349e+02
2.750000e-06	3.839185e-06	1.524268e-09	2.665016e+01	1.076617e+02
2.760000e-06	3.872745e-06	1.526947e-09	2.688312e+01	1.081744e+02
2.770000e-06	3.905905e-06	1.534301e-09	2.711331e+01	1.086727e+02
2.780000e-06	3.938748e-06	1.546383e-09	2.734129e+01	1.091565e+02
2.790000e-06	3.971197e-06	1.559771e-09	2.756654e+01	1.096256e+02
2.800000e-06	4.003366e-06	1.572505e-09	2.778984e+01	1.100798e+02
2.810000e-06	4.035353e-06	1.581505e-09	2.801188e+01	1.105190e+02
2.820000e-06	4.067125e-06	1.585549e-09	2.823243e+01	1.109431e+02
2.830000e-06	4.098658e-06	1.588323e-09	2.845132e+01	1.113521e+02
2.840000e-06	4.130000e-06	1.593199e-09	2.866889e+01	1.117461e+02
2.850000e-06	4.161138e-06	1.599382e-09	2.888504e+01	1.121253e+02
2.860000e-06	4.191886e-06	1.609814e-09	2.909848e+01	1.124897e+02
2.870000e-06	4.222264e-06	1.623142e-09	2.930934e+01	1.128397e+02
2.880000e-06	4.252405e-06	1.633718e-09	2.951858e+01	1.131756e+02
2.890000e-06	4.282296e-06	1.638485e-09	2.972607e+01	1.134978e+02
2.900000e-06	4.311886e-06	1.640065e-09	2.993147e+01	1.138067e+02
