# Temperatura_=_-7.24
# Concentracion g/m^3_=_1620.0
# C_Vs_to_Am_M_A/Vsm_=_65563218390.804596
# pendiente_HvsI_1/m_=_3716.3
# ordenada_HvsI_A/m_=_1297.0
# frecuencia_Hz_=_135110.0516207067

Tiempo_(s)	Campo_(V.s)	Magnetizacion_(V.s)	Campo_(kA/m)	Magnetizacion_(A/m)
0.000000e+00	-5.526184e-06	-1.390191e-09	-3.836168e+01	-9.272479e+01
1.000000e-08	-5.526320e-06	-1.386672e-09	-3.836262e+01	-9.264084e+01
2.000000e-08	-5.526078e-06	-1.389838e-09	-3.836094e+01	-9.255627e+01
3.000000e-08	-5.525367e-06	-1.395273e-09	-3.835601e+01	-9.247145e+01
4.000000e-08	-5.524122e-06	-1.395228e-09	-3.834736e+01	-9.238671e+01
5.000000e-08	-5.522326e-06	-1.383459e-09	-3.833490e+01	-9.230238e+01
6.000000e-08	-5.520028e-06	-1.363348e-09	-3.831894e+01	-9.221872e+01
7.000000e-08	-5.517184e-06	-1.377221e-09	-3.829920e+01	-9.213595e+01
8.000000e-08	-5.513824e-06	-1.429831e-09	-3.827588e+01	-9.205425e+01
9.000000e-08	-5.510014e-06	-1.427590e-09	-3.824943e+01	-9.197373e+01
1.000000e-07	-5.505795e-06	-1.355720e-09	-3.822014e+01	-9.189443e+01
1.100000e-07	-5.501320e-06	-1.345826e-09	-3.818907e+01	-9.181632e+01
1.200000e-07	-5.496619e-06	-1.377400e-09	-3.815644e+01	-9.173933e+01
1.300000e-07	-5.491607e-06	-1.411552e-09	-3.812165e+01	-9.166329e+01
1.400000e-07	-5.486156e-06	-1.349438e-09	-3.808381e+01	-9.158799e+01
1.500000e-07	-5.480416e-06	-1.334997e-09	-3.804397e+01	-9.151314e+01
1.600000e-07	-5.474368e-06	-1.386281e-09	-3.800198e+01	-9.143840e+01
1.700000e-07	-5.467786e-06	-1.384706e-09	-3.795629e+01	-9.136337e+01
1.800000e-07	-5.460741e-06	-1.365828e-09	-3.790739e+01	-9.128762e+01
1.900000e-07	-5.453432e-06	-1.331579e-09	-3.785664e+01	-9.121067e+01
2.000000e-07	-5.445859e-06	-1.388149e-09	-3.780407e+01	-9.113201e+01
2.100000e-07	-5.437987e-06	-1.393681e-09	-3.774943e+01	-9.105113e+01
2.200000e-07	-5.429834e-06	-1.396911e-09	-3.769283e+01	-9.096749e+01
2.300000e-07	-5.421293e-06	-1.366701e-09	-3.763354e+01	-9.088056e+01
2.400000e-07	-5.412215e-06	-1.393031e-09	-3.757053e+01	-9.078983e+01
2.500000e-07	-5.402458e-06	-1.389498e-09	-3.750280e+01	-9.069480e+01
2.600000e-07	-5.392071e-06	-1.388914e-09	-3.743069e+01	-9.059503e+01
2.700000e-07	-5.381238e-06	-1.370963e-09	-3.735549e+01	-9.049008e+01
2.800000e-07	-5.370036e-06	-1.386522e-09	-3.727773e+01	-9.037960e+01
2.900000e-07	-5.358401e-06	-1.386454e-09	-3.719696e+01	-9.026329e+01
3.000000e-07	-5.346318e-06	-1.367748e-09	-3.711308e+01	-9.014090e+01
3.100000e-07	-5.333729e-06	-1.357157e-09	-3.702569e+01	-9.001227e+01
3.200000e-07	-5.320725e-06	-1.370829e-09	-3.693542e+01	-8.987731e+01
3.300000e-07	-5.307441e-06	-1.389847e-09	-3.684320e+01	-8.973599e+01
3.400000e-07	-5.293752e-06	-1.359399e-09	-3.674818e+01	-8.958840e+01
3.500000e-07	-5.279526e-06	-1.365188e-09	-3.664943e+01	-8.943467e+01
3.600000e-07	-5.264796e-06	-1.376269e-09	-3.654717e+01	-8.927502e+01
3.700000e-07	-5.249593e-06	-1.366422e-09	-3.644164e+01	-8.910975e+01
3.800000e-07	-5.233805e-06	-1.332026e-09	-3.633204e+01	-8.893921e+01
3.900000e-07	-5.217575e-06	-1.372448e-09	-3.621937e+01	-8.876383e+01
4.000000e-07	-5.201084e-06	-1.370443e-09	-3.610490e+01	-8.858408e+01
4.100000e-07	-5.184209e-06	-1.332041e-09	-3.598775e+01	-8.840048e+01
4.200000e-07	-5.166979e-06	-1.336226e-09	-3.586815e+01	-8.821360e+01
4.300000e-07	-5.149434e-06	-1.392013e-09	-3.574635e+01	-8.802400e+01
4.400000e-07	-5.131522e-06	-1.348792e-09	-3.562201e+01	-8.783230e+01
4.500000e-07	-5.113195e-06	-1.325543e-09	-3.549479e+01	-8.763910e+01
4.600000e-07	-5.094447e-06	-1.358180e-09	-3.536465e+01	-8.744499e+01
4.700000e-07	-5.075380e-06	-1.357201e-09	-3.523229e+01	-8.725055e+01
4.800000e-07	-5.056060e-06	-1.309096e-09	-3.509817e+01	-8.705635e+01
4.900000e-07	-5.036562e-06	-1.342146e-09	-3.496281e+01	-8.686289e+01
5.000000e-07	-5.016851e-06	-1.345992e-09	-3.482598e+01	-8.667065e+01
5.100000e-07	-4.996804e-06	-1.299563e-09	-3.468682e+01	-8.648006e+01
5.200000e-07	-4.976364e-06	-1.309923e-09	-3.454493e+01	-8.629146e+01
5.300000e-07	-4.955540e-06	-1.357650e-09	-3.440038e+01	-8.610517e+01
5.400000e-07	-4.934403e-06	-1.319991e-09	-3.425365e+01	-8.592141e+01
5.500000e-07	-4.913011e-06	-1.300512e-09	-3.410515e+01	-8.574032e+01
5.600000e-07	-4.891242e-06	-1.336274e-09	-3.395403e+01	-8.556200e+01
5.700000e-07	-4.869068e-06	-1.325357e-09	-3.380010e+01	-8.538645e+01
5.800000e-07	-4.846537e-06	-1.293613e-09	-3.364370e+01	-8.521359e+01
5.900000e-07	-4.823625e-06	-1.316819e-09	-3.348465e+01	-8.504331e+01
6.000000e-07	-4.800461e-06	-1.321295e-09	-3.332385e+01	-8.487538e+01
6.100000e-07	-4.777155e-06	-1.288379e-09	-3.316206e+01	-8.470955e+01
6.200000e-07	-4.753645e-06	-1.296592e-09	-3.299886e+01	-8.454549e+01
6.300000e-07	-4.729858e-06	-1.307282e-09	-3.283374e+01	-8.438283e+01
6.400000e-07	-4.705663e-06	-1.290963e-09	-3.266578e+01	-8.422116e+01
6.500000e-07	-4.681052e-06	-1.289365e-09	-3.249494e+01	-8.406002e+01
6.600000e-07	-4.655949e-06	-1.305993e-09	-3.232068e+01	-8.389895e+01
6.700000e-07	-4.630245e-06	-1.287258e-09	-3.214225e+01	-8.373746e+01
6.800000e-07	-4.603948e-06	-1.276769e-09	-3.195970e+01	-8.357503e+01
6.900000e-07	-4.577148e-06	-1.276719e-09	-3.177366e+01	-8.341118e+01
7.000000e-07	-4.550019e-06	-1.270681e-09	-3.158533e+01	-8.324540e+01
7.100000e-07	-4.522681e-06	-1.257030e-09	-3.139556e+01	-8.307721e+01
7.200000e-07	-4.495192e-06	-1.269004e-09	-3.120473e+01	-8.290616e+01
7.300000e-07	-4.467505e-06	-1.271288e-09	-3.101254e+01	-8.273182e+01
7.400000e-07	-4.439561e-06	-1.271070e-09	-3.081855e+01	-8.255379e+01
7.500000e-07	-4.411338e-06	-1.267603e-09	-3.062263e+01	-8.237171e+01
7.600000e-07	-4.382801e-06	-1.267615e-09	-3.042454e+01	-8.218527e+01
7.700000e-07	-4.353970e-06	-1.254472e-09	-3.022440e+01	-8.199420e+01
7.800000e-07	-4.324878e-06	-1.249491e-09	-3.002245e+01	-8.179827e+01
7.900000e-07	-4.295482e-06	-1.244452e-09	-2.981838e+01	-8.159732e+01
8.000000e-07	-4.265789e-06	-1.238528e-09	-2.961226e+01	-8.139120e+01
8.100000e-07	-4.235833e-06	-1.231048e-09	-2.940432e+01	-8.117986e+01
8.200000e-07	-4.205575e-06	-1.234264e-09	-2.919427e+01	-8.096324e+01
8.300000e-07	-4.174959e-06	-1.231212e-09	-2.898174e+01	-8.074136e+01
8.400000e-07	-4.143964e-06	-1.227132e-09	-2.876658e+01	-8.051428e+01
8.500000e-07	-4.112684e-06	-1.229126e-09	-2.854944e+01	-8.028209e+01
8.600000e-07	-4.081285e-06	-1.228730e-09	-2.833147e+01	-8.004491e+01
8.700000e-07	-4.049796e-06	-1.216890e-09	-2.811288e+01	-7.980290e+01
8.800000e-07	-4.018132e-06	-1.207946e-09	-2.789308e+01	-7.955623e+01
8.900000e-07	-3.986158e-06	-1.204081e-09	-2.767112e+01	-7.930513e+01
9.000000e-07	-3.953801e-06	-1.194131e-09	-2.744650e+01	-7.904980e+01
9.100000e-07	-3.921034e-06	-1.188881e-09	-2.721904e+01	-7.879049e+01
9.200000e-07	-3.887917e-06	-1.189957e-09	-2.698915e+01	-7.852745e+01
9.300000e-07	-3.854471e-06	-1.189092e-09	-2.675698e+01	-7.826093e+01
9.400000e-07	-3.820601e-06	-1.181261e-09	-2.652186e+01	-7.799120e+01
9.500000e-07	-3.786303e-06	-1.180497e-09	-2.628377e+01	-7.771851e+01
9.600000e-07	-3.751586e-06	-1.174618e-09	-2.604277e+01	-7.744312e+01
9.700000e-07	-3.716449e-06	-1.165385e-09	-2.579885e+01	-7.716528e+01
9.800000e-07	-3.681060e-06	-1.158846e-09	-2.555319e+01	-7.688525e+01
9.900000e-07	-3.645588e-06	-1.160370e-09	-2.530695e+01	-7.660326e+01
1.000000e-06	-3.609994e-06	-1.153800e-09	-2.505986e+01	-7.631954e+01
1.010000e-06	-3.574246e-06	-1.148206e-09	-2.481171e+01	-7.603431e+01
1.020000e-06	-3.538353e-06	-1.146252e-09	-2.456255e+01	-7.574777e+01
1.030000e-06	-3.502266e-06	-1.143987e-09	-2.431204e+01	-7.546011e+01
1.040000e-06	-3.465885e-06	-1.136505e-09	-2.405949e+01	-7.517152e+01
1.050000e-06	-3.429172e-06	-1.136429e-09	-2.380464e+01	-7.488216e+01
1.060000e-06	-3.392187e-06	-1.131723e-09	-2.354789e+01	-7.459217e+01
1.070000e-06	-3.354925e-06	-1.123018e-09	-2.328922e+01	-7.430169e+01
1.080000e-06	-3.317426e-06	-1.114600e-09	-2.302892e+01	-7.401082e+01
1.090000e-06	-3.279743e-06	-1.110175e-09	-2.276733e+01	-7.371967e+01
1.100000e-06	-3.241914e-06	-1.101575e-09	-2.250473e+01	-7.342829e+01
1.110000e-06	-3.203862e-06	-1.092503e-09	-2.224058e+01	-7.313675e+01
1.120000e-06	-3.165529e-06	-1.084578e-09	-2.197448e+01	-7.284506e+01
1.130000e-06	-3.126953e-06	-1.077915e-09	-2.170669e+01	-7.255324e+01
1.140000e-06	-3.088160e-06	-1.073853e-09	-2.143740e+01	-7.226124e+01
1.150000e-06	-3.049225e-06	-1.075517e-09	-2.116712e+01	-7.196901e+01
1.160000e-06	-3.010132e-06	-1.075161e-09	-2.089574e+01	-7.167646e+01
1.170000e-06	-2.970808e-06	-1.068970e-09	-2.062276e+01	-7.138347e+01
1.180000e-06	-2.931347e-06	-1.063338e-09	-2.034883e+01	-7.108987e+01
1.190000e-06	-2.891819e-06	-1.057908e-09	-2.007443e+01	-7.079546e+01
1.200000e-06	-2.852139e-06	-1.048178e-09	-1.979899e+01	-7.050001e+01
1.210000e-06	-2.812247e-06	-1.036032e-09	-1.952206e+01	-7.020323e+01
1.220000e-06	-2.772140e-06	-1.028107e-09	-1.924365e+01	-6.990481e+01
1.230000e-06	-2.731912e-06	-1.019935e-09	-1.896439e+01	-6.960439e+01
1.240000e-06	-2.691447e-06	-1.013900e-09	-1.868349e+01	-6.930155e+01
1.250000e-06	-2.650609e-06	-1.011447e-09	-1.840000e+01	-6.899586e+01
1.260000e-06	-2.609458e-06	-1.012295e-09	-1.811434e+01	-6.868683e+01
1.270000e-06	-2.568149e-06	-1.006342e-09	-1.782758e+01	-6.837394e+01
1.280000e-06	-2.526657e-06	-9.967770e-10	-1.753956e+01	-6.805665e+01
1.290000e-06	-2.484841e-06	-9.869700e-10	-1.724927e+01	-6.773438e+01
1.300000e-06	-2.442651e-06	-9.772313e-10	-1.695640e+01	-6.740651e+01
1.310000e-06	-2.400076e-06	-9.661161e-10	-1.666085e+01	-6.707242e+01
1.320000e-06	-2.357294e-06	-9.577398e-10	-1.636387e+01	-6.673148e+01
1.330000e-06	-2.314380e-06	-9.514467e-10	-1.606597e+01	-6.638303e+01
1.340000e-06	-2.271217e-06	-9.489507e-10	-1.576634e+01	-6.602642e+01
1.350000e-06	-2.227878e-06	-9.491270e-10	-1.546549e+01	-6.566101e+01
1.360000e-06	-2.184425e-06	-9.484315e-10	-1.516384e+01	-6.528617e+01
1.370000e-06	-2.140843e-06	-9.403369e-10	-1.486131e+01	-6.490127e+01
1.380000e-06	-2.097234e-06	-9.294599e-10	-1.455858e+01	-6.450574e+01
1.390000e-06	-2.053623e-06	-9.162419e-10	-1.425584e+01	-6.409900e+01
1.400000e-06	-2.009882e-06	-9.014802e-10	-1.395220e+01	-6.368055e+01
1.410000e-06	-1.965987e-06	-8.884990e-10	-1.364749e+01	-6.324989e+01
1.420000e-06	-1.922038e-06	-8.804174e-10	-1.334241e+01	-6.280660e+01
1.430000e-06	-1.877956e-06	-8.759606e-10	-1.303640e+01	-6.235029e+01
1.440000e-06	-1.833671e-06	-8.725205e-10	-1.272898e+01	-6.188062e+01
1.450000e-06	-1.789275e-06	-8.682374e-10	-1.242079e+01	-6.139733e+01
1.460000e-06	-1.744788e-06	-8.610425e-10	-1.211197e+01	-6.090017e+01
1.470000e-06	-1.700194e-06	-8.504459e-10	-1.180241e+01	-6.038898e+01
1.480000e-06	-1.655483e-06	-8.381139e-10	-1.149203e+01	-5.986362e+01
1.490000e-06	-1.610575e-06	-8.264479e-10	-1.118029e+01	-5.932402e+01
1.500000e-06	-1.565526e-06	-8.122838e-10	-1.086757e+01	-5.877012e+01
1.510000e-06	-1.520358e-06	-7.984942e-10	-1.055403e+01	-5.820193e+01
1.520000e-06	-1.475054e-06	-7.903888e-10	-1.023954e+01	-5.761944e+01
1.530000e-06	-1.429664e-06	-7.851989e-10	-9.924448e+00	-5.702269e+01
1.540000e-06	-1.384232e-06	-7.799891e-10	-9.609066e+00	-5.641170e+01
1.550000e-06	-1.338792e-06	-7.734371e-10	-9.293627e+00	-5.578652e+01
1.560000e-06	-1.293299e-06	-7.629545e-10	-8.977827e+00	-5.514713e+01
1.570000e-06	-1.247679e-06	-7.479403e-10	-8.661138e+00	-5.449354e+01
1.580000e-06	-1.201931e-06	-7.303480e-10	-8.343565e+00	-5.382568e+01
1.590000e-06	-1.156079e-06	-7.141797e-10	-8.025269e+00	-5.314345e+01
1.600000e-06	-1.110098e-06	-6.990236e-10	-7.706080e+00	-5.244668e+01
1.610000e-06	-1.064030e-06	-6.867550e-10	-7.386286e+00	-5.173512e+01
1.620000e-06	-1.017940e-06	-6.762272e-10	-7.066336e+00	-5.100847e+01
1.630000e-06	-9.717769e-07	-6.660690e-10	-6.745883e+00	-5.026630e+01
1.640000e-06	-9.254878e-07	-6.553375e-10	-6.424553e+00	-4.950810e+01
1.650000e-06	-8.791169e-07	-6.448666e-10	-6.102656e+00	-4.873329e+01
1.660000e-06	-8.326869e-07	-6.330190e-10	-5.780348e+00	-4.794113e+01
1.670000e-06	-7.862462e-07	-6.200313e-10	-5.457966e+00	-4.713081e+01
1.680000e-06	-7.397944e-07	-6.060348e-10	-5.135506e+00	-4.630141e+01
1.690000e-06	-6.932788e-07	-5.904315e-10	-4.812604e+00	-4.545189e+01
1.700000e-06	-6.467508e-07	-5.710579e-10	-4.489616e+00	-4.458114e+01
1.710000e-06	-6.001769e-07	-5.527243e-10	-4.166309e+00	-4.368794e+01
1.720000e-06	-5.535105e-07	-5.361673e-10	-3.842361e+00	-4.277099e+01
1.730000e-06	-5.068307e-07	-5.206711e-10	-3.518318e+00	-4.182891e+01
1.740000e-06	-4.601335e-07	-5.087786e-10	-3.194156e+00	-4.086030e+01
1.750000e-06	-4.134032e-07	-4.983487e-10	-2.869763e+00	-3.986367e+01
1.760000e-06	-3.665702e-07	-4.844969e-10	-2.544658e+00	-3.883754e+01
1.770000e-06	-3.196710e-07	-4.695024e-10	-2.219093e+00	-3.778042e+01
1.780000e-06	-2.728557e-07	-4.531414e-10	-1.894110e+00	-3.669081e+01
1.790000e-06	-2.260464e-07	-4.356143e-10	-1.569169e+00	-3.556727e+01
1.800000e-06	-1.791343e-07	-4.185195e-10	-1.243515e+00	-3.440841e+01
1.810000e-06	-1.321852e-07	-4.009391e-10	-9.176034e-01	-3.321290e+01
1.820000e-06	-8.525135e-08	-3.843200e-10	-5.917980e-01	-3.197952e+01
1.830000e-06	-3.827095e-08	-3.662640e-10	-2.656694e-01	-3.070718e+01
1.840000e-06	8.725923e-09	-3.476158e-10	6.057363e-02	-2.939490e+01
1.850000e-06	5.561714e-08	-3.283171e-10	3.860832e-01	-2.804188e+01
1.860000e-06	1.024406e-07	-3.107369e-10	7.111225e-01	-2.664750e+01
1.870000e-06	1.492659e-07	-2.933404e-10	1.036174e+00	-2.521130e+01
1.880000e-06	1.960617e-07	-2.752051e-10	1.361021e+00	-2.373307e+01
1.890000e-06	2.428236e-07	-2.525588e-10	1.685633e+00	-2.221279e+01
1.900000e-06	2.896025e-07	-2.262335e-10	2.010363e+00	-2.065067e+01
1.910000e-06	3.363895e-07	-1.997784e-10	2.335149e+00	-1.904716e+01
1.920000e-06	3.831500e-07	-1.743800e-10	2.659752e+00	-1.740297e+01
1.930000e-06	4.299153e-07	-1.498183e-10	2.984387e+00	-1.571902e+01
1.940000e-06	4.766207e-07	-1.265326e-10	3.308607e+00	-1.399649e+01
1.950000e-06	5.232664e-07	-1.059728e-10	3.632412e+00	-1.223681e+01
1.960000e-06	5.698656e-07	-8.811556e-11	3.955894e+00	-1.044161e+01
1.970000e-06	6.163594e-07	-6.877898e-11	4.278645e+00	-8.612791e+00
1.980000e-06	6.628318e-07	-4.596855e-11	4.601247e+00	-6.752422e+00
1.990000e-06	7.093628e-07	-1.721555e-11	4.924256e+00	-4.862797e+00
2.000000e-06	7.558787e-07	1.543776e-11	5.247160e+00	-2.946386e+00
2.010000e-06	8.022471e-07	4.835653e-11	5.569041e+00	-1.005826e+00
2.020000e-06	8.484964e-07	7.936991e-11	5.890094e+00	9.561010e-01
2.030000e-06	8.947055e-07	1.062949e-10	6.210868e+00	2.936485e+00
2.040000e-06	9.408006e-07	1.301735e-10	6.530852e+00	4.932315e+00
2.050000e-06	9.868249e-07	1.518356e-10	6.850343e+00	6.940497e+00
2.060000e-06	1.032864e-06	1.735994e-10	7.169937e+00	8.957880e+00
2.070000e-06	1.078810e-06	1.975001e-10	7.488887e+00	1.098128e+01
2.080000e-06	1.124635e-06	2.269059e-10	7.806991e+00	1.300750e+01
2.090000e-06	1.170381e-06	2.608037e-10	8.124557e+00	1.503336e+01
2.100000e-06	1.215991e-06	2.949800e-10	8.441167e+00	1.705571e+01
2.110000e-06	1.261516e-06	3.255493e-10	8.757198e+00	1.907146e+01
2.120000e-06	1.307064e-06	3.524142e-10	9.073380e+00	2.107760e+01
2.130000e-06	1.352541e-06	3.769078e-10	9.389074e+00	2.307120e+01
2.140000e-06	1.397907e-06	3.984983e-10	9.703997e+00	2.504946e+01
2.150000e-06	1.443191e-06	4.189401e-10	1.001835e+01	2.700969e+01
2.160000e-06	1.488404e-06	4.418041e-10	1.033221e+01	2.894938e+01
2.170000e-06	1.533499e-06	4.672613e-10	1.064525e+01	3.086613e+01
2.180000e-06	1.578450e-06	4.960729e-10	1.095728e+01	3.275773e+01
2.190000e-06	1.623323e-06	5.263434e-10	1.126879e+01	3.462214e+01
2.200000e-06	1.668006e-06	5.568194e-10	1.157897e+01	3.645749e+01
2.210000e-06	1.712482e-06	5.847497e-10	1.188771e+01	3.826210e+01
2.220000e-06	1.756857e-06	6.084428e-10	1.219575e+01	4.003447e+01
2.230000e-06	1.801070e-06	6.281755e-10	1.250267e+01	4.177329e+01
2.240000e-06	1.845158e-06	6.463124e-10	1.280872e+01	4.347742e+01
2.250000e-06	1.889167e-06	6.644979e-10	1.311423e+01	4.514591e+01
2.260000e-06	1.933025e-06	6.844883e-10	1.341868e+01	4.677799e+01
2.270000e-06	1.976805e-06	7.073731e-10	1.372259e+01	4.837303e+01
2.280000e-06	2.020570e-06	7.313979e-10	1.402640e+01	4.993061e+01
2.290000e-06	2.064290e-06	7.544400e-10	1.432989e+01	5.145041e+01
2.300000e-06	2.107944e-06	7.764238e-10	1.463293e+01	5.293229e+01
2.310000e-06	2.151506e-06	7.962738e-10	1.493533e+01	5.437623e+01
2.320000e-06	2.195029e-06	8.129018e-10	1.523746e+01	5.578234e+01
2.330000e-06	2.238474e-06	8.281552e-10	1.553905e+01	5.715082e+01
2.340000e-06	2.281762e-06	8.438656e-10	1.583954e+01	5.848201e+01
2.350000e-06	2.324921e-06	8.602011e-10	1.613914e+01	5.977631e+01
2.360000e-06	2.367966e-06	8.754292e-10	1.643795e+01	6.103421e+01
2.370000e-06	2.410797e-06	8.907172e-10	1.673527e+01	6.225627e+01
2.380000e-06	2.453234e-06	9.064828e-10	1.702986e+01	6.344310e+01
2.390000e-06	2.495314e-06	9.209461e-10	1.732198e+01	6.459539e+01
2.400000e-06	2.537215e-06	9.358268e-10	1.761285e+01	6.571382e+01
2.410000e-06	2.578857e-06	9.523709e-10	1.790191e+01	6.679914e+01
2.420000e-06	2.620066e-06	9.673728e-10	1.818798e+01	6.785210e+01
2.430000e-06	2.660831e-06	9.809056e-10	1.847096e+01	6.887348e+01
2.440000e-06	2.701270e-06	9.943716e-10	1.875168e+01	6.986405e+01
2.450000e-06	2.741521e-06	1.007710e-09	1.903110e+01	7.082459e+01
2.460000e-06	2.781576e-06	1.019366e-09	1.930915e+01	7.175588e+01
2.470000e-06	2.821462e-06	1.030034e-09	1.958603e+01	7.265868e+01
2.480000e-06	2.861273e-06	1.041774e-09	1.986239e+01	7.353375e+01
2.490000e-06	2.901000e-06	1.054124e-09	2.013817e+01	7.438181e+01
2.500000e-06	2.940586e-06	1.067673e-09	2.041297e+01	7.520357e+01
2.510000e-06	2.980047e-06	1.083500e-09	2.068690e+01	7.599972e+01
2.520000e-06	3.019343e-06	1.097828e-09	2.095968e+01	7.677093e+01
2.530000e-06	3.058414e-06	1.110872e-09	2.123091e+01	7.751783e+01
2.540000e-06	3.097249e-06	1.120863e-09	2.150049e+01	7.824104e+01
2.550000e-06	3.135826e-06	1.126470e-09	2.176828e+01	7.894113e+01
2.560000e-06	3.174136e-06	1.130681e-09	2.203422e+01	7.961865e+01
2.570000e-06	3.212220e-06	1.135283e-09	2.229859e+01	8.027415e+01
2.580000e-06	3.250142e-06	1.142020e-09	2.256184e+01	8.090813e+01
2.590000e-06	3.287824e-06	1.151867e-09	2.282343e+01	8.152106e+01
2.600000e-06	3.325317e-06	1.165329e-09	2.308369e+01	8.211342e+01
2.610000e-06	3.362690e-06	1.180187e-09	2.334313e+01	8.268563e+01
2.620000e-06	3.399802e-06	1.193436e-09	2.360075e+01	8.323813e+01
2.630000e-06	3.436589e-06	1.201170e-09	2.385612e+01	8.377132e+01
2.640000e-06	3.473047e-06	1.204610e-09	2.410920e+01	8.428559e+01
2.650000e-06	3.509180e-06	1.205633e-09	2.436003e+01	8.478134e+01
2.660000e-06	3.545093e-06	1.206359e-09	2.460933e+01	8.525894e+01
2.670000e-06	3.580907e-06	1.209924e-09	2.485795e+01	8.571876e+01
2.680000e-06	3.616633e-06	1.217101e-09	2.510595e+01	8.616118e+01
2.690000e-06	3.652253e-06	1.227243e-09	2.535322e+01	8.658656e+01
2.700000e-06	3.687757e-06	1.236962e-09	2.559968e+01	8.699528e+01
2.710000e-06	3.723116e-06	1.243720e-09	2.584514e+01	8.738772e+01
2.720000e-06	3.758311e-06	1.248298e-09	2.608945e+01	8.776426e+01
2.730000e-06	3.793221e-06	1.251206e-09	2.633179e+01	8.812529e+01
2.740000e-06	3.827691e-06	1.253871e-09	2.657107e+01	8.847123e+01
2.750000e-06	3.861598e-06	1.256881e-09	2.680645e+01	8.880246e+01
2.760000e-06	3.894976e-06	1.261582e-09	2.703815e+01	8.911944e+01
2.770000e-06	3.927855e-06	1.267825e-09	2.726639e+01	8.942257e+01
2.780000e-06	3.960281e-06	1.273942e-09	2.749149e+01	8.971231e+01
2.790000e-06	3.992420e-06	1.279782e-09	2.771459e+01	8.998912e+01
2.800000e-06	4.024330e-06	1.285519e-09	2.793610e+01	9.025345e+01
2.810000e-06	4.056074e-06	1.290341e-09	2.815646e+01	9.050578e+01
2.820000e-06	4.087689e-06	1.295892e-09	2.837593e+01	9.074658e+01
2.830000e-06	4.119140e-06	1.302538e-09	2.859425e+01	9.097633e+01
2.840000e-06	4.150329e-06	1.306547e-09	2.881076e+01	9.119552e+01
2.850000e-06	4.181224e-06	1.309151e-09	2.902523e+01	9.140462e+01
2.860000e-06	4.211903e-06	1.312318e-09	2.923820e+01	9.160410e+01
2.870000e-06	4.242275e-06	1.315318e-09	2.944903e+01	9.179444e+01
2.880000e-06	4.272234e-06	1.317578e-09	2.965700e+01	9.197608e+01
2.890000e-06	4.301856e-06	1.320295e-09	2.986263e+01	9.214947e+01
2.900000e-06	4.331237e-06	1.323657e-09	3.006659e+01	9.231502e+01
