# Temperatura_=_-7.0
# Concentracion g/m^3_=_1620.0
# C_Vs_to_Am_M_A/Vsm_=_65563218390.804596
# pendiente_HvsI_1/m_=_3716.3
# ordenada_HvsI_A/m_=_1297.0
# frecuencia_Hz_=_135108.8456527584

Tiempo_(s)	Campo_(V.s)	Magnetizacion_(V.s)	Campo_(kA/m)	Magnetizacion_(A/m)
0.000000e+00	-5.522072e-06	-1.453750e-09	-3.837345e+01	-9.361850e+01
1.000000e-08	-5.522278e-06	-1.451533e-09	-3.837488e+01	-9.356510e+01
2.000000e-08	-5.522291e-06	-1.452344e-09	-3.837497e+01	-9.351392e+01
3.000000e-08	-5.521923e-06	-1.453451e-09	-3.837241e+01	-9.346502e+01
4.000000e-08	-5.521085e-06	-1.453268e-09	-3.836659e+01	-9.341843e+01
5.000000e-08	-5.519603e-06	-1.448384e-09	-3.835629e+01	-9.337410e+01
6.000000e-08	-5.517402e-06	-1.432610e-09	-3.834100e+01	-9.333191e+01
7.000000e-08	-5.514656e-06	-1.421450e-09	-3.832192e+01	-9.329171e+01
8.000000e-08	-5.511480e-06	-1.451244e-09	-3.829984e+01	-9.325326e+01
9.000000e-08	-5.507914e-06	-1.516299e-09	-3.827506e+01	-9.321627e+01
1.000000e-07	-5.503921e-06	-1.525727e-09	-3.824732e+01	-9.318038e+01
1.100000e-07	-5.499488e-06	-1.444076e-09	-3.821651e+01	-9.314518e+01
1.200000e-07	-5.494816e-06	-1.384023e-09	-3.818405e+01	-9.311021e+01
1.300000e-07	-5.490014e-06	-1.422637e-09	-3.815068e+01	-9.307496e+01
1.400000e-07	-5.484867e-06	-1.465141e-09	-3.811490e+01	-9.303889e+01
1.500000e-07	-5.479229e-06	-1.436585e-09	-3.807573e+01	-9.300142e+01
1.600000e-07	-5.473223e-06	-1.389128e-09	-3.803399e+01	-9.296196e+01
1.700000e-07	-5.466931e-06	-1.426335e-09	-3.799027e+01	-9.291991e+01
1.800000e-07	-5.460129e-06	-1.454082e-09	-3.794300e+01	-9.287464e+01
1.900000e-07	-5.452843e-06	-1.457717e-09	-3.789237e+01	-9.282558e+01
2.000000e-07	-5.445301e-06	-1.401637e-09	-3.783996e+01	-9.277213e+01
2.100000e-07	-5.437556e-06	-1.417837e-09	-3.778613e+01	-9.271375e+01
2.200000e-07	-5.429551e-06	-1.434404e-09	-3.773051e+01	-9.264994e+01
2.300000e-07	-5.421244e-06	-1.452944e-09	-3.767278e+01	-9.258024e+01
2.400000e-07	-5.412423e-06	-1.419066e-09	-3.761149e+01	-9.250424e+01
2.500000e-07	-5.402874e-06	-1.412161e-09	-3.754513e+01	-9.242162e+01
2.600000e-07	-5.392635e-06	-1.426248e-09	-3.747397e+01	-9.233211e+01
2.700000e-07	-5.381861e-06	-1.424614e-09	-3.739910e+01	-9.223553e+01
2.800000e-07	-5.370653e-06	-1.400592e-09	-3.732122e+01	-9.213179e+01
2.900000e-07	-5.358982e-06	-1.397495e-09	-3.724012e+01	-9.202085e+01
3.000000e-07	-5.346982e-06	-1.416237e-09	-3.715673e+01	-9.190279e+01
3.100000e-07	-5.334623e-06	-1.395587e-09	-3.707084e+01	-9.177776e+01
3.200000e-07	-5.321795e-06	-1.379305e-09	-3.698170e+01	-9.164598e+01
3.300000e-07	-5.308624e-06	-1.371503e-09	-3.689018e+01	-9.150776e+01
3.400000e-07	-5.295179e-06	-1.400260e-09	-3.679674e+01	-9.136348e+01
3.500000e-07	-5.281204e-06	-1.380861e-09	-3.669963e+01	-9.121356e+01
3.600000e-07	-5.266584e-06	-1.390369e-09	-3.659804e+01	-9.105851e+01
3.700000e-07	-5.251562e-06	-1.391455e-09	-3.649365e+01	-9.089886e+01
3.800000e-07	-5.236095e-06	-1.394363e-09	-3.638616e+01	-9.073519e+01
3.900000e-07	-5.219967e-06	-1.362105e-09	-3.627409e+01	-9.056810e+01
4.000000e-07	-5.203394e-06	-1.381823e-09	-3.615892e+01	-9.039820e+01
4.100000e-07	-5.186647e-06	-1.381175e-09	-3.604254e+01	-9.022611e+01
4.200000e-07	-5.169614e-06	-1.362109e-09	-3.592418e+01	-9.005243e+01
4.300000e-07	-5.152226e-06	-1.356869e-09	-3.580335e+01	-8.987776e+01
4.400000e-07	-5.134592e-06	-1.398220e-09	-3.568081e+01	-8.970266e+01
4.500000e-07	-5.116551e-06	-1.387276e-09	-3.555544e+01	-8.952764e+01
4.600000e-07	-5.098006e-06	-1.362397e-09	-3.542657e+01	-8.935317e+01
4.700000e-07	-5.079095e-06	-1.364321e-09	-3.529515e+01	-8.917967e+01
4.800000e-07	-5.059869e-06	-1.372621e-09	-3.516155e+01	-8.900749e+01
4.900000e-07	-5.040387e-06	-1.343112e-09	-3.502617e+01	-8.883692e+01
5.000000e-07	-5.020730e-06	-1.342278e-09	-3.488957e+01	-8.866817e+01
5.100000e-07	-5.000862e-06	-1.351536e-09	-3.475151e+01	-8.850138e+01
5.200000e-07	-4.980648e-06	-1.338568e-09	-3.461104e+01	-8.833662e+01
5.300000e-07	-4.959996e-06	-1.338071e-09	-3.446753e+01	-8.817388e+01
5.400000e-07	-4.938936e-06	-1.364710e-09	-3.432117e+01	-8.801309e+01
5.500000e-07	-4.917495e-06	-1.358455e-09	-3.417218e+01	-8.785411e+01
5.600000e-07	-4.895679e-06	-1.334366e-09	-3.402058e+01	-8.769673e+01
5.700000e-07	-4.873610e-06	-1.342923e-09	-3.386722e+01	-8.754070e+01
5.800000e-07	-4.851315e-06	-1.343993e-09	-3.371229e+01	-8.738572e+01
5.900000e-07	-4.828664e-06	-1.329837e-09	-3.355489e+01	-8.723142e+01
6.000000e-07	-4.805594e-06	-1.331263e-09	-3.339457e+01	-8.707744e+01
6.100000e-07	-4.782213e-06	-1.338876e-09	-3.323209e+01	-8.692338e+01
6.200000e-07	-4.758668e-06	-1.319554e-09	-3.306848e+01	-8.676881e+01
6.300000e-07	-4.734903e-06	-1.318635e-09	-3.290333e+01	-8.661330e+01
6.400000e-07	-4.710802e-06	-1.322578e-09	-3.273585e+01	-8.645645e+01
6.500000e-07	-4.686334e-06	-1.316934e-09	-3.256582e+01	-8.629784e+01
6.600000e-07	-4.661476e-06	-1.308623e-09	-3.239308e+01	-8.613707e+01
6.700000e-07	-4.636162e-06	-1.319829e-09	-3.221716e+01	-8.597378e+01
6.800000e-07	-4.610284e-06	-1.309121e-09	-3.203734e+01	-8.580762e+01
6.900000e-07	-4.583758e-06	-1.300473e-09	-3.185301e+01	-8.563830e+01
7.000000e-07	-4.556756e-06	-1.299729e-09	-3.166537e+01	-8.546553e+01
7.100000e-07	-4.529514e-06	-1.299250e-09	-3.147606e+01	-8.528910e+01
7.200000e-07	-4.502028e-06	-1.285152e-09	-3.128505e+01	-8.510883e+01
7.300000e-07	-4.474349e-06	-1.289860e-09	-3.109271e+01	-8.492456e+01
7.400000e-07	-4.446489e-06	-1.287057e-09	-3.089911e+01	-8.473619e+01
7.500000e-07	-4.418369e-06	-1.277983e-09	-3.070370e+01	-8.454366e+01
7.600000e-07	-4.389992e-06	-1.275237e-09	-3.050651e+01	-8.434695e+01
7.700000e-07	-4.361354e-06	-1.281151e-09	-3.030750e+01	-8.414606e+01
7.800000e-07	-4.332364e-06	-1.269431e-09	-3.010604e+01	-8.394101e+01
7.900000e-07	-4.303064e-06	-1.266843e-09	-2.990243e+01	-8.373188e+01
8.000000e-07	-4.273503e-06	-1.271705e-09	-2.969701e+01	-8.351874e+01
8.100000e-07	-4.243562e-06	-1.263061e-09	-2.948895e+01	-8.330168e+01
8.200000e-07	-4.213292e-06	-1.249258e-09	-2.927860e+01	-8.308081e+01
8.300000e-07	-4.182759e-06	-1.251149e-09	-2.906642e+01	-8.285622e+01
8.400000e-07	-4.151966e-06	-1.249714e-09	-2.885244e+01	-8.262804e+01
8.500000e-07	-4.120884e-06	-1.241019e-09	-2.863645e+01	-8.239635e+01
8.600000e-07	-4.089587e-06	-1.242742e-09	-2.841896e+01	-8.216127e+01
8.700000e-07	-4.058147e-06	-1.240845e-09	-2.820048e+01	-8.192288e+01
8.800000e-07	-4.026532e-06	-1.227836e-09	-2.798078e+01	-8.168127e+01
8.900000e-07	-3.994705e-06	-1.217194e-09	-2.775962e+01	-8.143649e+01
9.000000e-07	-3.962635e-06	-1.216979e-09	-2.753676e+01	-8.118860e+01
9.100000e-07	-3.930257e-06	-1.206913e-09	-2.731176e+01	-8.093766e+01
9.200000e-07	-3.897452e-06	-1.200580e-09	-2.708380e+01	-8.068368e+01
9.300000e-07	-3.864186e-06	-1.201373e-09	-2.685263e+01	-8.042672e+01
9.400000e-07	-3.830530e-06	-1.200029e-09	-2.661875e+01	-8.016677e+01
9.500000e-07	-3.796468e-06	-1.190457e-09	-2.638205e+01	-7.990388e+01
9.600000e-07	-3.761954e-06	-1.189968e-09	-2.614220e+01	-7.963806e+01
9.700000e-07	-3.726992e-06	-1.185303e-09	-2.589925e+01	-7.936933e+01
9.800000e-07	-3.691705e-06	-1.177880e-09	-2.565404e+01	-7.909775e+01
9.900000e-07	-3.656224e-06	-1.172853e-09	-2.540748e+01	-7.882336e+01
1.000000e-06	-3.620605e-06	-1.174718e-09	-2.515996e+01	-7.854623e+01
1.010000e-06	-3.584882e-06	-1.165957e-09	-2.491172e+01	-7.826645e+01
1.020000e-06	-3.548993e-06	-1.160176e-09	-2.466232e+01	-7.798411e+01
1.030000e-06	-3.512882e-06	-1.157871e-09	-2.441138e+01	-7.769936e+01
1.040000e-06	-3.476547e-06	-1.154200e-09	-2.415888e+01	-7.741235e+01
1.050000e-06	-3.439912e-06	-1.146783e-09	-2.390430e+01	-7.712324e+01
1.060000e-06	-3.403004e-06	-1.143775e-09	-2.364783e+01	-7.683224e+01
1.070000e-06	-3.365965e-06	-1.136431e-09	-2.339043e+01	-7.653955e+01
1.080000e-06	-3.328703e-06	-1.126151e-09	-2.313150e+01	-7.624541e+01
1.090000e-06	-3.291169e-06	-1.121697e-09	-2.287067e+01	-7.595005e+01
1.100000e-06	-3.253359e-06	-1.121106e-09	-2.260793e+01	-7.565372e+01
1.110000e-06	-3.215356e-06	-1.114556e-09	-2.234384e+01	-7.535665e+01
1.120000e-06	-3.177105e-06	-1.106196e-09	-2.207803e+01	-7.505908e+01
1.130000e-06	-3.138530e-06	-1.099371e-09	-2.180997e+01	-7.476122e+01
1.140000e-06	-3.099788e-06	-1.092240e-09	-2.154075e+01	-7.446326e+01
1.150000e-06	-3.060909e-06	-1.088498e-09	-2.127057e+01	-7.416536e+01
1.160000e-06	-3.021875e-06	-1.086429e-09	-2.099932e+01	-7.386763e+01
1.170000e-06	-2.982624e-06	-1.083342e-09	-2.072656e+01	-7.357014e+01
1.180000e-06	-2.943157e-06	-1.079729e-09	-2.045230e+01	-7.327289e+01
1.190000e-06	-2.903573e-06	-1.078377e-09	-2.017723e+01	-7.297584e+01
1.200000e-06	-2.863871e-06	-1.071083e-09	-1.990134e+01	-7.267884e+01
1.210000e-06	-2.824040e-06	-1.059228e-09	-1.962454e+01	-7.238170e+01
1.220000e-06	-2.784089e-06	-1.047620e-09	-1.934692e+01	-7.208415e+01
1.230000e-06	-2.743988e-06	-1.040599e-09	-1.906825e+01	-7.178582e+01
1.240000e-06	-2.703695e-06	-1.031965e-09	-1.878826e+01	-7.148627e+01
1.250000e-06	-2.663076e-06	-1.027526e-09	-1.850599e+01	-7.118498e+01
1.260000e-06	-2.622203e-06	-1.026667e-09	-1.822196e+01	-7.088134e+01
1.270000e-06	-2.581090e-06	-1.026208e-09	-1.793626e+01	-7.057470e+01
1.280000e-06	-2.539591e-06	-1.019774e-09	-1.764788e+01	-7.026431e+01
1.290000e-06	-2.497815e-06	-1.012360e-09	-1.735758e+01	-6.994938e+01
1.300000e-06	-2.455740e-06	-1.002577e-09	-1.706519e+01	-6.962906e+01
1.310000e-06	-2.413402e-06	-9.918708e-10	-1.677098e+01	-6.930246e+01
1.320000e-06	-2.370865e-06	-9.830244e-10	-1.647538e+01	-6.896868e+01
1.330000e-06	-2.328095e-06	-9.769279e-10	-1.617818e+01	-6.862680e+01
1.340000e-06	-2.285084e-06	-9.724201e-10	-1.587929e+01	-6.827588e+01
1.350000e-06	-2.241872e-06	-9.716336e-10	-1.557900e+01	-6.791501e+01
1.360000e-06	-2.198491e-06	-9.691918e-10	-1.527754e+01	-6.754331e+01
1.370000e-06	-2.154987e-06	-9.628608e-10	-1.497523e+01	-6.715993e+01
1.380000e-06	-2.111450e-06	-9.530779e-10	-1.467269e+01	-6.676407e+01
1.390000e-06	-2.067819e-06	-9.412512e-10	-1.436949e+01	-6.635500e+01
1.400000e-06	-2.024025e-06	-9.265732e-10	-1.406516e+01	-6.593208e+01
1.410000e-06	-1.980154e-06	-9.127316e-10	-1.376029e+01	-6.549471e+01
1.420000e-06	-1.936262e-06	-9.024367e-10	-1.345529e+01	-6.504243e+01
1.430000e-06	-1.892297e-06	-8.949368e-10	-1.314977e+01	-6.457485e+01
1.440000e-06	-1.848210e-06	-8.899690e-10	-1.284340e+01	-6.409168e+01
1.450000e-06	-1.803947e-06	-8.835943e-10	-1.253582e+01	-6.359274e+01
1.460000e-06	-1.759530e-06	-8.747225e-10	-1.222716e+01	-6.307793e+01
1.470000e-06	-1.714979e-06	-8.644620e-10	-1.191757e+01	-6.254727e+01
1.480000e-06	-1.670253e-06	-8.540138e-10	-1.160676e+01	-6.200085e+01
1.490000e-06	-1.625416e-06	-8.425723e-10	-1.129518e+01	-6.143885e+01
1.500000e-06	-1.580480e-06	-8.290828e-10	-1.098292e+01	-6.086151e+01
1.510000e-06	-1.535389e-06	-8.150199e-10	-1.066958e+01	-6.026911e+01
1.520000e-06	-1.490179e-06	-8.058274e-10	-1.035540e+01	-5.966201e+01
1.530000e-06	-1.444811e-06	-7.969659e-10	-1.004014e+01	-5.904055e+01
1.540000e-06	-1.399373e-06	-7.873018e-10	-9.724386e+00	-5.840510e+01
1.550000e-06	-1.353997e-06	-7.749532e-10	-9.409064e+00	-5.775602e+01
1.560000e-06	-1.308519e-06	-7.617174e-10	-9.093034e+00	-5.709362e+01
1.570000e-06	-1.262878e-06	-7.482669e-10	-8.775871e+00	-5.641817e+01
1.580000e-06	-1.217155e-06	-7.362365e-10	-8.458132e+00	-5.572987e+01
1.590000e-06	-1.171377e-06	-7.242238e-10	-8.140022e+00	-5.502883e+01
1.600000e-06	-1.125598e-06	-7.101257e-10	-7.821895e+00	-5.431506e+01
1.610000e-06	-1.079707e-06	-6.962550e-10	-7.502997e+00	-5.358844e+01
1.620000e-06	-1.033658e-06	-6.837937e-10	-7.182993e+00	-5.284873e+01
1.630000e-06	-9.875577e-07	-6.725396e-10	-6.862641e+00	-5.209554e+01
1.640000e-06	-9.413931e-07	-6.636121e-10	-6.541838e+00	-5.132832e+01
1.650000e-06	-8.951623e-07	-6.544883e-10	-6.220575e+00	-5.054640e+01
1.660000e-06	-8.489312e-07	-6.446012e-10	-5.899310e+00	-4.974890e+01
1.670000e-06	-8.025968e-07	-6.338657e-10	-5.577328e+00	-4.893483e+01
1.680000e-06	-7.561001e-07	-6.196624e-10	-5.254218e+00	-4.810300e+01
1.690000e-06	-7.096180e-07	-6.035157e-10	-4.931209e+00	-4.725212e+01
1.700000e-06	-6.631924e-07	-5.862365e-10	-4.608593e+00	-4.638074e+01
1.710000e-06	-6.167463e-07	-5.681685e-10	-4.285834e+00	-4.548729e+01
1.720000e-06	-5.702207e-07	-5.518960e-10	-3.962522e+00	-4.457011e+01
1.730000e-06	-5.236365e-07	-5.382982e-10	-3.638804e+00	-4.362745e+01
1.740000e-06	-4.769980e-07	-5.267139e-10	-3.314708e+00	-4.265749e+01
1.750000e-06	-4.302143e-07	-5.144777e-10	-2.989604e+00	-4.165838e+01
1.760000e-06	-3.834300e-07	-4.982051e-10	-2.664495e+00	-4.062826e+01
1.770000e-06	-3.366276e-07	-4.796819e-10	-2.339260e+00	-3.956530e+01
1.780000e-06	-2.897538e-07	-4.601011e-10	-2.013529e+00	-3.846769e+01
1.790000e-06	-2.429350e-07	-4.426616e-10	-1.688180e+00	-3.733369e+01
1.800000e-06	-1.961166e-07	-4.280654e-10	-1.362835e+00	-3.616170e+01
1.810000e-06	-1.492915e-07	-4.128850e-10	-1.037442e+00	-3.495019e+01
1.820000e-06	-1.024790e-07	-3.974078e-10	-7.121370e-01	-3.369784e+01
1.830000e-06	-5.562372e-08	-3.804321e-10	-3.865349e-01	-3.240347e+01
1.840000e-06	-8.746743e-09	-3.600543e-10	-6.078202e-02	-3.106611e+01
1.850000e-06	3.817628e-08	-3.386587e-10	2.652909e-01	-2.968502e+01
1.860000e-06	8.507366e-08	-3.197274e-10	5.911856e-01	-2.825970e+01
1.870000e-06	1.319375e-07	-3.025604e-10	9.168474e-01	-2.678989e+01
1.880000e-06	1.788211e-07	-2.847027e-10	1.242646e+00	-2.527560e+01
1.890000e-06	2.256893e-07	-2.653720e-10	1.568338e+00	-2.371711e+01
1.900000e-06	2.725472e-07	-2.423564e-10	1.893958e+00	-2.211498e+01
1.910000e-06	3.193404e-07	-2.167221e-10	2.219129e+00	-2.047005e+01
1.920000e-06	3.661292e-07	-1.905989e-10	2.544269e+00	-1.878342e+01
1.930000e-06	4.129591e-07	-1.640855e-10	2.869695e+00	-1.705647e+01
1.940000e-06	4.597181e-07	-1.373031e-10	3.194629e+00	-1.529082e+01
1.950000e-06	5.063699e-07	-1.142075e-10	3.518817e+00	-1.348835e+01
1.960000e-06	5.529703e-07	-9.181105e-11	3.842648e+00	-1.165117e+01
1.970000e-06	5.995424e-07	-6.858356e-11	4.166282e+00	-9.781569e+00
1.980000e-06	6.461217e-07	-4.670928e-11	4.489966e+00	-7.882060e+00
1.990000e-06	6.925800e-07	-2.069636e-11	4.812810e+00	-5.955301e+00
2.000000e-06	7.389210e-07	9.022966e-12	5.134838e+00	-4.004095e+00
2.010000e-06	7.851887e-07	3.867310e-11	5.456357e+00	-2.031362e+00
2.020000e-06	8.313507e-07	6.753371e-11	5.777141e+00	-4.011085e-02
2.030000e-06	8.775926e-07	9.635472e-11	6.098482e+00	1.966585e+00
2.040000e-06	9.238089e-07	1.249278e-10	6.419643e+00	3.985615e+00
2.050000e-06	9.698834e-07	1.525044e-10	6.739819e+00	6.013856e+00
2.060000e-06	1.015858e-06	1.795062e-10	7.059302e+00	8.048195e+00
2.070000e-06	1.061772e-06	2.064992e-10	7.378366e+00	1.008556e+01
2.080000e-06	1.107686e-06	2.335441e-10	7.697425e+00	1.212292e+01
2.090000e-06	1.153478e-06	2.610200e-10	8.015637e+00	1.415733e+01
2.100000e-06	1.199106e-06	2.893473e-10	8.332713e+00	1.618595e+01
2.110000e-06	1.244712e-06	3.168574e-10	8.649633e+00	1.820602e+01
2.120000e-06	1.290309e-06	3.433099e-10	8.966493e+00	2.021493e+01
2.130000e-06	1.335782e-06	3.729280e-10	9.282487e+00	2.221018e+01
2.140000e-06	1.381205e-06	4.030829e-10	9.598134e+00	2.418944e+01
2.150000e-06	1.426554e-06	4.297411e-10	9.913273e+00	2.615048e+01
2.160000e-06	1.471763e-06	4.535154e-10	1.022743e+01	2.809127e+01
2.170000e-06	1.516877e-06	4.749700e-10	1.054094e+01	3.000989e+01
2.180000e-06	1.561838e-06	4.964043e-10	1.085338e+01	3.190461e+01
2.190000e-06	1.606711e-06	5.194732e-10	1.116520e+01	3.377382e+01
2.200000e-06	1.651512e-06	5.474644e-10	1.147652e+01	3.561608e+01
2.210000e-06	1.696142e-06	5.792122e-10	1.178666e+01	3.743006e+01
2.220000e-06	1.740597e-06	6.100126e-10	1.209559e+01	3.921459e+01
2.230000e-06	1.784917e-06	6.376992e-10	1.240357e+01	4.096863e+01
2.240000e-06	1.829093e-06	6.603463e-10	1.271056e+01	4.269124e+01
2.250000e-06	1.873073e-06	6.769920e-10	1.301618e+01	4.438162e+01
2.260000e-06	1.916945e-06	6.907628e-10	1.332105e+01	4.603907e+01
2.270000e-06	1.960787e-06	7.081038e-10	1.362571e+01	4.766296e+01
2.280000e-06	2.004591e-06	7.290414e-10	1.393011e+01	4.925278e+01
2.290000e-06	2.048338e-06	7.518138e-10	1.423411e+01	5.080811e+01
2.300000e-06	2.092006e-06	7.778111e-10	1.453757e+01	5.232858e+01
2.310000e-06	2.135567e-06	8.029287e-10	1.484027e+01	5.381393e+01
2.320000e-06	2.179045e-06	8.232280e-10	1.514241e+01	5.526392e+01
2.330000e-06	2.222505e-06	8.391680e-10	1.544442e+01	5.667843e+01
2.340000e-06	2.265862e-06	8.521560e-10	1.574571e+01	5.805736e+01
2.350000e-06	2.309016e-06	8.650587e-10	1.604559e+01	5.940067e+01
2.360000e-06	2.352015e-06	8.795779e-10	1.634439e+01	6.070841e+01
2.370000e-06	2.394842e-06	8.972285e-10	1.664201e+01	6.198066e+01
2.380000e-06	2.437306e-06	9.180928e-10	1.693709e+01	6.321756e+01
2.390000e-06	2.479286e-06	9.397428e-10	1.722882e+01	6.441931e+01
2.400000e-06	2.520953e-06	9.586564e-10	1.751836e+01	6.558616e+01
2.410000e-06	2.562371e-06	9.728417e-10	1.780618e+01	6.671842e+01
2.420000e-06	2.603397e-06	9.834343e-10	1.809128e+01	6.781646e+01
2.430000e-06	2.644274e-06	9.937413e-10	1.837533e+01	6.888070e+01
2.440000e-06	2.684980e-06	1.006723e-09	1.865820e+01	6.991161e+01
2.450000e-06	2.725322e-06	1.022421e-09	1.893855e+01	7.090974e+01
2.460000e-06	2.765445e-06	1.039150e-09	1.921736e+01	7.187566e+01
2.470000e-06	2.805358e-06	1.054050e-09	1.949472e+01	7.281003e+01
2.480000e-06	2.845129e-06	1.066991e-09	1.977109e+01	7.371353e+01
2.490000e-06	2.884775e-06	1.079036e-09	2.004660e+01	7.458689e+01
2.500000e-06	2.924295e-06	1.089292e-09	2.032123e+01	7.543091e+01
2.510000e-06	2.963721e-06	1.100031e-09	2.059520e+01	7.624639e+01
2.520000e-06	3.002987e-06	1.109369e-09	2.086806e+01	7.703418e+01
2.530000e-06	3.042060e-06	1.119970e-09	2.113959e+01	7.779517e+01
2.540000e-06	3.081012e-06	1.134002e-09	2.141027e+01	7.853025e+01
2.550000e-06	3.119723e-06	1.147461e-09	2.167928e+01	7.924033e+01
2.560000e-06	3.158069e-06	1.156798e-09	2.194575e+01	7.992633e+01
2.570000e-06	3.196212e-06	1.162639e-09	2.221080e+01	8.058915e+01
2.580000e-06	3.234178e-06	1.168149e-09	2.247464e+01	8.122970e+01
2.590000e-06	3.271937e-06	1.174386e-09	2.273703e+01	8.184887e+01
2.600000e-06	3.309511e-06	1.183712e-09	2.299813e+01	8.244752e+01
2.610000e-06	3.346802e-06	1.194775e-09	2.325727e+01	8.302648e+01
2.620000e-06	3.383845e-06	1.208014e-09	2.351469e+01	8.358654e+01
2.630000e-06	3.420707e-06	1.219945e-09	2.377085e+01	8.412844e+01
2.640000e-06	3.457320e-06	1.229186e-09	2.402527e+01	8.465289e+01
2.650000e-06	3.493639e-06	1.236908e-09	2.427766e+01	8.516054e+01
2.660000e-06	3.529718e-06	1.243338e-09	2.452837e+01	8.565198e+01
2.670000e-06	3.565563e-06	1.248993e-09	2.477746e+01	8.612774e+01
2.680000e-06	3.601229e-06	1.254237e-09	2.502531e+01	8.658830e+01
2.690000e-06	3.636845e-06	1.261175e-09	2.527281e+01	8.703409e+01
2.700000e-06	3.672360e-06	1.268652e-09	2.551961e+01	8.746547e+01
2.710000e-06	3.707724e-06	1.273702e-09	2.576535e+01	8.788274e+01
2.720000e-06	3.742818e-06	1.277631e-09	2.600923e+01	8.828618e+01
2.730000e-06	3.777585e-06	1.281058e-09	2.625083e+01	8.867601e+01
2.740000e-06	3.812001e-06	1.285360e-09	2.648999e+01	8.905239e+01
2.750000e-06	3.846004e-06	1.290436e-09	2.672628e+01	8.941547e+01
2.760000e-06	3.879527e-06	1.296181e-09	2.695923e+01	8.976537e+01
2.770000e-06	3.912449e-06	1.302458e-09	2.718801e+01	9.010219e+01
2.780000e-06	3.944885e-06	1.307124e-09	2.741342e+01	9.042600e+01
2.790000e-06	3.977053e-06	1.311433e-09	2.763695e+01	9.073687e+01
2.800000e-06	4.008972e-06	1.316737e-09	2.785876e+01	9.103489e+01
2.810000e-06	4.040696e-06	1.321333e-09	2.807921e+01	9.132012e+01
2.820000e-06	4.072312e-06	1.325901e-09	2.829892e+01	9.159268e+01
2.830000e-06	4.103800e-06	1.332390e-09	2.851773e+01	9.185265e+01
2.840000e-06	4.135076e-06	1.339259e-09	2.873507e+01	9.210019e+01
2.850000e-06	4.166042e-06	1.344538e-09	2.895026e+01	9.233545e+01
2.860000e-06	4.196699e-06	1.349425e-09	2.916329e+01	9.255862e+01
2.870000e-06	4.227065e-06	1.354678e-09	2.937431e+01	9.276993e+01
2.880000e-06	4.257105e-06	1.356454e-09	2.958306e+01	9.296964e+01
2.890000e-06	4.286837e-06	1.356054e-09	2.978967e+01	9.315803e+01
2.900000e-06	4.316285e-06	1.357672e-09	2.999431e+01	9.333545e+01
