# Temperatura_=_12.23
# Concentracion g/m^3_=_1620.0
# C_Vs_to_Am_M_A/Vsm_=_65563218390.804596
# pendiente_HvsI_1/m_=_3716.3
# ordenada_HvsI_A/m_=_1297.0
# frecuencia_Hz_=_135109.11954445578

Tiempo_(s)	Campo_(V.s)	Magnetizacion_(V.s)	Campo_(kA/m)	Magnetizacion_(A/m)
0.000000e+00	-5.515259e-06	-1.753848e-09	-3.836955e+01	-1.141127e+02
1.000000e-08	-5.515326e-06	-1.754882e-09	-3.837001e+01	-1.140736e+02
2.000000e-08	-5.515214e-06	-1.756574e-09	-3.836924e+01	-1.140322e+02
3.000000e-08	-5.514774e-06	-1.757745e-09	-3.836618e+01	-1.139883e+02
4.000000e-08	-5.513821e-06	-1.754334e-09	-3.835954e+01	-1.139415e+02
5.000000e-08	-5.512282e-06	-1.747761e-09	-3.834884e+01	-1.138916e+02
6.000000e-08	-5.510142e-06	-1.741474e-09	-3.833395e+01	-1.138382e+02
7.000000e-08	-5.507378e-06	-1.764046e-09	-3.831472e+01	-1.137809e+02
8.000000e-08	-5.504072e-06	-1.819350e-09	-3.829172e+01	-1.137195e+02
9.000000e-08	-5.500329e-06	-1.824872e-09	-3.826568e+01	-1.136538e+02
1.000000e-07	-5.496156e-06	-1.744871e-09	-3.823665e+01	-1.135836e+02
1.100000e-07	-5.491692e-06	-1.682085e-09	-3.820559e+01	-1.135086e+02
1.200000e-07	-5.487062e-06	-1.705335e-09	-3.817338e+01	-1.134288e+02
1.300000e-07	-5.482122e-06	-1.771626e-09	-3.813902e+01	-1.133441e+02
1.400000e-07	-5.476691e-06	-1.769686e-09	-3.810123e+01	-1.132544e+02
1.500000e-07	-5.470901e-06	-1.735687e-09	-3.806095e+01	-1.131597e+02
1.600000e-07	-5.464812e-06	-1.754550e-09	-3.801859e+01	-1.130601e+02
1.700000e-07	-5.458314e-06	-1.792982e-09	-3.797338e+01	-1.129558e+02
1.800000e-07	-5.451352e-06	-1.767025e-09	-3.792495e+01	-1.128468e+02
1.900000e-07	-5.444006e-06	-1.714716e-09	-3.787384e+01	-1.127334e+02
2.000000e-07	-5.436428e-06	-1.699804e-09	-3.782112e+01	-1.126157e+02
2.100000e-07	-5.428626e-06	-1.751126e-09	-3.776685e+01	-1.124940e+02
2.200000e-07	-5.420588e-06	-1.779389e-09	-3.771092e+01	-1.123686e+02
2.300000e-07	-5.412236e-06	-1.767860e-09	-3.765282e+01	-1.122396e+02
2.400000e-07	-5.403340e-06	-1.744913e-09	-3.759093e+01	-1.121074e+02
2.500000e-07	-5.393765e-06	-1.739601e-09	-3.752432e+01	-1.119723e+02
2.600000e-07	-5.383507e-06	-1.728545e-09	-3.745295e+01	-1.118345e+02
2.700000e-07	-5.372687e-06	-1.715201e-09	-3.737768e+01	-1.116942e+02
2.800000e-07	-5.361437e-06	-1.715371e-09	-3.729941e+01	-1.115517e+02
2.900000e-07	-5.349801e-06	-1.721033e-09	-3.721846e+01	-1.114072e+02
3.000000e-07	-5.337793e-06	-1.716536e-09	-3.713492e+01	-1.112608e+02
3.100000e-07	-5.325382e-06	-1.697237e-09	-3.704858e+01	-1.111126e+02
3.200000e-07	-5.312489e-06	-1.698113e-09	-3.695888e+01	-1.109628e+02
3.300000e-07	-5.299173e-06	-1.695020e-09	-3.686624e+01	-1.108114e+02
3.400000e-07	-5.285485e-06	-1.685654e-09	-3.677101e+01	-1.106584e+02
3.500000e-07	-5.271440e-06	-1.675137e-09	-3.667330e+01	-1.105036e+02
3.600000e-07	-5.257017e-06	-1.697993e-09	-3.657296e+01	-1.103472e+02
3.700000e-07	-5.242140e-06	-1.691617e-09	-3.646946e+01	-1.101888e+02
3.800000e-07	-5.226742e-06	-1.680022e-09	-3.636234e+01	-1.100283e+02
3.900000e-07	-5.210622e-06	-1.686671e-09	-3.625020e+01	-1.098656e+02
4.000000e-07	-5.194037e-06	-1.688198e-09	-3.613482e+01	-1.097003e+02
4.100000e-07	-5.177178e-06	-1.648533e-09	-3.601753e+01	-1.095322e+02
4.200000e-07	-5.159956e-06	-1.646618e-09	-3.589771e+01	-1.093610e+02
4.300000e-07	-5.142481e-06	-1.675850e-09	-3.577614e+01	-1.091864e+02
4.400000e-07	-5.124728e-06	-1.673018e-09	-3.565263e+01	-1.090082e+02
4.500000e-07	-5.106568e-06	-1.656463e-09	-3.552629e+01	-1.088259e+02
4.600000e-07	-5.087932e-06	-1.672652e-09	-3.539664e+01	-1.086393e+02
4.700000e-07	-5.068875e-06	-1.665500e-09	-3.526406e+01	-1.084482e+02
4.800000e-07	-5.049476e-06	-1.644507e-09	-3.512910e+01	-1.082522e+02
4.900000e-07	-5.029772e-06	-1.651673e-09	-3.499202e+01	-1.080511e+02
5.000000e-07	-5.009840e-06	-1.640976e-09	-3.485336e+01	-1.078447e+02
5.100000e-07	-4.989751e-06	-1.604147e-09	-3.471360e+01	-1.076329e+02
5.200000e-07	-4.969362e-06	-1.620029e-09	-3.457175e+01	-1.074155e+02
5.300000e-07	-4.948611e-06	-1.651348e-09	-3.442739e+01	-1.071926e+02
5.400000e-07	-4.927571e-06	-1.626885e-09	-3.428102e+01	-1.069639e+02
5.500000e-07	-4.906142e-06	-1.610987e-09	-3.413193e+01	-1.067297e+02
5.600000e-07	-4.884319e-06	-1.627582e-09	-3.398011e+01	-1.064899e+02
5.700000e-07	-4.862231e-06	-1.617026e-09	-3.382644e+01	-1.062446e+02
5.800000e-07	-4.839842e-06	-1.599307e-09	-3.367068e+01	-1.059942e+02
5.900000e-07	-4.817083e-06	-1.613820e-09	-3.351235e+01	-1.057387e+02
6.000000e-07	-4.794054e-06	-1.601754e-09	-3.335214e+01	-1.054784e+02
6.100000e-07	-4.770771e-06	-1.575110e-09	-3.319016e+01	-1.052136e+02
6.200000e-07	-4.747179e-06	-1.581584e-09	-3.302603e+01	-1.049447e+02
6.300000e-07	-4.723282e-06	-1.587943e-09	-3.285978e+01	-1.046719e+02
6.400000e-07	-4.699050e-06	-1.572414e-09	-3.269120e+01	-1.043957e+02
6.500000e-07	-4.674504e-06	-1.583397e-09	-3.252043e+01	-1.041163e+02
6.600000e-07	-4.649580e-06	-1.593040e-09	-3.234704e+01	-1.038342e+02
6.700000e-07	-4.624234e-06	-1.574517e-09	-3.217070e+01	-1.035496e+02
6.800000e-07	-4.598371e-06	-1.561879e-09	-3.199078e+01	-1.032630e+02
6.900000e-07	-4.571880e-06	-1.563469e-09	-3.180648e+01	-1.029746e+02
7.000000e-07	-4.544974e-06	-1.547175e-09	-3.161929e+01	-1.026847e+02
7.100000e-07	-4.517704e-06	-1.541213e-09	-3.142957e+01	-1.023935e+02
7.200000e-07	-4.490115e-06	-1.553232e-09	-3.123764e+01	-1.021013e+02
7.300000e-07	-4.462380e-06	-1.555562e-09	-3.104469e+01	-1.018083e+02
7.400000e-07	-4.434445e-06	-1.547954e-09	-3.085035e+01	-1.015145e+02
7.500000e-07	-4.406260e-06	-1.548107e-09	-3.065426e+01	-1.012199e+02
7.600000e-07	-4.377800e-06	-1.540282e-09	-3.045627e+01	-1.009247e+02
7.700000e-07	-4.349027e-06	-1.526544e-09	-3.025610e+01	-1.006287e+02
7.800000e-07	-4.319998e-06	-1.521553e-09	-3.005414e+01	-1.003318e+02
7.900000e-07	-4.290690e-06	-1.521266e-09	-2.985024e+01	-1.000339e+02
8.000000e-07	-4.261031e-06	-1.514176e-09	-2.964391e+01	-9.973485e+01
8.100000e-07	-4.231107e-06	-1.508108e-09	-2.943573e+01	-9.943433e+01
8.200000e-07	-4.200917e-06	-1.506423e-09	-2.922570e+01	-9.913208e+01
8.300000e-07	-4.170380e-06	-1.501287e-09	-2.901325e+01	-9.882780e+01
8.400000e-07	-4.139504e-06	-1.496763e-09	-2.879845e+01	-9.852114e+01
8.500000e-07	-4.108370e-06	-1.498947e-09	-2.858185e+01	-9.821175e+01
8.600000e-07	-4.076979e-06	-1.500471e-09	-2.836346e+01	-9.789927e+01
8.700000e-07	-4.045341e-06	-1.494106e-09	-2.814336e+01	-9.758332e+01
8.800000e-07	-4.013546e-06	-1.488200e-09	-2.792216e+01	-9.726355e+01
8.900000e-07	-3.981632e-06	-1.479142e-09	-2.770013e+01	-9.693960e+01
9.000000e-07	-3.949528e-06	-1.465697e-09	-2.747679e+01	-9.661114e+01
9.100000e-07	-3.917100e-06	-1.454834e-09	-2.725119e+01	-9.627787e+01
9.200000e-07	-3.884304e-06	-1.451072e-09	-2.702303e+01	-9.593950e+01
9.300000e-07	-3.851239e-06	-1.445233e-09	-2.679300e+01	-9.559582e+01
9.400000e-07	-3.817774e-06	-1.442066e-09	-2.656018e+01	-9.524662e+01
9.500000e-07	-3.783731e-06	-1.441097e-09	-2.632334e+01	-9.489177e+01
9.600000e-07	-3.749168e-06	-1.435405e-09	-2.608289e+01	-9.453116e+01
9.700000e-07	-3.714175e-06	-1.424119e-09	-2.583945e+01	-9.416475e+01
9.800000e-07	-3.678921e-06	-1.415204e-09	-2.559418e+01	-9.379254e+01
9.900000e-07	-3.643457e-06	-1.405545e-09	-2.534746e+01	-9.341458e+01
1.000000e-06	-3.607757e-06	-1.396148e-09	-2.509910e+01	-9.303096e+01
1.010000e-06	-3.571909e-06	-1.386700e-09	-2.484970e+01	-9.264184e+01
1.020000e-06	-3.535967e-06	-1.381480e-09	-2.459965e+01	-9.224737e+01
1.030000e-06	-3.499888e-06	-1.375769e-09	-2.434865e+01	-9.184776e+01
1.040000e-06	-3.463627e-06	-1.371528e-09	-2.409638e+01	-9.144325e+01
1.050000e-06	-3.427025e-06	-1.370331e-09	-2.384175e+01	-9.103409e+01
1.060000e-06	-3.390115e-06	-1.363059e-09	-2.358496e+01	-9.062051e+01
1.070000e-06	-3.353009e-06	-1.347968e-09	-2.332682e+01	-9.020279e+01
1.080000e-06	-3.315650e-06	-1.333440e-09	-2.306691e+01	-8.978116e+01
1.090000e-06	-3.278097e-06	-1.320927e-09	-2.280565e+01	-8.935586e+01
1.100000e-06	-3.240348e-06	-1.308461e-09	-2.254304e+01	-8.892707e+01
1.110000e-06	-3.202316e-06	-1.298225e-09	-2.227845e+01	-8.849496e+01
1.120000e-06	-3.164042e-06	-1.289733e-09	-2.201218e+01	-8.805966e+01
1.130000e-06	-3.125574e-06	-1.281830e-09	-2.174456e+01	-8.762122e+01
1.140000e-06	-3.086864e-06	-1.276471e-09	-2.147525e+01	-8.717966e+01
1.150000e-06	-3.047937e-06	-1.274133e-09	-2.120443e+01	-8.673493e+01
1.160000e-06	-3.008787e-06	-1.267296e-09	-2.093207e+01	-8.628690e+01
1.170000e-06	-2.969459e-06	-1.257209e-09	-2.065847e+01	-8.583539e+01
1.180000e-06	-2.930001e-06	-1.248223e-09	-2.038396e+01	-8.538014e+01
1.190000e-06	-2.890352e-06	-1.239503e-09	-2.010812e+01	-8.492080e+01
1.200000e-06	-2.850530e-06	-1.226026e-09	-1.983108e+01	-8.445699e+01
1.210000e-06	-2.810604e-06	-1.215353e-09	-1.955332e+01	-8.398822e+01
1.220000e-06	-2.770574e-06	-1.207065e-09	-1.927483e+01	-8.351396e+01
1.230000e-06	-2.730391e-06	-1.197592e-09	-1.899528e+01	-8.303363e+01
1.240000e-06	-2.690086e-06	-1.188293e-09	-1.871488e+01	-8.254659e+01
1.250000e-06	-2.649636e-06	-1.181105e-09	-1.843346e+01	-8.205216e+01
1.260000e-06	-2.608934e-06	-1.176494e-09	-1.815030e+01	-8.154962e+01
1.270000e-06	-2.567904e-06	-1.170656e-09	-1.786486e+01	-8.103824e+01
1.280000e-06	-2.526657e-06	-1.161381e-09	-1.757791e+01	-8.051729e+01
1.290000e-06	-2.485245e-06	-1.150684e-09	-1.728980e+01	-7.998601e+01
1.300000e-06	-2.443513e-06	-1.138354e-09	-1.699947e+01	-7.944368e+01
1.310000e-06	-2.401436e-06	-1.123662e-09	-1.670674e+01	-7.888960e+01
1.320000e-06	-2.359053e-06	-1.109971e-09	-1.641188e+01	-7.832310e+01
1.330000e-06	-2.316281e-06	-1.101530e-09	-1.611432e+01	-7.774355e+01
1.340000e-06	-2.273191e-06	-1.096788e-09	-1.581454e+01	-7.715039e+01
1.350000e-06	-2.229976e-06	-1.093653e-09	-1.551390e+01	-7.654313e+01
1.360000e-06	-2.186637e-06	-1.088888e-09	-1.521239e+01	-7.592134e+01
1.370000e-06	-2.143129e-06	-1.079594e-09	-1.490971e+01	-7.528468e+01
1.380000e-06	-2.099472e-06	-1.066451e-09	-1.460599e+01	-7.463289e+01
1.390000e-06	-2.055666e-06	-1.049294e-09	-1.430123e+01	-7.396582e+01
1.400000e-06	-2.011770e-06	-1.030295e-09	-1.399584e+01	-7.328337e+01
1.410000e-06	-1.967830e-06	-1.013851e-09	-1.369015e+01	-7.258558e+01
1.420000e-06	-1.923789e-06	-1.002811e-09	-1.338376e+01	-7.187255e+01
1.430000e-06	-1.879651e-06	-9.978599e-10	-1.307669e+01	-7.114445e+01
1.440000e-06	-1.835445e-06	-9.939437e-10	-1.276915e+01	-7.040157e+01
1.450000e-06	-1.791179e-06	-9.867540e-10	-1.246120e+01	-6.964423e+01
1.460000e-06	-1.746831e-06	-9.738791e-10	-1.215267e+01	-6.887283e+01
1.470000e-06	-1.702387e-06	-9.594525e-10	-1.184347e+01	-6.808782e+01
1.480000e-06	-1.657848e-06	-9.453504e-10	-1.153361e+01	-6.728965e+01
1.490000e-06	-1.613134e-06	-9.292980e-10	-1.122254e+01	-6.647883e+01
1.500000e-06	-1.568294e-06	-9.122424e-10	-1.091059e+01	-6.565586e+01
1.510000e-06	-1.523342e-06	-8.974141e-10	-1.059786e+01	-6.482121e+01
1.520000e-06	-1.478206e-06	-8.857264e-10	-1.028385e+01	-6.397535e+01
1.530000e-06	-1.432975e-06	-8.750291e-10	-9.969177e+00	-6.311866e+01
1.540000e-06	-1.387659e-06	-8.658270e-10	-9.653919e+00	-6.225150e+01
1.550000e-06	-1.342259e-06	-8.540623e-10	-9.338067e+00	-6.137412e+01
1.560000e-06	-1.296770e-06	-8.375751e-10	-9.021603e+00	-6.048667e+01
1.570000e-06	-1.251173e-06	-8.177270e-10	-8.704385e+00	-5.958920e+01
1.580000e-06	-1.205405e-06	-7.997251e-10	-8.385978e+00	-5.868163e+01
1.590000e-06	-1.159548e-06	-7.832431e-10	-8.066953e+00	-5.776374e+01
1.600000e-06	-1.113686e-06	-7.664314e-10	-7.747889e+00	-5.683515e+01
1.610000e-06	-1.067658e-06	-7.506152e-10	-7.427677e+00	-5.589534e+01
1.620000e-06	-1.021574e-06	-7.340425e-10	-7.107073e+00	-5.494361e+01
1.630000e-06	-9.755274e-07	-7.164935e-10	-6.786725e+00	-5.397911e+01
1.640000e-06	-9.294078e-07	-6.982334e-10	-6.465872e+00	-5.300082e+01
1.650000e-06	-8.832007e-07	-6.812146e-10	-6.144410e+00	-5.200755e+01
1.660000e-06	-8.368352e-07	-6.683002e-10	-5.821846e+00	-5.099796e+01
1.670000e-06	-7.904174e-07	-6.540024e-10	-5.498918e+00	-4.997056e+01
1.680000e-06	-7.440492e-07	-6.387310e-10	-5.176336e+00	-4.892372e+01
1.690000e-06	-6.976466e-07	-6.228818e-10	-4.853514e+00	-4.785569e+01
1.700000e-06	-6.512514e-07	-6.017898e-10	-4.530743e+00	-4.676462e+01
1.710000e-06	-6.048472e-07	-5.739840e-10	-4.207910e+00	-4.564856e+01
1.720000e-06	-5.583354e-07	-5.466167e-10	-3.884328e+00	-4.450550e+01
1.730000e-06	-5.117636e-07	-5.242263e-10	-3.560329e+00	-4.333340e+01
1.740000e-06	-4.651342e-07	-5.079813e-10	-3.235929e+00	-4.213019e+01
1.750000e-06	-4.184498e-07	-4.959409e-10	-2.911147e+00	-4.089381e+01
1.760000e-06	-3.718018e-07	-4.815545e-10	-2.586618e+00	-3.962224e+01
1.770000e-06	-3.251330e-07	-4.633496e-10	-2.261944e+00	-3.831354e+01
1.780000e-06	-2.784164e-07	-4.409900e-10	-1.936937e+00	-3.696585e+01
1.790000e-06	-2.317228e-07	-4.163445e-10	-1.612091e+00	-3.557743e+01
1.800000e-06	-1.850154e-07	-3.921336e-10	-1.287149e+00	-3.414670e+01
1.810000e-06	-1.382405e-07	-3.691078e-10	-9.617361e-01	-3.267225e+01
1.820000e-06	-9.148538e-08	-3.475683e-10	-6.364620e-01	-3.115287e+01
1.830000e-06	-4.475564e-08	-3.271657e-10	-3.113641e-01	-2.958760e+01
1.840000e-06	1.983863e-09	-3.080457e-10	1.380170e-02	-2.797569e+01
1.850000e-06	4.875061e-08	-2.890121e-10	3.391570e-01	-2.631667e+01
1.860000e-06	9.559256e-08	-2.655750e-10	6.650355e-01	-2.461035e+01
1.870000e-06	1.423650e-07	-2.411051e-10	9.904307e-01	-2.285685e+01
1.880000e-06	1.891214e-07	-2.148096e-10	1.315714e+00	-2.105657e+01
1.890000e-06	2.359912e-07	-1.867697e-10	1.641786e+00	-1.921022e+01
1.900000e-06	2.828376e-07	-1.577588e-10	1.967696e+00	-1.731884e+01
1.910000e-06	3.295549e-07	-1.292167e-10	2.292707e+00	-1.538376e+01
1.920000e-06	3.762257e-07	-1.021217e-10	2.617395e+00	-1.340663e+01
1.930000e-06	4.229063e-07	-7.581321e-11	2.942151e+00	-1.138939e+01
1.940000e-06	4.695308e-07	-5.082391e-11	3.266517e+00	-9.334262e+00
1.950000e-06	5.160170e-07	-2.579956e-11	3.589920e+00	-7.243753e+00
1.960000e-06	5.624013e-07	1.399443e-12	3.912615e+00	-5.120609e+00
1.970000e-06	6.087941e-07	2.931800e-11	4.235369e+00	-2.967811e+00
1.980000e-06	6.551863e-07	5.749636e-11	4.558118e+00	-7.885488e-01
1.990000e-06	7.016068e-07	8.814444e-11	4.881065e+00	1.413810e+00
2.000000e-06	7.480304e-07	1.204328e-10	5.204033e+00	3.635743e+00
2.010000e-06	7.943396e-07	1.518654e-10	5.526205e+00	5.873604e+00
2.020000e-06	8.405947e-07	1.828351e-10	5.848001e+00	8.123656e+00
2.030000e-06	8.867920e-07	2.132164e-10	6.169394e+00	1.038210e+01
2.040000e-06	9.328888e-07	2.421699e-10	6.490089e+00	1.264511e+01
2.050000e-06	9.789373e-07	2.709928e-10	6.810448e+00	1.490885e+01
2.060000e-06	1.024936e-06	3.002171e-10	7.130458e+00	1.716954e+01
2.070000e-06	1.070878e-06	3.298063e-10	7.450074e+00	1.942345e+01
2.080000e-06	1.116761e-06	3.584344e-10	7.769287e+00	2.166695e+01
2.090000e-06	1.162557e-06	3.879797e-10	8.087885e+00	2.389652e+01
2.100000e-06	1.208247e-06	4.192477e-10	8.405751e+00	2.610880e+01
2.110000e-06	1.253820e-06	4.501408e-10	8.722804e+00	2.830060e+01
2.120000e-06	1.299318e-06	4.803291e-10	9.039327e+00	3.046890e+01
2.130000e-06	1.344790e-06	5.115801e-10	9.355677e+00	3.261091e+01
2.140000e-06	1.390156e-06	5.406619e-10	9.671284e+00	3.472405e+01
2.150000e-06	1.435414e-06	5.655707e-10	9.986146e+00	3.680599e+01
2.160000e-06	1.480589e-06	5.878415e-10	1.030043e+01	3.885463e+01
2.170000e-06	1.525587e-06	6.089322e-10	1.061348e+01	4.086814e+01
2.180000e-06	1.570435e-06	6.317024e-10	1.092549e+01	4.284491e+01
2.190000e-06	1.615218e-06	6.588755e-10	1.123704e+01	4.478361e+01
2.200000e-06	1.659887e-06	6.896814e-10	1.154780e+01	4.668315e+01
2.210000e-06	1.704420e-06	7.222468e-10	1.185762e+01	4.854268e+01
2.220000e-06	1.748805e-06	7.522359e-10	1.216640e+01	5.036159e+01
2.230000e-06	1.793104e-06	7.763972e-10	1.247459e+01	5.213950e+01
2.240000e-06	1.837358e-06	7.948231e-10	1.278246e+01	5.387623e+01
2.250000e-06	1.881492e-06	8.100744e-10	1.308950e+01	5.557179e+01
2.260000e-06	1.925517e-06	8.264575e-10	1.339579e+01	5.722639e+01
2.270000e-06	1.969506e-06	8.468676e-10	1.370182e+01	5.884039e+01
2.280000e-06	2.013424e-06	8.709353e-10	1.400735e+01	6.041430e+01
2.290000e-06	2.057245e-06	8.965080e-10	1.431221e+01	6.194874e+01
2.300000e-06	2.100993e-06	9.221562e-10	1.461657e+01	6.344446e+01
2.310000e-06	2.144642e-06	9.461909e-10	1.492023e+01	6.490228e+01
2.320000e-06	2.188120e-06	9.664726e-10	1.522271e+01	6.632309e+01
2.330000e-06	2.231488e-06	9.820887e-10	1.552442e+01	6.770786e+01
2.340000e-06	2.274750e-06	9.963710e-10	1.582539e+01	6.905755e+01
2.350000e-06	2.317776e-06	1.012311e-09	1.612473e+01	7.037317e+01
2.360000e-06	2.360490e-06	1.029862e-09	1.642188e+01	7.165572e+01
2.370000e-06	2.402793e-06	1.048383e-09	1.671619e+01	7.290619e+01
2.380000e-06	2.444728e-06	1.066508e-09	1.700792e+01	7.412557e+01
2.390000e-06	2.486413e-06	1.083945e-09	1.729793e+01	7.531479e+01
2.400000e-06	2.527891e-06	1.102046e-09	1.758649e+01	7.647476e+01
2.410000e-06	2.569128e-06	1.119767e-09	1.787337e+01	7.760635e+01
2.420000e-06	2.610105e-06	1.135690e-09	1.815845e+01	7.871036e+01
2.430000e-06	2.650891e-06	1.150684e-09	1.844220e+01	7.978756e+01
2.440000e-06	2.691481e-06	1.166093e-09	1.872458e+01	8.083865e+01
2.450000e-06	2.731840e-06	1.181317e-09	1.900535e+01	8.186427e+01
2.460000e-06	2.771999e-06	1.195762e-09	1.928474e+01	8.286504e+01
2.470000e-06	2.812014e-06	1.208501e-09	1.956313e+01	8.384150e+01
2.480000e-06	2.851950e-06	1.219749e-09	1.984096e+01	8.479415e+01
2.490000e-06	2.891775e-06	1.231210e-09	2.011802e+01	8.572345e+01
2.500000e-06	2.931414e-06	1.242681e-09	2.039379e+01	8.662982e+01
2.510000e-06	2.970888e-06	1.255186e-09	2.066841e+01	8.751366e+01
2.520000e-06	3.010120e-06	1.266484e-09	2.094135e+01	8.837533e+01
2.530000e-06	3.049040e-06	1.279956e-09	2.121211e+01	8.921517e+01
2.540000e-06	3.087741e-06	1.295959e-09	2.148136e+01	9.003352e+01
2.550000e-06	3.126259e-06	1.309501e-09	2.174932e+01	9.083068e+01
2.560000e-06	3.164632e-06	1.319081e-09	2.201628e+01	9.160697e+01
2.570000e-06	3.202842e-06	1.324249e-09	2.228211e+01	9.236272e+01
2.580000e-06	3.240807e-06	1.328267e-09	2.254623e+01	9.309822e+01
2.590000e-06	3.278541e-06	1.333452e-09	2.280874e+01	9.381382e+01
2.600000e-06	3.316050e-06	1.345000e-09	2.306969e+01	9.450983e+01
2.610000e-06	3.353302e-06	1.363305e-09	2.332886e+01	9.518660e+01
2.620000e-06	3.390283e-06	1.383798e-09	2.358613e+01	9.584448e+01
2.630000e-06	3.426963e-06	1.399862e-09	2.384132e+01	9.648384e+01
2.640000e-06	3.463388e-06	1.408519e-09	2.409472e+01	9.710505e+01
2.650000e-06	3.499652e-06	1.410842e-09	2.434701e+01	9.770848e+01
2.660000e-06	3.535761e-06	1.409947e-09	2.459822e+01	9.829454e+01
2.670000e-06	3.571749e-06	1.408192e-09	2.484858e+01	9.886360e+01
2.680000e-06	3.607688e-06	1.410401e-09	2.509861e+01	9.941607e+01
2.690000e-06	3.643552e-06	1.419663e-09	2.534812e+01	9.995233e+01
2.700000e-06	3.679205e-06	1.433184e-09	2.559616e+01	1.004728e+02
2.710000e-06	3.714470e-06	1.445418e-09	2.584149e+01	1.009778e+02
2.720000e-06	3.749356e-06	1.453538e-09	2.608420e+01	1.014677e+02
2.730000e-06	3.783872e-06	1.456852e-09	2.632432e+01	1.019429e+02
2.740000e-06	3.817916e-06	1.457039e-09	2.656116e+01	1.024038e+02
2.750000e-06	3.851437e-06	1.457227e-09	2.679437e+01	1.028505e+02
2.760000e-06	3.884438e-06	1.459516e-09	2.702396e+01	1.032835e+02
2.770000e-06	3.917053e-06	1.466317e-09	2.725086e+01	1.037030e+02
2.780000e-06	3.949416e-06	1.476724e-09	2.747601e+01	1.041092e+02
2.790000e-06	3.981611e-06	1.486999e-09	2.769999e+01	1.045024e+02
2.800000e-06	4.013648e-06	1.493366e-09	2.792287e+01	1.048828e+02
2.810000e-06	4.045517e-06	1.497915e-09	2.814458e+01	1.052506e+02
2.820000e-06	4.077193e-06	1.502720e-09	2.836495e+01	1.056059e+02
2.830000e-06	4.108613e-06	1.507055e-09	2.858354e+01	1.059490e+02
2.840000e-06	4.139671e-06	1.509938e-09	2.879961e+01	1.062799e+02
2.850000e-06	4.170419e-06	1.513113e-09	2.901352e+01	1.065989e+02
2.860000e-06	4.200902e-06	1.519410e-09	2.922559e+01	1.069060e+02
2.870000e-06	4.231066e-06	1.526787e-09	2.943544e+01	1.072015e+02
2.880000e-06	4.260990e-06	1.531911e-09	2.964362e+01	1.074855e+02
2.890000e-06	4.290650e-06	1.536309e-09	2.984997e+01	1.077581e+02
2.900000e-06	4.319971e-06	1.541232e-09	3.005395e+01	1.080196e+02
