# Temperatura_=_14.7
# Concentracion g/m^3_=_1620.0
# C_Vs_to_Am_M_A/Vsm_=_65563218390.804596
# pendiente_HvsI_1/m_=_3716.3
# ordenada_HvsI_A/m_=_1297.0
# frecuencia_Hz_=_135105.72931039718

Tiempo_(s)	Campo_(V.s)	Magnetizacion_(V.s)	Campo_(kA/m)	Magnetizacion_(A/m)
0.000000e+00	-5.536032e-06	-1.891092e-09	-3.836162e+01	-1.234435e+02
1.000000e-08	-5.536392e-06	-1.889297e-09	-3.836411e+01	-1.234024e+02
2.000000e-08	-5.536460e-06	-1.890220e-09	-3.836459e+01	-1.233602e+02
3.000000e-08	-5.536107e-06	-1.893610e-09	-3.836213e+01	-1.233170e+02
4.000000e-08	-5.535186e-06	-1.894238e-09	-3.835576e+01	-1.232729e+02
5.000000e-08	-5.533709e-06	-1.891100e-09	-3.834552e+01	-1.232279e+02
6.000000e-08	-5.531696e-06	-1.880808e-09	-3.833157e+01	-1.231820e+02
7.000000e-08	-5.529176e-06	-1.872796e-09	-3.831411e+01	-1.231353e+02
8.000000e-08	-5.526179e-06	-1.912460e-09	-3.829334e+01	-1.230876e+02
9.000000e-08	-5.522693e-06	-1.941425e-09	-3.826919e+01	-1.230388e+02
1.000000e-07	-5.518696e-06	-1.872275e-09	-3.824149e+01	-1.229888e+02
1.100000e-07	-5.514396e-06	-1.825541e-09	-3.821169e+01	-1.229374e+02
1.200000e-07	-5.509936e-06	-1.908589e-09	-3.818079e+01	-1.228843e+02
1.300000e-07	-5.505135e-06	-1.924000e-09	-3.814752e+01	-1.228293e+02
1.400000e-07	-5.499974e-06	-1.850067e-09	-3.811175e+01	-1.227722e+02
1.500000e-07	-5.494562e-06	-1.783546e-09	-3.807426e+01	-1.227125e+02
1.600000e-07	-5.488778e-06	-1.894620e-09	-3.803417e+01	-1.226500e+02
1.700000e-07	-5.482490e-06	-1.943481e-09	-3.799060e+01	-1.225842e+02
1.800000e-07	-5.475768e-06	-1.855706e-09	-3.794402e+01	-1.225149e+02
1.900000e-07	-5.468738e-06	-1.810540e-09	-3.789531e+01	-1.224417e+02
2.000000e-07	-5.461423e-06	-1.879235e-09	-3.784462e+01	-1.223642e+02
2.100000e-07	-5.453775e-06	-1.917029e-09	-3.779162e+01	-1.222820e+02
2.200000e-07	-5.445850e-06	-1.854217e-09	-3.773670e+01	-1.221948e+02
2.300000e-07	-5.437628e-06	-1.836044e-09	-3.767973e+01	-1.221022e+02
2.400000e-07	-5.428933e-06	-1.877191e-09	-3.761948e+01	-1.220040e+02
2.500000e-07	-5.419552e-06	-1.905401e-09	-3.755448e+01	-1.218999e+02
2.600000e-07	-5.409610e-06	-1.854954e-09	-3.748558e+01	-1.217895e+02
2.700000e-07	-5.399154e-06	-1.837161e-09	-3.741313e+01	-1.216729e+02
2.800000e-07	-5.388066e-06	-1.847187e-09	-3.733630e+01	-1.215497e+02
2.900000e-07	-5.376538e-06	-1.871519e-09	-3.725641e+01	-1.214198e+02
3.000000e-07	-5.364678e-06	-1.842982e-09	-3.717423e+01	-1.212833e+02
3.100000e-07	-5.352415e-06	-1.830435e-09	-3.708925e+01	-1.211400e+02
3.200000e-07	-5.339723e-06	-1.835448e-09	-3.700130e+01	-1.209900e+02
3.300000e-07	-5.326666e-06	-1.870943e-09	-3.691083e+01	-1.208334e+02
3.400000e-07	-5.313294e-06	-1.839397e-09	-3.681816e+01	-1.206704e+02
3.500000e-07	-5.299447e-06	-1.804956e-09	-3.672222e+01	-1.205010e+02
3.600000e-07	-5.285121e-06	-1.836960e-09	-3.662294e+01	-1.203256e+02
3.700000e-07	-5.270478e-06	-1.866201e-09	-3.652148e+01	-1.201444e+02
3.800000e-07	-5.255293e-06	-1.803963e-09	-3.641625e+01	-1.199576e+02
3.900000e-07	-5.239561e-06	-1.813114e-09	-3.630724e+01	-1.197656e+02
4.000000e-07	-5.223444e-06	-1.886081e-09	-3.619556e+01	-1.195687e+02
4.100000e-07	-5.206890e-06	-1.826609e-09	-3.608085e+01	-1.193672e+02
4.200000e-07	-5.189935e-06	-1.750170e-09	-3.596336e+01	-1.191616e+02
4.300000e-07	-5.172717e-06	-1.846037e-09	-3.584405e+01	-1.189521e+02
4.400000e-07	-5.155192e-06	-1.879735e-09	-3.572261e+01	-1.187392e+02
4.500000e-07	-5.137218e-06	-1.751716e-09	-3.559806e+01	-1.185230e+02
4.600000e-07	-5.118837e-06	-1.785175e-09	-3.547069e+01	-1.183040e+02
4.700000e-07	-5.100136e-06	-1.894972e-09	-3.534110e+01	-1.180824e+02
4.800000e-07	-5.081084e-06	-1.799217e-09	-3.520908e+01	-1.178585e+02
4.900000e-07	-5.061709e-06	-1.731648e-09	-3.507482e+01	-1.176323e+02
5.000000e-07	-5.042118e-06	-1.850004e-09	-3.493907e+01	-1.174042e+02
5.100000e-07	-5.022292e-06	-1.814127e-09	-3.480168e+01	-1.171741e+02
5.200000e-07	-5.002088e-06	-1.705872e-09	-3.466168e+01	-1.169422e+02
5.300000e-07	-4.981535e-06	-1.801729e-09	-3.451926e+01	-1.167084e+02
5.400000e-07	-4.960725e-06	-1.854038e-09	-3.437506e+01	-1.164727e+02
5.500000e-07	-4.939542e-06	-1.724088e-09	-3.422828e+01	-1.162349e+02
5.600000e-07	-4.917958e-06	-1.753233e-09	-3.407871e+01	-1.159948e+02
5.700000e-07	-4.896060e-06	-1.842852e-09	-3.392697e+01	-1.157524e+02
5.800000e-07	-4.873880e-06	-1.750022e-09	-3.377327e+01	-1.155072e+02
5.900000e-07	-4.851310e-06	-1.708886e-09	-3.361687e+01	-1.152591e+02
6.000000e-07	-4.828370e-06	-1.808033e-09	-3.345791e+01	-1.150077e+02
6.100000e-07	-4.805135e-06	-1.767072e-09	-3.329691e+01	-1.147526e+02
6.200000e-07	-4.781613e-06	-1.695638e-09	-3.313392e+01	-1.144935e+02
6.300000e-07	-4.757863e-06	-1.759861e-09	-3.296934e+01	-1.142300e+02
6.400000e-07	-4.733826e-06	-1.771285e-09	-3.280278e+01	-1.139617e+02
6.500000e-07	-4.709411e-06	-1.702407e-09	-3.263359e+01	-1.136882e+02
6.600000e-07	-4.684610e-06	-1.734690e-09	-3.246173e+01	-1.134093e+02
6.700000e-07	-4.659232e-06	-1.760896e-09	-3.228588e+01	-1.131245e+02
6.800000e-07	-4.633276e-06	-1.703597e-09	-3.210602e+01	-1.128335e+02
6.900000e-07	-4.606941e-06	-1.699901e-09	-3.192353e+01	-1.125360e+02
7.000000e-07	-4.580118e-06	-1.729664e-09	-3.173767e+01	-1.122320e+02
7.100000e-07	-4.552881e-06	-1.695276e-09	-3.154893e+01	-1.119210e+02
7.200000e-07	-4.525457e-06	-1.682403e-09	-3.135890e+01	-1.116031e+02
7.300000e-07	-4.497914e-06	-1.711358e-09	-3.116804e+01	-1.112782e+02
7.400000e-07	-4.470100e-06	-1.695502e-09	-3.097530e+01	-1.109461e+02
7.500000e-07	-4.441966e-06	-1.673362e-09	-3.078035e+01	-1.106070e+02
7.600000e-07	-4.413591e-06	-1.683917e-09	-3.058373e+01	-1.102609e+02
7.700000e-07	-4.384888e-06	-1.673240e-09	-3.038483e+01	-1.099080e+02
7.800000e-07	-4.355827e-06	-1.649067e-09	-3.018345e+01	-1.095485e+02
7.900000e-07	-4.326534e-06	-1.661144e-09	-2.998047e+01	-1.091825e+02
8.000000e-07	-4.297018e-06	-1.660897e-09	-2.977594e+01	-1.088104e+02
8.100000e-07	-4.267178e-06	-1.637372e-09	-2.956916e+01	-1.084324e+02
8.200000e-07	-4.237006e-06	-1.633497e-09	-2.936009e+01	-1.080488e+02
8.300000e-07	-4.206469e-06	-1.637656e-09	-2.914849e+01	-1.076601e+02
8.400000e-07	-4.175650e-06	-1.613776e-09	-2.893493e+01	-1.072665e+02
8.500000e-07	-4.144687e-06	-1.608442e-09	-2.872037e+01	-1.068684e+02
8.600000e-07	-4.113532e-06	-1.622098e-09	-2.850448e+01	-1.064662e+02
8.700000e-07	-4.082150e-06	-1.613392e-09	-2.828703e+01	-1.060601e+02
8.800000e-07	-4.050558e-06	-1.594974e-09	-2.806811e+01	-1.056505e+02
8.900000e-07	-4.018795e-06	-1.599107e-09	-2.784801e+01	-1.052377e+02
9.000000e-07	-3.986853e-06	-1.587259e-09	-2.762667e+01	-1.048218e+02
9.100000e-07	-3.954613e-06	-1.562523e-09	-2.740326e+01	-1.044031e+02
9.200000e-07	-3.921969e-06	-1.560997e-09	-2.717706e+01	-1.039818e+02
9.300000e-07	-3.888880e-06	-1.565506e-09	-2.694777e+01	-1.035578e+02
9.400000e-07	-3.855265e-06	-1.548640e-09	-2.671484e+01	-1.031314e+02
9.500000e-07	-3.821114e-06	-1.543521e-09	-2.647819e+01	-1.027025e+02
9.600000e-07	-3.786573e-06	-1.548368e-09	-2.623884e+01	-1.022711e+02
9.700000e-07	-3.751704e-06	-1.530904e-09	-2.599722e+01	-1.018370e+02
9.800000e-07	-3.716532e-06	-1.511489e-09	-2.575350e+01	-1.014002e+02
9.900000e-07	-3.681147e-06	-1.513410e-09	-2.550830e+01	-1.009605e+02
1.000000e-06	-3.645646e-06	-1.509483e-09	-2.526230e+01	-1.005176e+02
1.010000e-06	-3.609972e-06	-1.492853e-09	-2.501509e+01	-1.000714e+02
1.020000e-06	-3.574116e-06	-1.488026e-09	-2.476663e+01	-9.962147e+01
1.030000e-06	-3.538080e-06	-1.485852e-09	-2.451692e+01	-9.916767e+01
1.040000e-06	-3.501831e-06	-1.472814e-09	-2.426574e+01	-9.870967e+01
1.050000e-06	-3.465373e-06	-1.465538e-09	-2.401311e+01	-9.824717e+01
1.060000e-06	-3.428623e-06	-1.465590e-09	-2.375845e+01	-9.777991e+01
1.070000e-06	-3.391551e-06	-1.452368e-09	-2.350156e+01	-9.730760e+01
1.080000e-06	-3.354222e-06	-1.437906e-09	-2.324289e+01	-9.682999e+01
1.090000e-06	-3.316676e-06	-1.431891e-09	-2.298271e+01	-9.634686e+01
1.100000e-06	-3.278922e-06	-1.422279e-09	-2.272110e+01	-9.585799e+01
1.110000e-06	-3.240927e-06	-1.406436e-09	-2.245782e+01	-9.536322e+01
1.120000e-06	-3.202648e-06	-1.397692e-09	-2.219257e+01	-9.486240e+01
1.130000e-06	-3.164137e-06	-1.388932e-09	-2.192571e+01	-9.435543e+01
1.140000e-06	-3.125414e-06	-1.377865e-09	-2.165738e+01	-9.384225e+01
1.150000e-06	-3.086502e-06	-1.371355e-09	-2.138774e+01	-9.332281e+01
1.160000e-06	-3.047466e-06	-1.369883e-09	-2.111724e+01	-9.279710e+01
1.170000e-06	-3.008275e-06	-1.360313e-09	-2.084567e+01	-9.226515e+01
1.180000e-06	-2.968910e-06	-1.348668e-09	-2.057289e+01	-9.172699e+01
1.190000e-06	-2.929382e-06	-1.339718e-09	-2.029899e+01	-9.118268e+01
1.200000e-06	-2.889678e-06	-1.328471e-09	-2.002386e+01	-9.063228e+01
1.210000e-06	-2.849826e-06	-1.313888e-09	-1.974770e+01	-9.007586e+01
1.220000e-06	-2.809853e-06	-1.303371e-09	-1.947072e+01	-8.951348e+01
1.230000e-06	-2.769745e-06	-1.293457e-09	-1.919279e+01	-8.894517e+01
1.240000e-06	-2.729441e-06	-1.281566e-09	-1.891351e+01	-8.837097e+01
1.250000e-06	-2.688927e-06	-1.273250e-09	-1.863277e+01	-8.779086e+01
1.260000e-06	-2.648145e-06	-1.267758e-09	-1.835017e+01	-8.720480e+01
1.270000e-06	-2.607018e-06	-1.258848e-09	-1.806518e+01	-8.661269e+01
1.280000e-06	-2.565567e-06	-1.244530e-09	-1.777795e+01	-8.601440e+01
1.290000e-06	-2.523855e-06	-1.228993e-09	-1.748891e+01	-8.540973e+01
1.300000e-06	-2.481950e-06	-1.216741e-09	-1.719853e+01	-8.479843e+01
1.310000e-06	-2.439786e-06	-1.204635e-09	-1.690636e+01	-8.418018e+01
1.320000e-06	-2.397191e-06	-1.192934e-09	-1.661120e+01	-8.355462e+01
1.330000e-06	-2.354229e-06	-1.183573e-09	-1.631349e+01	-8.292131e+01
1.340000e-06	-2.311090e-06	-1.175322e-09	-1.601456e+01	-8.227976e+01
1.350000e-06	-2.267864e-06	-1.167156e-09	-1.571503e+01	-8.162943e+01
1.360000e-06	-2.224509e-06	-1.157279e-09	-1.541461e+01	-8.096974e+01
1.370000e-06	-2.181005e-06	-1.146993e-09	-1.511315e+01	-8.030004e+01
1.380000e-06	-2.137430e-06	-1.134773e-09	-1.481120e+01	-7.961968e+01
1.390000e-06	-2.093758e-06	-1.120679e-09	-1.450858e+01	-7.892797e+01
1.400000e-06	-2.049969e-06	-1.106793e-09	-1.420514e+01	-7.822420e+01
1.410000e-06	-2.006143e-06	-1.093310e-09	-1.390145e+01	-7.750768e+01
1.420000e-06	-1.962265e-06	-1.077732e-09	-1.359740e+01	-7.677771e+01
1.430000e-06	-1.918221e-06	-1.064760e-09	-1.329220e+01	-7.603359e+01
1.440000e-06	-1.874032e-06	-1.053583e-09	-1.298600e+01	-7.527469e+01
1.450000e-06	-1.829719e-06	-1.041750e-09	-1.267893e+01	-7.450037e+01
1.460000e-06	-1.785258e-06	-1.029476e-09	-1.237085e+01	-7.371008e+01
1.470000e-06	-1.740642e-06	-1.018554e-09	-1.206168e+01	-7.290328e+01
1.480000e-06	-1.695891e-06	-1.006363e-09	-1.175158e+01	-7.207953e+01
1.490000e-06	-1.651024e-06	-9.914949e-10	-1.144068e+01	-7.123843e+01
1.500000e-06	-1.606038e-06	-9.760376e-10	-1.112895e+01	-7.037964e+01
1.510000e-06	-1.560924e-06	-9.603501e-10	-1.081633e+01	-6.950292e+01
1.520000e-06	-1.515674e-06	-9.439196e-10	-1.050278e+01	-6.860806e+01
1.530000e-06	-1.470302e-06	-9.302315e-10	-1.018837e+01	-6.769494e+01
1.540000e-06	-1.424875e-06	-9.170177e-10	-9.873589e+00	-6.676348e+01
1.550000e-06	-1.379413e-06	-9.032538e-10	-9.558566e+00	-6.581365e+01
1.560000e-06	-1.333834e-06	-8.877139e-10	-9.242727e+00	-6.484548e+01
1.570000e-06	-1.288099e-06	-8.708696e-10	-8.925806e+00	-6.385900e+01
1.580000e-06	-1.242310e-06	-8.524158e-10	-8.608513e+00	-6.285429e+01
1.590000e-06	-1.196503e-06	-8.335021e-10	-8.291097e+00	-6.183141e+01
1.600000e-06	-1.150615e-06	-8.154258e-10	-7.973122e+00	-6.079041e+01
1.610000e-06	-1.104592e-06	-7.982793e-10	-7.654210e+00	-5.973131e+01
1.620000e-06	-1.058427e-06	-7.823060e-10	-7.334312e+00	-5.865411e+01
1.630000e-06	-1.012183e-06	-7.656748e-10	-7.013862e+00	-5.755872e+01
1.640000e-06	-9.659055e-07	-7.494445e-10	-6.693187e+00	-5.644498e+01
1.650000e-06	-9.195118e-07	-7.343868e-10	-6.371705e+00	-5.531268e+01
1.660000e-06	-8.730316e-07	-7.195303e-10	-6.049622e+00	-5.416145e+01
1.670000e-06	-8.265588e-07	-7.019873e-10	-5.727592e+00	-5.299085e+01
1.680000e-06	-7.799226e-07	-6.840139e-10	-5.404429e+00	-5.180031e+01
1.690000e-06	-7.331877e-07	-6.663232e-10	-5.080582e+00	-5.058914e+01
1.700000e-06	-6.865631e-07	-6.466413e-10	-4.757500e+00	-4.935649e+01
1.710000e-06	-6.400230e-07	-6.235351e-10	-4.435003e+00	-4.810143e+01
1.720000e-06	-5.933918e-07	-5.999329e-10	-4.111875e+00	-4.682286e+01
1.730000e-06	-5.466354e-07	-5.755424e-10	-3.787879e+00	-4.551958e+01
1.740000e-06	-4.998900e-07	-5.536294e-10	-3.463959e+00	-4.419027e+01
1.750000e-06	-4.530650e-07	-5.352510e-10	-3.139488e+00	-4.283352e+01
1.760000e-06	-4.061477e-07	-5.165073e-10	-2.814377e+00	-4.144784e+01
1.770000e-06	-3.592270e-07	-4.962734e-10	-2.489243e+00	-4.003167e+01
1.780000e-06	-3.122795e-07	-4.756437e-10	-2.163923e+00	-3.858342e+01
1.790000e-06	-2.653446e-07	-4.548228e-10	-1.838690e+00	-3.710147e+01
1.800000e-06	-2.183337e-07	-4.334586e-10	-1.512931e+00	-3.558423e+01
1.810000e-06	-1.711835e-07	-4.118310e-10	-1.186206e+00	-3.403014e+01
1.820000e-06	-1.240394e-07	-3.889234e-10	-8.595242e-01	-3.243771e+01
1.830000e-06	-7.703395e-08	-3.646509e-10	-5.338023e-01	-3.080557e+01
1.840000e-06	-3.006956e-08	-3.411650e-10	-2.083653e-01	-2.913246e+01
1.850000e-06	1.694728e-08	-3.187160e-10	1.174352e-01	-2.741729e+01
1.860000e-06	6.392927e-08	-2.970145e-10	4.429942e-01	-2.565919e+01
1.870000e-06	1.108768e-07	-2.754490e-10	7.683142e-01	-2.385747e+01
1.880000e-06	1.578450e-07	-2.524486e-10	1.093778e+00	-2.201172e+01
1.890000e-06	2.048235e-07	-2.264116e-10	1.419313e+00	-2.012179e+01
1.900000e-06	2.518592e-07	-1.961970e-10	1.745244e+00	-1.818783e+01
1.910000e-06	2.989847e-07	-1.646619e-10	2.071797e+00	-1.621028e+01
1.920000e-06	3.460407e-07	-1.336355e-10	2.397869e+00	-1.418994e+01
1.930000e-06	3.929492e-07	-1.034022e-10	2.722919e+00	-1.212789e+01
1.940000e-06	4.398359e-07	-7.550567e-11	3.047818e+00	-1.002560e+01
1.950000e-06	4.866354e-07	-4.995115e-11	3.372112e+00	-7.884845e+00
1.960000e-06	5.333683e-07	-2.391678e-11	3.695945e+00	-5.707726e+00
1.970000e-06	5.801174e-07	4.112954e-12	4.019890e+00	-3.496675e+00
1.980000e-06	6.267895e-07	3.449874e-11	4.343302e+00	-1.254425e+00
1.990000e-06	6.733722e-07	6.765258e-11	4.666094e+00	1.016003e+00
2.000000e-06	7.199119e-07	1.016710e-10	4.988588e+00	3.311330e+00
2.010000e-06	7.664753e-07	1.346898e-10	5.311247e+00	5.628042e+00
2.020000e-06	8.129358e-07	1.679395e-10	5.633192e+00	7.962421e+00
2.030000e-06	8.592060e-07	2.020250e-10	5.953819e+00	1.031058e+01
2.040000e-06	9.054108e-07	2.356671e-10	6.273992e+00	1.266851e+01
2.050000e-06	9.516324e-07	2.674222e-10	6.594282e+00	1.503209e+01
2.060000e-06	9.978211e-07	2.978413e-10	6.914344e+00	1.739716e+01
2.070000e-06	1.043893e-06	3.288851e-10	7.233598e+00	1.975954e+01
2.080000e-06	1.089922e-06	3.618809e-10	7.552555e+00	2.211510e+01
2.090000e-06	1.135889e-06	3.956366e-10	7.871079e+00	2.445975e+01
2.100000e-06	1.181709e-06	4.303567e-10	8.188586e+00	2.678952e+01
2.110000e-06	1.227433e-06	4.656281e-10	8.505430e+00	2.910058e+01
2.120000e-06	1.273138e-06	4.985376e-10	8.822134e+00	3.138930e+01
2.130000e-06	1.318766e-06	5.303615e-10	9.138316e+00	3.365224e+01
2.140000e-06	1.364264e-06	5.619882e-10	9.453587e+00	3.588619e+01
2.150000e-06	1.409693e-06	5.894641e-10	9.768386e+00	3.808824e+01
2.160000e-06	1.455011e-06	6.161349e-10	1.008242e+01	4.025572e+01
2.170000e-06	1.500179e-06	6.419931e-10	1.039541e+01	4.238631e+01
2.180000e-06	1.545374e-06	6.697428e-10	1.070858e+01	4.447794e+01
2.190000e-06	1.590564e-06	6.993356e-10	1.102172e+01	4.652892e+01
2.200000e-06	1.635527e-06	7.287672e-10	1.133329e+01	4.853783e+01
2.210000e-06	1.680264e-06	7.579825e-10	1.164329e+01	5.050360e+01
2.220000e-06	1.724885e-06	7.847854e-10	1.195249e+01	5.242543e+01
2.230000e-06	1.769375e-06	8.105010e-10	1.226079e+01	5.430287e+01
2.240000e-06	1.813657e-06	8.333973e-10	1.256763e+01	5.613572e+01
2.250000e-06	1.857806e-06	8.536933e-10	1.287356e+01	5.792404e+01
2.260000e-06	1.901869e-06	8.717218e-10	1.317889e+01	5.966814e+01
2.270000e-06	1.945860e-06	8.915935e-10	1.348373e+01	6.136857e+01
2.280000e-06	1.989727e-06	9.146604e-10	1.378770e+01	6.302603e+01
2.290000e-06	2.033443e-06	9.388249e-10	1.409063e+01	6.464143e+01
2.300000e-06	2.077147e-06	9.643700e-10	1.439347e+01	6.621579e+01
2.310000e-06	2.120821e-06	9.894848e-10	1.469611e+01	6.775025e+01
2.320000e-06	2.164404e-06	1.011754e-09	1.499812e+01	6.924601e+01
2.330000e-06	2.207923e-06	1.028973e-09	1.529968e+01	7.070434e+01
2.340000e-06	2.251397e-06	1.041899e-09	1.560093e+01	7.212654e+01
2.350000e-06	2.294837e-06	1.057204e-09	1.590194e+01	7.351389e+01
2.360000e-06	2.338174e-06	1.074488e-09	1.620224e+01	7.486767e+01
2.370000e-06	2.381330e-06	1.093326e-09	1.650129e+01	7.618911e+01
2.380000e-06	2.424289e-06	1.111765e-09	1.679897e+01	7.747936e+01
2.390000e-06	2.466915e-06	1.130809e-09	1.709435e+01	7.873953e+01
2.400000e-06	2.509144e-06	1.149057e-09	1.738697e+01	7.997062e+01
2.410000e-06	2.551090e-06	1.164771e-09	1.767763e+01	8.117355e+01
2.420000e-06	2.592632e-06	1.179513e-09	1.796549e+01	8.234912e+01
2.430000e-06	2.633760e-06	1.194131e-09	1.825049e+01	8.349805e+01
2.440000e-06	2.674574e-06	1.210943e-09	1.853331e+01	8.462095e+01
2.450000e-06	2.715058e-06	1.228165e-09	1.881384e+01	8.571833e+01
2.460000e-06	2.755312e-06	1.245054e-09	1.909278e+01	8.679061e+01
2.470000e-06	2.795360e-06	1.261290e-09	1.937029e+01	8.783813e+01
2.480000e-06	2.835240e-06	1.275574e-09	1.964663e+01	8.886116e+01
2.490000e-06	2.874985e-06	1.288893e-09	1.992204e+01	8.985991e+01
2.500000e-06	2.914647e-06	1.301307e-09	2.019688e+01	9.083454e+01
2.510000e-06	2.954254e-06	1.315566e-09	2.047134e+01	9.178517e+01
2.520000e-06	2.993699e-06	1.332088e-09	2.074467e+01	9.271190e+01
2.530000e-06	3.032985e-06	1.347737e-09	2.101690e+01	9.361485e+01
2.540000e-06	3.072109e-06	1.364475e-09	2.128800e+01	9.449413e+01
2.550000e-06	3.111016e-06	1.379920e-09	2.155760e+01	9.534986e+01
2.560000e-06	3.149590e-06	1.391012e-09	2.182490e+01	9.618222e+01
2.570000e-06	3.187875e-06	1.398371e-09	2.209019e+01	9.699142e+01
2.580000e-06	3.225942e-06	1.406182e-09	2.235398e+01	9.777772e+01
2.590000e-06	3.263809e-06	1.414804e-09	2.261638e+01	9.854145e+01
2.600000e-06	3.301550e-06	1.425965e-09	2.287790e+01	9.928300e+01
2.610000e-06	3.339137e-06	1.440987e-09	2.313836e+01	1.000028e+02
2.620000e-06	3.376542e-06	1.458162e-09	2.339755e+01	1.007015e+02
2.630000e-06	3.413671e-06	1.472685e-09	2.365484e+01	1.013795e+02
2.640000e-06	3.450499e-06	1.481569e-09	2.391004e+01	1.020377e+02
2.650000e-06	3.487058e-06	1.487436e-09	2.416337e+01	1.026766e+02
2.660000e-06	3.523361e-06	1.491943e-09	2.441492e+01	1.032971e+02
2.670000e-06	3.559450e-06	1.496796e-09	2.466501e+01	1.039000e+02
2.680000e-06	3.595350e-06	1.503292e-09	2.491377e+01	1.044861e+02
2.690000e-06	3.631098e-06	1.512639e-09	2.516148e+01	1.050564e+02
2.700000e-06	3.666717e-06	1.525564e-09	2.540831e+01	1.056117e+02
2.710000e-06	3.702174e-06	1.537313e-09	2.565400e+01	1.061529e+02
2.720000e-06	3.737480e-06	1.543938e-09	2.589865e+01	1.066809e+02
2.730000e-06	3.772600e-06	1.548164e-09	2.614202e+01	1.071965e+02
2.740000e-06	3.807473e-06	1.553089e-09	2.638366e+01	1.077006e+02
2.750000e-06	3.841904e-06	1.558527e-09	2.662225e+01	1.081940e+02
2.760000e-06	3.875793e-06	1.564406e-09	2.685708e+01	1.086773e+02
2.770000e-06	3.909105e-06	1.572578e-09	2.708792e+01	1.091511e+02
2.780000e-06	3.941901e-06	1.582088e-09	2.731518e+01	1.096162e+02
2.790000e-06	3.974310e-06	1.591258e-09	2.753975e+01	1.100728e+02
2.800000e-06	4.006379e-06	1.598434e-09	2.776197e+01	1.105215e+02
2.810000e-06	4.038288e-06	1.603519e-09	2.798309e+01	1.109626e+02
2.820000e-06	4.070055e-06	1.607171e-09	2.820321e+01	1.113963e+02
2.830000e-06	4.101592e-06	1.612821e-09	2.842174e+01	1.118227e+02
2.840000e-06	4.132931e-06	1.621317e-09	2.863891e+01	1.122419e+02
2.850000e-06	4.164075e-06	1.629086e-09	2.885472e+01	1.126538e+02
2.860000e-06	4.194963e-06	1.636964e-09	2.906876e+01	1.130584e+02
2.870000e-06	4.225550e-06	1.646657e-09	2.928071e+01	1.134555e+02
2.880000e-06	4.255831e-06	1.654298e-09	2.949054e+01	1.138448e+02
2.890000e-06	4.285860e-06	1.658286e-09	2.969862e+01	1.142261e+02
2.900000e-06	4.315637e-06	1.662771e-09	2.990496e+01	1.145991e+02
