# Temperatura_=_-15.68
# Concentracion g/m^3_=_1620.0
# C_Vs_to_Am_M_A/Vsm_=_65563218390.804596
# pendiente_HvsI_1/m_=_3716.3
# ordenada_HvsI_A/m_=_1297.0
# frecuencia_Hz_=_135094.06917968456

Tiempo_(s)	Campo_(V.s)	Magnetizacion_(V.s)	Campo_(kA/m)	Magnetizacion_(A/m)
0.000000e+00	-5.520905e-06	-1.286338e-09	-3.836911e+01	-8.246725e+01
1.000000e-08	-5.521046e-06	-1.287215e-09	-3.837009e+01	-8.247543e+01
2.000000e-08	-5.521038e-06	-1.293054e-09	-3.837004e+01	-8.248206e+01
3.000000e-08	-5.520648e-06	-1.296015e-09	-3.836733e+01	-8.248666e+01
4.000000e-08	-5.519769e-06	-1.295878e-09	-3.836122e+01	-8.248868e+01
5.000000e-08	-5.518394e-06	-1.293697e-09	-3.835166e+01	-8.248763e+01
6.000000e-08	-5.516313e-06	-1.286793e-09	-3.833720e+01	-8.248301e+01
7.000000e-08	-5.513528e-06	-1.281236e-09	-3.831784e+01	-8.247432e+01
8.000000e-08	-5.510315e-06	-1.285643e-09	-3.829551e+01	-8.246116e+01
9.000000e-08	-5.506690e-06	-1.291244e-09	-3.827032e+01	-8.244311e+01
1.000000e-07	-5.502569e-06	-1.320263e-09	-3.824168e+01	-8.241986e+01
1.100000e-07	-5.498106e-06	-1.309296e-09	-3.821066e+01	-8.239114e+01
1.200000e-07	-5.493461e-06	-1.285426e-09	-3.817838e+01	-8.235676e+01
1.300000e-07	-5.488562e-06	-1.225142e-09	-3.814433e+01	-8.231662e+01
1.400000e-07	-5.483252e-06	-1.279899e-09	-3.810743e+01	-8.227068e+01
1.500000e-07	-5.477494e-06	-1.315421e-09	-3.806741e+01	-8.221900e+01
1.600000e-07	-5.471402e-06	-1.322130e-09	-3.802508e+01	-8.216172e+01
1.700000e-07	-5.464942e-06	-1.262181e-09	-3.798018e+01	-8.209906e+01
1.800000e-07	-5.458074e-06	-1.261143e-09	-3.793245e+01	-8.203133e+01
1.900000e-07	-5.450869e-06	-1.306384e-09	-3.788238e+01	-8.195890e+01
2.000000e-07	-5.443389e-06	-1.278248e-09	-3.783039e+01	-8.188222e+01
2.100000e-07	-5.435702e-06	-1.245850e-09	-3.777697e+01	-8.180180e+01
2.200000e-07	-5.427700e-06	-1.236645e-09	-3.772136e+01	-8.171818e+01
2.300000e-07	-5.419293e-06	-1.296186e-09	-3.766293e+01	-8.163198e+01
2.400000e-07	-5.410574e-06	-1.280660e-09	-3.760233e+01	-8.154380e+01
2.500000e-07	-5.401294e-06	-1.259929e-09	-3.753784e+01	-8.145430e+01
2.600000e-07	-5.391141e-06	-1.222815e-09	-3.746728e+01	-8.136412e+01
2.700000e-07	-5.380303e-06	-1.254450e-09	-3.739196e+01	-8.127391e+01
2.800000e-07	-5.369012e-06	-1.239518e-09	-3.731349e+01	-8.118429e+01
2.900000e-07	-5.357352e-06	-1.252948e-09	-3.723246e+01	-8.109587e+01
3.000000e-07	-5.345323e-06	-1.235595e-09	-3.714886e+01	-8.100919e+01
3.100000e-07	-5.332965e-06	-1.253131e-09	-3.706297e+01	-8.092477e+01
3.200000e-07	-5.320184e-06	-1.237915e-09	-3.697415e+01	-8.084307e+01
3.300000e-07	-5.306966e-06	-1.235091e-09	-3.688228e+01	-8.076446e+01
3.400000e-07	-5.293321e-06	-1.216268e-09	-3.678745e+01	-8.068929e+01
3.500000e-07	-5.279292e-06	-1.231802e-09	-3.668996e+01	-8.061778e+01
3.600000e-07	-5.264771e-06	-1.238117e-09	-3.658904e+01	-8.055011e+01
3.700000e-07	-5.249680e-06	-1.239205e-09	-3.648416e+01	-8.048638e+01
3.800000e-07	-5.234116e-06	-1.241883e-09	-3.637599e+01	-8.042660e+01
3.900000e-07	-5.217933e-06	-1.247603e-09	-3.626352e+01	-8.037072e+01
4.000000e-07	-5.201329e-06	-1.229096e-09	-3.614813e+01	-8.031861e+01
4.100000e-07	-5.184494e-06	-1.211670e-09	-3.603112e+01	-8.027007e+01
4.200000e-07	-5.167274e-06	-1.242613e-09	-3.591145e+01	-8.022486e+01
4.300000e-07	-5.149708e-06	-1.240022e-09	-3.578937e+01	-8.018266e+01
4.400000e-07	-5.131885e-06	-1.220228e-09	-3.566551e+01	-8.014312e+01
4.500000e-07	-5.113749e-06	-1.226885e-09	-3.553947e+01	-8.010586e+01
4.600000e-07	-5.095255e-06	-1.263419e-09	-3.541093e+01	-8.007046e+01
4.700000e-07	-5.076410e-06	-1.218209e-09	-3.527997e+01	-8.003648e+01
4.800000e-07	-5.057150e-06	-1.208291e-09	-3.514611e+01	-8.000349e+01
4.900000e-07	-5.037563e-06	-1.231582e-09	-3.500999e+01	-7.997103e+01
5.000000e-07	-5.017784e-06	-1.229050e-09	-3.487253e+01	-7.993869e+01
5.100000e-07	-4.997776e-06	-1.179397e-09	-3.473348e+01	-7.990602e+01
5.200000e-07	-4.977498e-06	-1.213784e-09	-3.459255e+01	-7.987264e+01
5.300000e-07	-4.956885e-06	-1.227586e-09	-3.444929e+01	-7.983819e+01
5.400000e-07	-4.935919e-06	-1.203298e-09	-3.430358e+01	-7.980232e+01
5.500000e-07	-4.914609e-06	-1.199267e-09	-3.415548e+01	-7.976475e+01
5.600000e-07	-4.892915e-06	-1.235633e-09	-3.400472e+01	-7.972521e+01
5.700000e-07	-4.870815e-06	-1.203489e-09	-3.385113e+01	-7.968351e+01
5.800000e-07	-4.848376e-06	-1.190188e-09	-3.369518e+01	-7.963948e+01
5.900000e-07	-4.825584e-06	-1.214310e-09	-3.353678e+01	-7.959299e+01
6.000000e-07	-4.802436e-06	-1.212835e-09	-3.337590e+01	-7.954396e+01
6.100000e-07	-4.779011e-06	-1.177206e-09	-3.321310e+01	-7.949235e+01
6.200000e-07	-4.755380e-06	-1.193423e-09	-3.304888e+01	-7.943816e+01
6.300000e-07	-4.731531e-06	-1.203561e-09	-3.288313e+01	-7.938140e+01
6.400000e-07	-4.707462e-06	-1.185658e-09	-3.271586e+01	-7.932213e+01
6.500000e-07	-4.683129e-06	-1.188715e-09	-3.254674e+01	-7.926042e+01
6.600000e-07	-4.658374e-06	-1.202838e-09	-3.237471e+01	-7.919635e+01
6.700000e-07	-4.633037e-06	-1.186880e-09	-3.219862e+01	-7.913003e+01
6.800000e-07	-4.607093e-06	-1.174491e-09	-3.201831e+01	-7.906154e+01
6.900000e-07	-4.580580e-06	-1.182934e-09	-3.183406e+01	-7.899099e+01
7.000000e-07	-4.553583e-06	-1.175321e-09	-3.164643e+01	-7.891846e+01
7.100000e-07	-4.526260e-06	-1.165382e-09	-3.145654e+01	-7.884403e+01
7.200000e-07	-4.498723e-06	-1.173783e-09	-3.126517e+01	-7.876777e+01
7.300000e-07	-4.471023e-06	-1.189544e-09	-3.107265e+01	-7.868973e+01
7.400000e-07	-4.443135e-06	-1.185838e-09	-3.087884e+01	-7.860991e+01
7.500000e-07	-4.415048e-06	-1.187066e-09	-3.068364e+01	-7.852832e+01
7.600000e-07	-4.386747e-06	-1.180569e-09	-3.048696e+01	-7.844495e+01
7.700000e-07	-4.358075e-06	-1.174752e-09	-3.028769e+01	-7.835973e+01
7.800000e-07	-4.328920e-06	-1.158430e-09	-3.008507e+01	-7.827260e+01
7.900000e-07	-4.299446e-06	-1.164337e-09	-2.988023e+01	-7.818347e+01
8.000000e-07	-4.269822e-06	-1.165258e-09	-2.967435e+01	-7.809223e+01
8.100000e-07	-4.239961e-06	-1.168386e-09	-2.946682e+01	-7.799876e+01
8.200000e-07	-4.209761e-06	-1.162360e-09	-2.925694e+01	-7.790292e+01
8.300000e-07	-4.179275e-06	-1.164153e-09	-2.904507e+01	-7.780457e+01
8.400000e-07	-4.148493e-06	-1.156175e-09	-2.883114e+01	-7.770357e+01
8.500000e-07	-4.117424e-06	-1.156638e-09	-2.861522e+01	-7.759978e+01
8.600000e-07	-4.086137e-06	-1.156651e-09	-2.839778e+01	-7.749308e+01
8.700000e-07	-4.054646e-06	-1.155083e-09	-2.817892e+01	-7.738332e+01
8.800000e-07	-4.022893e-06	-1.150450e-09	-2.795825e+01	-7.727043e+01
8.900000e-07	-3.990964e-06	-1.154865e-09	-2.773635e+01	-7.715431e+01
9.000000e-07	-3.958900e-06	-1.150192e-09	-2.751351e+01	-7.703490e+01
9.100000e-07	-3.926549e-06	-1.147081e-09	-2.728868e+01	-7.691217e+01
9.200000e-07	-3.893776e-06	-1.141577e-09	-2.706091e+01	-7.678612e+01
9.300000e-07	-3.860689e-06	-1.138284e-09	-2.683097e+01	-7.665677e+01
9.400000e-07	-3.827227e-06	-1.134561e-09	-2.659841e+01	-7.652419e+01
9.500000e-07	-3.793283e-06	-1.136699e-09	-2.636251e+01	-7.638846e+01
9.600000e-07	-3.758843e-06	-1.139225e-09	-2.612316e+01	-7.624969e+01
9.700000e-07	-3.723950e-06	-1.133458e-09	-2.588066e+01	-7.610803e+01
9.800000e-07	-3.688804e-06	-1.132066e-09	-2.563640e+01	-7.596365e+01
9.900000e-07	-3.653377e-06	-1.130026e-09	-2.539019e+01	-7.581672e+01
1.000000e-06	-3.617713e-06	-1.125969e-09	-2.514233e+01	-7.566745e+01
1.010000e-06	-3.581944e-06	-1.114312e-09	-2.489374e+01	-7.551606e+01
1.020000e-06	-3.546043e-06	-1.110735e-09	-2.464424e+01	-7.536274e+01
1.030000e-06	-3.509913e-06	-1.108474e-09	-2.439315e+01	-7.520772e+01
1.040000e-06	-3.473618e-06	-1.110939e-09	-2.414090e+01	-7.505120e+01
1.050000e-06	-3.437078e-06	-1.114474e-09	-2.388696e+01	-7.489338e+01
1.060000e-06	-3.400213e-06	-1.117931e-09	-2.363075e+01	-7.473441e+01
1.070000e-06	-3.363136e-06	-1.108198e-09	-2.337308e+01	-7.457445e+01
1.080000e-06	-3.325867e-06	-1.099492e-09	-2.311406e+01	-7.441361e+01
1.090000e-06	-3.288318e-06	-1.090749e-09	-2.285311e+01	-7.425197e+01
1.100000e-06	-3.250482e-06	-1.085099e-09	-2.259016e+01	-7.408955e+01
1.110000e-06	-3.212477e-06	-1.076915e-09	-2.232603e+01	-7.392636e+01
1.120000e-06	-3.174300e-06	-1.077292e-09	-2.206071e+01	-7.376232e+01
1.130000e-06	-3.135912e-06	-1.073103e-09	-2.179392e+01	-7.359733e+01
1.140000e-06	-3.097325e-06	-1.071824e-09	-2.152575e+01	-7.343124e+01
1.150000e-06	-3.058499e-06	-1.076854e-09	-2.125592e+01	-7.326382e+01
1.160000e-06	-3.019439e-06	-1.079774e-09	-2.098446e+01	-7.309481e+01
1.170000e-06	-2.980084e-06	-1.074253e-09	-2.071095e+01	-7.292391e+01
1.180000e-06	-2.940529e-06	-1.068877e-09	-2.043605e+01	-7.275074e+01
1.190000e-06	-2.900898e-06	-1.066440e-09	-2.016062e+01	-7.257492e+01
1.200000e-06	-2.861151e-06	-1.058807e-09	-1.988439e+01	-7.239599e+01
1.210000e-06	-2.821270e-06	-1.049705e-09	-1.960722e+01	-7.221348e+01
1.220000e-06	-2.781288e-06	-1.050424e-09	-1.932936e+01	-7.202689e+01
1.230000e-06	-2.741231e-06	-1.049654e-09	-1.905097e+01	-7.183569e+01
1.240000e-06	-2.700925e-06	-1.042996e-09	-1.877085e+01	-7.163934e+01
1.250000e-06	-2.660343e-06	-1.040052e-09	-1.848882e+01	-7.143729e+01
1.260000e-06	-2.619601e-06	-1.038363e-09	-1.820567e+01	-7.122899e+01
1.270000e-06	-2.578634e-06	-1.032227e-09	-1.792096e+01	-7.101388e+01
1.280000e-06	-2.537320e-06	-1.023960e-09	-1.763383e+01	-7.079143e+01
1.290000e-06	-2.495644e-06	-1.019172e-09	-1.734419e+01	-7.056113e+01
1.300000e-06	-2.453668e-06	-1.012485e-09	-1.705247e+01	-7.032248e+01
1.310000e-06	-2.411394e-06	-1.005685e-09	-1.675868e+01	-7.007501e+01
1.320000e-06	-2.368872e-06	-1.001110e-09	-1.646316e+01	-6.981831e+01
1.330000e-06	-2.326239e-06	-9.991557e-10	-1.616686e+01	-6.955198e+01
1.340000e-06	-2.283381e-06	-9.955475e-10	-1.586901e+01	-6.927568e+01
1.350000e-06	-2.240259e-06	-9.947930e-10	-1.556932e+01	-6.898910e+01
1.360000e-06	-2.196872e-06	-9.923644e-10	-1.526779e+01	-6.869199e+01
1.370000e-06	-2.153267e-06	-9.874437e-10	-1.496475e+01	-6.838415e+01
1.380000e-06	-2.109605e-06	-9.809689e-10	-1.466131e+01	-6.806542e+01
1.390000e-06	-2.065862e-06	-9.736163e-10	-1.435730e+01	-6.773569e+01
1.400000e-06	-2.022049e-06	-9.626951e-10	-1.405281e+01	-6.739490e+01
1.410000e-06	-1.978104e-06	-9.537100e-10	-1.374740e+01	-6.704303e+01
1.420000e-06	-1.934074e-06	-9.465573e-10	-1.344140e+01	-6.668010e+01
1.430000e-06	-1.890053e-06	-9.404745e-10	-1.313546e+01	-6.630615e+01
1.440000e-06	-1.845965e-06	-9.342018e-10	-1.282906e+01	-6.592128e+01
1.450000e-06	-1.801761e-06	-9.305559e-10	-1.252186e+01	-6.552559e+01
1.460000e-06	-1.757346e-06	-9.273968e-10	-1.221318e+01	-6.511921e+01
1.470000e-06	-1.712833e-06	-9.223302e-10	-1.190382e+01	-6.470228e+01
1.480000e-06	-1.668261e-06	-9.149312e-10	-1.159406e+01	-6.427493e+01
1.490000e-06	-1.623474e-06	-9.066053e-10	-1.128280e+01	-6.383731e+01
1.500000e-06	-1.578551e-06	-8.948264e-10	-1.097059e+01	-6.338955e+01
1.510000e-06	-1.533546e-06	-8.821584e-10	-1.065782e+01	-6.293176e+01
1.520000e-06	-1.488349e-06	-8.741213e-10	-1.034371e+01	-6.246402e+01
1.530000e-06	-1.443023e-06	-8.707281e-10	-1.002870e+01	-6.198639e+01
1.540000e-06	-1.397640e-06	-8.682960e-10	-9.713301e+00	-6.149888e+01
1.550000e-06	-1.352172e-06	-8.644385e-10	-9.397309e+00	-6.100146e+01
1.560000e-06	-1.306672e-06	-8.548943e-10	-9.081091e+00	-6.049403e+01
1.570000e-06	-1.261057e-06	-8.416149e-10	-8.764076e+00	-5.997645e+01
1.580000e-06	-1.215289e-06	-8.293073e-10	-8.446000e+00	-5.944851e+01
1.590000e-06	-1.169479e-06	-8.162434e-10	-8.127626e+00	-5.890991e+01
1.600000e-06	-1.123628e-06	-8.054529e-10	-7.808977e+00	-5.836029e+01
1.610000e-06	-1.077641e-06	-7.950502e-10	-7.489378e+00	-5.779921e+01
1.620000e-06	-1.031573e-06	-7.843209e-10	-7.169214e+00	-5.722615e+01
1.630000e-06	-9.854218e-07	-7.737601e-10	-6.848471e+00	-5.664049e+01
1.640000e-06	-9.392210e-07	-7.658153e-10	-6.527386e+00	-5.604153e+01
1.650000e-06	-8.930895e-07	-7.594761e-10	-6.206782e+00	-5.542850e+01
1.660000e-06	-8.468389e-07	-7.528257e-10	-5.885350e+00	-5.480051e+01
1.670000e-06	-8.004371e-07	-7.426152e-10	-5.562867e+00	-5.415662e+01
1.680000e-06	-7.540689e-07	-7.297871e-10	-5.240618e+00	-5.349578e+01
1.690000e-06	-7.077169e-07	-7.164239e-10	-4.918482e+00	-5.281686e+01
1.700000e-06	-6.613140e-07	-7.034774e-10	-4.595991e+00	-5.211869e+01
1.710000e-06	-6.148309e-07	-6.865592e-10	-4.272944e+00	-5.139999e+01
1.720000e-06	-5.682815e-07	-6.700077e-10	-3.949435e+00	-5.065945e+01
1.730000e-06	-5.216911e-07	-6.568540e-10	-3.625642e+00	-4.989568e+01
1.740000e-06	-4.750477e-07	-6.490682e-10	-3.301480e+00	-4.910726e+01
1.750000e-06	-4.283464e-07	-6.410229e-10	-2.976916e+00	-4.829274e+01
1.760000e-06	-3.816066e-07	-6.279752e-10	-2.652085e+00	-4.745064e+01
1.770000e-06	-3.348367e-07	-6.117019e-10	-2.327044e+00	-4.657947e+01
1.780000e-06	-2.879179e-07	-5.959740e-10	-2.000968e+00	-4.567774e+01
1.790000e-06	-2.409900e-07	-5.775575e-10	-1.674829e+00	-4.474398e+01
1.800000e-06	-1.942468e-07	-5.607260e-10	-1.349974e+00	-4.377676e+01
1.810000e-06	-1.475076e-07	-5.484588e-10	-1.025146e+00	-4.277468e+01
1.820000e-06	-1.006832e-07	-5.384303e-10	-6.997270e-01	-4.173642e+01
1.830000e-06	-5.383768e-08	-5.279330e-10	-3.741604e-01	-4.066072e+01
1.840000e-06	-6.946476e-09	-5.134579e-10	-4.827653e-02	-3.954643e+01
1.850000e-06	3.991636e-08	-4.954051e-10	2.774102e-01	-3.839252e+01
1.860000e-06	8.681157e-08	-4.733144e-10	6.033219e-01	-3.719806e+01
1.870000e-06	1.337481e-07	-4.541743e-10	9.295205e-01	-3.596228e+01
1.880000e-06	1.805720e-07	-4.386957e-10	1.254937e+00	-3.468458e+01
1.890000e-06	2.273068e-07	-4.252884e-10	1.579734e+00	-3.336451e+01
1.900000e-06	2.740897e-07	-4.074390e-10	1.904865e+00	-3.200183e+01
1.910000e-06	3.209800e-07	-3.861601e-10	2.230743e+00	-3.059647e+01
1.920000e-06	3.677722e-07	-3.617543e-10	2.555938e+00	-2.914859e+01
1.930000e-06	4.144185e-07	-3.354263e-10	2.880120e+00	-2.765857e+01
1.940000e-06	4.609624e-07	-3.110000e-10	3.203590e+00	-2.612699e+01
1.950000e-06	5.074999e-07	-2.909662e-10	3.527016e+00	-2.455469e+01
1.960000e-06	5.540659e-07	-2.741906e-10	3.850640e+00	-2.294271e+01
1.970000e-06	6.005177e-07	-2.597091e-10	4.173470e+00	-2.129235e+01
1.980000e-06	6.469419e-07	-2.411182e-10	4.496108e+00	-1.960514e+01
1.990000e-06	6.933437e-07	-2.160018e-10	4.818591e+00	-1.788280e+01
2.000000e-06	7.397346e-07	-1.866176e-10	5.140998e+00	-1.612732e+01
2.010000e-06	7.861262e-07	-1.588589e-10	5.463409e+00	-1.434086e+01
2.020000e-06	8.324453e-07	-1.291017e-10	5.785318e+00	-1.252581e+01
2.030000e-06	8.786744e-07	-9.956604e-11	6.106600e+00	-1.068472e+01
2.040000e-06	9.248514e-07	-7.549652e-11	6.427520e+00	-8.820328e+00
2.050000e-06	9.709735e-07	-5.527932e-11	6.748059e+00	-6.935504e+00
2.060000e-06	1.016965e-06	-3.714115e-11	7.067687e+00	-5.033263e+00
2.070000e-06	1.062801e-06	-1.641053e-11	7.386238e+00	-3.116724e+00
2.080000e-06	1.108682e-06	9.469514e-12	7.705103e+00	-1.189094e+00
2.090000e-06	1.154613e-06	4.062308e-11	8.024313e+00	7.463605e-01
2.100000e-06	1.200323e-06	7.314233e-11	8.341989e+00	2.686334e+00
2.110000e-06	1.245900e-06	1.037637e-10	8.658737e+00	4.627509e+00
2.120000e-06	1.291454e-06	1.294665e-10	8.975331e+00	6.566582e+00
2.130000e-06	1.336918e-06	1.536353e-10	9.291295e+00	8.500291e+00
2.140000e-06	1.382281e-06	1.768609e-10	9.606558e+00	1.042543e+01
2.150000e-06	1.427504e-06	1.985063e-10	9.920846e+00	1.233890e+01
2.160000e-06	1.472638e-06	2.213057e-10	1.023452e+01	1.423768e+01
2.170000e-06	1.517737e-06	2.468887e-10	1.054795e+01	1.611890e+01
2.180000e-06	1.562704e-06	2.746890e-10	1.086046e+01	1.797986e+01
2.190000e-06	1.607580e-06	3.035071e-10	1.117234e+01	1.981799e+01
2.200000e-06	1.652340e-06	3.305759e-10	1.148341e+01	2.163093e+01
2.210000e-06	1.696961e-06	3.574315e-10	1.179351e+01	2.341650e+01
2.220000e-06	1.741435e-06	3.818922e-10	1.210260e+01	2.517274e+01
2.230000e-06	1.785750e-06	4.034481e-10	1.241058e+01	2.689790e+01
2.240000e-06	1.829945e-06	4.217597e-10	1.271773e+01	2.859045e+01
2.250000e-06	1.874058e-06	4.381639e-10	1.302430e+01	3.024907e+01
2.260000e-06	1.918087e-06	4.564144e-10	1.333030e+01	3.187267e+01
2.270000e-06	1.962042e-06	4.779650e-10	1.363577e+01	3.346038e+01
2.280000e-06	2.005922e-06	4.991049e-10	1.394073e+01	3.501154e+01
2.290000e-06	2.049745e-06	5.198982e-10	1.424529e+01	3.652569e+01
2.300000e-06	2.093539e-06	5.433263e-10	1.454965e+01	3.800255e+01
2.310000e-06	2.137249e-06	5.653221e-10	1.485343e+01	3.944205e+01
2.320000e-06	2.180829e-06	5.817326e-10	1.515630e+01	4.084426e+01
2.330000e-06	2.224247e-06	5.947517e-10	1.545804e+01	4.220942e+01
2.340000e-06	2.267540e-06	6.096946e-10	1.575892e+01	4.353789e+01
2.350000e-06	2.310682e-06	6.269258e-10	1.605874e+01	4.483016e+01
2.360000e-06	2.353675e-06	6.439376e-10	1.635754e+01	4.608683e+01
2.370000e-06	2.396492e-06	6.627146e-10	1.665511e+01	4.730856e+01
2.380000e-06	2.438997e-06	6.823809e-10	1.695051e+01	4.849611e+01
2.390000e-06	2.481037e-06	6.980998e-10	1.724268e+01	4.965025e+01
2.400000e-06	2.522632e-06	7.121169e-10	1.753175e+01	5.077182e+01
2.410000e-06	2.563930e-06	7.270510e-10	1.781876e+01	5.186166e+01
2.420000e-06	2.604971e-06	7.421564e-10	1.810399e+01	5.292063e+01
2.430000e-06	2.645762e-06	7.582762e-10	1.838748e+01	5.394958e+01
2.440000e-06	2.686311e-06	7.763647e-10	1.866929e+01	5.494934e+01
2.450000e-06	2.726640e-06	7.930907e-10	1.894956e+01	5.592071e+01
2.460000e-06	2.766785e-06	8.078326e-10	1.922857e+01	5.686448e+01
2.470000e-06	2.806795e-06	8.205103e-10	1.950662e+01	5.778138e+01
2.480000e-06	2.846663e-06	8.318197e-10	1.978370e+01	5.867211e+01
2.490000e-06	2.886388e-06	8.430555e-10	2.005978e+01	5.953732e+01
2.500000e-06	2.926006e-06	8.547655e-10	2.033511e+01	6.037762e+01
2.510000e-06	2.965504e-06	8.709661e-10	2.060962e+01	6.119359e+01
2.520000e-06	3.004762e-06	8.854559e-10	2.088245e+01	6.198576e+01
2.530000e-06	3.043776e-06	8.982533e-10	2.115360e+01	6.275461e+01
2.540000e-06	3.082599e-06	9.119693e-10	2.142341e+01	6.350062e+01
2.550000e-06	3.121247e-06	9.221308e-10	2.169200e+01	6.422421e+01
2.560000e-06	3.159661e-06	9.281763e-10	2.195897e+01	6.492580e+01
2.570000e-06	3.197795e-06	9.329366e-10	2.222399e+01	6.560580e+01
2.580000e-06	3.235714e-06	9.393807e-10	2.248752e+01	6.626460e+01
2.590000e-06	3.273509e-06	9.461430e-10	2.275019e+01	6.690258e+01
2.600000e-06	3.311117e-06	9.567987e-10	2.301156e+01	6.752014e+01
2.610000e-06	3.348457e-06	9.685598e-10	2.327106e+01	6.811768e+01
2.620000e-06	3.385581e-06	9.799823e-10	2.352906e+01	6.869560e+01
2.630000e-06	3.422418e-06	9.894215e-10	2.378508e+01	6.925434e+01
2.640000e-06	3.459009e-06	9.969220e-10	2.403938e+01	6.979433e+01
2.650000e-06	3.495355e-06	1.003553e-09	2.429197e+01	7.031604e+01
2.660000e-06	3.531439e-06	1.007945e-09	2.454275e+01	7.081993e+01
2.670000e-06	3.567365e-06	1.010871e-09	2.479242e+01	7.130651e+01
2.680000e-06	3.603172e-06	1.014249e-09	2.504128e+01	7.177629e+01
2.690000e-06	3.638872e-06	1.022178e-09	2.528938e+01	7.222977e+01
2.700000e-06	3.674462e-06	1.032448e-09	2.553672e+01	7.266751e+01
2.710000e-06	3.709860e-06	1.039023e-09	2.578273e+01	7.309001e+01
2.720000e-06	3.744933e-06	1.044528e-09	2.602649e+01	7.349782e+01
2.730000e-06	3.779599e-06	1.050051e-09	2.626741e+01	7.389146e+01
2.740000e-06	3.813856e-06	1.053890e-09	2.650548e+01	7.427144e+01
2.750000e-06	3.847719e-06	1.057280e-09	2.674082e+01	7.463825e+01
2.760000e-06	3.881105e-06	1.061340e-09	2.697285e+01	7.499235e+01
2.770000e-06	3.914044e-06	1.066970e-09	2.720177e+01	7.533418e+01
2.780000e-06	3.946602e-06	1.072033e-09	2.742804e+01	7.566415e+01
2.790000e-06	3.978809e-06	1.077215e-09	2.765188e+01	7.598260e+01
2.800000e-06	4.010779e-06	1.082550e-09	2.787406e+01	7.628986e+01
2.810000e-06	4.042579e-06	1.087053e-09	2.809506e+01	7.658620e+01
2.820000e-06	4.074258e-06	1.090741e-09	2.831522e+01	7.687184e+01
2.830000e-06	4.105834e-06	1.094595e-09	2.853467e+01	7.714697e+01
2.840000e-06	4.137129e-06	1.098576e-09	2.875216e+01	7.741172e+01
2.850000e-06	4.168054e-06	1.100956e-09	2.896708e+01	7.766618e+01
2.860000e-06	4.198670e-06	1.104997e-09	2.917986e+01	7.791040e+01
2.870000e-06	4.228928e-06	1.112264e-09	2.939015e+01	7.814439e+01
2.880000e-06	4.258860e-06	1.116836e-09	2.959817e+01	7.836816e+01
2.890000e-06	4.288489e-06	1.118929e-09	2.980408e+01	7.858165e+01
2.900000e-06	4.317868e-06	1.122599e-09	3.000826e+01	7.878483e+01
