# Temperatura_=_-8.3
# Concentracion g/m^3_=_1620.0
# C_Vs_to_Am_M_A/Vsm_=_65563218390.804596
# pendiente_HvsI_1/m_=_3716.3
# ordenada_HvsI_A/m_=_1297.0
# frecuencia_Hz_=_135110.44942725575

Tiempo_(s)	Campo_(V.s)	Magnetizacion_(V.s)	Campo_(kA/m)	Magnetizacion_(A/m)
0.000000e+00	-5.525773e-06	-1.405794e-09	-3.836286e+01	-9.087982e+01
1.000000e-08	-5.526011e-06	-1.405641e-09	-3.836451e+01	-9.085315e+01
2.000000e-08	-5.526000e-06	-1.406502e-09	-3.836444e+01	-9.082605e+01
3.000000e-08	-5.525671e-06	-1.406316e-09	-3.836215e+01	-9.079761e+01
4.000000e-08	-5.524929e-06	-1.404763e-09	-3.835700e+01	-9.076687e+01
5.000000e-08	-5.523618e-06	-1.399101e-09	-3.834790e+01	-9.073286e+01
6.000000e-08	-5.521602e-06	-1.386916e-09	-3.833390e+01	-9.069458e+01
7.000000e-08	-5.519003e-06	-1.374503e-09	-3.831586e+01	-9.065107e+01
8.000000e-08	-5.515977e-06	-1.381513e-09	-3.829485e+01	-9.060140e+01
9.000000e-08	-5.512477e-06	-1.431563e-09	-3.827055e+01	-9.054468e+01
1.000000e-07	-5.508470e-06	-1.468078e-09	-3.824274e+01	-9.048012e+01
1.100000e-07	-5.504016e-06	-1.411025e-09	-3.821181e+01	-9.040700e+01
1.200000e-07	-5.499437e-06	-1.340209e-09	-3.818002e+01	-9.032472e+01
1.300000e-07	-5.494822e-06	-1.360265e-09	-3.814798e+01	-9.023280e+01
1.400000e-07	-5.489825e-06	-1.387946e-09	-3.811329e+01	-9.013087e+01
1.500000e-07	-5.484306e-06	-1.396309e-09	-3.807497e+01	-9.001874e+01
1.600000e-07	-5.478444e-06	-1.350172e-09	-3.803428e+01	-8.989635e+01
1.700000e-07	-5.472319e-06	-1.407846e-09	-3.799175e+01	-8.976379e+01
1.800000e-07	-5.465667e-06	-1.414041e-09	-3.794557e+01	-8.962130e+01
1.900000e-07	-5.458545e-06	-1.390597e-09	-3.789613e+01	-8.946929e+01
2.000000e-07	-5.451101e-06	-1.337088e-09	-3.784445e+01	-8.930829e+01
2.100000e-07	-5.443363e-06	-1.347996e-09	-3.779073e+01	-8.913898e+01
2.200000e-07	-5.435384e-06	-1.362507e-09	-3.773533e+01	-8.896217e+01
2.300000e-07	-5.427168e-06	-1.362790e-09	-3.767829e+01	-8.877877e+01
2.400000e-07	-5.418646e-06	-1.368810e-09	-3.761913e+01	-8.858978e+01
2.500000e-07	-5.409589e-06	-1.361232e-09	-3.755625e+01	-8.839631e+01
2.600000e-07	-5.399835e-06	-1.356934e-09	-3.748853e+01	-8.819948e+01
2.700000e-07	-5.389461e-06	-1.323014e-09	-3.741651e+01	-8.800049e+01
2.800000e-07	-5.378537e-06	-1.326196e-09	-3.734067e+01	-8.780053e+01
2.900000e-07	-5.367116e-06	-1.327504e-09	-3.726138e+01	-8.760078e+01
3.000000e-07	-5.355357e-06	-1.355656e-09	-3.717974e+01	-8.740242e+01
3.100000e-07	-5.343250e-06	-1.329300e-09	-3.709569e+01	-8.720654e+01
3.200000e-07	-5.330601e-06	-1.325378e-09	-3.700787e+01	-8.701419e+01
3.300000e-07	-5.317425e-06	-1.308349e-09	-3.691639e+01	-8.682633e+01
3.400000e-07	-5.303969e-06	-1.326668e-09	-3.682298e+01	-8.664378e+01
3.500000e-07	-5.290202e-06	-1.292221e-09	-3.672740e+01	-8.646729e+01
3.600000e-07	-5.275882e-06	-1.292462e-09	-3.662799e+01	-8.629743e+01
3.700000e-07	-5.261118e-06	-1.318213e-09	-3.652548e+01	-8.613465e+01
3.800000e-07	-5.246075e-06	-1.346714e-09	-3.642105e+01	-8.597925e+01
3.900000e-07	-5.230479e-06	-1.302994e-09	-3.631277e+01	-8.583136e+01
4.000000e-07	-5.214283e-06	-1.301351e-09	-3.620033e+01	-8.569097e+01
4.100000e-07	-5.197681e-06	-1.321909e-09	-3.608507e+01	-8.555791e+01
4.200000e-07	-5.180687e-06	-1.299550e-09	-3.596709e+01	-8.543187e+01
4.300000e-07	-5.163371e-06	-1.274017e-09	-3.584687e+01	-8.531238e+01
4.400000e-07	-5.145823e-06	-1.324900e-09	-3.572505e+01	-8.519887e+01
4.500000e-07	-5.127937e-06	-1.338493e-09	-3.560087e+01	-8.509063e+01
4.600000e-07	-5.109608e-06	-1.286920e-09	-3.547362e+01	-8.498687e+01
4.700000e-07	-5.090853e-06	-1.297803e-09	-3.534341e+01	-8.488670e+01
4.800000e-07	-5.071752e-06	-1.327706e-09	-3.521081e+01	-8.478917e+01
4.900000e-07	-5.052363e-06	-1.288250e-09	-3.507620e+01	-8.469331e+01
5.000000e-07	-5.032696e-06	-1.271159e-09	-3.493966e+01	-8.459808e+01
5.100000e-07	-5.012835e-06	-1.312342e-09	-3.480177e+01	-8.450249e+01
5.200000e-07	-4.992692e-06	-1.281798e-09	-3.466193e+01	-8.440552e+01
5.300000e-07	-4.972102e-06	-1.260134e-09	-3.451898e+01	-8.430622e+01
5.400000e-07	-4.951180e-06	-1.306681e-09	-3.437373e+01	-8.420367e+01
5.500000e-07	-4.929967e-06	-1.308826e-09	-3.422646e+01	-8.409705e+01
5.600000e-07	-4.908313e-06	-1.249827e-09	-3.407613e+01	-8.398561e+01
5.700000e-07	-4.886309e-06	-1.282488e-09	-3.392336e+01	-8.386870e+01
5.800000e-07	-4.863994e-06	-1.307742e-09	-3.376844e+01	-8.374577e+01
5.900000e-07	-4.841348e-06	-1.266403e-09	-3.361122e+01	-8.361642e+01
6.000000e-07	-4.818372e-06	-1.261404e-09	-3.345170e+01	-8.348034e+01
6.100000e-07	-4.795093e-06	-1.297989e-09	-3.329009e+01	-8.333736e+01
6.200000e-07	-4.771574e-06	-1.257410e-09	-3.312681e+01	-8.318744e+01
6.300000e-07	-4.747821e-06	-1.241561e-09	-3.296190e+01	-8.303066e+01
6.400000e-07	-4.723848e-06	-1.275026e-09	-3.279547e+01	-8.286721e+01
6.500000e-07	-4.699601e-06	-1.269007e-09	-3.262713e+01	-8.269739e+01
6.600000e-07	-4.674904e-06	-1.241364e-09	-3.245568e+01	-8.252159e+01
6.700000e-07	-4.649737e-06	-1.269398e-09	-3.228095e+01	-8.234030e+01
6.800000e-07	-4.624171e-06	-1.263870e-09	-3.210346e+01	-8.215407e+01
6.900000e-07	-4.597994e-06	-1.231869e-09	-3.192172e+01	-8.196351e+01
7.000000e-07	-4.571248e-06	-1.238989e-09	-3.173604e+01	-8.176926e+01
7.100000e-07	-4.544176e-06	-1.250083e-09	-3.154809e+01	-8.157199e+01
7.200000e-07	-4.516812e-06	-1.226368e-09	-3.135812e+01	-8.137236e+01
7.300000e-07	-4.489196e-06	-1.236353e-09	-3.116639e+01	-8.117103e+01
7.400000e-07	-4.461379e-06	-1.257028e-09	-3.097327e+01	-8.096862e+01
7.500000e-07	-4.433359e-06	-1.235150e-09	-3.077874e+01	-8.076572e+01
7.600000e-07	-4.405051e-06	-1.220736e-09	-3.058221e+01	-8.056286e+01
7.700000e-07	-4.376456e-06	-1.231408e-09	-3.038369e+01	-8.036047e+01
7.800000e-07	-4.347601e-06	-1.220424e-09	-3.018336e+01	-8.015894e+01
7.900000e-07	-4.318437e-06	-1.206705e-09	-2.998089e+01	-7.995855e+01
8.000000e-07	-4.288932e-06	-1.223497e-09	-2.977605e+01	-7.975948e+01
8.100000e-07	-4.259115e-06	-1.222729e-09	-2.956905e+01	-7.956183e+01
8.200000e-07	-4.229014e-06	-1.204832e-09	-2.936007e+01	-7.936559e+01
8.300000e-07	-4.198637e-06	-1.205094e-09	-2.914917e+01	-7.917065e+01
8.400000e-07	-4.167933e-06	-1.209292e-09	-2.893601e+01	-7.897681e+01
8.500000e-07	-4.136878e-06	-1.192003e-09	-2.872041e+01	-7.878379e+01
8.600000e-07	-4.105570e-06	-1.194994e-09	-2.850306e+01	-7.859124e+01
8.700000e-07	-4.074110e-06	-1.202861e-09	-2.828464e+01	-7.839871e+01
8.800000e-07	-4.042485e-06	-1.194447e-09	-2.806509e+01	-7.820572e+01
8.900000e-07	-4.010624e-06	-1.184504e-09	-2.784389e+01	-7.801176e+01
9.000000e-07	-3.978563e-06	-1.192229e-09	-2.762131e+01	-7.781625e+01
9.100000e-07	-3.946306e-06	-1.181523e-09	-2.739736e+01	-7.761864e+01
9.200000e-07	-3.913742e-06	-1.167375e-09	-2.717128e+01	-7.741835e+01
9.300000e-07	-3.880713e-06	-1.168060e-09	-2.694197e+01	-7.721484e+01
9.400000e-07	-3.847214e-06	-1.171293e-09	-2.670941e+01	-7.700758e+01
9.500000e-07	-3.813289e-06	-1.162125e-09	-2.647389e+01	-7.679609e+01
9.600000e-07	-3.778983e-06	-1.164816e-09	-2.623571e+01	-7.657996e+01
9.700000e-07	-3.744223e-06	-1.165525e-09	-2.599439e+01	-7.635883e+01
9.800000e-07	-3.708998e-06	-1.155070e-09	-2.574984e+01	-7.613242e+01
9.900000e-07	-3.673586e-06	-1.148413e-09	-2.550399e+01	-7.590053e+01
1.000000e-06	-3.638042e-06	-1.152492e-09	-2.525722e+01	-7.566305e+01
1.010000e-06	-3.602335e-06	-1.143081e-09	-2.500933e+01	-7.541996e+01
1.020000e-06	-3.566478e-06	-1.128543e-09	-2.476039e+01	-7.517132e+01
1.030000e-06	-3.530408e-06	-1.127827e-09	-2.450997e+01	-7.491730e+01
1.040000e-06	-3.494157e-06	-1.128336e-09	-2.425830e+01	-7.465811e+01
1.050000e-06	-3.457656e-06	-1.123155e-09	-2.400489e+01	-7.439407e+01
1.060000e-06	-3.420884e-06	-1.121962e-09	-2.374960e+01	-7.412556e+01
1.070000e-06	-3.383875e-06	-1.118242e-09	-2.349266e+01	-7.385299e+01
1.080000e-06	-3.346588e-06	-1.104489e-09	-2.323380e+01	-7.357685e+01
1.090000e-06	-3.309035e-06	-1.093869e-09	-2.297308e+01	-7.329764e+01
1.100000e-06	-3.271249e-06	-1.086579e-09	-2.271075e+01	-7.301585e+01
1.110000e-06	-3.233260e-06	-1.077734e-09	-2.244702e+01	-7.273202e+01
1.120000e-06	-3.195042e-06	-1.070617e-09	-2.218168e+01	-7.244662e+01
1.130000e-06	-3.156638e-06	-1.070608e-09	-2.191506e+01	-7.216011e+01
1.140000e-06	-3.118055e-06	-1.066297e-09	-2.164720e+01	-7.187292e+01
1.150000e-06	-3.079223e-06	-1.062627e-09	-2.137761e+01	-7.158539e+01
1.160000e-06	-3.040177e-06	-1.059502e-09	-2.110653e+01	-7.129779e+01
1.170000e-06	-3.000915e-06	-1.052630e-09	-2.083395e+01	-7.101031e+01
1.180000e-06	-2.961445e-06	-1.038501e-09	-2.055993e+01	-7.072305e+01
1.190000e-06	-2.921865e-06	-1.031958e-09	-2.028515e+01	-7.043599e+01
1.200000e-06	-2.882188e-06	-1.028378e-09	-2.000968e+01	-7.014902e+01
1.210000e-06	-2.842305e-06	-1.021661e-09	-1.973279e+01	-6.986189e+01
1.220000e-06	-2.802167e-06	-1.014137e-09	-1.945414e+01	-6.957426e+01
1.230000e-06	-2.761901e-06	-1.011325e-09	-1.917459e+01	-6.928568e+01
1.240000e-06	-2.721529e-06	-1.004230e-09	-1.889431e+01	-6.899558e+01
1.250000e-06	-2.680973e-06	-9.969176e-10	-1.861274e+01	-6.870330e+01
1.260000e-06	-2.640184e-06	-9.918344e-10	-1.832956e+01	-6.840808e+01
1.270000e-06	-2.599160e-06	-9.864914e-10	-1.804475e+01	-6.810910e+01
1.280000e-06	-2.557972e-06	-9.779563e-10	-1.775880e+01	-6.780546e+01
1.290000e-06	-2.516498e-06	-9.706967e-10	-1.747087e+01	-6.749621e+01
1.300000e-06	-2.474712e-06	-9.651381e-10	-1.718077e+01	-6.718036e+01
1.310000e-06	-2.432657e-06	-9.572803e-10	-1.688880e+01	-6.685691e+01
1.320000e-06	-2.390279e-06	-9.477918e-10	-1.659459e+01	-6.652486e+01
1.330000e-06	-2.347715e-06	-9.385523e-10	-1.629909e+01	-6.618323e+01
1.340000e-06	-2.304919e-06	-9.300549e-10	-1.600198e+01	-6.583106e+01
1.350000e-06	-2.261825e-06	-9.249938e-10	-1.570280e+01	-6.546744e+01
1.360000e-06	-2.218531e-06	-9.234392e-10	-1.540222e+01	-6.509156e+01
1.370000e-06	-2.175062e-06	-9.208906e-10	-1.510044e+01	-6.470265e+01
1.380000e-06	-2.131465e-06	-9.146168e-10	-1.479777e+01	-6.430006e+01
1.390000e-06	-2.087784e-06	-9.048170e-10	-1.449451e+01	-6.388323e+01
1.400000e-06	-2.044034e-06	-8.929067e-10	-1.419077e+01	-6.345171e+01
1.410000e-06	-2.000194e-06	-8.791209e-10	-1.388641e+01	-6.300519e+01
1.420000e-06	-1.956204e-06	-8.688869e-10	-1.358101e+01	-6.254347e+01
1.430000e-06	-1.912164e-06	-8.631301e-10	-1.327526e+01	-6.206647e+01
1.440000e-06	-1.868055e-06	-8.603771e-10	-1.296903e+01	-6.157423e+01
1.450000e-06	-1.823749e-06	-8.564109e-10	-1.266144e+01	-6.106692e+01
1.460000e-06	-1.779334e-06	-8.511769e-10	-1.235308e+01	-6.054479e+01
1.470000e-06	-1.734865e-06	-8.424444e-10	-1.204436e+01	-6.000822e+01
1.480000e-06	-1.690193e-06	-8.323484e-10	-1.173422e+01	-5.945767e+01
1.490000e-06	-1.645317e-06	-8.211022e-10	-1.142267e+01	-5.889364e+01
1.500000e-06	-1.600355e-06	-8.084759e-10	-1.111052e+01	-5.831672e+01
1.510000e-06	-1.555324e-06	-7.942773e-10	-1.079789e+01	-5.772751e+01
1.520000e-06	-1.510191e-06	-7.825703e-10	-1.048455e+01	-5.712665e+01
1.530000e-06	-1.464957e-06	-7.739760e-10	-1.017051e+01	-5.651476e+01
1.540000e-06	-1.419535e-06	-7.668467e-10	-9.855168e+00	-5.589244e+01
1.550000e-06	-1.373992e-06	-7.577780e-10	-9.538986e+00	-5.526023e+01
1.560000e-06	-1.328501e-06	-7.461874e-10	-9.223162e+00	-5.461862e+01
1.570000e-06	-1.282926e-06	-7.309952e-10	-8.906755e+00	-5.396800e+01
1.580000e-06	-1.237209e-06	-7.153520e-10	-8.589365e+00	-5.330867e+01
1.590000e-06	-1.191441e-06	-7.013142e-10	-8.271619e+00	-5.264079e+01
1.600000e-06	-1.145626e-06	-6.895500e-10	-7.953548e+00	-5.196439e+01
1.610000e-06	-1.099733e-06	-6.775412e-10	-7.634935e+00	-5.127935e+01
1.620000e-06	-1.053737e-06	-6.666299e-10	-7.315600e+00	-5.058538e+01
1.630000e-06	-1.007647e-06	-6.574084e-10	-6.995624e+00	-4.988202e+01
1.640000e-06	-9.614695e-07	-6.458964e-10	-6.675033e+00	-4.916865e+01
1.650000e-06	-9.151672e-07	-6.339195e-10	-6.353579e+00	-4.844446e+01
1.660000e-06	-8.688266e-07	-6.228804e-10	-6.031857e+00	-4.770846e+01
1.670000e-06	-8.224840e-07	-6.132532e-10	-5.710122e+00	-4.695950e+01
1.680000e-06	-7.761180e-07	-6.031191e-10	-5.388225e+00	-4.619625e+01
1.690000e-06	-7.296677e-07	-5.927816e-10	-5.065742e+00	-4.541725e+01
1.700000e-06	-6.831061e-07	-5.808230e-10	-4.742487e+00	-4.462088e+01
1.710000e-06	-6.365414e-07	-5.643915e-10	-4.419210e+00	-4.380540e+01
1.720000e-06	-5.899551e-07	-5.438236e-10	-4.095783e+00	-4.296897e+01
1.730000e-06	-5.431963e-07	-5.251267e-10	-3.771158e+00	-4.210966e+01
1.740000e-06	-4.963953e-07	-5.114012e-10	-3.446241e+00	-4.122548e+01
1.750000e-06	-4.496833e-07	-5.015863e-10	-3.121941e+00	-4.031440e+01
1.760000e-06	-4.029149e-07	-4.904594e-10	-2.797250e+00	-3.937438e+01
1.770000e-06	-3.561157e-07	-4.767356e-10	-2.472345e+00	-3.840339e+01
1.780000e-06	-3.093023e-07	-4.610994e-10	-2.147342e+00	-3.739945e+01
1.790000e-06	-2.624075e-07	-4.437577e-10	-1.821773e+00	-3.636063e+01
1.800000e-06	-2.155341e-07	-4.244763e-10	-1.496353e+00	-3.528511e+01
1.810000e-06	-1.686963e-07	-4.056464e-10	-1.171179e+00	-3.417118e+01
1.820000e-06	-1.218751e-07	-3.881890e-10	-8.461216e-01	-3.301728e+01
1.830000e-06	-7.500842e-08	-3.722078e-10	-5.207484e-01	-3.182201e+01
1.840000e-06	-2.809718e-08	-3.564518e-10	-1.950656e-01	-3.058416e+01
1.850000e-06	1.875706e-08	-3.390100e-10	1.302215e-01	-2.930272e+01
1.860000e-06	6.556119e-08	-3.214508e-10	4.551607e-01	-2.797693e+01
1.870000e-06	1.123234e-07	-3.036380e-10	7.798088e-01	-2.660623e+01
1.880000e-06	1.591656e-07	-2.847506e-10	1.105013e+00	-2.519034e+01
1.890000e-06	2.060709e-07	-2.649031e-10	1.430654e+00	-2.372922e+01
1.900000e-06	2.529927e-07	-2.439643e-10	1.756410e+00	-2.222311e+01
1.910000e-06	2.999465e-07	-2.217226e-10	2.082389e+00	-2.067251e+01
1.920000e-06	3.467998e-07	-1.978309e-10	2.407669e+00	-1.907818e+01
1.930000e-06	3.935853e-07	-1.732093e-10	2.732479e+00	-1.744116e+01
1.940000e-06	4.403158e-07	-1.496058e-10	3.056907e+00	-1.576273e+01
1.950000e-06	4.869722e-07	-1.265403e-10	3.380821e+00	-1.404445e+01
1.960000e-06	5.336415e-07	-1.030482e-10	3.704823e+00	-1.228808e+01
1.970000e-06	5.802919e-07	-7.864664e-11	4.028695e+00	-1.049564e+01
1.980000e-06	6.268661e-07	-5.427781e-11	4.352038e+00	-8.669337e+00
1.990000e-06	6.733518e-07	-2.948483e-11	4.674767e+00	-6.811593e+00
2.000000e-06	7.197827e-07	-2.988305e-12	4.997115e+00	-4.924991e+00
2.010000e-06	7.661053e-07	2.419547e-11	5.318711e+00	-3.012269e+00
2.020000e-06	8.123768e-07	5.222745e-11	5.639953e+00	-1.076300e+00
2.030000e-06	8.586796e-07	8.167340e-11	5.961411e+00	8.799329e-01
2.040000e-06	9.048554e-07	1.101002e-10	6.281988e+00	2.853359e+00
2.050000e-06	9.509507e-07	1.360620e-10	6.602006e+00	4.840842e+00
2.060000e-06	9.970801e-07	1.597338e-10	6.922261e+00	6.839205e+00
2.070000e-06	1.043093e-06	1.842171e-10	7.241708e+00	8.845251e+00
2.080000e-06	1.089013e-06	2.102288e-10	7.560507e+00	1.085579e+01
2.090000e-06	1.134961e-06	2.375599e-10	7.879505e+00	1.286764e+01
2.100000e-06	1.180835e-06	2.668188e-10	8.197989e+00	1.487769e+01
2.110000e-06	1.226579e-06	2.969673e-10	8.515562e+00	1.688288e+01
2.120000e-06	1.272185e-06	3.250808e-10	8.832185e+00	1.888021e+01
2.130000e-06	1.317658e-06	3.528407e-10	9.147885e+00	2.086682e+01
2.140000e-06	1.363022e-06	3.812151e-10	9.462822e+00	2.283992e+01
2.150000e-06	1.408290e-06	4.062836e-10	9.777102e+00	2.479688e+01
2.160000e-06	1.453555e-06	4.284331e-10	1.009136e+01	2.673518e+01
2.170000e-06	1.498783e-06	4.500182e-10	1.040535e+01	2.865247e+01
2.180000e-06	1.543916e-06	4.734111e-10	1.071869e+01	3.054652e+01
2.190000e-06	1.588944e-06	4.995792e-10	1.103129e+01	3.241530e+01
2.200000e-06	1.633792e-06	5.269746e-10	1.134266e+01	3.425691e+01
2.210000e-06	1.678467e-06	5.540666e-10	1.165281e+01	3.606963e+01
2.220000e-06	1.722956e-06	5.798299e-10	1.196168e+01	3.785192e+01
2.230000e-06	1.767310e-06	6.035887e-10	1.226960e+01	3.960237e+01
2.240000e-06	1.811583e-06	6.248501e-10	1.257697e+01	4.131977e+01
2.250000e-06	1.855763e-06	6.427692e-10	1.288370e+01	4.300306e+01
2.260000e-06	1.899874e-06	6.585682e-10	1.318994e+01	4.465132e+01
2.270000e-06	1.943859e-06	6.765096e-10	1.349531e+01	4.626381e+01
2.280000e-06	1.987723e-06	6.983569e-10	1.379983e+01	4.783990e+01
2.290000e-06	2.031536e-06	7.225218e-10	1.410401e+01	4.937912e+01
2.300000e-06	2.075320e-06	7.476960e-10	1.440797e+01	5.088113e+01
2.310000e-06	2.119062e-06	7.713751e-10	1.471166e+01	5.234570e+01
2.320000e-06	2.162746e-06	7.910195e-10	1.501493e+01	5.377271e+01
2.330000e-06	2.206365e-06	8.067454e-10	1.531776e+01	5.516217e+01
2.340000e-06	2.249866e-06	8.202712e-10	1.561977e+01	5.651415e+01
2.350000e-06	2.293184e-06	8.344873e-10	1.592051e+01	5.782884e+01
2.360000e-06	2.336266e-06	8.503463e-10	1.621961e+01	5.910648e+01
2.370000e-06	2.379008e-06	8.679271e-10	1.651634e+01	6.034741e+01
2.380000e-06	2.421462e-06	8.881235e-10	1.681108e+01	6.155199e+01
2.390000e-06	2.463632e-06	9.072689e-10	1.710385e+01	6.272069e+01
2.400000e-06	2.505468e-06	9.230678e-10	1.739429e+01	6.385399e+01
2.410000e-06	2.546911e-06	9.370802e-10	1.768201e+01	6.495242e+01
2.420000e-06	2.587952e-06	9.500374e-10	1.796694e+01	6.601656e+01
2.430000e-06	2.628788e-06	9.634346e-10	1.825045e+01	6.704701e+01
2.440000e-06	2.669456e-06	9.792117e-10	1.853278e+01	6.804441e+01
2.450000e-06	2.709903e-06	9.956952e-10	1.881359e+01	6.900941e+01
2.460000e-06	2.750181e-06	1.010297e-09	1.909322e+01	6.994269e+01
2.470000e-06	2.790303e-06	1.022669e-09	1.937177e+01	7.084495e+01
2.480000e-06	2.830242e-06	1.033205e-09	1.964905e+01	7.171691e+01
2.490000e-06	2.870034e-06	1.043443e-09	1.992530e+01	7.255928e+01
2.500000e-06	2.909738e-06	1.054696e-09	2.020095e+01	7.337281e+01
2.510000e-06	2.949386e-06	1.067748e-09	2.047621e+01	7.415825e+01
2.520000e-06	2.988880e-06	1.080962e-09	2.075040e+01	7.491635e+01
2.530000e-06	3.028179e-06	1.093091e-09	2.102323e+01	7.564790e+01
2.540000e-06	3.067303e-06	1.105437e-09	2.129485e+01	7.635366e+01
2.550000e-06	3.106174e-06	1.116174e-09	2.156471e+01	7.703443e+01
2.560000e-06	3.144747e-06	1.123437e-09	2.183251e+01	7.769100e+01
2.570000e-06	3.183050e-06	1.128091e-09	2.209843e+01	7.832415e+01
2.580000e-06	3.221140e-06	1.133166e-09	2.236287e+01	7.893470e+01
2.590000e-06	3.259060e-06	1.139286e-09	2.262613e+01	7.952345e+01
2.600000e-06	3.296855e-06	1.148319e-09	2.288853e+01	8.009119e+01
2.610000e-06	3.334430e-06	1.160241e-09	2.314939e+01	8.063872e+01
2.620000e-06	3.371690e-06	1.173474e-09	2.340806e+01	8.116685e+01
2.630000e-06	3.408677e-06	1.185902e-09	2.366485e+01	8.167636e+01
2.640000e-06	3.445350e-06	1.193820e-09	2.391945e+01	8.216802e+01
2.650000e-06	3.481702e-06	1.199109e-09	2.417183e+01	8.264260e+01
2.660000e-06	3.517841e-06	1.201130e-09	2.442273e+01	8.310083e+01
2.670000e-06	3.553863e-06	1.202801e-09	2.467281e+01	8.354344e+01
2.680000e-06	3.589748e-06	1.206468e-09	2.492195e+01	8.397113e+01
2.690000e-06	3.625500e-06	1.214269e-09	2.517015e+01	8.438455e+01
2.700000e-06	3.661233e-06	1.223307e-09	2.541823e+01	8.478433e+01
2.710000e-06	3.696870e-06	1.229693e-09	2.566564e+01	8.517107e+01
2.720000e-06	3.732246e-06	1.232852e-09	2.591124e+01	8.554530e+01
2.730000e-06	3.767276e-06	1.233980e-09	2.615444e+01	8.590755e+01
2.740000e-06	3.801900e-06	1.235432e-09	2.639482e+01	8.625825e+01
2.750000e-06	3.836057e-06	1.237223e-09	2.663195e+01	8.659782e+01
2.760000e-06	3.869676e-06	1.241692e-09	2.686535e+01	8.692660e+01
2.770000e-06	3.902751e-06	1.248074e-09	2.709497e+01	8.724489e+01
2.780000e-06	3.935271e-06	1.253564e-09	2.732074e+01	8.755294e+01
2.790000e-06	3.967445e-06	1.258364e-09	2.754412e+01	8.785093e+01
2.800000e-06	3.999497e-06	1.262467e-09	2.776664e+01	8.813899e+01
2.810000e-06	4.031415e-06	1.265536e-09	2.798823e+01	8.841723e+01
2.820000e-06	4.063231e-06	1.269041e-09	2.820912e+01	8.868566e+01
2.830000e-06	4.094934e-06	1.273884e-09	2.842922e+01	8.894430e+01
2.840000e-06	4.126370e-06	1.279756e-09	2.864746e+01	8.919310e+01
2.850000e-06	4.157459e-06	1.283282e-09	2.886330e+01	8.943198e+01
2.860000e-06	4.188128e-06	1.286653e-09	2.907622e+01	8.966084e+01
2.870000e-06	4.218410e-06	1.290950e-09	2.928645e+01	8.987956e+01
2.880000e-06	4.248490e-06	1.295043e-09	2.949528e+01	9.008800e+01
2.890000e-06	4.278349e-06	1.297777e-09	2.970258e+01	9.028604e+01
2.900000e-06	4.307936e-06	1.300520e-09	2.990799e+01	9.047352e+01
