# Temperatura_=_14.3
# Concentracion g/m^3_=_1620.0
# C_Vs_to_Am_M_A/Vsm_=_65563218390.804596
# pendiente_HvsI_1/m_=_3716.3
# ordenada_HvsI_A/m_=_1297.0
# frecuencia_Hz_=_135104.4996298105

Tiempo_(s)	Campo_(V.s)	Magnetizacion_(V.s)	Campo_(kA/m)	Magnetizacion_(A/m)
0.000000e+00	-5.511761e-06	-1.832949e-09	-3.836321e+01	-1.192869e+02
1.000000e-08	-5.511951e-06	-1.828654e-09	-3.836453e+01	-1.192203e+02
2.000000e-08	-5.511869e-06	-1.826775e-09	-3.836397e+01	-1.191543e+02
3.000000e-08	-5.511538e-06	-1.826138e-09	-3.836166e+01	-1.190890e+02
4.000000e-08	-5.510838e-06	-1.829040e-09	-3.835679e+01	-1.190248e+02
5.000000e-08	-5.509634e-06	-1.841773e-09	-3.834841e+01	-1.189617e+02
6.000000e-08	-5.507821e-06	-1.851849e-09	-3.833579e+01	-1.188998e+02
7.000000e-08	-5.505304e-06	-1.830530e-09	-3.831827e+01	-1.188390e+02
8.000000e-08	-5.502257e-06	-1.774722e-09	-3.829707e+01	-1.187794e+02
9.000000e-08	-5.498895e-06	-1.749412e-09	-3.827366e+01	-1.187209e+02
1.000000e-07	-5.495077e-06	-1.840771e-09	-3.824709e+01	-1.186633e+02
1.100000e-07	-5.490790e-06	-1.956695e-09	-3.821725e+01	-1.186063e+02
1.200000e-07	-5.486199e-06	-1.861062e-09	-3.818530e+01	-1.185498e+02
1.300000e-07	-5.481419e-06	-1.713453e-09	-3.815203e+01	-1.184934e+02
1.400000e-07	-5.476447e-06	-1.753603e-09	-3.811742e+01	-1.184368e+02
1.500000e-07	-5.471056e-06	-1.916151e-09	-3.807990e+01	-1.183795e+02
1.600000e-07	-5.465154e-06	-1.901067e-09	-3.803882e+01	-1.183211e+02
1.700000e-07	-5.458910e-06	-1.740995e-09	-3.799536e+01	-1.182610e+02
1.800000e-07	-5.452324e-06	-1.754398e-09	-3.794952e+01	-1.181989e+02
1.900000e-07	-5.445268e-06	-1.885162e-09	-3.790041e+01	-1.181340e+02
2.000000e-07	-5.437895e-06	-1.891742e-09	-3.784909e+01	-1.180660e+02
2.100000e-07	-5.430306e-06	-1.757240e-09	-3.779627e+01	-1.179942e+02
2.200000e-07	-5.422414e-06	-1.753534e-09	-3.774133e+01	-1.179180e+02
2.300000e-07	-5.414178e-06	-1.855858e-09	-3.768401e+01	-1.178369e+02
2.400000e-07	-5.405576e-06	-1.896403e-09	-3.762414e+01	-1.177504e+02
2.500000e-07	-5.396506e-06	-1.812731e-09	-3.756101e+01	-1.176579e+02
2.600000e-07	-5.386770e-06	-1.786333e-09	-3.749325e+01	-1.175590e+02
2.700000e-07	-5.376321e-06	-1.825742e-09	-3.742052e+01	-1.174532e+02
2.800000e-07	-5.365359e-06	-1.831672e-09	-3.734422e+01	-1.173401e+02
2.900000e-07	-5.353960e-06	-1.785694e-09	-3.726488e+01	-1.172194e+02
3.000000e-07	-5.342084e-06	-1.785925e-09	-3.718222e+01	-1.170907e+02
3.100000e-07	-5.329846e-06	-1.822932e-09	-3.709704e+01	-1.169539e+02
3.200000e-07	-5.317288e-06	-1.819056e-09	-3.700964e+01	-1.168086e+02
3.300000e-07	-5.304234e-06	-1.776250e-09	-3.691878e+01	-1.166549e+02
3.400000e-07	-5.290698e-06	-1.760157e-09	-3.682456e+01	-1.164927e+02
3.500000e-07	-5.276800e-06	-1.791897e-09	-3.672783e+01	-1.163219e+02
3.600000e-07	-5.262484e-06	-1.789614e-09	-3.662818e+01	-1.161427e+02
3.700000e-07	-5.247739e-06	-1.763195e-09	-3.652556e+01	-1.159551e+02
3.800000e-07	-5.232652e-06	-1.779629e-09	-3.642055e+01	-1.157593e+02
3.900000e-07	-5.217093e-06	-1.808506e-09	-3.631225e+01	-1.155556e+02
4.000000e-07	-5.200917e-06	-1.749441e-09	-3.619966e+01	-1.153442e+02
4.100000e-07	-5.184270e-06	-1.724245e-09	-3.608380e+01	-1.151255e+02
4.200000e-07	-5.167425e-06	-1.782240e-09	-3.596655e+01	-1.148998e+02
4.300000e-07	-5.150346e-06	-1.775310e-09	-3.584768e+01	-1.146675e+02
4.400000e-07	-5.132866e-06	-1.689345e-09	-3.572601e+01	-1.144289e+02
4.500000e-07	-5.115030e-06	-1.738301e-09	-3.560187e+01	-1.141845e+02
4.600000e-07	-5.096840e-06	-1.807474e-09	-3.547526e+01	-1.139348e+02
4.700000e-07	-5.078211e-06	-1.726256e-09	-3.534560e+01	-1.136800e+02
4.800000e-07	-5.059092e-06	-1.673396e-09	-3.521253e+01	-1.134207e+02
4.900000e-07	-5.039682e-06	-1.757204e-09	-3.507742e+01	-1.131572e+02
5.000000e-07	-5.020076e-06	-1.736308e-09	-3.494097e+01	-1.128898e+02
5.100000e-07	-5.000247e-06	-1.659903e-09	-3.480295e+01	-1.126190e+02
5.200000e-07	-4.980204e-06	-1.714070e-09	-3.466344e+01	-1.123451e+02
5.300000e-07	-4.959858e-06	-1.744134e-09	-3.452183e+01	-1.120684e+02
5.400000e-07	-4.939161e-06	-1.659894e-09	-3.437778e+01	-1.117890e+02
5.500000e-07	-4.918080e-06	-1.685302e-09	-3.423105e+01	-1.115074e+02
5.600000e-07	-4.896578e-06	-1.753765e-09	-3.408139e+01	-1.112235e+02
5.700000e-07	-4.874732e-06	-1.678696e-09	-3.392933e+01	-1.109377e+02
5.800000e-07	-4.852548e-06	-1.636654e-09	-3.377493e+01	-1.106500e+02
5.900000e-07	-4.830037e-06	-1.709327e-09	-3.361825e+01	-1.103605e+02
6.000000e-07	-4.807205e-06	-1.688754e-09	-3.345933e+01	-1.100693e+02
6.100000e-07	-4.784051e-06	-1.622046e-09	-3.329817e+01	-1.097764e+02
6.200000e-07	-4.760680e-06	-1.666041e-09	-3.313550e+01	-1.094817e+02
6.300000e-07	-4.737092e-06	-1.683604e-09	-3.297133e+01	-1.091854e+02
6.400000e-07	-4.713181e-06	-1.629450e-09	-3.280490e+01	-1.088873e+02
6.500000e-07	-4.688940e-06	-1.639532e-09	-3.263618e+01	-1.085873e+02
6.600000e-07	-4.664393e-06	-1.668054e-09	-3.246532e+01	-1.082855e+02
6.700000e-07	-4.639449e-06	-1.627156e-09	-3.229171e+01	-1.079817e+02
6.800000e-07	-4.613972e-06	-1.616617e-09	-3.211438e+01	-1.076759e+02
6.900000e-07	-4.587962e-06	-1.640933e-09	-3.193335e+01	-1.073680e+02
7.000000e-07	-4.561433e-06	-1.622867e-09	-3.174870e+01	-1.070579e+02
7.100000e-07	-4.534350e-06	-1.600582e-09	-3.156019e+01	-1.067455e+02
7.200000e-07	-4.506869e-06	-1.617303e-09	-3.136891e+01	-1.064308e+02
7.300000e-07	-4.479225e-06	-1.612614e-09	-3.117651e+01	-1.061137e+02
7.400000e-07	-4.451438e-06	-1.598030e-09	-3.098311e+01	-1.057940e+02
7.500000e-07	-4.423465e-06	-1.600688e-09	-3.078840e+01	-1.054719e+02
7.600000e-07	-4.395290e-06	-1.600252e-09	-3.059230e+01	-1.051471e+02
7.700000e-07	-4.366798e-06	-1.587370e-09	-3.039399e+01	-1.048196e+02
7.800000e-07	-4.337992e-06	-1.586132e-09	-3.019349e+01	-1.044894e+02
7.900000e-07	-4.308834e-06	-1.581566e-09	-2.999054e+01	-1.041564e+02
8.000000e-07	-4.279326e-06	-1.572157e-09	-2.978516e+01	-1.038205e+02
8.100000e-07	-4.249577e-06	-1.569685e-09	-2.957810e+01	-1.034817e+02
8.200000e-07	-4.219566e-06	-1.565375e-09	-2.936922e+01	-1.031399e+02
8.300000e-07	-4.189218e-06	-1.548067e-09	-2.915799e+01	-1.027950e+02
8.400000e-07	-4.158561e-06	-1.540446e-09	-2.894461e+01	-1.024468e+02
8.500000e-07	-4.127654e-06	-1.544068e-09	-2.872949e+01	-1.020953e+02
8.600000e-07	-4.096485e-06	-1.538771e-09	-2.851255e+01	-1.017402e+02
8.700000e-07	-4.065077e-06	-1.530691e-09	-2.829394e+01	-1.013815e+02
8.800000e-07	-4.033484e-06	-1.530429e-09	-2.807404e+01	-1.010190e+02
8.900000e-07	-4.001790e-06	-1.521849e-09	-2.785345e+01	-1.006524e+02
9.000000e-07	-3.969923e-06	-1.505106e-09	-2.763164e+01	-1.002815e+02
9.100000e-07	-3.937718e-06	-1.498514e-09	-2.740748e+01	-9.990612e+01
9.200000e-07	-3.905177e-06	-1.490031e-09	-2.718100e+01	-9.952600e+01
9.300000e-07	-3.872282e-06	-1.475133e-09	-2.695204e+01	-9.914089e+01
9.400000e-07	-3.838986e-06	-1.471357e-09	-2.672029e+01	-9.875052e+01
9.500000e-07	-3.805221e-06	-1.475689e-09	-2.648527e+01	-9.835462e+01
9.600000e-07	-3.770943e-06	-1.466213e-09	-2.624669e+01	-9.795294e+01
9.700000e-07	-3.736232e-06	-1.455538e-09	-2.600510e+01	-9.754522e+01
9.800000e-07	-3.701169e-06	-1.452452e-09	-2.576105e+01	-9.713122e+01
9.900000e-07	-3.665880e-06	-1.445296e-09	-2.551543e+01	-9.671071e+01
1.000000e-06	-3.630386e-06	-1.430749e-09	-2.526838e+01	-9.628351e+01
1.010000e-06	-3.594685e-06	-1.422663e-09	-2.501989e+01	-9.584942e+01
1.020000e-06	-3.558829e-06	-1.413234e-09	-2.477033e+01	-9.540832e+01
1.030000e-06	-3.522893e-06	-1.399632e-09	-2.452020e+01	-9.496010e+01
1.040000e-06	-3.486852e-06	-1.391380e-09	-2.426935e+01	-9.450468e+01
1.050000e-06	-3.450580e-06	-1.390351e-09	-2.401689e+01	-9.404206e+01
1.060000e-06	-3.413985e-06	-1.382254e-09	-2.376218e+01	-9.357224e+01
1.070000e-06	-3.377051e-06	-1.370743e-09	-2.350511e+01	-9.309528e+01
1.080000e-06	-3.339846e-06	-1.362821e-09	-2.324615e+01	-9.261130e+01
1.090000e-06	-3.302420e-06	-1.353342e-09	-2.298566e+01	-9.212044e+01
1.100000e-06	-3.264761e-06	-1.338583e-09	-2.272354e+01	-9.162289e+01
1.110000e-06	-3.226817e-06	-1.327325e-09	-2.245944e+01	-9.111886e+01
1.120000e-06	-3.188659e-06	-1.316584e-09	-2.219385e+01	-9.060860e+01
1.130000e-06	-3.150387e-06	-1.302687e-09	-2.192747e+01	-9.009240e+01
1.140000e-06	-3.111966e-06	-1.291542e-09	-2.166005e+01	-8.957052e+01
1.150000e-06	-3.073260e-06	-1.287528e-09	-2.139064e+01	-8.904329e+01
1.160000e-06	-3.034274e-06	-1.281988e-09	-2.111929e+01	-8.851099e+01
1.170000e-06	-2.995127e-06	-1.272031e-09	-2.084682e+01	-8.797392e+01
1.180000e-06	-2.955823e-06	-1.263970e-09	-2.057326e+01	-8.743236e+01
1.190000e-06	-2.916366e-06	-1.256155e-09	-2.029863e+01	-8.688656e+01
1.200000e-06	-2.876764e-06	-1.246371e-09	-2.002298e+01	-8.633674e+01
1.210000e-06	-2.837050e-06	-1.235850e-09	-1.974657e+01	-8.578307e+01
1.220000e-06	-2.797250e-06	-1.226890e-09	-1.946955e+01	-8.522568e+01
1.230000e-06	-2.757310e-06	-1.216129e-09	-1.919155e+01	-8.466466e+01
1.240000e-06	-2.717187e-06	-1.204656e-09	-1.891229e+01	-8.409999e+01
1.250000e-06	-2.676841e-06	-1.193629e-09	-1.863147e+01	-8.353164e+01
1.260000e-06	-2.636255e-06	-1.185591e-09	-1.834898e+01	-8.295948e+01
1.270000e-06	-2.595478e-06	-1.178531e-09	-1.806517e+01	-8.238331e+01
1.280000e-06	-2.554489e-06	-1.169659e-09	-1.777988e+01	-8.180286e+01
1.290000e-06	-2.513151e-06	-1.159096e-09	-1.749215e+01	-8.121780e+01
1.300000e-06	-2.471385e-06	-1.147821e-09	-1.720145e+01	-8.062773e+01
1.310000e-06	-2.429312e-06	-1.135429e-09	-1.690861e+01	-8.003217e+01
1.320000e-06	-2.387051e-06	-1.123565e-09	-1.661446e+01	-7.943060e+01
1.330000e-06	-2.344533e-06	-1.112265e-09	-1.631853e+01	-7.882246e+01
1.340000e-06	-2.301739e-06	-1.102180e-09	-1.602067e+01	-7.820712e+01
1.350000e-06	-2.258675e-06	-1.094942e-09	-1.572093e+01	-7.758394e+01
1.360000e-06	-2.215381e-06	-1.090503e-09	-1.541960e+01	-7.695225e+01
1.370000e-06	-2.171930e-06	-1.083374e-09	-1.511717e+01	-7.631138e+01
1.380000e-06	-2.128327e-06	-1.072098e-09	-1.481368e+01	-7.566064e+01
1.390000e-06	-2.084616e-06	-1.056413e-09	-1.450944e+01	-7.499937e+01
1.400000e-06	-2.040864e-06	-1.037820e-09	-1.420492e+01	-7.432692e+01
1.410000e-06	-1.997090e-06	-1.019919e-09	-1.390024e+01	-7.364268e+01
1.420000e-06	-1.953236e-06	-1.005899e-09	-1.359500e+01	-7.294608e+01
1.430000e-06	-1.909280e-06	-9.954243e-10	-1.328906e+01	-7.223660e+01
1.440000e-06	-1.865207e-06	-9.853834e-10	-1.298230e+01	-7.151378e+01
1.450000e-06	-1.821032e-06	-9.750329e-10	-1.267483e+01	-7.077722e+01
1.460000e-06	-1.776825e-06	-9.652842e-10	-1.236714e+01	-7.002657e+01
1.470000e-06	-1.732501e-06	-9.537025e-10	-1.205863e+01	-6.926158e+01
1.480000e-06	-1.688025e-06	-9.404772e-10	-1.174907e+01	-6.848205e+01
1.490000e-06	-1.643381e-06	-9.282961e-10	-1.143834e+01	-6.768784e+01
1.500000e-06	-1.598493e-06	-9.147058e-10	-1.112590e+01	-6.687887e+01
1.510000e-06	-1.553431e-06	-8.969955e-10	-1.081226e+01	-6.605512e+01
1.520000e-06	-1.508204e-06	-8.803260e-10	-1.049747e+01	-6.521662e+01
1.530000e-06	-1.462822e-06	-8.656859e-10	-1.018160e+01	-6.436342e+01
1.540000e-06	-1.417437e-06	-8.520031e-10	-9.865710e+00	-6.349560e+01
1.550000e-06	-1.372123e-06	-8.418370e-10	-9.550315e+00	-6.261324e+01
1.560000e-06	-1.326718e-06	-8.306659e-10	-9.234286e+00	-6.171642e+01
1.570000e-06	-1.281186e-06	-8.148865e-10	-8.917372e+00	-6.080519e+01
1.580000e-06	-1.235647e-06	-7.978734e-10	-8.600408e+00	-5.987956e+01
1.590000e-06	-1.190032e-06	-7.812796e-10	-8.282918e+00	-5.893949e+01
1.600000e-06	-1.144291e-06	-7.618055e-10	-7.964550e+00	-5.798486e+01
1.610000e-06	-1.098453e-06	-7.409938e-10	-7.645503e+00	-5.701547e+01
1.620000e-06	-1.052557e-06	-7.226041e-10	-7.326056e+00	-5.603100e+01
1.630000e-06	-1.006531e-06	-7.081467e-10	-7.005703e+00	-5.503104e+01
1.640000e-06	-9.603551e-07	-6.954112e-10	-6.684308e+00	-5.401503e+01
1.650000e-06	-9.141701e-07	-6.824835e-10	-6.362849e+00	-5.298229e+01
1.660000e-06	-8.679525e-07	-6.675841e-10	-6.041163e+00	-5.193199e+01
1.670000e-06	-8.216936e-07	-6.507032e-10	-5.719190e+00	-5.086316e+01
1.680000e-06	-7.753908e-07	-6.330543e-10	-5.396911e+00	-4.977469e+01
1.690000e-06	-7.290126e-07	-6.158603e-10	-5.074107e+00	-4.866531e+01
1.700000e-06	-6.826543e-07	-5.977622e-10	-4.751442e+00	-4.753364e+01
1.710000e-06	-6.362564e-07	-5.779139e-10	-4.428501e+00	-4.637814e+01
1.720000e-06	-5.897725e-07	-5.568528e-10	-4.104962e+00	-4.519720e+01
1.730000e-06	-5.432631e-07	-5.353545e-10	-3.781245e+00	-4.398908e+01
1.740000e-06	-4.967573e-07	-5.157718e-10	-3.457553e+00	-4.275198e+01
1.750000e-06	-4.501897e-07	-4.988406e-10	-3.133431e+00	-4.148402e+01
1.760000e-06	-4.035125e-07	-4.803598e-10	-2.808546e+00	-4.018333e+01
1.770000e-06	-3.568321e-07	-4.593023e-10	-2.483640e+00	-3.884799e+01
1.780000e-06	-3.101411e-07	-4.388502e-10	-2.158659e+00	-3.747614e+01
1.790000e-06	-2.634213e-07	-4.203197e-10	-1.833477e+00	-3.606597e+01
1.800000e-06	-2.166476e-07	-4.024800e-10	-1.507921e+00	-3.461574e+01
1.810000e-06	-1.698119e-07	-3.833715e-10	-1.181932e+00	-3.312383e+01
1.820000e-06	-1.230441e-07	-3.615968e-10	-8.564176e-01	-3.158879e+01
1.830000e-06	-7.634217e-08	-3.381732e-10	-5.313603e-01	-3.000933e+01
1.840000e-06	-2.964912e-08	-3.140846e-10	-2.063652e-01	-2.838437e+01
1.850000e-06	1.707838e-08	-2.908094e-10	1.188697e-01	-2.671305e+01
1.860000e-06	6.380830e-08	-2.697410e-10	4.441215e-01	-2.499480e+01
1.870000e-06	1.104965e-07	-2.484676e-10	7.690828e-01	-2.322931e+01
1.880000e-06	1.572284e-07	-2.261743e-10	1.094348e+00	-2.141658e+01
1.890000e-06	2.039575e-07	-2.017497e-10	1.419594e+00	-1.955690e+01
1.900000e-06	2.507157e-07	-1.737058e-10	1.745043e+00	-1.765093e+01
1.910000e-06	2.975555e-07	-1.429731e-10	2.071060e+00	-1.569962e+01
1.920000e-06	3.442924e-07	-1.118645e-10	2.396360e+00	-1.370428e+01
1.930000e-06	3.909389e-07	-8.194673e-11	2.721031e+00	-1.166655e+01
1.940000e-06	4.376327e-07	-5.512093e-11	3.046031e+00	-9.588386e+00
1.950000e-06	4.843063e-07	-3.050632e-11	3.370891e+00	-7.472077e+00
1.960000e-06	5.308528e-07	-5.342918e-12	3.694866e+00	-5.320202e+00
1.970000e-06	5.772245e-07	2.124144e-11	4.017625e+00	-3.135625e+00
1.980000e-06	6.235156e-07	4.991884e-11	4.339822e+00	-9.214715e-01
1.990000e-06	6.697797e-07	8.110186e-11	4.661832e+00	1.318903e+00
2.000000e-06	7.160517e-07	1.136833e-10	4.983896e+00	3.581937e+00
2.010000e-06	7.623576e-07	1.469668e-10	5.306197e+00	5.863901e+00
2.020000e-06	8.085788e-07	1.804990e-10	5.627908e+00	8.160924e+00
2.030000e-06	8.546886e-07	2.146612e-10	5.948843e+00	1.046904e+01
2.040000e-06	9.007161e-07	2.474145e-10	6.269206e+00	1.278421e+01
2.050000e-06	9.466896e-07	2.776428e-10	6.589193e+00	1.510237e+01
2.060000e-06	9.926323e-07	3.069740e-10	6.908965e+00	1.741948e+01
2.070000e-06	1.038514e-06	3.354481e-10	7.228311e+00	1.973152e+01
2.080000e-06	1.084298e-06	3.644799e-10	7.546982e+00	2.203458e+01
2.090000e-06	1.130056e-06	3.956388e-10	7.865465e+00	2.432484e+01
2.100000e-06	1.175773e-06	4.291067e-10	8.183672e+00	2.659865e+01
2.110000e-06	1.221333e-06	4.642368e-10	8.500777e+00	2.885252e+01
2.120000e-06	1.266827e-06	4.984148e-10	8.817427e+00	3.108315e+01
2.130000e-06	1.312300e-06	5.301560e-10	9.133932e+00	3.328750e+01
2.140000e-06	1.357663e-06	5.605015e-10	9.449671e+00	3.546274e+01
2.150000e-06	1.402868e-06	5.874614e-10	9.764308e+00	3.760631e+01
2.160000e-06	1.447999e-06	6.117435e-10	1.007843e+01	3.971592e+01
2.170000e-06	1.493032e-06	6.362146e-10	1.039187e+01	4.178954e+01
2.180000e-06	1.537967e-06	6.619239e-10	1.070463e+01	4.382543e+01
2.190000e-06	1.582834e-06	6.900881e-10	1.101692e+01	4.582215e+01
2.200000e-06	1.627504e-06	7.200148e-10	1.132783e+01	4.777851e+01
2.210000e-06	1.672034e-06	7.504357e-10	1.163777e+01	4.969358e+01
2.220000e-06	1.716487e-06	7.802400e-10	1.194717e+01	5.156671e+01
2.230000e-06	1.760796e-06	8.080006e-10	1.225557e+01	5.339749e+01
2.240000e-06	1.804980e-06	8.314244e-10	1.256311e+01	5.518574e+01
2.250000e-06	1.849037e-06	8.497378e-10	1.286975e+01	5.693147e+01
2.260000e-06	1.892982e-06	8.670990e-10	1.317562e+01	5.863490e+01
2.270000e-06	1.936829e-06	8.870292e-10	1.348081e+01	6.029644e+01
2.280000e-06	1.980574e-06	9.098137e-10	1.378529e+01	6.191661e+01
2.290000e-06	2.024262e-06	9.349947e-10	1.408936e+01	6.349608e+01
2.300000e-06	2.067922e-06	9.607475e-10	1.439325e+01	6.503563e+01
2.310000e-06	2.111563e-06	9.853801e-10	1.469700e+01	6.653613e+01
2.320000e-06	2.155148e-06	1.006291e-09	1.500036e+01	6.799849e+01
2.330000e-06	2.198669e-06	1.023108e-09	1.530328e+01	6.942370e+01
2.340000e-06	2.242061e-06	1.038540e-09	1.560530e+01	7.081274e+01
2.350000e-06	2.285239e-06	1.054695e-09	1.590583e+01	7.216664e+01
2.360000e-06	2.328265e-06	1.072563e-09	1.620530e+01	7.348641e+01
2.370000e-06	2.371099e-06	1.090791e-09	1.650343e+01	7.477304e+01
2.380000e-06	2.413580e-06	1.108495e-09	1.679911e+01	7.602749e+01
2.390000e-06	2.455780e-06	1.125863e-09	1.709283e+01	7.725072e+01
2.400000e-06	2.497644e-06	1.141569e-09	1.738422e+01	7.844360e+01
2.410000e-06	2.539036e-06	1.154897e-09	1.767231e+01	7.960699e+01
2.420000e-06	2.580050e-06	1.167382e-09	1.795778e+01	8.074169e+01
2.430000e-06	2.620781e-06	1.182189e-09	1.824128e+01	8.184846e+01
2.440000e-06	2.661299e-06	1.199415e-09	1.852330e+01	8.292800e+01
2.450000e-06	2.701647e-06	1.216525e-09	1.880413e+01	8.398097e+01
2.460000e-06	2.741862e-06	1.232971e-09	1.908403e+01	8.500799e+01
2.470000e-06	2.781924e-06	1.247403e-09	1.936288e+01	8.600965e+01
2.480000e-06	2.821790e-06	1.259695e-09	1.964035e+01	8.698650e+01
2.490000e-06	2.861547e-06	1.270967e-09	1.991707e+01	8.793906e+01
2.500000e-06	2.901225e-06	1.282015e-09	2.019324e+01	8.886783e+01
2.510000e-06	2.940786e-06	1.295374e-09	2.046859e+01	8.977331e+01
2.520000e-06	2.980182e-06	1.310323e-09	2.074280e+01	9.065597e+01
2.530000e-06	3.019369e-06	1.324110e-09	2.101556e+01	9.151628e+01
2.540000e-06	3.058310e-06	1.338706e-09	2.128659e+01	9.235473e+01
2.550000e-06	3.096988e-06	1.352943e-09	2.155580e+01	9.317180e+01
2.560000e-06	3.135347e-06	1.362450e-09	2.182279e+01	9.396797e+01
2.570000e-06	3.173453e-06	1.367801e-09	2.208801e+01	9.474374e+01
2.580000e-06	3.211465e-06	1.373032e-09	2.235259e+01	9.549962e+01
2.590000e-06	3.249325e-06	1.379587e-09	2.261610e+01	9.623612e+01
2.600000e-06	3.286953e-06	1.388690e-09	2.287800e+01	9.695379e+01
2.610000e-06	3.324386e-06	1.402213e-09	2.313854e+01	9.765315e+01
2.620000e-06	3.361542e-06	1.418391e-09	2.339716e+01	9.833476e+01
2.630000e-06	3.398416e-06	1.432976e-09	2.365381e+01	9.899916e+01
2.640000e-06	3.435092e-06	1.443720e-09	2.390909e+01	9.964690e+01
2.650000e-06	3.471543e-06	1.451851e-09	2.416279e+01	1.002785e+02
2.660000e-06	3.507750e-06	1.456258e-09	2.441480e+01	1.008946e+02
2.670000e-06	3.543689e-06	1.460058e-09	2.466495e+01	1.014955e+02
2.680000e-06	3.579431e-06	1.463938e-09	2.491372e+01	1.020819e+02
2.690000e-06	3.615042e-06	1.468317e-09	2.516158e+01	1.026542e+02
2.700000e-06	3.650552e-06	1.476910e-09	2.540874e+01	1.032129e+02
2.710000e-06	3.685964e-06	1.487200e-09	2.565522e+01	1.037584e+02
2.720000e-06	3.721180e-06	1.497121e-09	2.590033e+01	1.042910e+02
2.730000e-06	3.756058e-06	1.504147e-09	2.614309e+01	1.048111e+02
2.740000e-06	3.790579e-06	1.508829e-09	2.638336e+01	1.053191e+02
2.750000e-06	3.824753e-06	1.511779e-09	2.662122e+01	1.058151e+02
2.760000e-06	3.858409e-06	1.515327e-09	2.685547e+01	1.062995e+02
2.770000e-06	3.891483e-06	1.521803e-09	2.708568e+01	1.067723e+02
2.780000e-06	3.924193e-06	1.530865e-09	2.731335e+01	1.072338e+02
2.790000e-06	3.956611e-06	1.541141e-09	2.753899e+01	1.076841e+02
2.800000e-06	3.988674e-06	1.552279e-09	2.776215e+01	1.081232e+02
2.810000e-06	4.020510e-06	1.561941e-09	2.798374e+01	1.085512e+02
2.820000e-06	4.052178e-06	1.568188e-09	2.820415e+01	1.089682e+02
2.830000e-06	4.083654e-06	1.573345e-09	2.842324e+01	1.093741e+02
2.840000e-06	4.114973e-06	1.578993e-09	2.864122e+01	1.097691e+02
2.850000e-06	4.146074e-06	1.585762e-09	2.885770e+01	1.101529e+02
2.860000e-06	4.176890e-06	1.592613e-09	2.907218e+01	1.105258e+02
2.870000e-06	4.207415e-06	1.601430e-09	2.928465e+01	1.108876e+02
2.880000e-06	4.237565e-06	1.607425e-09	2.949450e+01	1.112385e+02
2.890000e-06	4.267320e-06	1.609680e-09	2.970160e+01	1.115784e+02
2.900000e-06	4.296802e-06	1.611857e-09	2.990680e+01	1.119073e+02
