# Temperatura_=_6.0
# Concentracion g/m^3_=_1620.0
# C_Vs_to_Am_M_A/Vsm_=_65563218390.804596
# pendiente_HvsI_1/m_=_3716.3
# ordenada_HvsI_A/m_=_1297.0
# frecuencia_Hz_=_135107.57606955158

Tiempo_(s)	Campo_(V.s)	Magnetizacion_(V.s)	Campo_(kA/m)	Magnetizacion_(A/m)
0.000000e+00	-5.526923e-06	-1.604646e-09	-3.835973e+01	-1.043778e+02
1.000000e-08	-5.527122e-06	-1.602612e-09	-3.836111e+01	-1.043811e+02
2.000000e-08	-5.527051e-06	-1.605986e-09	-3.836061e+01	-1.043836e+02
3.000000e-08	-5.526677e-06	-1.612317e-09	-3.835802e+01	-1.043850e+02
4.000000e-08	-5.525893e-06	-1.616030e-09	-3.835258e+01	-1.043847e+02
5.000000e-08	-5.524504e-06	-1.613061e-09	-3.834294e+01	-1.043822e+02
6.000000e-08	-5.522564e-06	-1.601265e-09	-3.832948e+01	-1.043771e+02
7.000000e-08	-5.520053e-06	-1.592559e-09	-3.831204e+01	-1.043688e+02
8.000000e-08	-5.516905e-06	-1.597183e-09	-3.829020e+01	-1.043569e+02
9.000000e-08	-5.513256e-06	-1.612782e-09	-3.826487e+01	-1.043410e+02
1.000000e-07	-5.509230e-06	-1.658157e-09	-3.823693e+01	-1.043205e+02
1.100000e-07	-5.504875e-06	-1.666850e-09	-3.820670e+01	-1.042953e+02
1.200000e-07	-5.500230e-06	-1.561497e-09	-3.817447e+01	-1.042649e+02
1.300000e-07	-5.495399e-06	-1.494346e-09	-3.814093e+01	-1.042292e+02
1.400000e-07	-5.490265e-06	-1.556752e-09	-3.810530e+01	-1.041878e+02
1.500000e-07	-5.484695e-06	-1.650611e-09	-3.806664e+01	-1.041406e+02
1.600000e-07	-5.478771e-06	-1.621305e-09	-3.802552e+01	-1.040875e+02
1.700000e-07	-5.472524e-06	-1.535933e-09	-3.798217e+01	-1.040285e+02
1.800000e-07	-5.465859e-06	-1.576910e-09	-3.793591e+01	-1.039635e+02
1.900000e-07	-5.458653e-06	-1.629637e-09	-3.788590e+01	-1.038926e+02
2.000000e-07	-5.451082e-06	-1.606407e-09	-3.783335e+01	-1.038160e+02
2.100000e-07	-5.443338e-06	-1.518895e-09	-3.777961e+01	-1.037337e+02
2.200000e-07	-5.435293e-06	-1.528155e-09	-3.772377e+01	-1.036460e+02
2.300000e-07	-5.426953e-06	-1.574952e-09	-3.766588e+01	-1.035530e+02
2.400000e-07	-5.418330e-06	-1.583859e-09	-3.760604e+01	-1.034551e+02
2.500000e-07	-5.409199e-06	-1.538423e-09	-3.754266e+01	-1.033524e+02
2.600000e-07	-5.399278e-06	-1.531417e-09	-3.747381e+01	-1.032453e+02
2.700000e-07	-5.388535e-06	-1.551251e-09	-3.739924e+01	-1.031341e+02
2.800000e-07	-5.377332e-06	-1.552148e-09	-3.732149e+01	-1.030191e+02
2.900000e-07	-5.365774e-06	-1.533534e-09	-3.724127e+01	-1.029007e+02
3.000000e-07	-5.353795e-06	-1.538971e-09	-3.715813e+01	-1.027790e+02
3.100000e-07	-5.341467e-06	-1.565034e-09	-3.707257e+01	-1.026545e+02
3.200000e-07	-5.328726e-06	-1.555761e-09	-3.698414e+01	-1.025274e+02
3.300000e-07	-5.315511e-06	-1.531736e-09	-3.689242e+01	-1.023979e+02
3.400000e-07	-5.301918e-06	-1.522531e-09	-3.679807e+01	-1.022663e+02
3.500000e-07	-5.288062e-06	-1.560101e-09	-3.670190e+01	-1.021329e+02
3.600000e-07	-5.273731e-06	-1.555866e-09	-3.660244e+01	-1.019977e+02
3.700000e-07	-5.258800e-06	-1.534213e-09	-3.649881e+01	-1.018610e+02
3.800000e-07	-5.243560e-06	-1.544545e-09	-3.639304e+01	-1.017229e+02
3.900000e-07	-5.227967e-06	-1.568337e-09	-3.628481e+01	-1.015834e+02
4.000000e-07	-5.211652e-06	-1.519456e-09	-3.617158e+01	-1.014426e+02
4.100000e-07	-5.194802e-06	-1.512512e-09	-3.605463e+01	-1.013006e+02
4.200000e-07	-5.177745e-06	-1.559205e-09	-3.593625e+01	-1.011573e+02
4.300000e-07	-5.160405e-06	-1.541312e-09	-3.581590e+01	-1.010126e+02
4.400000e-07	-5.142742e-06	-1.481089e-09	-3.569331e+01	-1.008666e+02
4.500000e-07	-5.124809e-06	-1.535138e-09	-3.556884e+01	-1.007192e+02
4.600000e-07	-5.106472e-06	-1.565196e-09	-3.544158e+01	-1.005701e+02
4.700000e-07	-5.087604e-06	-1.487132e-09	-3.531062e+01	-1.004193e+02
4.800000e-07	-5.068351e-06	-1.479362e-09	-3.517700e+01	-1.002667e+02
4.900000e-07	-5.048912e-06	-1.550444e-09	-3.504208e+01	-1.001120e+02
5.000000e-07	-5.029221e-06	-1.499316e-09	-3.490542e+01	-9.995514e+01
5.100000e-07	-5.009283e-06	-1.446672e-09	-3.476704e+01	-9.979591e+01
5.200000e-07	-4.989153e-06	-1.510693e-09	-3.462732e+01	-9.963413e+01
5.300000e-07	-4.968646e-06	-1.513278e-09	-3.448499e+01	-9.946962e+01
5.400000e-07	-4.947624e-06	-1.448230e-09	-3.433909e+01	-9.930221e+01
5.500000e-07	-4.926203e-06	-1.497466e-09	-3.419042e+01	-9.913174e+01
5.600000e-07	-4.904526e-06	-1.538118e-09	-3.403996e+01	-9.895805e+01
5.700000e-07	-4.882532e-06	-1.461320e-09	-3.388732e+01	-9.878098e+01
5.800000e-07	-4.860159e-06	-1.456880e-09	-3.373204e+01	-9.860042e+01
5.900000e-07	-4.837437e-06	-1.513153e-09	-3.357434e+01	-9.841624e+01
6.000000e-07	-4.814375e-06	-1.467303e-09	-3.341427e+01	-9.822833e+01
6.100000e-07	-4.791056e-06	-1.424986e-09	-3.325243e+01	-9.803662e+01
6.200000e-07	-4.767518e-06	-1.474441e-09	-3.308906e+01	-9.784104e+01
6.300000e-07	-4.743751e-06	-1.466022e-09	-3.292410e+01	-9.764154e+01
6.400000e-07	-4.719770e-06	-1.426925e-09	-3.275766e+01	-9.743808e+01
6.500000e-07	-4.695461e-06	-1.458851e-09	-3.258895e+01	-9.723065e+01
6.600000e-07	-4.670704e-06	-1.474569e-09	-3.241712e+01	-9.701924e+01
6.700000e-07	-4.645446e-06	-1.430603e-09	-3.224182e+01	-9.680388e+01
6.800000e-07	-4.619710e-06	-1.435758e-09	-3.206319e+01	-9.658458e+01
6.900000e-07	-4.593469e-06	-1.450723e-09	-3.188107e+01	-9.636138e+01
7.000000e-07	-4.566695e-06	-1.423263e-09	-3.169524e+01	-9.613434e+01
7.100000e-07	-4.539469e-06	-1.414500e-09	-3.150628e+01	-9.590349e+01
7.200000e-07	-4.511941e-06	-1.438619e-09	-3.131522e+01	-9.566891e+01
7.300000e-07	-4.484235e-06	-1.429222e-09	-3.112293e+01	-9.543066e+01
7.400000e-07	-4.456383e-06	-1.418016e-09	-3.092962e+01	-9.518878e+01
7.500000e-07	-4.428370e-06	-1.424736e-09	-3.073520e+01	-9.494336e+01
7.600000e-07	-4.400077e-06	-1.419780e-09	-3.053883e+01	-9.469444e+01
7.700000e-07	-4.371380e-06	-1.402839e-09	-3.033966e+01	-9.444208e+01
7.800000e-07	-4.342287e-06	-1.403547e-09	-3.013774e+01	-9.418633e+01
7.900000e-07	-4.312864e-06	-1.400175e-09	-2.993353e+01	-9.392721e+01
8.000000e-07	-4.283180e-06	-1.389621e-09	-2.972751e+01	-9.366477e+01
8.100000e-07	-4.253278e-06	-1.389100e-09	-2.951997e+01	-9.339902e+01
8.200000e-07	-4.223118e-06	-1.388187e-09	-2.931064e+01	-9.312997e+01
8.300000e-07	-4.192646e-06	-1.375737e-09	-2.909915e+01	-9.285761e+01
8.400000e-07	-4.161867e-06	-1.372686e-09	-2.888552e+01	-9.258194e+01
8.500000e-07	-4.130795e-06	-1.378733e-09	-2.866987e+01	-9.230292e+01
8.600000e-07	-4.099440e-06	-1.373375e-09	-2.845225e+01	-9.202054e+01
8.700000e-07	-4.067889e-06	-1.366081e-09	-2.823327e+01	-9.173473e+01
8.800000e-07	-4.036206e-06	-1.364280e-09	-2.801337e+01	-9.144547e+01
8.900000e-07	-4.004354e-06	-1.354929e-09	-2.779230e+01	-9.115268e+01
9.000000e-07	-3.972300e-06	-1.340411e-09	-2.756983e+01	-9.085632e+01
9.100000e-07	-3.939962e-06	-1.337848e-09	-2.734539e+01	-9.055633e+01
9.200000e-07	-3.907238e-06	-1.331692e-09	-2.711827e+01	-9.025265e+01
9.300000e-07	-3.874086e-06	-1.320097e-09	-2.688818e+01	-8.994522e+01
9.400000e-07	-3.840492e-06	-1.317955e-09	-2.665502e+01	-8.963399e+01
9.500000e-07	-3.806383e-06	-1.320348e-09	-2.641828e+01	-8.931893e+01
9.600000e-07	-3.771762e-06	-1.308148e-09	-2.617799e+01	-8.900000e+01
9.700000e-07	-3.736776e-06	-1.298091e-09	-2.593517e+01	-8.867719e+01
9.800000e-07	-3.701553e-06	-1.295889e-09	-2.569070e+01	-8.835048e+01
9.900000e-07	-3.666110e-06	-1.289608e-09	-2.544471e+01	-8.801989e+01
1.000000e-06	-3.630461e-06	-1.279788e-09	-2.519729e+01	-8.768543e+01
1.010000e-06	-3.594669e-06	-1.279070e-09	-2.494888e+01	-8.734716e+01
1.020000e-06	-3.558793e-06	-1.276199e-09	-2.469988e+01	-8.700513e+01
1.030000e-06	-3.522817e-06	-1.269359e-09	-2.445018e+01	-8.665942e+01
1.040000e-06	-3.486670e-06	-1.266333e-09	-2.419931e+01	-8.631010e+01
1.050000e-06	-3.450218e-06	-1.266030e-09	-2.394631e+01	-8.595730e+01
1.060000e-06	-3.413394e-06	-1.257556e-09	-2.369074e+01	-8.560111e+01
1.070000e-06	-3.376246e-06	-1.249031e-09	-2.343291e+01	-8.524166e+01
1.080000e-06	-3.338868e-06	-1.244482e-09	-2.317348e+01	-8.487908e+01
1.090000e-06	-3.301303e-06	-1.237508e-09	-2.291277e+01	-8.451351e+01
1.100000e-06	-3.263457e-06	-1.229104e-09	-2.265010e+01	-8.414505e+01
1.110000e-06	-3.225399e-06	-1.223834e-09	-2.238595e+01	-8.377384e+01
1.120000e-06	-3.187145e-06	-1.214880e-09	-2.212045e+01	-8.339999e+01
1.130000e-06	-3.148649e-06	-1.201668e-09	-2.185327e+01	-8.302357e+01
1.140000e-06	-3.110012e-06	-1.193215e-09	-2.158510e+01	-8.264466e+01
1.150000e-06	-3.071189e-06	-1.191107e-09	-2.131565e+01	-8.226330e+01
1.160000e-06	-3.032028e-06	-1.188721e-09	-2.104385e+01	-8.187948e+01
1.170000e-06	-2.992614e-06	-1.184912e-09	-2.077030e+01	-8.149318e+01
1.180000e-06	-2.953098e-06	-1.180536e-09	-2.049604e+01	-8.110433e+01
1.190000e-06	-2.913464e-06	-1.171693e-09	-2.022096e+01	-8.071279e+01
1.200000e-06	-2.873707e-06	-1.160230e-09	-1.994503e+01	-8.031840e+01
1.210000e-06	-2.833882e-06	-1.149387e-09	-1.966862e+01	-7.992093e+01
1.220000e-06	-2.793911e-06	-1.141089e-09	-1.939120e+01	-7.952010e+01
1.230000e-06	-2.753792e-06	-1.134075e-09	-1.911275e+01	-7.911557e+01
1.240000e-06	-2.713562e-06	-1.129250e-09	-1.883354e+01	-7.870696e+01
1.250000e-06	-2.673082e-06	-1.122783e-09	-1.855258e+01	-7.829381e+01
1.260000e-06	-2.632316e-06	-1.117540e-09	-1.826965e+01	-7.787563e+01
1.270000e-06	-2.591356e-06	-1.112519e-09	-1.798536e+01	-7.745186e+01
1.280000e-06	-2.550124e-06	-1.103921e-09	-1.769919e+01	-7.702193e+01
1.290000e-06	-2.508561e-06	-1.093892e-09	-1.741072e+01	-7.658520e+01
1.300000e-06	-2.466700e-06	-1.084644e-09	-1.712018e+01	-7.614100e+01
1.310000e-06	-2.424475e-06	-1.075650e-09	-1.682712e+01	-7.568864e+01
1.320000e-06	-2.381988e-06	-1.066226e-09	-1.653224e+01	-7.522743e+01
1.330000e-06	-2.339298e-06	-1.057957e-09	-1.623595e+01	-7.475665e+01
1.340000e-06	-2.296285e-06	-1.051900e-09	-1.593742e+01	-7.427558e+01
1.350000e-06	-2.253040e-06	-1.048829e-09	-1.563728e+01	-7.378352e+01
1.360000e-06	-2.209614e-06	-1.048119e-09	-1.533587e+01	-7.327980e+01
1.370000e-06	-2.165956e-06	-1.043570e-09	-1.503286e+01	-7.276377e+01
1.380000e-06	-2.122215e-06	-1.036036e-09	-1.472928e+01	-7.223480e+01
1.390000e-06	-2.078465e-06	-1.024799e-09	-1.442563e+01	-7.169235e+01
1.400000e-06	-2.034651e-06	-1.010277e-09	-1.412154e+01	-7.113590e+01
1.410000e-06	-1.990760e-06	-9.968104e-10	-1.381691e+01	-7.056502e+01
1.420000e-06	-1.946764e-06	-9.867791e-10	-1.351156e+01	-6.997933e+01
1.430000e-06	-1.902713e-06	-9.778281e-10	-1.320582e+01	-6.937854e+01
1.440000e-06	-1.858612e-06	-9.685874e-10	-1.289973e+01	-6.876242e+01
1.450000e-06	-1.814371e-06	-9.608826e-10	-1.259268e+01	-6.813083e+01
1.460000e-06	-1.770030e-06	-9.537964e-10	-1.228493e+01	-6.748372e+01
1.470000e-06	-1.725581e-06	-9.452227e-10	-1.197643e+01	-6.682109e+01
1.480000e-06	-1.680906e-06	-9.373068e-10	-1.166636e+01	-6.614302e+01
1.490000e-06	-1.635983e-06	-9.289579e-10	-1.135458e+01	-6.544967e+01
1.500000e-06	-1.590915e-06	-9.152005e-10	-1.104178e+01	-6.474125e+01
1.510000e-06	-1.545829e-06	-8.963221e-10	-1.072886e+01	-6.401800e+01
1.520000e-06	-1.500668e-06	-8.812344e-10	-1.041542e+01	-6.328023e+01
1.530000e-06	-1.455330e-06	-8.682005e-10	-1.010075e+01	-6.252824e+01
1.540000e-06	-1.409894e-06	-8.548023e-10	-9.785397e+00	-6.176236e+01
1.550000e-06	-1.364373e-06	-8.446880e-10	-9.469463e+00	-6.098291e+01
1.560000e-06	-1.318763e-06	-8.362689e-10	-9.152902e+00	-6.019018e+01
1.570000e-06	-1.273065e-06	-8.249853e-10	-8.835734e+00	-5.938443e+01
1.580000e-06	-1.227298e-06	-8.109899e-10	-8.518089e+00	-5.856586e+01
1.590000e-06	-1.181449e-06	-7.947510e-10	-8.199871e+00	-5.773459e+01
1.600000e-06	-1.135468e-06	-7.765427e-10	-7.880741e+00	-5.689065e+01
1.610000e-06	-1.089499e-06	-7.601230e-10	-7.561694e+00	-5.603399e+01
1.620000e-06	-1.043505e-06	-7.469026e-10	-7.242471e+00	-5.516441e+01
1.630000e-06	-9.973731e-07	-7.362882e-10	-6.922290e+00	-5.428160e+01
1.640000e-06	-9.511259e-07	-7.256542e-10	-6.601310e+00	-5.338510e+01
1.650000e-06	-9.047693e-07	-7.171449e-10	-6.279570e+00	-5.247431e+01
1.660000e-06	-8.583771e-07	-7.077236e-10	-5.957585e+00	-5.154845e+01
1.670000e-06	-8.120037e-07	-6.960137e-10	-5.635729e+00	-5.060661e+01
1.680000e-06	-7.655247e-07	-6.827028e-10	-5.313141e+00	-4.964772e+01
1.690000e-06	-7.190380e-07	-6.672224e-10	-4.990499e+00	-4.867053e+01
1.700000e-06	-6.725748e-07	-6.482738e-10	-4.668019e+00	-4.767367e+01
1.710000e-06	-6.259714e-07	-6.273448e-10	-4.344568e+00	-4.665562e+01
1.720000e-06	-5.792600e-07	-6.077037e-10	-4.020366e+00	-4.561473e+01
1.730000e-06	-5.325143e-07	-5.924583e-10	-3.695927e+00	-4.454924e+01
1.740000e-06	-4.858404e-07	-5.798547e-10	-3.371986e+00	-4.345733e+01
1.750000e-06	-4.391183e-07	-5.678682e-10	-3.047710e+00	-4.233706e+01
1.760000e-06	-3.923407e-07	-5.517786e-10	-2.723049e+00	-4.118649e+01
1.770000e-06	-3.455585e-07	-5.300699e-10	-2.398356e+00	-4.000363e+01
1.780000e-06	-2.986631e-07	-5.054493e-10	-2.072877e+00	-3.878652e+01
1.790000e-06	-2.517392e-07	-4.831165e-10	-1.747201e+00	-3.753324e+01
1.800000e-06	-2.048415e-07	-4.648149e-10	-1.421707e+00	-3.624192e+01
1.810000e-06	-1.580041e-07	-4.477529e-10	-1.096631e+00	-3.491082e+01
1.820000e-06	-1.112102e-07	-4.314640e-10	-7.718568e-01	-3.353831e+01
1.830000e-06	-6.432679e-08	-4.143686e-10	-4.464615e-01	-3.212293e+01
1.840000e-06	-1.729179e-08	-3.946449e-10	-1.200140e-01	-3.066342e+01
1.850000e-06	2.975432e-08	-3.719183e-10	2.065105e-01	-2.915871e+01
1.860000e-06	7.666626e-08	-3.493614e-10	5.321038e-01	-2.760801e+01
1.870000e-06	1.235582e-07	-3.274525e-10	8.575581e-01	-2.601078e+01
1.880000e-06	1.704571e-07	-3.062403e-10	1.183061e+00	-2.436676e+01
1.890000e-06	2.173259e-07	-2.825281e-10	1.508355e+00	-2.267601e+01
1.900000e-06	2.641881e-07	-2.569304e-10	1.833603e+00	-2.093890e+01
1.910000e-06	3.110396e-07	-2.329398e-10	2.158777e+00	-1.915611e+01
1.920000e-06	3.578392e-07	-2.073512e-10	2.483590e+00	-1.732868e+01
1.930000e-06	4.046085e-07	-1.783262e-10	2.808194e+00	-1.545795e+01
1.940000e-06	4.513677e-07	-1.489493e-10	3.132727e+00	-1.354561e+01
1.950000e-06	4.980596e-07	-1.225027e-10	3.456793e+00	-1.159365e+01
1.960000e-06	5.446949e-07	-9.722830e-11	3.780467e+00	-9.604368e+00
1.970000e-06	5.912638e-07	-7.140549e-11	4.103679e+00	-7.580365e+00
1.980000e-06	6.377465e-07	-4.691272e-11	4.426293e+00	-5.524493e+00
1.990000e-06	6.842139e-07	-2.051094e-11	4.748801e+00	-3.439854e+00
2.000000e-06	7.306585e-07	9.998142e-12	5.071151e+00	-1.329764e+00
2.010000e-06	7.770560e-07	4.204380e-11	5.393174e+00	8.022741e-01
2.020000e-06	8.234288e-07	7.513240e-11	5.715025e+00	2.952605e+00
2.030000e-06	8.697189e-07	1.084387e-10	6.036302e+00	5.117454e+00
2.040000e-06	9.159287e-07	1.391109e-10	6.357022e+00	7.292964e+00
2.050000e-06	9.620910e-07	1.673167e-10	6.677413e+00	9.475230e+00
2.060000e-06	1.008158e-06	1.938208e-10	6.997140e+00	1.166034e+01
2.070000e-06	1.054113e-06	2.197647e-10	7.316094e+00	1.384440e+01
2.080000e-06	1.099985e-06	2.474733e-10	7.634469e+00	1.602358e+01
2.090000e-06	1.145789e-06	2.782069e-10	7.952376e+00	1.819415e+01
2.100000e-06	1.191533e-06	3.119169e-10	8.269860e+00	2.035250e+01
2.110000e-06	1.237247e-06	3.459149e-10	8.587142e+00	2.249518e+01
2.120000e-06	1.282869e-06	3.776605e-10	8.903779e+00	2.461891e+01
2.130000e-06	1.328348e-06	4.069792e-10	9.219425e+00	2.672062e+01
2.140000e-06	1.373764e-06	4.338788e-10	9.534639e+00	2.879748e+01
2.150000e-06	1.419166e-06	4.585946e-10	9.849753e+00	3.084688e+01
2.160000e-06	1.464487e-06	4.809909e-10	1.016430e+01	3.286647e+01
2.170000e-06	1.509714e-06	5.031658e-10	1.047820e+01	3.485415e+01
2.180000e-06	1.554874e-06	5.281054e-10	1.079164e+01	3.680810e+01
2.190000e-06	1.599823e-06	5.572770e-10	1.110361e+01	3.872675e+01
2.200000e-06	1.644522e-06	5.890920e-10	1.141384e+01	4.060881e+01
2.210000e-06	1.689140e-06	6.196467e-10	1.172351e+01	4.245324e+01
2.220000e-06	1.733729e-06	6.465003e-10	1.203298e+01	4.425921e+01
2.230000e-06	1.778166e-06	6.681604e-10	1.234140e+01	4.602618e+01
2.240000e-06	1.822421e-06	6.845790e-10	1.264855e+01	4.775379e+01
2.250000e-06	1.866524e-06	6.987648e-10	1.295465e+01	4.944187e+01
2.260000e-06	1.910536e-06	7.145939e-10	1.326011e+01	5.109047e+01
2.270000e-06	1.954496e-06	7.349624e-10	1.356522e+01	5.269975e+01
2.280000e-06	1.998372e-06	7.593397e-10	1.386974e+01	5.427004e+01
2.290000e-06	2.042208e-06	7.850672e-10	1.417398e+01	5.580178e+01
2.300000e-06	2.086019e-06	8.101921e-10	1.447806e+01	5.729549e+01
2.310000e-06	2.129754e-06	8.319925e-10	1.478160e+01	5.875179e+01
2.320000e-06	2.173365e-06	8.491561e-10	1.508429e+01	6.017132e+01
2.330000e-06	2.216824e-06	8.620018e-10	1.538591e+01	6.155477e+01
2.340000e-06	2.260146e-06	8.731218e-10	1.568659e+01	6.290286e+01
2.350000e-06	2.303315e-06	8.877934e-10	1.598621e+01	6.421629e+01
2.360000e-06	2.346359e-06	9.071997e-10	1.628495e+01	6.549576e+01
2.370000e-06	2.389238e-06	9.291476e-10	1.658256e+01	6.674195e+01
2.380000e-06	2.431803e-06	9.503818e-10	1.687798e+01	6.795549e+01
2.390000e-06	2.473952e-06	9.671341e-10	1.717051e+01	6.913700e+01
2.400000e-06	2.515722e-06	9.806042e-10	1.746042e+01	7.028705e+01
2.410000e-06	2.557164e-06	9.937866e-10	1.774805e+01	7.140617e+01
2.420000e-06	2.598324e-06	1.007114e-09	1.803372e+01	7.249484e+01
2.430000e-06	2.639238e-06	1.021706e-09	1.831769e+01	7.355351e+01
2.440000e-06	2.679868e-06	1.038962e-09	1.859968e+01	7.458260e+01
2.450000e-06	2.720280e-06	1.056521e-09	1.888016e+01	7.558250e+01
2.460000e-06	2.760502e-06	1.073260e-09	1.915932e+01	7.655359e+01
2.470000e-06	2.800527e-06	1.088328e-09	1.943712e+01	7.749624e+01
2.480000e-06	2.840434e-06	1.100272e-09	1.971410e+01	7.841080e+01
2.490000e-06	2.880243e-06	1.109161e-09	1.999039e+01	7.929765e+01
2.500000e-06	2.919900e-06	1.117298e-09	2.026563e+01	8.015718e+01
2.510000e-06	2.959431e-06	1.128856e-09	2.053999e+01	8.098980e+01
2.520000e-06	2.998811e-06	1.141440e-09	2.081331e+01	8.179597e+01
2.530000e-06	3.037959e-06	1.156256e-09	2.108502e+01	8.257619e+01
2.540000e-06	3.076908e-06	1.174454e-09	2.135535e+01	8.333099e+01
2.550000e-06	3.115750e-06	1.189069e-09	2.162493e+01	8.406097e+01
2.560000e-06	3.154444e-06	1.197072e-09	2.189349e+01	8.476677e+01
2.570000e-06	3.192820e-06	1.201142e-09	2.215984e+01	8.544910e+01
2.580000e-06	3.230949e-06	1.204125e-09	2.242447e+01	8.610872e+01
2.590000e-06	3.268871e-06	1.208741e-09	2.268767e+01	8.674644e+01
2.600000e-06	3.306546e-06	1.218793e-09	2.294915e+01	8.736312e+01
2.610000e-06	3.344068e-06	1.232765e-09	2.320957e+01	8.795966e+01
2.620000e-06	3.381353e-06	1.248407e-09	2.346835e+01	8.853698e+01
2.630000e-06	3.418342e-06	1.262397e-09	2.372508e+01	8.909606e+01
2.640000e-06	3.454996e-06	1.272038e-09	2.397947e+01	8.963785e+01
2.650000e-06	3.491390e-06	1.278720e-09	2.423207e+01	9.016334e+01
2.660000e-06	3.527632e-06	1.282585e-09	2.448361e+01	9.067348e+01
2.670000e-06	3.563648e-06	1.285717e-09	2.473358e+01	9.116923e+01
2.680000e-06	3.599494e-06	1.290765e-09	2.498236e+01	9.165150e+01
2.690000e-06	3.635264e-06	1.298892e-09	2.523063e+01	9.212113e+01
2.700000e-06	3.670912e-06	1.309272e-09	2.547804e+01	9.257895e+01
2.710000e-06	3.706382e-06	1.318186e-09	2.572422e+01	9.302568e+01
2.720000e-06	3.741683e-06	1.324798e-09	2.596923e+01	9.346198e+01
2.730000e-06	3.776638e-06	1.328363e-09	2.621184e+01	9.388843e+01
2.740000e-06	3.811104e-06	1.331078e-09	2.645105e+01	9.430551e+01
2.750000e-06	3.845178e-06	1.334310e-09	2.668754e+01	9.471358e+01
2.760000e-06	3.878707e-06	1.339113e-09	2.692025e+01	9.511295e+01
2.770000e-06	3.911669e-06	1.347700e-09	2.714902e+01	9.550378e+01
2.780000e-06	3.944264e-06	1.356864e-09	2.737525e+01	9.588615e+01
2.790000e-06	3.976549e-06	1.365046e-09	2.759933e+01	9.626005e+01
2.800000e-06	4.008614e-06	1.372223e-09	2.782187e+01	9.662536e+01
2.810000e-06	4.040485e-06	1.376321e-09	2.804307e+01	9.698191e+01
2.820000e-06	4.072134e-06	1.377049e-09	2.826273e+01	9.732941e+01
2.830000e-06	4.103604e-06	1.378918e-09	2.848115e+01	9.766755e+01
2.840000e-06	4.134981e-06	1.383206e-09	2.869892e+01	9.799594e+01
2.850000e-06	4.166100e-06	1.388908e-09	2.891491e+01	9.831418e+01
2.860000e-06	4.196860e-06	1.396718e-09	2.912840e+01	9.862181e+01
2.870000e-06	4.227300e-06	1.406029e-09	2.933966e+01	9.891840e+01
2.880000e-06	4.257396e-06	1.412548e-09	2.954855e+01	9.920350e+01
2.890000e-06	4.287204e-06	1.415121e-09	2.975543e+01	9.947670e+01
2.900000e-06	4.316744e-06	1.418223e-09	2.996045e+01	9.973762e+01
