# Temperatura_=_15.2
# Concentracion g/m^3_=_1620.0
# C_Vs_to_Am_M_A/Vsm_=_65563218390.804596
# pendiente_HvsI_1/m_=_3716.3
# ordenada_HvsI_A/m_=_1297.0
# frecuencia_Hz_=_135104.42795250213

Tiempo_(s)	Campo_(V.s)	Magnetizacion_(V.s)	Campo_(kA/m)	Magnetizacion_(A/m)
0.000000e+00	-5.523203e-06	-1.876369e-09	-3.837876e+01	-1.195713e+02
1.000000e-08	-5.523439e-06	-1.874568e-09	-3.838040e+01	-1.195097e+02
2.000000e-08	-5.523433e-06	-1.874795e-09	-3.838036e+01	-1.194420e+02
3.000000e-08	-5.523162e-06	-1.873810e-09	-3.837848e+01	-1.193680e+02
4.000000e-08	-5.522489e-06	-1.870181e-09	-3.837380e+01	-1.192872e+02
5.000000e-08	-5.521243e-06	-1.865461e-09	-3.836514e+01	-1.191995e+02
6.000000e-08	-5.519335e-06	-1.855511e-09	-3.835188e+01	-1.191047e+02
7.000000e-08	-5.516825e-06	-1.856344e-09	-3.833445e+01	-1.190027e+02
8.000000e-08	-5.513798e-06	-1.901840e-09	-3.831341e+01	-1.188936e+02
9.000000e-08	-5.510215e-06	-1.911496e-09	-3.828852e+01	-1.187775e+02
1.000000e-07	-5.506144e-06	-1.825463e-09	-3.826023e+01	-1.186545e+02
1.100000e-07	-5.501817e-06	-1.813785e-09	-3.823016e+01	-1.185250e+02
1.200000e-07	-5.497390e-06	-1.917011e-09	-3.819940e+01	-1.183893e+02
1.300000e-07	-5.492630e-06	-1.905205e-09	-3.816632e+01	-1.182479e+02
1.400000e-07	-5.487465e-06	-1.799279e-09	-3.813043e+01	-1.181013e+02
1.500000e-07	-5.481984e-06	-1.777316e-09	-3.809234e+01	-1.179502e+02
1.600000e-07	-5.476145e-06	-1.937807e-09	-3.805177e+01	-1.177951e+02
1.700000e-07	-5.469872e-06	-1.944510e-09	-3.800818e+01	-1.176368e+02
1.800000e-07	-5.463152e-06	-1.785360e-09	-3.796149e+01	-1.174760e+02
1.900000e-07	-5.456106e-06	-1.742002e-09	-3.791253e+01	-1.173134e+02
2.000000e-07	-5.448768e-06	-1.854403e-09	-3.786154e+01	-1.171499e+02
2.100000e-07	-5.441067e-06	-1.882007e-09	-3.780803e+01	-1.169860e+02
2.200000e-07	-5.433138e-06	-1.776446e-09	-3.775293e+01	-1.168226e+02
2.300000e-07	-5.425026e-06	-1.756438e-09	-3.769657e+01	-1.166603e+02
2.400000e-07	-5.416507e-06	-1.814367e-09	-3.763737e+01	-1.164997e+02
2.500000e-07	-5.407330e-06	-1.819872e-09	-3.757360e+01	-1.163414e+02
2.600000e-07	-5.397480e-06	-1.753440e-09	-3.750516e+01	-1.161857e+02
2.700000e-07	-5.387114e-06	-1.756834e-09	-3.743313e+01	-1.160330e+02
2.800000e-07	-5.376026e-06	-1.789910e-09	-3.735609e+01	-1.158837e+02
2.900000e-07	-5.364398e-06	-1.798967e-09	-3.727528e+01	-1.157378e+02
3.000000e-07	-5.352573e-06	-1.769562e-09	-3.719312e+01	-1.155955e+02
3.100000e-07	-5.340368e-06	-1.774367e-09	-3.710830e+01	-1.154566e+02
3.200000e-07	-5.327699e-06	-1.774775e-09	-3.702028e+01	-1.153210e+02
3.300000e-07	-5.314634e-06	-1.780382e-09	-3.692949e+01	-1.151884e+02
3.400000e-07	-5.301230e-06	-1.749500e-09	-3.683635e+01	-1.150584e+02
3.500000e-07	-5.287386e-06	-1.728407e-09	-3.674016e+01	-1.149306e+02
3.600000e-07	-5.273089e-06	-1.758160e-09	-3.664081e+01	-1.148043e+02
3.700000e-07	-5.258380e-06	-1.785464e-09	-3.653860e+01	-1.146790e+02
3.800000e-07	-5.243012e-06	-1.739130e-09	-3.643182e+01	-1.145540e+02
3.900000e-07	-5.227082e-06	-1.740776e-09	-3.632112e+01	-1.144284e+02
4.000000e-07	-5.210902e-06	-1.785313e-09	-3.620870e+01	-1.143015e+02
4.100000e-07	-5.194328e-06	-1.727985e-09	-3.609353e+01	-1.141726e+02
4.200000e-07	-5.177317e-06	-1.682309e-09	-3.597532e+01	-1.140406e+02
4.300000e-07	-5.160011e-06	-1.775805e-09	-3.585507e+01	-1.139049e+02
4.400000e-07	-5.142339e-06	-1.789450e-09	-3.573228e+01	-1.137646e+02
4.500000e-07	-5.124290e-06	-1.680348e-09	-3.560686e+01	-1.136190e+02
4.600000e-07	-5.105858e-06	-1.728418e-09	-3.547878e+01	-1.134674e+02
4.700000e-07	-5.087031e-06	-1.811227e-09	-3.534796e+01	-1.133091e+02
4.800000e-07	-5.067787e-06	-1.708895e-09	-3.521424e+01	-1.131436e+02
4.900000e-07	-5.048207e-06	-1.665178e-09	-3.507818e+01	-1.129703e+02
5.000000e-07	-5.028457e-06	-1.769775e-09	-3.494095e+01	-1.127889e+02
5.100000e-07	-5.008547e-06	-1.718843e-09	-3.480260e+01	-1.125991e+02
5.200000e-07	-4.988339e-06	-1.636627e-09	-3.466219e+01	-1.124005e+02
5.300000e-07	-4.967831e-06	-1.735223e-09	-3.451968e+01	-1.121932e+02
5.400000e-07	-4.947014e-06	-1.751135e-09	-3.437503e+01	-1.119771e+02
5.500000e-07	-4.925761e-06	-1.626287e-09	-3.422735e+01	-1.117523e+02
5.600000e-07	-4.904201e-06	-1.677821e-09	-3.407754e+01	-1.115189e+02
5.700000e-07	-4.882365e-06	-1.752981e-09	-3.392581e+01	-1.112773e+02
5.800000e-07	-4.860105e-06	-1.649966e-09	-3.377113e+01	-1.110277e+02
5.900000e-07	-4.837485e-06	-1.623994e-09	-3.361396e+01	-1.107706e+02
6.000000e-07	-4.814628e-06	-1.715873e-09	-3.345513e+01	-1.105063e+02
6.100000e-07	-4.791410e-06	-1.663626e-09	-3.329380e+01	-1.102355e+02
6.200000e-07	-4.767769e-06	-1.600326e-09	-3.312952e+01	-1.099587e+02
6.300000e-07	-4.743944e-06	-1.662907e-09	-3.296397e+01	-1.096763e+02
6.400000e-07	-4.720007e-06	-1.663080e-09	-3.279764e+01	-1.093891e+02
6.500000e-07	-4.695778e-06	-1.597699e-09	-3.262928e+01	-1.090975e+02
6.600000e-07	-4.671203e-06	-1.628884e-09	-3.245852e+01	-1.088020e+02
6.700000e-07	-4.646185e-06	-1.651670e-09	-3.228468e+01	-1.085033e+02
6.800000e-07	-4.620564e-06	-1.600511e-09	-3.210665e+01	-1.082017e+02
6.900000e-07	-4.594350e-06	-1.596510e-09	-3.192449e+01	-1.078978e+02
7.000000e-07	-4.567541e-06	-1.621517e-09	-3.173821e+01	-1.075918e+02
7.100000e-07	-4.540305e-06	-1.592399e-09	-3.154895e+01	-1.072840e+02
7.200000e-07	-4.512835e-06	-1.579189e-09	-3.135807e+01	-1.069748e+02
7.300000e-07	-4.485173e-06	-1.606853e-09	-3.116586e+01	-1.066641e+02
7.400000e-07	-4.457358e-06	-1.599580e-09	-3.097259e+01	-1.063522e+02
7.500000e-07	-4.429314e-06	-1.575314e-09	-3.077772e+01	-1.060390e+02
7.600000e-07	-4.400976e-06	-1.577925e-09	-3.058081e+01	-1.057245e+02
7.700000e-07	-4.372376e-06	-1.577366e-09	-3.038208e+01	-1.054084e+02
7.800000e-07	-4.343494e-06	-1.559986e-09	-3.018138e+01	-1.050906e+02
7.900000e-07	-4.314322e-06	-1.559863e-09	-2.997868e+01	-1.047707e+02
8.000000e-07	-4.284817e-06	-1.561053e-09	-2.977366e+01	-1.044485e+02
8.100000e-07	-4.254967e-06	-1.548692e-09	-2.956624e+01	-1.041235e+02
8.200000e-07	-4.224881e-06	-1.541444e-09	-2.935719e+01	-1.037953e+02
8.300000e-07	-4.194498e-06	-1.542451e-09	-2.914607e+01	-1.034635e+02
8.400000e-07	-4.163710e-06	-1.527618e-09	-2.893213e+01	-1.031276e+02
8.500000e-07	-4.132559e-06	-1.521363e-09	-2.871568e+01	-1.027871e+02
8.600000e-07	-4.101181e-06	-1.529491e-09	-2.849764e+01	-1.024415e+02
8.700000e-07	-4.069650e-06	-1.524609e-09	-2.827854e+01	-1.020903e+02
8.800000e-07	-4.037997e-06	-1.508417e-09	-2.805860e+01	-1.017332e+02
8.900000e-07	-4.006210e-06	-1.507562e-09	-2.783772e+01	-1.013697e+02
9.000000e-07	-3.974220e-06	-1.500259e-09	-2.761544e+01	-1.009995e+02
9.100000e-07	-3.941952e-06	-1.483621e-09	-2.739121e+01	-1.006223e+02
9.200000e-07	-3.909299e-06	-1.480893e-09	-2.716432e+01	-1.002378e+02
9.300000e-07	-3.876274e-06	-1.483059e-09	-2.693484e+01	-9.984578e+01
9.400000e-07	-3.842826e-06	-1.469816e-09	-2.670243e+01	-9.944620e+01
9.500000e-07	-3.808973e-06	-1.463982e-09	-2.646719e+01	-9.903897e+01
9.600000e-07	-3.774759e-06	-1.466132e-09	-2.622945e+01	-9.862414e+01
9.700000e-07	-3.740045e-06	-1.453629e-09	-2.598824e+01	-9.820178e+01
9.800000e-07	-3.704924e-06	-1.438295e-09	-2.574419e+01	-9.777206e+01
9.900000e-07	-3.669561e-06	-1.438210e-09	-2.549846e+01	-9.733521e+01
1.000000e-06	-3.633948e-06	-1.435230e-09	-2.525101e+01	-9.689150e+01
1.010000e-06	-3.598120e-06	-1.421778e-09	-2.500205e+01	-9.644129e+01
1.020000e-06	-3.562172e-06	-1.417845e-09	-2.475226e+01	-9.598496e+01
1.030000e-06	-3.526104e-06	-1.416903e-09	-2.450163e+01	-9.552292e+01
1.040000e-06	-3.489823e-06	-1.405350e-09	-2.424954e+01	-9.505563e+01
1.050000e-06	-3.453351e-06	-1.398083e-09	-2.399610e+01	-9.458356e+01
1.060000e-06	-3.416621e-06	-1.398289e-09	-2.374088e+01	-9.410718e+01
1.070000e-06	-3.379513e-06	-1.386023e-09	-2.348303e+01	-9.362697e+01
1.080000e-06	-3.342160e-06	-1.370235e-09	-2.322347e+01	-9.314339e+01
1.090000e-06	-3.304694e-06	-1.363936e-09	-2.296314e+01	-9.265686e+01
1.100000e-06	-3.267005e-06	-1.357315e-09	-2.270125e+01	-9.216778e+01
1.110000e-06	-3.229018e-06	-1.343221e-09	-2.243729e+01	-9.167650e+01
1.120000e-06	-3.190817e-06	-1.333419e-09	-2.217184e+01	-9.118332e+01
1.130000e-06	-3.152417e-06	-1.323191e-09	-2.190502e+01	-9.068846e+01
1.140000e-06	-3.113738e-06	-1.307089e-09	-2.163625e+01	-9.019208e+01
1.150000e-06	-3.074798e-06	-1.295311e-09	-2.136567e+01	-8.969427e+01
1.160000e-06	-3.035644e-06	-1.293337e-09	-2.109361e+01	-8.919500e+01
1.170000e-06	-2.996348e-06	-1.286487e-09	-2.082055e+01	-8.869420e+01
1.180000e-06	-2.956928e-06	-1.276398e-09	-2.054663e+01	-8.819168e+01
1.190000e-06	-2.917354e-06	-1.270647e-09	-2.027165e+01	-8.768717e+01
1.200000e-06	-2.877681e-06	-1.263762e-09	-1.999597e+01	-8.718029e+01
1.210000e-06	-2.837896e-06	-1.249423e-09	-1.971952e+01	-8.667061e+01
1.220000e-06	-2.797993e-06	-1.236792e-09	-1.944225e+01	-8.615759e+01
1.230000e-06	-2.757959e-06	-1.227565e-09	-1.916407e+01	-8.564061e+01
1.240000e-06	-2.717730e-06	-1.216969e-09	-1.888453e+01	-8.511900e+01
1.250000e-06	-2.677225e-06	-1.207616e-09	-1.860308e+01	-8.459201e+01
1.260000e-06	-2.636512e-06	-1.202045e-09	-1.832018e+01	-8.405883e+01
1.270000e-06	-2.595615e-06	-1.195058e-09	-1.803600e+01	-8.351862e+01
1.280000e-06	-2.554443e-06	-1.182849e-09	-1.774991e+01	-8.297051e+01
1.290000e-06	-2.513023e-06	-1.170622e-09	-1.746210e+01	-8.241360e+01
1.300000e-06	-2.471330e-06	-1.159380e-09	-1.717239e+01	-8.184699e+01
1.310000e-06	-2.429333e-06	-1.146068e-09	-1.688057e+01	-8.126977e+01
1.320000e-06	-2.386940e-06	-1.133149e-09	-1.658600e+01	-8.068106e+01
1.330000e-06	-2.344179e-06	-1.121800e-09	-1.628886e+01	-8.008002e+01
1.340000e-06	-2.301264e-06	-1.111721e-09	-1.599066e+01	-7.946582e+01
1.350000e-06	-2.258150e-06	-1.102739e-09	-1.569108e+01	-7.883772e+01
1.360000e-06	-2.214783e-06	-1.097643e-09	-1.538974e+01	-7.819501e+01
1.370000e-06	-2.171180e-06	-1.093685e-09	-1.508675e+01	-7.753709e+01
1.380000e-06	-2.127430e-06	-1.084506e-09	-1.478275e+01	-7.686342e+01
1.390000e-06	-2.083636e-06	-1.073553e-09	-1.447844e+01	-7.617355e+01
1.400000e-06	-2.039787e-06	-1.060394e-09	-1.417375e+01	-7.546714e+01
1.410000e-06	-1.995870e-06	-1.044551e-09	-1.386859e+01	-7.474394e+01
1.420000e-06	-1.951900e-06	-1.028220e-09	-1.356306e+01	-7.400380e+01
1.430000e-06	-1.907848e-06	-1.016338e-09	-1.325696e+01	-7.324667e+01
1.440000e-06	-1.863667e-06	-1.006820e-09	-1.294996e+01	-7.247261e+01
1.450000e-06	-1.819446e-06	-9.979113e-10	-1.264268e+01	-7.168178e+01
1.460000e-06	-1.775205e-06	-9.885113e-10	-1.233526e+01	-7.087440e+01
1.470000e-06	-1.730844e-06	-9.763594e-10	-1.202701e+01	-7.005080e+01
1.480000e-06	-1.686278e-06	-9.600909e-10	-1.171734e+01	-6.921138e+01
1.490000e-06	-1.641536e-06	-9.445383e-10	-1.140645e+01	-6.835658e+01
1.500000e-06	-1.596707e-06	-9.306114e-10	-1.109495e+01	-6.748692e+01
1.510000e-06	-1.551644e-06	-9.146828e-10	-1.078182e+01	-6.660292e+01
1.520000e-06	-1.506440e-06	-9.006348e-10	-1.046771e+01	-6.570514e+01
1.530000e-06	-1.461258e-06	-8.906970e-10	-1.015376e+01	-6.479411e+01
1.540000e-06	-1.415978e-06	-8.769320e-10	-9.839127e+00	-6.387039e+01
1.550000e-06	-1.370569e-06	-8.618662e-10	-9.523595e+00	-6.293444e+01
1.560000e-06	-1.325061e-06	-8.479926e-10	-9.207375e+00	-6.198672e+01
1.570000e-06	-1.279470e-06	-8.320873e-10	-8.890581e+00	-6.102759e+01
1.580000e-06	-1.233812e-06	-8.142247e-10	-8.573316e+00	-6.005732e+01
1.590000e-06	-1.188073e-06	-7.973602e-10	-8.255495e+00	-5.907607e+01
1.600000e-06	-1.142234e-06	-7.804557e-10	-7.936978e+00	-5.808388e+01
1.610000e-06	-1.096270e-06	-7.624350e-10	-7.617587e+00	-5.708066e+01
1.620000e-06	-1.050211e-06	-7.465904e-10	-7.297540e+00	-5.606614e+01
1.630000e-06	-1.004092e-06	-7.319530e-10	-6.977078e+00	-5.503992e+01
1.640000e-06	-9.579246e-07	-7.178846e-10	-6.656276e+00	-5.400141e+01
1.650000e-06	-9.117790e-07	-7.048581e-10	-6.335626e+00	-5.294986e+01
1.660000e-06	-8.655677e-07	-6.920453e-10	-6.014520e+00	-5.188433e+01
1.670000e-06	-8.192937e-07	-6.769856e-10	-5.692979e+00	-5.080371e+01
1.680000e-06	-7.729676e-07	-6.615530e-10	-5.371076e+00	-4.970670e+01
1.690000e-06	-7.265968e-07	-6.462608e-10	-5.048862e+00	-4.859187e+01
1.700000e-06	-6.802112e-07	-6.288970e-10	-4.726544e+00	-4.745759e+01
1.710000e-06	-6.336644e-07	-6.075974e-10	-4.403107e+00	-4.630212e+01
1.720000e-06	-5.869995e-07	-5.852815e-10	-4.078850e+00	-4.512357e+01
1.730000e-06	-5.403735e-07	-5.640623e-10	-3.754862e+00	-4.391998e+01
1.740000e-06	-4.937343e-07	-5.454665e-10	-3.430783e+00	-4.268926e+01
1.750000e-06	-4.470270e-07	-5.288541e-10	-3.106231e+00	-4.142929e+01
1.760000e-06	-4.003216e-07	-5.110288e-10	-2.781692e+00	-4.013792e+01
1.770000e-06	-3.536677e-07	-4.896087e-10	-2.457510e+00	-3.881297e+01
1.780000e-06	-3.069408e-07	-4.671560e-10	-2.132822e+00	-3.745232e+01
1.790000e-06	-2.600883e-07	-4.457941e-10	-1.807261e+00	-3.605389e+01
1.800000e-06	-2.132393e-07	-4.248519e-10	-1.481724e+00	-3.461570e+01
1.810000e-06	-1.663594e-07	-4.030113e-10	-1.155972e+00	-3.313590e+01
1.820000e-06	-1.194956e-07	-3.804070e-10	-8.303319e-01	-3.161278e+01
1.830000e-06	-7.266058e-08	-3.583170e-10	-5.048924e-01	-3.004484e+01
1.840000e-06	-2.572969e-08	-3.362738e-10	-1.787864e-01	-2.843078e+01
1.850000e-06	2.120152e-08	-3.137948e-10	1.473218e-01	-2.676956e+01
1.860000e-06	6.807546e-08	-2.914868e-10	4.730320e-01	-2.506040e+01
1.870000e-06	1.149988e-07	-2.677837e-10	7.990856e-01	-2.330284e+01
1.880000e-06	1.619355e-07	-2.429021e-10	1.125232e+00	-2.149670e+01
1.890000e-06	2.088273e-07	-2.166278e-10	1.451067e+00	-1.964216e+01
1.900000e-06	2.556707e-07	-1.875016e-10	1.776564e+00	-1.773973e+01
1.910000e-06	3.024330e-07	-1.592480e-10	2.101499e+00	-1.579029e+01
1.920000e-06	3.491900e-07	-1.319525e-10	2.426396e+00	-1.379504e+01
1.930000e-06	3.959678e-07	-1.039767e-10	2.751438e+00	-1.175559e+01
1.940000e-06	4.426853e-07	-7.636566e-11	3.076062e+00	-9.673841e+00
1.950000e-06	4.893045e-07	-4.787881e-11	3.400002e+00	-7.552076e+00
1.960000e-06	5.359165e-07	-1.702287e-11	3.723892e+00	-5.392887e+00
1.970000e-06	5.825334e-07	1.567077e-11	4.047816e+00	-3.199176e+00
1.980000e-06	6.290264e-07	4.655501e-11	4.370879e+00	-9.741304e-01
1.990000e-06	6.754515e-07	7.877481e-11	4.693471e+00	1.278806e+00
2.000000e-06	7.217958e-07	1.128647e-10	5.015501e+00	3.555962e+00
2.010000e-06	7.680655e-07	1.435584e-10	5.337012e+00	5.853468e+00
2.020000e-06	8.143277e-07	1.737043e-10	5.658472e+00	8.167299e+00
2.030000e-06	8.605083e-07	2.070421e-10	5.979365e+00	1.049331e+01
2.040000e-06	9.066291e-07	2.439704e-10	6.299841e+00	1.282726e+01
2.050000e-06	9.527044e-07	2.785658e-10	6.620002e+00	1.516488e+01
2.060000e-06	9.987433e-07	3.086990e-10	6.939910e+00	1.750189e+01
2.070000e-06	1.044818e-06	3.366900e-10	7.260068e+00	1.983405e+01
2.080000e-06	1.090839e-06	3.640418e-10	7.579850e+00	2.215719e+01
2.090000e-06	1.136674e-06	3.915194e-10	7.898342e+00	2.446726e+01
2.100000e-06	1.182377e-06	4.235388e-10	8.215914e+00	2.676036e+01
2.110000e-06	1.227990e-06	4.591523e-10	8.532865e+00	2.903277e+01
2.120000e-06	1.273579e-06	4.933984e-10	8.849644e+00	3.128096e+01
2.130000e-06	1.319135e-06	5.253905e-10	9.166198e+00	3.350167e+01
2.140000e-06	1.364528e-06	5.554732e-10	9.481615e+00	3.569188e+01
2.150000e-06	1.409813e-06	5.828377e-10	9.796286e+00	3.784886e+01
2.160000e-06	1.455065e-06	6.069433e-10	1.011073e+01	3.997016e+01
2.170000e-06	1.500241e-06	6.288338e-10	1.042464e+01	4.205365e+01
2.180000e-06	1.545350e-06	6.547102e-10	1.073808e+01	4.409749e+01
2.190000e-06	1.590267e-06	6.845957e-10	1.105020e+01	4.610016e+01
2.200000e-06	1.634973e-06	7.162287e-10	1.136084e+01	4.806047e+01
2.210000e-06	1.679569e-06	7.462838e-10	1.167072e+01	4.997748e+01
2.220000e-06	1.724020e-06	7.731050e-10	1.197960e+01	5.185059e+01
2.230000e-06	1.768373e-06	7.988693e-10	1.228779e+01	5.367945e+01
2.240000e-06	1.812623e-06	8.203168e-10	1.259527e+01	5.546397e+01
2.250000e-06	1.856742e-06	8.405662e-10	1.290184e+01	5.720430e+01
2.260000e-06	1.900789e-06	8.586626e-10	1.320790e+01	5.890081e+01
2.270000e-06	1.944783e-06	8.767172e-10	1.351360e+01	6.055405e+01
2.280000e-06	1.988729e-06	8.966248e-10	1.381897e+01	6.216476e+01
2.290000e-06	2.032593e-06	9.204981e-10	1.412376e+01	6.373379e+01
2.300000e-06	2.076359e-06	9.479584e-10	1.442788e+01	6.526211e+01
2.310000e-06	2.120077e-06	9.749571e-10	1.473165e+01	6.675080e+01
2.320000e-06	2.163745e-06	9.978083e-10	1.503509e+01	6.820098e+01
2.330000e-06	2.207318e-06	1.013443e-09	1.533787e+01	6.961380e+01
2.340000e-06	2.250702e-06	1.024771e-09	1.563932e+01	7.099044e+01
2.350000e-06	2.293860e-06	1.036809e-09	1.593921e+01	7.233208e+01
2.360000e-06	2.336786e-06	1.052525e-09	1.623749e+01	7.363986e+01
2.370000e-06	2.379481e-06	1.072601e-09	1.653416e+01	7.491489e+01
2.380000e-06	2.421880e-06	1.095881e-09	1.682878e+01	7.615821e+01
2.390000e-06	2.463879e-06	1.118606e-09	1.712061e+01	7.737083e+01
2.400000e-06	2.505585e-06	1.137143e-09	1.741042e+01	7.855366e+01
2.410000e-06	2.547145e-06	1.151685e-09	1.769920e+01	7.970755e+01
2.420000e-06	2.588340e-06	1.162338e-09	1.798545e+01	8.083327e+01
2.430000e-06	2.629126e-06	1.172022e-09	1.826885e+01	8.193151e+01
2.440000e-06	2.669688e-06	1.186772e-09	1.855070e+01	8.300289e+01
2.450000e-06	2.710054e-06	1.205289e-09	1.883119e+01	8.404798e+01
2.460000e-06	2.750290e-06	1.226673e-09	1.911078e+01	8.506727e+01
2.470000e-06	2.790442e-06	1.244393e-09	1.938979e+01	8.606122e+01
2.480000e-06	2.830455e-06	1.256796e-09	1.966782e+01	8.703023e+01
2.490000e-06	2.870307e-06	1.266255e-09	1.994474e+01	8.797470e+01
2.500000e-06	2.910065e-06	1.274402e-09	2.022100e+01	8.889498e+01
2.510000e-06	2.949699e-06	1.286321e-09	2.049640e+01	8.979145e+01
2.520000e-06	2.989159e-06	1.300773e-09	2.077060e+01	9.066448e+01
2.530000e-06	3.028356e-06	1.314620e-09	2.104296e+01	9.151445e+01
2.540000e-06	3.067219e-06	1.329860e-09	2.131301e+01	9.234178e+01
2.550000e-06	3.105852e-06	1.345373e-09	2.158145e+01	9.314692e+01
2.560000e-06	3.144305e-06	1.356018e-09	2.184865e+01	9.393036e+01
2.570000e-06	3.182557e-06	1.362122e-09	2.211445e+01	9.469264e+01
2.580000e-06	3.220602e-06	1.367846e-09	2.237881e+01	9.543436e+01
2.590000e-06	3.258488e-06	1.373918e-09	2.264207e+01	9.615614e+01
2.600000e-06	3.296227e-06	1.382420e-09	2.290430e+01	9.685867e+01
2.610000e-06	3.333688e-06	1.395814e-09	2.316461e+01	9.754269e+01
2.620000e-06	3.370896e-06	1.412066e-09	2.342315e+01	9.820896e+01
2.630000e-06	3.407905e-06	1.426444e-09	2.368031e+01	9.885829e+01
2.640000e-06	3.444663e-06	1.437096e-09	2.393573e+01	9.949151e+01
2.650000e-06	3.481145e-06	1.445729e-09	2.418923e+01	1.001095e+02
2.660000e-06	3.517368e-06	1.451112e-09	2.444093e+01	1.007130e+02
2.670000e-06	3.553435e-06	1.456306e-09	2.469155e+01	1.013029e+02
2.680000e-06	3.589385e-06	1.462180e-09	2.494135e+01	1.018801e+02
2.690000e-06	3.625160e-06	1.470334e-09	2.518994e+01	1.024452e+02
2.700000e-06	3.660729e-06	1.480733e-09	2.543710e+01	1.029991e+02
2.710000e-06	3.696115e-06	1.489347e-09	2.568298e+01	1.035424e+02
2.720000e-06	3.731276e-06	1.495941e-09	2.592731e+01	1.040757e+02
2.730000e-06	3.766074e-06	1.501210e-09	2.616910e+01	1.045995e+02
2.740000e-06	3.800458e-06	1.505579e-09	2.640803e+01	1.051142e+02
2.750000e-06	3.834502e-06	1.508396e-09	2.664459e+01	1.056202e+02
2.760000e-06	3.868082e-06	1.511849e-09	2.687792e+01	1.061178e+02
2.770000e-06	3.901073e-06	1.519113e-09	2.710716e+01	1.066070e+02
2.780000e-06	3.933643e-06	1.528213e-09	2.733348e+01	1.070878e+02
2.790000e-06	3.965970e-06	1.536937e-09	2.755811e+01	1.075603e+02
2.800000e-06	3.998096e-06	1.544543e-09	2.778134e+01	1.080242e+02
2.810000e-06	4.030043e-06	1.550606e-09	2.800333e+01	1.084792e+02
2.820000e-06	4.061864e-06	1.554558e-09	2.822444e+01	1.089251e+02
2.830000e-06	4.093536e-06	1.558022e-09	2.844452e+01	1.093614e+02
2.840000e-06	4.124924e-06	1.562542e-09	2.866262e+01	1.097876e+02
2.850000e-06	4.155967e-06	1.567594e-09	2.887833e+01	1.102033e+02
2.860000e-06	4.186691e-06	1.574203e-09	2.909182e+01	1.106078e+02
2.870000e-06	4.217117e-06	1.583677e-09	2.930324e+01	1.110007e+02
2.880000e-06	4.247262e-06	1.593288e-09	2.951270e+01	1.113814e+02
2.890000e-06	4.277126e-06	1.599183e-09	2.972022e+01	1.117493e+02
2.900000e-06	4.306714e-06	1.603238e-09	2.992582e+01	1.121039e+02
