# Temperatura_=_-8.7
# Concentracion g/m^3_=_1620.0
# C_Vs_to_Am_M_A/Vsm_=_65563218390.804596
# pendiente_HvsI_1/m_=_3716.3
# ordenada_HvsI_A/m_=_1297.0
# frecuencia_Hz_=_135110.07942068946

Tiempo_(s)	Campo_(V.s)	Magnetizacion_(V.s)	Campo_(kA/m)	Magnetizacion_(A/m)
0.000000e+00	-5.518732e-06	-1.384750e-09	-3.837416e+01	-8.940074e+01
1.000000e-08	-5.518965e-06	-1.384257e-09	-3.837578e+01	-8.934541e+01
2.000000e-08	-5.518959e-06	-1.386765e-09	-3.837574e+01	-8.929164e+01
3.000000e-08	-5.518632e-06	-1.388315e-09	-3.837347e+01	-8.923912e+01
4.000000e-08	-5.517911e-06	-1.385317e-09	-3.836846e+01	-8.918748e+01
5.000000e-08	-5.516747e-06	-1.380027e-09	-3.836036e+01	-8.913629e+01
6.000000e-08	-5.515045e-06	-1.364563e-09	-3.834852e+01	-8.908509e+01
7.000000e-08	-5.512815e-06	-1.347750e-09	-3.833302e+01	-8.903339e+01
8.000000e-08	-5.510005e-06	-1.362907e-09	-3.831348e+01	-8.898065e+01
9.000000e-08	-5.506531e-06	-1.417538e-09	-3.828933e+01	-8.892635e+01
1.000000e-07	-5.502522e-06	-1.437255e-09	-3.826145e+01	-8.886993e+01
1.100000e-07	-5.498166e-06	-1.372201e-09	-3.823116e+01	-8.881087e+01
1.200000e-07	-5.493628e-06	-1.315074e-09	-3.819960e+01	-8.874864e+01
1.300000e-07	-5.488961e-06	-1.339435e-09	-3.816715e+01	-8.868275e+01
1.400000e-07	-5.483935e-06	-1.366246e-09	-3.813220e+01	-8.861274e+01
1.500000e-07	-5.478401e-06	-1.341907e-09	-3.809372e+01	-8.853820e+01
1.600000e-07	-5.472565e-06	-1.326179e-09	-3.805314e+01	-8.845877e+01
1.700000e-07	-5.466413e-06	-1.382839e-09	-3.801036e+01	-8.837414e+01
1.800000e-07	-5.459782e-06	-1.395730e-09	-3.796426e+01	-8.828408e+01
1.900000e-07	-5.452719e-06	-1.365098e-09	-3.791515e+01	-8.818843e+01
2.000000e-07	-5.445361e-06	-1.318432e-09	-3.786398e+01	-8.808709e+01
2.100000e-07	-5.437740e-06	-1.327057e-09	-3.781099e+01	-8.798005e+01
2.200000e-07	-5.429837e-06	-1.333440e-09	-3.775603e+01	-8.786737e+01
2.300000e-07	-5.421734e-06	-1.335310e-09	-3.769970e+01	-8.774917e+01
2.400000e-07	-5.413287e-06	-1.331389e-09	-3.764096e+01	-8.762566e+01
2.500000e-07	-5.404274e-06	-1.331031e-09	-3.757828e+01	-8.749710e+01
2.600000e-07	-5.394495e-06	-1.325464e-09	-3.751029e+01	-8.736382e+01
2.700000e-07	-5.383998e-06	-1.307229e-09	-3.743730e+01	-8.722619e+01
2.800000e-07	-5.373012e-06	-1.292538e-09	-3.736091e+01	-8.708465e+01
2.900000e-07	-5.361570e-06	-1.292035e-09	-3.728135e+01	-8.693966e+01
3.000000e-07	-5.349720e-06	-1.301878e-09	-3.719895e+01	-8.679170e+01
3.100000e-07	-5.337507e-06	-1.285474e-09	-3.711403e+01	-8.664128e+01
3.200000e-07	-5.324885e-06	-1.282181e-09	-3.702626e+01	-8.648892e+01
3.300000e-07	-5.311784e-06	-1.287053e-09	-3.693516e+01	-8.633513e+01
3.400000e-07	-5.298310e-06	-1.302106e-09	-3.684147e+01	-8.618041e+01
3.500000e-07	-5.284383e-06	-1.277969e-09	-3.674463e+01	-8.602524e+01
3.600000e-07	-5.269900e-06	-1.280797e-09	-3.664393e+01	-8.587006e+01
3.700000e-07	-5.255255e-06	-1.296135e-09	-3.654209e+01	-8.571531e+01
3.800000e-07	-5.240276e-06	-1.295829e-09	-3.643794e+01	-8.556134e+01
3.900000e-07	-5.224583e-06	-1.265025e-09	-3.632882e+01	-8.540848e+01
4.000000e-07	-5.208286e-06	-1.281234e-09	-3.621550e+01	-8.525699e+01
4.100000e-07	-5.191581e-06	-1.293254e-09	-3.609934e+01	-8.510709e+01
4.200000e-07	-5.174668e-06	-1.265410e-09	-3.598173e+01	-8.495893e+01
4.300000e-07	-5.157449e-06	-1.261748e-09	-3.586200e+01	-8.481260e+01
4.400000e-07	-5.139894e-06	-1.305542e-09	-3.573993e+01	-8.466815e+01
4.500000e-07	-5.122046e-06	-1.293702e-09	-3.561583e+01	-8.452556e+01
4.600000e-07	-5.103801e-06	-1.261787e-09	-3.548896e+01	-8.438475e+01
4.700000e-07	-5.085129e-06	-1.278645e-09	-3.535913e+01	-8.424561e+01
4.800000e-07	-5.066063e-06	-1.289067e-09	-3.522656e+01	-8.410799e+01
4.900000e-07	-5.046595e-06	-1.254296e-09	-3.509118e+01	-8.397169e+01
5.000000e-07	-5.026835e-06	-1.256151e-09	-3.495379e+01	-8.383649e+01
5.100000e-07	-5.006932e-06	-1.276821e-09	-3.481539e+01	-8.370215e+01
5.200000e-07	-4.986813e-06	-1.252700e-09	-3.467550e+01	-8.356841e+01
5.300000e-07	-4.966353e-06	-1.250254e-09	-3.453323e+01	-8.343502e+01
5.400000e-07	-4.945610e-06	-1.289529e-09	-3.438900e+01	-8.330170e+01
5.500000e-07	-4.924566e-06	-1.277614e-09	-3.424267e+01	-8.316822e+01
5.600000e-07	-4.903087e-06	-1.241990e-09	-3.409332e+01	-8.303433e+01
5.700000e-07	-4.881261e-06	-1.261892e-09	-3.394155e+01	-8.289981e+01
5.800000e-07	-4.859115e-06	-1.267302e-09	-3.378756e+01	-8.276447e+01
5.900000e-07	-4.836581e-06	-1.237015e-09	-3.363087e+01	-8.262814e+01
6.000000e-07	-4.813666e-06	-1.242218e-09	-3.347153e+01	-8.249069e+01
6.100000e-07	-4.790499e-06	-1.260081e-09	-3.331044e+01	-8.235203e+01
6.200000e-07	-4.767064e-06	-1.231713e-09	-3.314748e+01	-8.221207e+01
6.300000e-07	-4.743323e-06	-1.223045e-09	-3.298240e+01	-8.207079e+01
6.400000e-07	-4.719386e-06	-1.241607e-09	-3.281596e+01	-8.192817e+01
6.500000e-07	-4.695174e-06	-1.238878e-09	-3.264760e+01	-8.178425e+01
6.600000e-07	-4.670599e-06	-1.227685e-09	-3.247672e+01	-8.163906e+01
6.700000e-07	-4.645533e-06	-1.243175e-09	-3.230243e+01	-8.149267e+01
6.800000e-07	-4.619866e-06	-1.236288e-09	-3.212395e+01	-8.134516e+01
6.900000e-07	-4.593672e-06	-1.215632e-09	-3.194182e+01	-8.119660e+01
7.000000e-07	-4.567026e-06	-1.215530e-09	-3.175653e+01	-8.104709e+01
7.100000e-07	-4.539933e-06	-1.220633e-09	-3.156815e+01	-8.089670e+01
7.200000e-07	-4.512487e-06	-1.208872e-09	-3.137730e+01	-8.074550e+01
7.300000e-07	-4.484797e-06	-1.215645e-09	-3.118476e+01	-8.059354e+01
7.400000e-07	-4.456946e-06	-1.227261e-09	-3.099110e+01	-8.044085e+01
7.500000e-07	-4.428982e-06	-1.219798e-09	-3.079666e+01	-8.028742e+01
7.600000e-07	-4.400769e-06	-1.210378e-09	-3.060048e+01	-8.013321e+01
7.700000e-07	-4.372227e-06	-1.212783e-09	-3.040201e+01	-7.997815e+01
7.800000e-07	-4.343366e-06	-1.201067e-09	-3.020133e+01	-7.982213e+01
7.900000e-07	-4.314202e-06	-1.189248e-09	-2.999854e+01	-7.966500e+01
8.000000e-07	-4.284741e-06	-1.193504e-09	-2.979368e+01	-7.950655e+01
8.100000e-07	-4.254954e-06	-1.191368e-09	-2.958656e+01	-7.934655e+01
8.200000e-07	-4.224902e-06	-1.179635e-09	-2.937759e+01	-7.918473e+01
8.300000e-07	-4.194603e-06	-1.181499e-09	-2.916691e+01	-7.902078e+01
8.400000e-07	-4.163955e-06	-1.186841e-09	-2.895381e+01	-7.885437e+01
8.500000e-07	-4.132977e-06	-1.181475e-09	-2.873840e+01	-7.868513e+01
8.600000e-07	-4.101729e-06	-1.182164e-09	-2.852112e+01	-7.851270e+01
8.700000e-07	-4.070221e-06	-1.182782e-09	-2.830203e+01	-7.833669e+01
8.800000e-07	-4.038512e-06	-1.169755e-09	-2.808154e+01	-7.815670e+01
8.900000e-07	-4.006683e-06	-1.156967e-09	-2.786022e+01	-7.797237e+01
9.000000e-07	-3.974693e-06	-1.156818e-09	-2.763778e+01	-7.778332e+01
9.100000e-07	-3.942444e-06	-1.151854e-09	-2.741354e+01	-7.758922e+01
9.200000e-07	-3.909858e-06	-1.148630e-09	-2.718696e+01	-7.738976e+01
9.300000e-07	-3.876913e-06	-1.154099e-09	-2.695787e+01	-7.718467e+01
9.400000e-07	-3.843581e-06	-1.155829e-09	-2.672610e+01	-7.697373e+01
9.500000e-07	-3.809723e-06	-1.146972e-09	-2.649068e+01	-7.675679e+01
9.600000e-07	-3.775354e-06	-1.144095e-09	-2.625169e+01	-7.653373e+01
9.700000e-07	-3.740620e-06	-1.138455e-09	-2.601017e+01	-7.630451e+01
9.800000e-07	-3.705558e-06	-1.125814e-09	-2.576637e+01	-7.606916e+01
9.900000e-07	-3.670202e-06	-1.117582e-09	-2.552052e+01	-7.582777e+01
1.000000e-06	-3.634633e-06	-1.120718e-09	-2.527320e+01	-7.558048e+01
1.010000e-06	-3.598900e-06	-1.117436e-09	-2.502473e+01	-7.532753e+01
1.020000e-06	-3.563004e-06	-1.111157e-09	-2.477513e+01	-7.506920e+01
1.030000e-06	-3.526935e-06	-1.108158e-09	-2.452432e+01	-7.480582e+01
1.040000e-06	-3.490720e-06	-1.103204e-09	-2.427251e+01	-7.453779e+01
1.050000e-06	-3.454286e-06	-1.096028e-09	-2.401916e+01	-7.426552e+01
1.060000e-06	-3.417603e-06	-1.094593e-09	-2.376409e+01	-7.398949e+01
1.070000e-06	-3.380695e-06	-1.091475e-09	-2.350746e+01	-7.371018e+01
1.080000e-06	-3.343501e-06	-1.082573e-09	-2.324883e+01	-7.342808e+01
1.090000e-06	-3.306023e-06	-1.075194e-09	-2.298823e+01	-7.314368e+01
1.100000e-06	-3.268285e-06	-1.070328e-09	-2.272582e+01	-7.285748e+01
1.110000e-06	-3.230352e-06	-1.062065e-09	-2.246205e+01	-7.256992e+01
1.120000e-06	-3.192239e-06	-1.053613e-09	-2.219704e+01	-7.228144e+01
1.130000e-06	-3.153888e-06	-1.048995e-09	-2.193037e+01	-7.199241e+01
1.140000e-06	-3.115365e-06	-1.043719e-09	-2.166250e+01	-7.170314e+01
1.150000e-06	-3.076613e-06	-1.040376e-09	-2.139304e+01	-7.141388e+01
1.160000e-06	-3.037634e-06	-1.041734e-09	-2.112200e+01	-7.112482e+01
1.170000e-06	-2.998530e-06	-1.040310e-09	-2.085009e+01	-7.083604e+01
1.180000e-06	-2.959186e-06	-1.032560e-09	-2.057652e+01	-7.054754e+01
1.190000e-06	-2.919611e-06	-1.026039e-09	-2.030134e+01	-7.025923e+01
1.200000e-06	-2.879931e-06	-1.019087e-09	-2.002542e+01	-6.997092e+01
1.210000e-06	-2.840153e-06	-1.009822e-09	-1.974883e+01	-6.968233e+01
1.220000e-06	-2.800278e-06	-1.003352e-09	-1.947156e+01	-6.939308e+01
1.230000e-06	-2.760226e-06	-1.001886e-09	-1.919306e+01	-6.910271e+01
1.240000e-06	-2.719936e-06	-9.964748e-10	-1.891291e+01	-6.881067e+01
1.250000e-06	-2.679481e-06	-9.907493e-10	-1.863161e+01	-6.851633e+01
1.260000e-06	-2.638876e-06	-9.877056e-10	-1.834926e+01	-6.821899e+01
1.270000e-06	-2.598076e-06	-9.832797e-10	-1.806556e+01	-6.791789e+01
1.280000e-06	-2.557000e-06	-9.722308e-10	-1.777994e+01	-6.761224e+01
1.290000e-06	-2.515632e-06	-9.622747e-10	-1.749229e+01	-6.730119e+01
1.300000e-06	-2.473953e-06	-9.551548e-10	-1.720248e+01	-6.698390e+01
1.310000e-06	-2.431976e-06	-9.481997e-10	-1.691060e+01	-6.665949e+01
1.320000e-06	-2.389716e-06	-9.429302e-10	-1.661674e+01	-6.632710e+01
1.330000e-06	-2.347207e-06	-9.404304e-10	-1.632116e+01	-6.598591e+01
1.340000e-06	-2.304482e-06	-9.371411e-10	-1.602407e+01	-6.563510e+01
1.350000e-06	-2.261392e-06	-9.323071e-10	-1.572445e+01	-6.527393e+01
1.360000e-06	-2.218003e-06	-9.272617e-10	-1.542275e+01	-6.490169e+01
1.370000e-06	-2.174470e-06	-9.217701e-10	-1.512004e+01	-6.451776e+01
1.380000e-06	-2.130819e-06	-9.146999e-10	-1.481652e+01	-6.412159e+01
1.390000e-06	-2.087078e-06	-9.055163e-10	-1.451237e+01	-6.371272e+01
1.400000e-06	-2.043296e-06	-8.931028e-10	-1.420793e+01	-6.329078e+01
1.410000e-06	-1.999484e-06	-8.803273e-10	-1.390329e+01	-6.285548e+01
1.420000e-06	-1.955570e-06	-8.703795e-10	-1.359794e+01	-6.240665e+01
1.430000e-06	-1.911550e-06	-8.638223e-10	-1.329184e+01	-6.194420e+01
1.440000e-06	-1.867432e-06	-8.587678e-10	-1.298507e+01	-6.146814e+01
1.450000e-06	-1.823277e-06	-8.526848e-10	-1.267804e+01	-6.097857e+01
1.460000e-06	-1.779037e-06	-8.460152e-10	-1.237043e+01	-6.047565e+01
1.470000e-06	-1.734630e-06	-8.356728e-10	-1.206165e+01	-5.995963e+01
1.480000e-06	-1.690089e-06	-8.226307e-10	-1.175193e+01	-5.943081e+01
1.490000e-06	-1.645401e-06	-8.108435e-10	-1.144119e+01	-5.888954e+01
1.500000e-06	-1.600594e-06	-7.985093e-10	-1.112963e+01	-5.833621e+01
1.510000e-06	-1.555638e-06	-7.843212e-10	-1.081704e+01	-5.777121e+01
1.520000e-06	-1.510508e-06	-7.732139e-10	-1.050323e+01	-5.719493e+01
1.530000e-06	-1.465273e-06	-7.649495e-10	-1.018868e+01	-5.660778e+01
1.540000e-06	-1.419959e-06	-7.586872e-10	-9.873595e+00	-5.601009e+01
1.550000e-06	-1.374573e-06	-7.526781e-10	-9.558006e+00	-5.540217e+01
1.560000e-06	-1.329111e-06	-7.432812e-10	-9.241891e+00	-5.478427e+01
1.570000e-06	-1.283573e-06	-7.272283e-10	-8.925248e+00	-5.415653e+01
1.580000e-06	-1.237915e-06	-7.083083e-10	-8.607764e+00	-5.351904e+01
1.590000e-06	-1.192157e-06	-6.907671e-10	-8.289591e+00	-5.287173e+01
1.600000e-06	-1.146347e-06	-6.754474e-10	-7.971051e+00	-5.221445e+01
1.610000e-06	-1.100432e-06	-6.639816e-10	-7.651785e+00	-5.154692e+01
1.620000e-06	-1.054443e-06	-6.575912e-10	-7.332004e+00	-5.086870e+01
1.630000e-06	-1.008394e-06	-6.537086e-10	-7.011806e+00	-5.017923e+01
1.640000e-06	-9.622708e-07	-6.473380e-10	-6.691091e+00	-4.947780e+01
1.650000e-06	-9.160256e-07	-6.366681e-10	-6.369527e+00	-4.876355e+01
1.660000e-06	-8.697031e-07	-6.235203e-10	-6.047427e+00	-4.803550e+01
1.670000e-06	-8.233858e-07	-6.095481e-10	-5.725362e+00	-4.729252e+01
1.680000e-06	-7.771402e-07	-5.962421e-10	-5.403796e+00	-4.653333e+01
1.690000e-06	-7.308913e-07	-5.834734e-10	-5.082207e+00	-4.575657e+01
1.700000e-06	-6.845030e-07	-5.706010e-10	-4.759649e+00	-4.496075e+01
1.710000e-06	-6.379856e-07	-5.563104e-10	-4.436194e+00	-4.414428e+01
1.720000e-06	-5.914117e-07	-5.411602e-10	-4.112344e+00	-4.330551e+01
1.730000e-06	-5.448271e-07	-5.259808e-10	-3.788422e+00	-4.244272e+01
1.740000e-06	-4.982008e-07	-5.121058e-10	-3.464209e+00	-4.155415e+01
1.750000e-06	-4.515369e-07	-4.986217e-10	-3.139734e+00	-4.063802e+01
1.760000e-06	-4.048324e-07	-4.832620e-10	-2.814977e+00	-3.969256e+01
1.770000e-06	-3.581627e-07	-4.672474e-10	-2.490462e+00	-3.871600e+01
1.780000e-06	-3.114896e-07	-4.527271e-10	-2.165924e+00	-3.770664e+01
1.790000e-06	-2.646481e-07	-4.399924e-10	-1.840214e+00	-3.666283e+01
1.800000e-06	-2.177468e-07	-4.262118e-10	-1.514089e+00	-3.558302e+01
1.810000e-06	-1.708895e-07	-4.105269e-10	-1.188269e+00	-3.446575e+01
1.820000e-06	-1.239170e-07	-3.947012e-10	-8.616492e-01	-3.330971e+01
1.830000e-06	-7.692509e-08	-3.786764e-10	-5.348939e-01	-3.211373e+01
1.840000e-06	-3.006551e-08	-3.617454e-10	-2.090586e-01	-3.087680e+01
1.850000e-06	1.680103e-08	-3.451548e-10	1.168249e-01	-2.959810e+01
1.860000e-06	6.362221e-08	-3.298702e-10	4.423931e-01	-2.827701e+01
1.870000e-06	1.103589e-07	-3.150519e-10	7.673738e-01	-2.691311e+01
1.880000e-06	1.571001e-07	-2.980041e-10	1.092386e+00	-2.550618e+01
1.890000e-06	2.038891e-07	-2.786219e-10	1.417731e+00	-2.405627e+01
1.900000e-06	2.507521e-07	-2.547493e-10	1.743589e+00	-2.256361e+01
1.910000e-06	2.975868e-07	-2.294707e-10	2.069251e+00	-2.102870e+01
1.920000e-06	3.443901e-07	-2.051175e-10	2.394695e+00	-1.945225e+01
1.930000e-06	3.911243e-07	-1.818947e-10	2.719659e+00	-1.783522e+01
1.940000e-06	4.377835e-07	-1.614124e-10	3.044101e+00	-1.617878e+01
1.950000e-06	4.844261e-07	-1.427603e-10	3.368427e+00	-1.448434e+01
1.960000e-06	5.310109e-07	-1.244837e-10	3.692352e+00	-1.275351e+01
1.970000e-06	5.775604e-07	-1.027707e-10	4.016031e+00	-1.098811e+01
1.980000e-06	6.241075e-07	-7.749619e-11	4.339693e+00	-9.190145e+00
1.990000e-06	6.705536e-07	-4.983604e-11	4.662653e+00	-7.361800e+00
2.000000e-06	7.168783e-07	-1.875871e-11	4.984769e+00	-5.505421e+00
2.010000e-06	7.632198e-07	1.123443e-11	5.307002e+00	-3.623501e+00
2.020000e-06	8.095311e-07	3.897855e-11	5.629025e+00	-1.718662e+00
2.030000e-06	8.557573e-07	6.555684e-11	5.950456e+00	2.063684e-01
2.040000e-06	9.019666e-07	8.916448e-11	6.271769e+00	2.148768e+00
2.050000e-06	9.480774e-07	1.117204e-10	6.592398e+00	4.105644e+00
2.060000e-06	9.940885e-07	1.342009e-10	6.912333e+00	6.074054e+00
2.070000e-06	1.040074e-06	1.610574e-10	7.232093e+00	8.051020e+00
2.080000e-06	1.086056e-06	1.894743e-10	7.551823e+00	1.003355e+01
2.090000e-06	1.131978e-06	2.191401e-10	7.871138e+00	1.201867e+01
2.100000e-06	1.177746e-06	2.494195e-10	8.189382e+00	1.400342e+01
2.110000e-06	1.223437e-06	2.793545e-10	8.507096e+00	1.598487e+01
2.120000e-06	1.269057e-06	3.081302e-10	8.824311e+00	1.796018e+01
2.130000e-06	1.314590e-06	3.357832e-10	9.140923e+00	1.992656e+01
2.140000e-06	1.360055e-06	3.618873e-10	9.457059e+00	2.188132e+01
2.150000e-06	1.405391e-06	3.851680e-10	9.772302e+00	2.382187e+01
2.160000e-06	1.450606e-06	4.072178e-10	1.008670e+01	2.574574e+01
2.170000e-06	1.495727e-06	4.297105e-10	1.040045e+01	2.765059e+01
2.180000e-06	1.540699e-06	4.546557e-10	1.071316e+01	2.953420e+01
2.190000e-06	1.585578e-06	4.839324e-10	1.102522e+01	3.139452e+01
2.200000e-06	1.630372e-06	5.149557e-10	1.133669e+01	3.322961e+01
2.210000e-06	1.675027e-06	5.453438e-10	1.164719e+01	3.503774e+01
2.220000e-06	1.719487e-06	5.729700e-10	1.195635e+01	3.681729e+01
2.230000e-06	1.763795e-06	5.941065e-10	1.226444e+01	3.856682e+01
2.240000e-06	1.808053e-06	6.107499e-10	1.257218e+01	4.028507e+01
2.250000e-06	1.852203e-06	6.231171e-10	1.287918e+01	4.197090e+01
2.260000e-06	1.896276e-06	6.374815e-10	1.318564e+01	4.362335e+01
2.270000e-06	1.940232e-06	6.589003e-10	1.349128e+01	4.524163e+01
2.280000e-06	1.984087e-06	6.855801e-10	1.379623e+01	4.682508e+01
2.290000e-06	2.027925e-06	7.134037e-10	1.410105e+01	4.837318e+01
2.300000e-06	2.071696e-06	7.395654e-10	1.440541e+01	4.988556e+01
2.310000e-06	2.115381e-06	7.610753e-10	1.470917e+01	5.136197e+01
2.320000e-06	2.158969e-06	7.778740e-10	1.501226e+01	5.280229e+01
2.330000e-06	2.202460e-06	7.907071e-10	1.531467e+01	5.420651e+01
2.340000e-06	2.245805e-06	8.035752e-10	1.561607e+01	5.557473e+01
2.350000e-06	2.288922e-06	8.190883e-10	1.591588e+01	5.690712e+01
2.360000e-06	2.331788e-06	8.389729e-10	1.621395e+01	5.820395e+01
2.370000e-06	2.374423e-06	8.604174e-10	1.651040e+01	5.946556e+01
2.380000e-06	2.416830e-06	8.817206e-10	1.680528e+01	6.069237e+01
2.390000e-06	2.458909e-06	9.012033e-10	1.709787e+01	6.188482e+01
2.400000e-06	2.500571e-06	9.175097e-10	1.738757e+01	6.304341e+01
2.410000e-06	2.541894e-06	9.311440e-10	1.767490e+01	6.416869e+01
2.420000e-06	2.583064e-06	9.416209e-10	1.796117e+01	6.526121e+01
2.430000e-06	2.624021e-06	9.515020e-10	1.824597e+01	6.632154e+01
2.440000e-06	2.664678e-06	9.647243e-10	1.852867e+01	6.735029e+01
2.450000e-06	2.705114e-06	9.805631e-10	1.880984e+01	6.834803e+01
2.460000e-06	2.745386e-06	9.974190e-10	1.908987e+01	6.931537e+01
2.470000e-06	2.785487e-06	1.013353e-09	1.936871e+01	7.025289e+01
2.480000e-06	2.825456e-06	1.025042e-09	1.964663e+01	7.116115e+01
2.490000e-06	2.865333e-06	1.034139e-09	1.992391e+01	7.204073e+01
2.500000e-06	2.905034e-06	1.042611e-09	2.019997e+01	7.289216e+01
2.510000e-06	2.944580e-06	1.053743e-09	2.047496e+01	7.371598e+01
2.520000e-06	2.983982e-06	1.067067e-09	2.074894e+01	7.451270e+01
2.530000e-06	3.023172e-06	1.080296e-09	2.102144e+01	7.528281e+01
2.540000e-06	3.062077e-06	1.093229e-09	2.129197e+01	7.602678e+01
2.550000e-06	3.100744e-06	1.104753e-09	2.156083e+01	7.674510e+01
2.560000e-06	3.139172e-06	1.111977e-09	2.182804e+01	7.743821e+01
2.570000e-06	3.177367e-06	1.116270e-09	2.209363e+01	7.810656e+01
2.580000e-06	3.215424e-06	1.121748e-09	2.235825e+01	7.875060e+01
2.590000e-06	3.253318e-06	1.128541e-09	2.262175e+01	7.937076e+01
2.600000e-06	3.291076e-06	1.137946e-09	2.288429e+01	7.996749e+01
2.610000e-06	3.328622e-06	1.152439e-09	2.314537e+01	8.054124e+01
2.620000e-06	3.365885e-06	1.168369e-09	2.340447e+01	8.109248e+01
2.630000e-06	3.402875e-06	1.180782e-09	2.366168e+01	8.162167e+01
2.640000e-06	3.439494e-06	1.186894e-09	2.391631e+01	8.212931e+01
2.650000e-06	3.475823e-06	1.189212e-09	2.416892e+01	8.261589e+01
2.660000e-06	3.512010e-06	1.189398e-09	2.442054e+01	8.308196e+01
2.670000e-06	3.548068e-06	1.190085e-09	2.467127e+01	8.352806e+01
2.680000e-06	3.584011e-06	1.193396e-09	2.492120e+01	8.395476e+01
2.690000e-06	3.619824e-06	1.200325e-09	2.517022e+01	8.436266e+01
2.700000e-06	3.655482e-06	1.211641e-09	2.541817e+01	8.475238e+01
2.710000e-06	3.691000e-06	1.221919e-09	2.566514e+01	8.512455e+01
2.720000e-06	3.726208e-06	1.227617e-09	2.590996e+01	8.547984e+01
2.730000e-06	3.760985e-06	1.230763e-09	2.615178e+01	8.581892e+01
2.740000e-06	3.795351e-06	1.232109e-09	2.639074e+01	8.614247e+01
2.750000e-06	3.829243e-06	1.231929e-09	2.662640e+01	8.645118e+01
2.760000e-06	3.862728e-06	1.232516e-09	2.685924e+01	8.674577e+01
2.770000e-06	3.895801e-06	1.236641e-09	2.708921e+01	8.702692e+01
2.780000e-06	3.928505e-06	1.244114e-09	2.731661e+01	8.729533e+01
2.790000e-06	3.960900e-06	1.253590e-09	2.754187e+01	8.755168e+01
2.800000e-06	3.993019e-06	1.264179e-09	2.776521e+01	8.779663e+01
2.810000e-06	4.024959e-06	1.271779e-09	2.798730e+01	8.803083e+01
2.820000e-06	4.056685e-06	1.274220e-09	2.820791e+01	8.825490e+01
2.830000e-06	4.088196e-06	1.275652e-09	2.842702e+01	8.846942e+01
2.840000e-06	4.119526e-06	1.277461e-09	2.864487e+01	8.867494e+01
2.850000e-06	4.150580e-06	1.276638e-09	2.886081e+01	8.887196e+01
2.860000e-06	4.181284e-06	1.278179e-09	2.907430e+01	8.906096e+01
2.870000e-06	4.211699e-06	1.285113e-09	2.928579e+01	8.924236e+01
2.880000e-06	4.241820e-06	1.292341e-09	2.949523e+01	8.941652e+01
2.890000e-06	4.271655e-06	1.297610e-09	2.970269e+01	8.958377e+01
2.900000e-06	4.301255e-06	1.301692e-09	2.990851e+01	8.974440e+01
