# Temperatura_=_14.46
# Concentracion g/m^3_=_1620.0
# C_Vs_to_Am_M_A/Vsm_=_65563218390.804596
# pendiente_HvsI_1/m_=_3716.3
# ordenada_HvsI_A/m_=_1297.0
# frecuencia_Hz_=_135106.4053590501

Tiempo_(s)	Campo_(V.s)	Magnetizacion_(V.s)	Campo_(kA/m)	Magnetizacion_(A/m)
0.000000e+00	-5.517009e-06	-1.877735e-09	-3.836917e+01	-1.212150e+02
1.000000e-08	-5.517195e-06	-1.875791e-09	-3.837046e+01	-1.211534e+02
2.000000e-08	-5.517126e-06	-1.874987e-09	-3.836998e+01	-1.210871e+02
3.000000e-08	-5.516734e-06	-1.875421e-09	-3.836725e+01	-1.210161e+02
4.000000e-08	-5.515944e-06	-1.875112e-09	-3.836176e+01	-1.209406e+02
5.000000e-08	-5.514715e-06	-1.872370e-09	-3.835321e+01	-1.208608e+02
6.000000e-08	-5.512965e-06	-1.873523e-09	-3.834104e+01	-1.207769e+02
7.000000e-08	-5.510640e-06	-1.878226e-09	-3.832487e+01	-1.206891e+02
8.000000e-08	-5.507625e-06	-1.879521e-09	-3.830391e+01	-1.205978e+02
9.000000e-08	-5.503970e-06	-1.862801e-09	-3.827849e+01	-1.205031e+02
1.000000e-07	-5.499900e-06	-1.845835e-09	-3.825018e+01	-1.204055e+02
1.100000e-07	-5.495566e-06	-1.842910e-09	-3.822004e+01	-1.203051e+02
1.200000e-07	-5.491025e-06	-1.902520e-09	-3.818846e+01	-1.202024e+02
1.300000e-07	-5.486194e-06	-1.861961e-09	-3.815486e+01	-1.200974e+02
1.400000e-07	-5.480989e-06	-1.820138e-09	-3.811866e+01	-1.199906e+02
1.500000e-07	-5.475400e-06	-1.816323e-09	-3.807979e+01	-1.198822e+02
1.600000e-07	-5.469460e-06	-1.888234e-09	-3.803848e+01	-1.197724e+02
1.700000e-07	-5.463124e-06	-1.890364e-09	-3.799441e+01	-1.196613e+02
1.800000e-07	-5.456340e-06	-1.788306e-09	-3.794723e+01	-1.195491e+02
1.900000e-07	-5.449254e-06	-1.789763e-09	-3.789795e+01	-1.194360e+02
2.000000e-07	-5.441878e-06	-1.839780e-09	-3.784665e+01	-1.193219e+02
2.100000e-07	-5.434211e-06	-1.880357e-09	-3.779333e+01	-1.192069e+02
2.200000e-07	-5.426372e-06	-1.824092e-09	-3.773881e+01	-1.190909e+02
2.300000e-07	-5.418317e-06	-1.837128e-09	-3.768279e+01	-1.189739e+02
2.400000e-07	-5.409795e-06	-1.854707e-09	-3.762352e+01	-1.188556e+02
2.500000e-07	-5.400582e-06	-1.865430e-09	-3.755945e+01	-1.187360e+02
2.600000e-07	-5.390670e-06	-1.811717e-09	-3.749051e+01	-1.186148e+02
2.700000e-07	-5.380152e-06	-1.809952e-09	-3.741737e+01	-1.184916e+02
2.800000e-07	-5.369058e-06	-1.823819e-09	-3.734021e+01	-1.183663e+02
2.900000e-07	-5.357569e-06	-1.843942e-09	-3.726031e+01	-1.182384e+02
3.000000e-07	-5.345754e-06	-1.819210e-09	-3.717814e+01	-1.181077e+02
3.100000e-07	-5.333511e-06	-1.808632e-09	-3.709299e+01	-1.179737e+02
3.200000e-07	-5.320862e-06	-1.810617e-09	-3.700502e+01	-1.178360e+02
3.300000e-07	-5.307857e-06	-1.812388e-09	-3.691457e+01	-1.176943e+02
3.400000e-07	-5.294458e-06	-1.791229e-09	-3.682139e+01	-1.175481e+02
3.500000e-07	-5.280627e-06	-1.772172e-09	-3.672520e+01	-1.173971e+02
3.600000e-07	-5.266342e-06	-1.799131e-09	-3.662585e+01	-1.172409e+02
3.700000e-07	-5.251657e-06	-1.816715e-09	-3.652372e+01	-1.170792e+02
3.800000e-07	-5.236520e-06	-1.795078e-09	-3.641845e+01	-1.169116e+02
3.900000e-07	-5.220755e-06	-1.781315e-09	-3.630881e+01	-1.167379e+02
4.000000e-07	-5.204512e-06	-1.803778e-09	-3.619585e+01	-1.165578e+02
4.100000e-07	-5.187982e-06	-1.762830e-09	-3.608088e+01	-1.163711e+02
4.200000e-07	-5.171061e-06	-1.740396e-09	-3.596320e+01	-1.161777e+02
4.300000e-07	-5.153767e-06	-1.784464e-09	-3.584293e+01	-1.159775e+02
4.400000e-07	-5.136248e-06	-1.802553e-09	-3.572109e+01	-1.157703e+02
4.500000e-07	-5.118354e-06	-1.726778e-09	-3.559664e+01	-1.155563e+02
4.600000e-07	-5.099997e-06	-1.753054e-09	-3.546897e+01	-1.153354e+02
4.700000e-07	-5.081307e-06	-1.802918e-09	-3.533899e+01	-1.151077e+02
4.800000e-07	-5.062243e-06	-1.750465e-09	-3.520640e+01	-1.148733e+02
4.900000e-07	-5.042750e-06	-1.699433e-09	-3.507083e+01	-1.146325e+02
5.000000e-07	-5.022994e-06	-1.766206e-09	-3.493344e+01	-1.143854e+02
5.100000e-07	-5.003016e-06	-1.741699e-09	-3.479449e+01	-1.141323e+02
5.200000e-07	-4.982729e-06	-1.678554e-09	-3.465341e+01	-1.138734e+02
5.300000e-07	-4.962198e-06	-1.722400e-09	-3.451062e+01	-1.136091e+02
5.400000e-07	-4.941382e-06	-1.761418e-09	-3.436585e+01	-1.133397e+02
5.500000e-07	-4.920133e-06	-1.686488e-09	-3.421807e+01	-1.130655e+02
5.600000e-07	-4.898500e-06	-1.698609e-09	-3.406762e+01	-1.127868e+02
5.700000e-07	-4.876597e-06	-1.754479e-09	-3.391529e+01	-1.125041e+02
5.800000e-07	-4.854407e-06	-1.702701e-09	-3.376097e+01	-1.122176e+02
5.900000e-07	-4.831884e-06	-1.658308e-09	-3.360432e+01	-1.119276e+02
6.000000e-07	-4.809010e-06	-1.708529e-09	-3.344524e+01	-1.116346e+02
6.100000e-07	-4.785819e-06	-1.691739e-09	-3.328395e+01	-1.113387e+02
6.200000e-07	-4.762348e-06	-1.638966e-09	-3.312072e+01	-1.110404e+02
6.300000e-07	-4.738639e-06	-1.671993e-09	-3.295584e+01	-1.107398e+02
6.400000e-07	-4.714676e-06	-1.691696e-09	-3.278918e+01	-1.104372e+02
6.500000e-07	-4.690342e-06	-1.652001e-09	-3.261994e+01	-1.101327e+02
6.600000e-07	-4.665544e-06	-1.651981e-09	-3.244748e+01	-1.098266e+02
6.700000e-07	-4.640331e-06	-1.671582e-09	-3.227213e+01	-1.095190e+02
6.800000e-07	-4.614722e-06	-1.637244e-09	-3.209403e+01	-1.092100e+02
6.900000e-07	-4.588587e-06	-1.621872e-09	-3.191227e+01	-1.088997e+02
7.000000e-07	-4.561897e-06	-1.636712e-09	-3.172665e+01	-1.085880e+02
7.100000e-07	-4.534760e-06	-1.632639e-09	-3.153792e+01	-1.082750e+02
7.200000e-07	-4.507344e-06	-1.612529e-09	-3.134724e+01	-1.079606e+02
7.300000e-07	-4.479758e-06	-1.622481e-09	-3.115539e+01	-1.076448e+02
7.400000e-07	-4.451977e-06	-1.618810e-09	-3.096218e+01	-1.073275e+02
7.500000e-07	-4.423937e-06	-1.602150e-09	-3.076718e+01	-1.070085e+02
7.600000e-07	-4.395639e-06	-1.591038e-09	-3.057037e+01	-1.066877e+02
7.700000e-07	-4.367024e-06	-1.595807e-09	-3.037136e+01	-1.063648e+02
7.800000e-07	-4.338059e-06	-1.585797e-09	-3.016992e+01	-1.060398e+02
7.900000e-07	-4.308795e-06	-1.581541e-09	-2.996640e+01	-1.057124e+02
8.000000e-07	-4.279288e-06	-1.579560e-09	-2.976119e+01	-1.053823e+02
8.100000e-07	-4.249535e-06	-1.577166e-09	-2.955426e+01	-1.050493e+02
8.200000e-07	-4.219420e-06	-1.565109e-09	-2.934482e+01	-1.047132e+02
8.300000e-07	-4.188975e-06	-1.561645e-09	-2.913309e+01	-1.043736e+02
8.400000e-07	-4.158290e-06	-1.553753e-09	-2.891968e+01	-1.040303e+02
8.500000e-07	-4.127349e-06	-1.549719e-09	-2.870449e+01	-1.036831e+02
8.600000e-07	-4.096152e-06	-1.552852e-09	-2.848753e+01	-1.033316e+02
8.700000e-07	-4.064721e-06	-1.552555e-09	-2.826893e+01	-1.029757e+02
8.800000e-07	-4.033132e-06	-1.539040e-09	-2.804924e+01	-1.026150e+02
8.900000e-07	-4.001375e-06	-1.530290e-09	-2.782838e+01	-1.022494e+02
9.000000e-07	-3.969355e-06	-1.524280e-09	-2.760569e+01	-1.018786e+02
9.100000e-07	-3.937035e-06	-1.512969e-09	-2.738091e+01	-1.015024e+02
9.200000e-07	-3.904353e-06	-1.505343e-09	-2.715362e+01	-1.011206e+02
9.300000e-07	-3.871342e-06	-1.504457e-09	-2.692404e+01	-1.007331e+02
9.400000e-07	-3.838033e-06	-1.495940e-09	-2.669239e+01	-1.003397e+02
9.500000e-07	-3.804297e-06	-1.486615e-09	-2.645776e+01	-9.994028e+01
9.600000e-07	-3.770090e-06	-1.486537e-09	-2.621986e+01	-9.953481e+01
9.700000e-07	-3.735421e-06	-1.476135e-09	-2.597875e+01	-9.912322e+01
9.800000e-07	-3.700350e-06	-1.461608e-09	-2.573484e+01	-9.870547e+01
9.900000e-07	-3.664993e-06	-1.455923e-09	-2.548895e+01	-9.828157e+01
1.000000e-06	-3.629466e-06	-1.455164e-09	-2.524187e+01	-9.785156e+01
1.010000e-06	-3.593822e-06	-1.442269e-09	-2.499397e+01	-9.741550e+01
1.020000e-06	-3.557996e-06	-1.434570e-09	-2.474481e+01	-9.697348e+01
1.030000e-06	-3.521986e-06	-1.429500e-09	-2.449437e+01	-9.652563e+01
1.040000e-06	-3.485815e-06	-1.420499e-09	-2.424281e+01	-9.607209e+01
1.050000e-06	-3.449414e-06	-1.410308e-09	-2.398966e+01	-9.561302e+01
1.060000e-06	-3.412767e-06	-1.410777e-09	-2.373479e+01	-9.514862e+01
1.070000e-06	-3.375821e-06	-1.401687e-09	-2.347784e+01	-9.467907e+01
1.080000e-06	-3.338589e-06	-1.386050e-09	-2.321890e+01	-9.420460e+01
1.090000e-06	-3.301114e-06	-1.374427e-09	-2.295827e+01	-9.372542e+01
1.100000e-06	-3.263373e-06	-1.367350e-09	-2.269579e+01	-9.324174e+01
1.110000e-06	-3.225437e-06	-1.354014e-09	-2.243196e+01	-9.275377e+01
1.120000e-06	-3.187344e-06	-1.345279e-09	-2.216703e+01	-9.226172e+01
1.130000e-06	-3.149068e-06	-1.338725e-09	-2.190084e+01	-9.176577e+01
1.140000e-06	-3.110516e-06	-1.328687e-09	-2.163272e+01	-9.126606e+01
1.150000e-06	-3.071654e-06	-1.318455e-09	-2.136244e+01	-9.076274e+01
1.160000e-06	-3.032689e-06	-1.315594e-09	-2.109145e+01	-9.025589e+01
1.170000e-06	-2.993672e-06	-1.308523e-09	-2.082011e+01	-8.974557e+01
1.180000e-06	-2.954401e-06	-1.296270e-09	-2.054698e+01	-8.923177e+01
1.190000e-06	-2.914839e-06	-1.287402e-09	-2.027184e+01	-8.871445e+01
1.200000e-06	-2.875184e-06	-1.278400e-09	-1.999605e+01	-8.819351e+01
1.210000e-06	-2.835491e-06	-1.263561e-09	-1.972000e+01	-8.766879e+01
1.220000e-06	-2.795653e-06	-1.250123e-09	-1.944294e+01	-8.714007e+01
1.230000e-06	-2.755625e-06	-1.242923e-09	-1.916455e+01	-8.660706e+01
1.240000e-06	-2.715370e-06	-1.233324e-09	-1.888459e+01	-8.606942e+01
1.250000e-06	-2.674895e-06	-1.223982e-09	-1.860310e+01	-8.552674e+01
1.260000e-06	-2.634192e-06	-1.218736e-09	-1.832002e+01	-8.497857e+01
1.270000e-06	-2.593278e-06	-1.213289e-09	-1.803548e+01	-8.442439e+01
1.280000e-06	-2.552043e-06	-1.201718e-09	-1.774871e+01	-8.386362e+01
1.290000e-06	-2.510453e-06	-1.191356e-09	-1.745946e+01	-8.329566e+01
1.300000e-06	-2.468583e-06	-1.181452e-09	-1.716827e+01	-8.271985e+01
1.310000e-06	-2.426423e-06	-1.167536e-09	-1.687505e+01	-8.213553e+01
1.320000e-06	-2.383914e-06	-1.153150e-09	-1.657942e+01	-8.154198e+01
1.330000e-06	-2.341177e-06	-1.143723e-09	-1.628219e+01	-8.093851e+01
1.340000e-06	-2.298321e-06	-1.135577e-09	-1.598415e+01	-8.032441e+01
1.350000e-06	-2.255213e-06	-1.129880e-09	-1.568434e+01	-7.969896e+01
1.360000e-06	-2.211809e-06	-1.126367e-09	-1.538248e+01	-7.906150e+01
1.370000e-06	-2.168207e-06	-1.122865e-09	-1.507924e+01	-7.841137e+01
1.380000e-06	-2.124540e-06	-1.112055e-09	-1.477555e+01	-7.774795e+01
1.390000e-06	-2.080845e-06	-1.098338e-09	-1.447166e+01	-7.707070e+01
1.400000e-06	-2.037099e-06	-1.081503e-09	-1.416742e+01	-7.637910e+01
1.410000e-06	-1.993255e-06	-1.064304e-09	-1.386250e+01	-7.567271e+01
1.420000e-06	-1.949306e-06	-1.049859e-09	-1.355685e+01	-7.495117e+01
1.430000e-06	-1.905329e-06	-1.040693e-09	-1.325100e+01	-7.421418e+01
1.440000e-06	-1.861280e-06	-1.032465e-09	-1.294465e+01	-7.346152e+01
1.450000e-06	-1.817105e-06	-1.023127e-09	-1.263743e+01	-7.269307e+01
1.460000e-06	-1.772845e-06	-1.013390e-09	-1.232961e+01	-7.190876e+01
1.470000e-06	-1.728439e-06	-1.001818e-09	-1.202078e+01	-7.110861e+01
1.480000e-06	-1.683782e-06	-9.863169e-10	-1.171021e+01	-7.029271e+01
1.490000e-06	-1.638999e-06	-9.695861e-10	-1.139875e+01	-6.946121e+01
1.500000e-06	-1.594168e-06	-9.521875e-10	-1.108697e+01	-6.861431e+01
1.510000e-06	-1.549241e-06	-9.353564e-10	-1.077451e+01	-6.775228e+01
1.520000e-06	-1.504157e-06	-9.206276e-10	-1.046097e+01	-6.687538e+01
1.530000e-06	-1.458942e-06	-9.089255e-10	-1.014651e+01	-6.598391e+01
1.540000e-06	-1.413668e-06	-8.983660e-10	-9.831644e+00	-6.507817e+01
1.550000e-06	-1.368243e-06	-8.859348e-10	-9.515728e+00	-6.415846e+01
1.560000e-06	-1.322740e-06	-8.707104e-10	-9.199267e+00	-6.322501e+01
1.570000e-06	-1.277157e-06	-8.529114e-10	-8.882247e+00	-6.227804e+01
1.580000e-06	-1.231474e-06	-8.357451e-10	-8.564538e+00	-6.131769e+01
1.590000e-06	-1.185794e-06	-8.202048e-10	-8.246845e+00	-6.034400e+01
1.600000e-06	-1.140093e-06	-8.045988e-10	-7.929012e+00	-5.935693e+01
1.610000e-06	-1.094270e-06	-7.868040e-10	-7.610324e+00	-5.835634e+01
1.620000e-06	-1.048334e-06	-7.708374e-10	-7.290853e+00	-5.734192e+01
1.630000e-06	-1.002340e-06	-7.567973e-10	-6.970980e+00	-5.631325e+01
1.640000e-06	-9.562833e-07	-7.431919e-10	-6.650667e+00	-5.526977e+01
1.650000e-06	-9.101444e-07	-7.288590e-10	-6.329785e+00	-5.421074e+01
1.660000e-06	-8.639012e-07	-7.155687e-10	-6.008178e+00	-5.313528e+01
1.670000e-06	-8.175714e-07	-6.997845e-10	-5.685967e+00	-5.204235e+01
1.680000e-06	-7.711727e-07	-6.822439e-10	-5.363278e+00	-5.093073e+01
1.690000e-06	-7.247494e-07	-6.633947e-10	-5.040418e+00	-4.979907e+01
1.700000e-06	-6.783031e-07	-6.433717e-10	-4.717398e+00	-4.864589e+01
1.710000e-06	-6.318232e-07	-6.200314e-10	-4.394143e+00	-4.746956e+01
1.720000e-06	-5.853268e-07	-5.970558e-10	-4.070775e+00	-4.626833e+01
1.730000e-06	-5.387831e-07	-5.756771e-10	-3.747077e+00	-4.504037e+01
1.740000e-06	-4.921859e-07	-5.570436e-10	-3.423008e+00	-4.378377e+01
1.750000e-06	-4.454885e-07	-5.405758e-10	-3.098241e+00	-4.249659e+01
1.760000e-06	-3.987217e-07	-5.220210e-10	-2.772992e+00	-4.117683e+01
1.770000e-06	-3.519936e-07	-5.010674e-10	-2.448011e+00	-3.982254e+01
1.780000e-06	-3.053273e-07	-4.785227e-10	-2.123461e+00	-3.843177e+01
1.790000e-06	-2.586564e-07	-4.570746e-10	-1.798879e+00	-3.700266e+01
1.800000e-06	-2.118797e-07	-4.366345e-10	-1.473561e+00	-3.553343e+01
1.810000e-06	-1.650413e-07	-4.149090e-10	-1.147814e+00	-3.402246e+01
1.820000e-06	-1.182292e-07	-3.921981e-10	-8.222490e-01	-3.246826e+01
1.830000e-06	-7.142992e-08	-3.683471e-10	-4.967740e-01	-3.086955e+01
1.840000e-06	-2.465287e-08	-3.436544e-10	-1.714534e-01	-2.922527e+01
1.850000e-06	2.211380e-08	-3.208138e-10	1.537949e-01	-2.753459e+01
1.860000e-06	6.893702e-08	-2.988080e-10	4.794366e-01	-2.579698e+01
1.870000e-06	1.157576e-07	-2.766221e-10	8.050600e-01	-2.401216e+01
1.880000e-06	1.625756e-07	-2.545398e-10	1.130665e+00	-2.218018e+01
1.890000e-06	2.094560e-07	-2.311473e-10	1.456705e+00	-2.030142e+01
1.900000e-06	2.562322e-07	-2.030446e-10	1.782019e+00	-1.837656e+01
1.910000e-06	3.028642e-07	-1.722110e-10	2.106331e+00	-1.640665e+01
1.920000e-06	3.495726e-07	-1.408918e-10	2.431174e+00	-1.439304e+01
1.930000e-06	3.963721e-07	-1.104169e-10	2.756651e+00	-1.233743e+01
1.940000e-06	4.430876e-07	-8.146916e-11	3.081543e+00	-1.024184e+01
1.950000e-06	4.896893e-07	-5.491460e-11	3.405645e+00	-8.108600e+00
1.960000e-06	5.362492e-07	-2.959903e-11	3.729455e+00	-5.940331e+00
1.970000e-06	5.827434e-07	-2.532589e-12	4.052808e+00	-3.739927e+00
1.980000e-06	6.291815e-07	2.761624e-11	4.375772e+00	-1.510531e+00
1.990000e-06	6.756237e-07	6.138179e-11	4.698763e+00	7.444961e-01
2.000000e-06	7.219806e-07	9.710018e-11	5.021162e+00	3.021600e+00
2.010000e-06	7.682658e-07	1.314149e-10	5.343062e+00	5.317069e+00
2.020000e-06	8.145119e-07	1.658588e-10	5.664689e+00	7.627072e+00
2.030000e-06	8.607002e-07	2.004872e-10	5.985916e+00	9.947685e+00
2.040000e-06	9.068665e-07	2.332336e-10	6.306989e+00	1.227494e+01
2.050000e-06	9.530263e-07	2.640060e-10	6.628016e+00	1.460484e+01
2.060000e-06	9.991200e-07	2.931784e-10	6.948584e+00	1.693343e+01
2.070000e-06	1.045065e-06	3.220713e-10	7.268116e+00	1.925680e+01
2.080000e-06	1.090902e-06	3.511818e-10	7.586900e+00	2.157113e+01
2.090000e-06	1.136659e-06	3.831230e-10	7.905126e+00	2.387273e+01
2.100000e-06	1.182407e-06	4.171980e-10	8.223293e+00	2.615805e+01
2.110000e-06	1.228092e-06	4.530092e-10	8.541015e+00	2.842372e+01
2.120000e-06	1.273612e-06	4.881172e-10	8.857594e+00	3.066657e+01
2.130000e-06	1.319069e-06	5.183169e-10	9.173738e+00	3.288368e+01
2.140000e-06	1.364454e-06	5.455694e-10	9.489375e+00	3.507232e+01
2.150000e-06	1.409701e-06	5.690799e-10	9.804056e+00	3.723005e+01
2.160000e-06	1.454889e-06	5.930328e-10	1.011832e+01	3.935466e+01
2.170000e-06	1.499979e-06	6.179069e-10	1.043191e+01	4.144422e+01
2.180000e-06	1.544939e-06	6.468012e-10	1.074460e+01	4.349708e+01
2.190000e-06	1.589824e-06	6.789860e-10	1.105676e+01	4.551182e+01
2.200000e-06	1.634557e-06	7.094365e-10	1.136786e+01	4.748730e+01
2.210000e-06	1.679179e-06	7.377663e-10	1.167820e+01	4.942263e+01
2.220000e-06	1.723698e-06	7.645032e-10	1.198781e+01	5.131715e+01
2.230000e-06	1.768017e-06	7.889680e-10	1.229604e+01	5.317043e+01
2.240000e-06	1.812224e-06	8.119437e-10	1.260348e+01	5.498224e+01
2.250000e-06	1.856345e-06	8.325876e-10	1.291033e+01	5.675255e+01
2.260000e-06	1.900368e-06	8.502055e-10	1.321650e+01	5.848151e+01
2.270000e-06	1.944336e-06	8.701656e-10	1.352228e+01	6.016940e+01
2.280000e-06	1.988216e-06	8.927825e-10	1.382746e+01	6.181666e+01
2.290000e-06	2.031993e-06	9.155534e-10	1.413191e+01	6.342382e+01
2.300000e-06	2.075723e-06	9.382073e-10	1.443604e+01	6.499151e+01
2.310000e-06	2.119402e-06	9.623059e-10	1.473981e+01	6.652046e+01
2.320000e-06	2.163000e-06	9.844743e-10	1.504302e+01	6.801142e+01
2.330000e-06	2.206495e-06	1.003144e-09	1.534552e+01	6.946521e+01
2.340000e-06	2.249817e-06	1.021349e-09	1.564681e+01	7.088265e+01
2.350000e-06	2.292990e-06	1.040370e-09	1.594707e+01	7.226461e+01
2.360000e-06	2.335926e-06	1.058282e-09	1.624568e+01	7.361193e+01
2.370000e-06	2.378582e-06	1.078335e-09	1.654234e+01	7.492546e+01
2.380000e-06	2.420988e-06	1.098366e-09	1.683726e+01	7.620603e+01
2.390000e-06	2.463074e-06	1.116269e-09	1.712995e+01	7.745445e+01
2.400000e-06	2.504831e-06	1.132022e-09	1.742036e+01	7.867152e+01
2.410000e-06	2.546274e-06	1.149972e-09	1.770859e+01	7.985799e+01
2.420000e-06	2.587344e-06	1.168165e-09	1.799421e+01	8.101463e+01
2.430000e-06	2.628040e-06	1.184583e-09	1.827724e+01	8.214213e+01
2.440000e-06	2.668524e-06	1.201022e-09	1.855879e+01	8.324121e+01
2.450000e-06	2.708823e-06	1.217085e-09	1.883906e+01	8.431254e+01
2.460000e-06	2.748948e-06	1.232123e-09	1.911812e+01	8.535678e+01
2.470000e-06	2.788977e-06	1.245280e-09	1.939651e+01	8.637460e+01
2.480000e-06	2.828876e-06	1.258224e-09	1.967400e+01	8.736666e+01
2.490000e-06	2.868602e-06	1.271611e-09	1.995028e+01	8.833359e+01
2.500000e-06	2.908207e-06	1.284926e-09	2.022572e+01	8.927606e+01
2.510000e-06	2.947706e-06	1.300733e-09	2.050042e+01	9.019472e+01
2.520000e-06	2.987013e-06	1.317834e-09	2.077379e+01	9.109025e+01
2.530000e-06	3.026120e-06	1.333015e-09	2.104577e+01	9.196332e+01
2.540000e-06	3.065024e-06	1.347297e-09	2.131634e+01	9.281464e+01
2.550000e-06	3.103669e-06	1.358726e-09	2.158510e+01	9.364489e+01
2.560000e-06	3.142061e-06	1.367078e-09	2.185210e+01	9.445480e+01
2.570000e-06	3.180243e-06	1.373594e-09	2.211765e+01	9.524508e+01
2.580000e-06	3.218253e-06	1.382017e-09	2.238200e+01	9.601646e+01
2.590000e-06	3.256115e-06	1.391994e-09	2.264532e+01	9.676966e+01
2.600000e-06	3.293768e-06	1.405260e-09	2.290718e+01	9.750539e+01
2.610000e-06	3.331202e-06	1.421816e-09	2.316753e+01	9.822436e+01
2.620000e-06	3.368458e-06	1.439224e-09	2.342663e+01	9.892724e+01
2.630000e-06	3.405406e-06	1.453041e-09	2.368359e+01	9.961470e+01
2.640000e-06	3.442028e-06	1.461148e-09	2.393829e+01	1.002873e+02
2.650000e-06	3.478384e-06	1.467199e-09	2.419113e+01	1.009458e+02
2.660000e-06	3.514526e-06	1.473641e-09	2.444249e+01	1.015905e+02
2.670000e-06	3.550549e-06	1.480278e-09	2.469302e+01	1.022220e+02
2.680000e-06	3.586450e-06	1.487025e-09	2.494270e+01	1.028407e+02
2.690000e-06	3.622162e-06	1.496629e-09	2.519107e+01	1.034470e+02
2.700000e-06	3.657691e-06	1.510027e-09	2.543816e+01	1.040411e+02
2.710000e-06	3.693071e-06	1.520502e-09	2.568422e+01	1.046233e+02
2.720000e-06	3.728259e-06	1.525430e-09	2.592894e+01	1.051936e+02
2.730000e-06	3.763162e-06	1.528219e-09	2.617168e+01	1.057523e+02
2.740000e-06	3.797658e-06	1.531364e-09	2.641159e+01	1.062992e+02
2.750000e-06	3.831664e-06	1.535638e-09	2.664809e+01	1.068343e+02
2.760000e-06	3.865109e-06	1.541905e-09	2.688069e+01	1.073576e+02
2.770000e-06	3.898038e-06	1.550340e-09	2.710971e+01	1.078687e+02
2.780000e-06	3.930572e-06	1.558659e-09	2.733597e+01	1.083676e+02
2.790000e-06	3.962821e-06	1.566755e-09	2.756025e+01	1.088539e+02
2.800000e-06	3.994854e-06	1.574789e-09	2.778303e+01	1.093274e+02
2.810000e-06	4.026708e-06	1.581309e-09	2.800456e+01	1.097878e+02
2.820000e-06	4.058452e-06	1.586363e-09	2.822534e+01	1.102347e+02
2.830000e-06	4.089977e-06	1.592704e-09	2.844458e+01	1.106678e+02
2.840000e-06	4.121288e-06	1.599122e-09	2.866234e+01	1.110870e+02
2.850000e-06	4.152424e-06	1.604586e-09	2.887888e+01	1.114918e+02
2.860000e-06	4.183188e-06	1.609891e-09	2.909284e+01	1.118822e+02
2.870000e-06	4.213560e-06	1.616592e-09	2.930407e+01	1.122579e+02
2.880000e-06	4.243666e-06	1.622893e-09	2.951344e+01	1.126188e+02
2.890000e-06	4.273500e-06	1.627390e-09	2.972093e+01	1.129650e+02
2.900000e-06	4.303001e-06	1.632087e-09	2.992610e+01	1.132963e+02
