# Temperatura_=_14.0
# Concentracion g/m^3_=_1620.0
# C_Vs_to_Am_M_A/Vsm_=_65563218390.804596
# pendiente_HvsI_1/m_=_3716.3
# ordenada_HvsI_A/m_=_1297.0
# frecuencia_Hz_=_135106.79226810887

Tiempo_(s)	Campo_(V.s)	Magnetizacion_(V.s)	Campo_(kA/m)	Magnetizacion_(A/m)
0.000000e+00	-5.538348e-06	-1.879718e-09	-3.836989e+01	-1.222726e+02
1.000000e-08	-5.538334e-06	-1.881573e-09	-3.836979e+01	-1.222036e+02
2.000000e-08	-5.538030e-06	-1.883877e-09	-3.836769e+01	-1.221285e+02
3.000000e-08	-5.537327e-06	-1.883964e-09	-3.836281e+01	-1.220474e+02
4.000000e-08	-5.536129e-06	-1.881869e-09	-3.835452e+01	-1.219603e+02
5.000000e-08	-5.534383e-06	-1.884384e-09	-3.834242e+01	-1.218676e+02
6.000000e-08	-5.532098e-06	-1.895469e-09	-3.832659e+01	-1.217693e+02
7.000000e-08	-5.529278e-06	-1.894572e-09	-3.830706e+01	-1.216656e+02
8.000000e-08	-5.525993e-06	-1.848581e-09	-3.828430e+01	-1.215569e+02
9.000000e-08	-5.522297e-06	-1.818365e-09	-3.825869e+01	-1.214434e+02
1.000000e-07	-5.518235e-06	-1.882879e-09	-3.823055e+01	-1.213253e+02
1.100000e-07	-5.513900e-06	-1.945334e-09	-3.820052e+01	-1.212031e+02
1.200000e-07	-5.509271e-06	-1.885289e-09	-3.816844e+01	-1.210769e+02
1.300000e-07	-5.504282e-06	-1.781085e-09	-3.813388e+01	-1.209472e+02
1.400000e-07	-5.498907e-06	-1.832573e-09	-3.809664e+01	-1.208142e+02
1.500000e-07	-5.493125e-06	-1.939735e-09	-3.805659e+01	-1.206783e+02
1.600000e-07	-5.487005e-06	-1.914735e-09	-3.801418e+01	-1.205397e+02
1.700000e-07	-5.480509e-06	-1.786874e-09	-3.796918e+01	-1.203986e+02
1.800000e-07	-5.473581e-06	-1.796128e-09	-3.792118e+01	-1.202555e+02
1.900000e-07	-5.466280e-06	-1.898926e-09	-3.787060e+01	-1.201103e+02
2.000000e-07	-5.458706e-06	-1.901047e-09	-3.781813e+01	-1.199635e+02
2.100000e-07	-5.450918e-06	-1.822529e-09	-3.776417e+01	-1.198150e+02
2.200000e-07	-5.442809e-06	-1.812809e-09	-3.770799e+01	-1.196650e+02
2.300000e-07	-5.434298e-06	-1.878658e-09	-3.764902e+01	-1.195136e+02
2.400000e-07	-5.425349e-06	-1.873817e-09	-3.758703e+01	-1.193609e+02
2.500000e-07	-5.415712e-06	-1.820367e-09	-3.752026e+01	-1.192068e+02
2.600000e-07	-5.405423e-06	-1.806194e-09	-3.744898e+01	-1.190513e+02
2.700000e-07	-5.394667e-06	-1.847929e-09	-3.737446e+01	-1.188944e+02
2.800000e-07	-5.383353e-06	-1.846128e-09	-3.729608e+01	-1.187360e+02
2.900000e-07	-5.371540e-06	-1.809602e-09	-3.721424e+01	-1.185759e+02
3.000000e-07	-5.359334e-06	-1.798612e-09	-3.712967e+01	-1.184141e+02
3.100000e-07	-5.346778e-06	-1.834993e-09	-3.704268e+01	-1.182503e+02
3.200000e-07	-5.333846e-06	-1.827003e-09	-3.695309e+01	-1.180844e+02
3.300000e-07	-5.320485e-06	-1.784048e-09	-3.686053e+01	-1.179163e+02
3.400000e-07	-5.306774e-06	-1.778494e-09	-3.676554e+01	-1.177456e+02
3.500000e-07	-5.292735e-06	-1.824902e-09	-3.666827e+01	-1.175723e+02
3.600000e-07	-5.278269e-06	-1.822748e-09	-3.656806e+01	-1.173961e+02
3.700000e-07	-5.263217e-06	-1.798171e-09	-3.646377e+01	-1.172168e+02
3.800000e-07	-5.247596e-06	-1.816697e-09	-3.635555e+01	-1.170343e+02
3.900000e-07	-5.231558e-06	-1.819654e-09	-3.624443e+01	-1.168483e+02
4.000000e-07	-5.215048e-06	-1.765850e-09	-3.613005e+01	-1.166588e+02
4.100000e-07	-5.198135e-06	-1.772420e-09	-3.601288e+01	-1.164655e+02
4.200000e-07	-5.180888e-06	-1.828051e-09	-3.589339e+01	-1.162683e+02
4.300000e-07	-5.163289e-06	-1.794857e-09	-3.577147e+01	-1.160671e+02
4.400000e-07	-5.145371e-06	-1.749890e-09	-3.564733e+01	-1.158618e+02
4.500000e-07	-5.127106e-06	-1.805492e-09	-3.552079e+01	-1.156524e+02
4.600000e-07	-5.108434e-06	-1.823475e-09	-3.539143e+01	-1.154387e+02
4.700000e-07	-5.089334e-06	-1.748711e-09	-3.525910e+01	-1.152207e+02
4.800000e-07	-5.069897e-06	-1.754545e-09	-3.512444e+01	-1.149984e+02
4.900000e-07	-5.050207e-06	-1.796093e-09	-3.498803e+01	-1.147718e+02
5.000000e-07	-5.030276e-06	-1.749302e-09	-3.484995e+01	-1.145409e+02
5.100000e-07	-5.010115e-06	-1.730460e-09	-3.471027e+01	-1.143056e+02
5.200000e-07	-4.989694e-06	-1.792768e-09	-3.456879e+01	-1.140661e+02
5.300000e-07	-4.968927e-06	-1.763816e-09	-3.442492e+01	-1.138223e+02
5.400000e-07	-4.947785e-06	-1.705639e-09	-3.427845e+01	-1.135743e+02
5.500000e-07	-4.926259e-06	-1.752742e-09	-3.412932e+01	-1.133220e+02
5.600000e-07	-4.904417e-06	-1.778791e-09	-3.397799e+01	-1.130656e+02
5.700000e-07	-4.882312e-06	-1.713208e-09	-3.382484e+01	-1.128050e+02
5.800000e-07	-4.859875e-06	-1.720216e-09	-3.366940e+01	-1.125403e+02
5.900000e-07	-4.837075e-06	-1.760196e-09	-3.351144e+01	-1.122715e+02
6.000000e-07	-4.813882e-06	-1.719943e-09	-3.335076e+01	-1.119987e+02
6.100000e-07	-4.790375e-06	-1.691271e-09	-3.318790e+01	-1.117217e+02
6.200000e-07	-4.766620e-06	-1.726394e-09	-3.302333e+01	-1.114408e+02
6.300000e-07	-4.742595e-06	-1.714661e-09	-3.285688e+01	-1.111557e+02
6.400000e-07	-4.718349e-06	-1.687788e-09	-3.268891e+01	-1.108665e+02
6.500000e-07	-4.693754e-06	-1.710236e-09	-3.251851e+01	-1.105733e+02
6.600000e-07	-4.668600e-06	-1.715987e-09	-3.234424e+01	-1.102759e+02
6.700000e-07	-4.642810e-06	-1.685578e-09	-3.216557e+01	-1.099743e+02
6.800000e-07	-4.616623e-06	-1.686573e-09	-3.198415e+01	-1.096685e+02
6.900000e-07	-4.590085e-06	-1.691683e-09	-3.180029e+01	-1.093584e+02
7.000000e-07	-4.563070e-06	-1.668289e-09	-3.161313e+01	-1.090440e+02
7.100000e-07	-4.535709e-06	-1.663332e-09	-3.142357e+01	-1.087252e+02
7.200000e-07	-4.508065e-06	-1.678204e-09	-3.123205e+01	-1.084019e+02
7.300000e-07	-4.480214e-06	-1.669434e-09	-3.103910e+01	-1.080741e+02
7.400000e-07	-4.452185e-06	-1.652531e-09	-3.084491e+01	-1.077418e+02
7.500000e-07	-4.423950e-06	-1.651482e-09	-3.064930e+01	-1.074048e+02
7.600000e-07	-4.395412e-06	-1.645217e-09	-3.045158e+01	-1.070630e+02
7.700000e-07	-4.366498e-06	-1.633537e-09	-3.025127e+01	-1.067165e+02
7.800000e-07	-4.337246e-06	-1.627050e-09	-3.004861e+01	-1.063652e+02
7.900000e-07	-4.307721e-06	-1.621279e-09	-2.984406e+01	-1.060089e+02
8.000000e-07	-4.277903e-06	-1.611343e-09	-2.963748e+01	-1.056477e+02
8.100000e-07	-4.247797e-06	-1.609309e-09	-2.942890e+01	-1.052815e+02
8.200000e-07	-4.217494e-06	-1.601774e-09	-2.921897e+01	-1.049103e+02
8.300000e-07	-4.186910e-06	-1.587317e-09	-2.900708e+01	-1.045339e+02
8.400000e-07	-4.155956e-06	-1.580662e-09	-2.879263e+01	-1.041524e+02
8.500000e-07	-4.124729e-06	-1.585023e-09	-2.857628e+01	-1.037656e+02
8.600000e-07	-4.093249e-06	-1.579288e-09	-2.835819e+01	-1.033737e+02
8.700000e-07	-4.061597e-06	-1.570898e-09	-2.813890e+01	-1.029765e+02
8.800000e-07	-4.029784e-06	-1.565268e-09	-2.791850e+01	-1.025741e+02
8.900000e-07	-3.997670e-06	-1.554571e-09	-2.769601e+01	-1.021663e+02
9.000000e-07	-3.965260e-06	-1.541721e-09	-2.747148e+01	-1.017533e+02
9.100000e-07	-3.932578e-06	-1.538216e-09	-2.724506e+01	-1.013349e+02
9.200000e-07	-3.899612e-06	-1.530237e-09	-2.701666e+01	-1.009112e+02
9.300000e-07	-3.866269e-06	-1.518505e-09	-2.678566e+01	-1.004822e+02
9.400000e-07	-3.832446e-06	-1.515789e-09	-2.655133e+01	-1.000479e+02
9.500000e-07	-3.798106e-06	-1.514621e-09	-2.631343e+01	-9.960830e+01
9.600000e-07	-3.763350e-06	-1.500376e-09	-2.607263e+01	-9.916345e+01
9.700000e-07	-3.728265e-06	-1.487614e-09	-2.582957e+01	-9.871340e+01
9.800000e-07	-3.692851e-06	-1.481882e-09	-2.558422e+01	-9.825817e+01
9.900000e-07	-3.657212e-06	-1.472908e-09	-2.533730e+01	-9.779783e+01
1.000000e-06	-3.621467e-06	-1.463155e-09	-2.508966e+01	-9.733246e+01
1.010000e-06	-3.585600e-06	-1.458825e-09	-2.484117e+01	-9.686213e+01
1.020000e-06	-3.549515e-06	-1.451313e-09	-2.459118e+01	-9.638693e+01
1.030000e-06	-3.513235e-06	-1.436247e-09	-2.433983e+01	-9.590697e+01
1.040000e-06	-3.476741e-06	-1.426596e-09	-2.408700e+01	-9.542237e+01
1.050000e-06	-3.439939e-06	-1.422065e-09	-2.383203e+01	-9.493323e+01
1.060000e-06	-3.402860e-06	-1.412400e-09	-2.357515e+01	-9.443971e+01
1.070000e-06	-3.365598e-06	-1.401283e-09	-2.331700e+01	-9.394193e+01
1.080000e-06	-3.328097e-06	-1.394789e-09	-2.305718e+01	-9.344003e+01
1.090000e-06	-3.290277e-06	-1.383943e-09	-2.279517e+01	-9.293416e+01
1.100000e-06	-3.252261e-06	-1.370607e-09	-2.253179e+01	-9.242445e+01
1.110000e-06	-3.214070e-06	-1.357898e-09	-2.226721e+01	-9.191105e+01
1.120000e-06	-3.175631e-06	-1.341739e-09	-2.200089e+01	-9.139409e+01
1.130000e-06	-3.136941e-06	-1.324061e-09	-2.173285e+01	-9.087367e+01
1.140000e-06	-3.098028e-06	-1.318162e-09	-2.146326e+01	-9.034991e+01
1.150000e-06	-3.058891e-06	-1.319316e-09	-2.119212e+01	-8.982287e+01
1.160000e-06	-3.019616e-06	-1.316118e-09	-2.092002e+01	-8.929262e+01
1.170000e-06	-2.980193e-06	-1.308969e-09	-2.064689e+01	-8.875918e+01
1.180000e-06	-2.940564e-06	-1.302863e-09	-2.037234e+01	-8.822254e+01
1.190000e-06	-2.900801e-06	-1.290304e-09	-2.009686e+01	-8.768266e+01
1.200000e-06	-2.860906e-06	-1.271984e-09	-1.982047e+01	-8.713945e+01
1.210000e-06	-2.820907e-06	-1.255963e-09	-1.954335e+01	-8.659278e+01
1.220000e-06	-2.780757e-06	-1.243902e-09	-1.926519e+01	-8.604249e+01
1.230000e-06	-2.740377e-06	-1.233404e-09	-1.898544e+01	-8.548834e+01
1.240000e-06	-2.699722e-06	-1.227714e-09	-1.870378e+01	-8.493006e+01
1.250000e-06	-2.658836e-06	-1.225637e-09	-1.842052e+01	-8.436734e+01
1.260000e-06	-2.617745e-06	-1.220609e-09	-1.813584e+01	-8.379980e+01
1.270000e-06	-2.576323e-06	-1.209626e-09	-1.784887e+01	-8.322703e+01
1.280000e-06	-2.534614e-06	-1.195064e-09	-1.755990e+01	-8.264855e+01
1.290000e-06	-2.492680e-06	-1.178268e-09	-1.726939e+01	-8.206387e+01
1.300000e-06	-2.450487e-06	-1.161881e-09	-1.697707e+01	-8.147244e+01
1.310000e-06	-2.408002e-06	-1.148348e-09	-1.668273e+01	-8.087368e+01
1.320000e-06	-2.365199e-06	-1.138638e-09	-1.638619e+01	-8.026699e+01
1.330000e-06	-2.322161e-06	-1.131810e-09	-1.608802e+01	-7.965174e+01
1.340000e-06	-2.278927e-06	-1.125851e-09	-1.578849e+01	-7.902729e+01
1.350000e-06	-2.235528e-06	-1.121016e-09	-1.548783e+01	-7.839300e+01
1.360000e-06	-2.192018e-06	-1.114640e-09	-1.518638e+01	-7.774821e+01
1.370000e-06	-2.148387e-06	-1.104235e-09	-1.488411e+01	-7.709228e+01
1.380000e-06	-2.104664e-06	-1.090156e-09	-1.458120e+01	-7.642459e+01
1.390000e-06	-2.060839e-06	-1.072703e-09	-1.427758e+01	-7.574453e+01
1.400000e-06	-2.016894e-06	-1.054556e-09	-1.397312e+01	-7.505154e+01
1.410000e-06	-1.972891e-06	-1.040043e-09	-1.366826e+01	-7.434508e+01
1.420000e-06	-1.928775e-06	-1.028986e-09	-1.336263e+01	-7.362464e+01
1.430000e-06	-1.884511e-06	-1.019650e-09	-1.305596e+01	-7.288978e+01
1.440000e-06	-1.840135e-06	-1.010805e-09	-1.274853e+01	-7.214011e+01
1.450000e-06	-1.795645e-06	-1.001677e-09	-1.244030e+01	-7.137526e+01
1.460000e-06	-1.751017e-06	-9.884810e-10	-1.213112e+01	-7.059494e+01
1.470000e-06	-1.706259e-06	-9.716233e-10	-1.182103e+01	-6.979891e+01
1.480000e-06	-1.661373e-06	-9.545020e-10	-1.151006e+01	-6.898697e+01
1.490000e-06	-1.616336e-06	-9.398611e-10	-1.119804e+01	-6.815897e+01
1.500000e-06	-1.571164e-06	-9.255637e-10	-1.088509e+01	-6.731481e+01
1.510000e-06	-1.525924e-06	-9.117597e-10	-1.057166e+01	-6.645441e+01
1.520000e-06	-1.480653e-06	-8.971806e-10	-1.025802e+01	-6.557772e+01
1.530000e-06	-1.435290e-06	-8.803710e-10	-9.943746e+00	-6.468472e+01
1.540000e-06	-1.389851e-06	-8.648015e-10	-9.628939e+00	-6.377539e+01
1.550000e-06	-1.344315e-06	-8.516500e-10	-9.313469e+00	-6.284969e+01
1.560000e-06	-1.298627e-06	-8.373678e-10	-8.996939e+00	-6.190760e+01
1.570000e-06	-1.252860e-06	-8.224089e-10	-8.679865e+00	-6.094906e+01
1.580000e-06	-1.207025e-06	-8.078979e-10	-8.362319e+00	-5.997395e+01
1.590000e-06	-1.161044e-06	-7.910234e-10	-8.043761e+00	-5.898212e+01
1.600000e-06	-1.114982e-06	-7.720706e-10	-7.724640e+00	-5.797336e+01
1.610000e-06	-1.068914e-06	-7.533101e-10	-7.405479e+00	-5.694738e+01
1.620000e-06	-1.022793e-06	-7.357122e-10	-7.085948e+00	-5.590381e+01
1.630000e-06	-9.765580e-07	-7.208749e-10	-6.765632e+00	-5.484217e+01
1.640000e-06	-9.301945e-07	-7.085363e-10	-6.444424e+00	-5.376190e+01
1.650000e-06	-8.837029e-07	-6.966267e-10	-6.122328e+00	-5.266235e+01
1.660000e-06	-8.371101e-07	-6.841385e-10	-5.799531e+00	-5.154272e+01
1.670000e-06	-7.906122e-07	-6.687960e-10	-5.477392e+00	-5.040213e+01
1.680000e-06	-7.441667e-07	-6.498105e-10	-5.155616e+00	-4.923960e+01
1.690000e-06	-6.976211e-07	-6.299531e-10	-4.833146e+00	-4.805401e+01
1.700000e-06	-6.510516e-07	-6.082648e-10	-4.510511e+00	-4.684419e+01
1.710000e-06	-6.044235e-07	-5.831322e-10	-4.187470e+00	-4.560883e+01
1.720000e-06	-5.576180e-07	-5.577145e-10	-3.863199e+00	-4.434658e+01
1.730000e-06	-5.107587e-07	-5.366577e-10	-3.538556e+00	-4.305602e+01
1.740000e-06	-4.639421e-07	-5.196870e-10	-3.214209e+00	-4.173567e+01
1.750000e-06	-4.170595e-07	-5.019835e-10	-2.889405e+00	-4.038404e+01
1.760000e-06	-3.701535e-07	-4.822206e-10	-2.564438e+00	-3.899960e+01
1.770000e-06	-3.232238e-07	-4.609487e-10	-2.239307e+00	-3.758086e+01
1.780000e-06	-2.762725e-07	-4.399229e-10	-1.914026e+00	-3.612636e+01
1.790000e-06	-2.293313e-07	-4.195898e-10	-1.588816e+00	-3.463471e+01
1.800000e-06	-1.823245e-07	-3.979696e-10	-1.263151e+00	-3.310457e+01
1.810000e-06	-1.352464e-07	-3.747508e-10	-9.369926e-01	-3.153475e+01
1.820000e-06	-8.818233e-08	-3.507876e-10	-6.109306e-01	-2.992418e+01
1.830000e-06	-4.117975e-08	-3.262955e-10	-2.852949e-01	-2.827194e+01
1.840000e-06	5.796840e-09	-3.025227e-10	4.016073e-02	-2.657730e+01
1.850000e-06	5.274014e-08	-2.802501e-10	3.653857e-01	-2.483974e+01
1.860000e-06	9.962631e-08	-2.591846e-10	6.902149e-01	-2.305895e+01
1.870000e-06	1.464890e-07	-2.364721e-10	1.014881e+00	-2.123488e+01
1.880000e-06	1.933795e-07	-2.115430e-10	1.339741e+00	-1.936771e+01
1.890000e-06	2.403659e-07	-1.837282e-10	1.665265e+00	-1.745791e+01
1.900000e-06	2.873640e-07	-1.534749e-10	1.990869e+00	-1.550622e+01
1.910000e-06	3.342705e-07	-1.229816e-10	2.315839e+00	-1.351366e+01
1.920000e-06	3.811210e-07	-9.342866e-11	2.640421e+00	-1.148154e+01
1.930000e-06	4.280571e-07	-6.636855e-11	2.965596e+00	-9.411448e+00
1.940000e-06	4.749959e-07	-4.106735e-11	3.290790e+00	-7.305260e+00
1.950000e-06	5.217287e-07	-1.523521e-11	3.614557e+00	-5.165114e+00
1.960000e-06	5.684396e-07	1.172999e-11	3.938172e+00	-2.993410e+00
1.970000e-06	6.152096e-07	3.938979e-11	4.262196e+00	-7.927891e-01
1.980000e-06	6.619162e-07	6.949944e-11	4.585781e+00	1.433883e+00
1.990000e-06	7.084914e-07	1.028229e-10	4.908456e+00	3.683537e+00
2.000000e-06	7.549584e-07	1.363873e-10	5.230381e+00	5.952925e+00
2.010000e-06	8.014146e-07	1.681794e-10	5.552232e+00	8.238650e+00
2.020000e-06	8.478819e-07	2.005876e-10	5.874159e+00	1.053719e+01
2.030000e-06	8.943322e-07	2.331927e-10	6.195968e+00	1.284492e+01
2.040000e-06	9.407233e-07	2.640919e-10	6.517368e+00	1.515816e+01
2.050000e-06	9.870465e-07	2.943916e-10	6.838296e+00	1.747320e+01
2.060000e-06	1.033389e-06	3.253604e-10	7.159362e+00	1.978633e+01
2.070000e-06	1.079646e-06	3.561052e-10	7.479830e+00	2.209385e+01
2.080000e-06	1.125720e-06	3.877208e-10	7.799030e+00	2.439215e+01
2.090000e-06	1.171707e-06	4.207926e-10	8.117632e+00	2.667770e+01
2.100000e-06	1.217612e-06	4.537810e-10	8.435663e+00	2.894707e+01
2.110000e-06	1.263386e-06	4.861292e-10	8.752784e+00	3.119699e+01
2.120000e-06	1.309032e-06	5.171169e-10	9.069025e+00	3.342436e+01
2.130000e-06	1.354583e-06	5.469114e-10	9.384601e+00	3.562626e+01
2.140000e-06	1.400007e-06	5.750784e-10	9.699300e+00	3.779997e+01
2.150000e-06	1.445328e-06	6.025310e-10	1.001329e+01	3.994300e+01
2.160000e-06	1.490567e-06	6.307547e-10	1.032671e+01	4.205309e+01
2.170000e-06	1.535765e-06	6.587663e-10	1.063984e+01	4.412822e+01
2.180000e-06	1.580887e-06	6.866176e-10	1.095244e+01	4.616662e+01
2.190000e-06	1.625781e-06	7.146257e-10	1.126348e+01	4.816676e+01
2.200000e-06	1.670483e-06	7.434316e-10	1.157317e+01	5.012738e+01
2.210000e-06	1.715116e-06	7.721040e-10	1.188239e+01	5.204744e+01
2.220000e-06	1.759696e-06	7.994714e-10	1.219125e+01	5.392616e+01
2.230000e-06	1.804136e-06	8.254061e-10	1.249913e+01	5.576297e+01
2.240000e-06	1.848400e-06	8.474450e-10	1.280579e+01	5.755754e+01
2.250000e-06	1.892597e-06	8.657237e-10	1.311199e+01	5.930973e+01
2.260000e-06	1.936728e-06	8.839537e-10	1.341773e+01	6.101960e+01
2.270000e-06	1.980713e-06	9.044907e-10	1.372246e+01	6.268739e+01
2.280000e-06	2.024615e-06	9.271198e-10	1.402661e+01	6.431348e+01
2.290000e-06	2.068423e-06	9.512630e-10	1.433011e+01	6.589841e+01
2.300000e-06	2.112122e-06	9.767379e-10	1.463287e+01	6.744283e+01
2.310000e-06	2.155777e-06	1.000461e-09	1.493531e+01	6.894750e+01
2.320000e-06	2.199393e-06	1.019905e-09	1.523748e+01	7.041327e+01
2.330000e-06	2.242936e-06	1.035886e-09	1.553915e+01	7.184103e+01
2.340000e-06	2.286356e-06	1.051508e-09	1.583996e+01	7.323177e+01
2.350000e-06	2.329555e-06	1.069182e-09	1.613925e+01	7.458647e+01
2.360000e-06	2.372483e-06	1.088151e-09	1.643666e+01	7.590615e+01
2.370000e-06	2.415160e-06	1.108258e-09	1.673232e+01	7.719185e+01
2.380000e-06	2.457581e-06	1.127577e-09	1.702622e+01	7.844459e+01
2.390000e-06	2.499752e-06	1.144591e-09	1.731838e+01	7.966537e+01
2.400000e-06	2.541554e-06	1.160742e-09	1.760798e+01	8.085518e+01
2.410000e-06	2.583027e-06	1.176825e-09	1.789531e+01	8.201499e+01
2.420000e-06	2.624185e-06	1.192950e-09	1.818046e+01	8.314572e+01
2.430000e-06	2.665017e-06	1.209827e-09	1.846334e+01	8.424824e+01
2.440000e-06	2.705687e-06	1.227064e-09	1.874510e+01	8.532340e+01
2.450000e-06	2.746144e-06	1.242466e-09	1.902539e+01	8.637201e+01
2.460000e-06	2.786337e-06	1.255842e-09	1.930385e+01	8.739480e+01
2.470000e-06	2.826372e-06	1.266928e-09	1.958121e+01	8.839251e+01
2.480000e-06	2.866292e-06	1.277463e-09	1.985779e+01	8.936580e+01
2.490000e-06	2.906085e-06	1.288645e-09	2.013347e+01	9.031531e+01
2.500000e-06	2.945749e-06	1.301962e-09	2.040826e+01	9.124164e+01
2.510000e-06	2.985247e-06	1.320431e-09	2.068191e+01	9.214536e+01
2.520000e-06	3.024577e-06	1.337982e-09	2.095438e+01	9.302700e+01
2.530000e-06	3.063717e-06	1.353679e-09	2.122555e+01	9.388709e+01
2.540000e-06	3.102659e-06	1.365745e-09	2.149534e+01	9.472612e+01
2.550000e-06	3.141420e-06	1.373718e-09	2.176388e+01	9.554458e+01
2.560000e-06	3.179852e-06	1.379130e-09	2.203014e+01	9.634291e+01
2.570000e-06	3.218013e-06	1.385793e-09	2.229452e+01	9.712158e+01
2.580000e-06	3.255996e-06	1.395961e-09	2.255767e+01	9.788102e+01
2.590000e-06	3.293722e-06	1.409224e-09	2.281904e+01	9.862167e+01
2.600000e-06	3.331276e-06	1.425336e-09	2.307921e+01	9.934395e+01
2.610000e-06	3.368669e-06	1.440738e-09	2.333827e+01	1.000483e+02
2.620000e-06	3.405860e-06	1.454384e-09	2.359593e+01	1.007351e+02
2.630000e-06	3.442794e-06	1.463076e-09	2.385181e+01	1.014048e+02
2.640000e-06	3.479438e-06	1.469108e-09	2.410568e+01	1.020577e+02
2.650000e-06	3.515766e-06	1.476008e-09	2.435736e+01	1.026944e+02
2.660000e-06	3.551854e-06	1.483816e-09	2.460739e+01	1.033151e+02
2.670000e-06	3.587851e-06	1.491554e-09	2.485677e+01	1.039202e+02
2.680000e-06	3.623709e-06	1.499926e-09	2.510520e+01	1.045101e+02
2.690000e-06	3.659396e-06	1.510057e-09	2.535244e+01	1.050852e+02
2.700000e-06	3.694986e-06	1.519093e-09	2.559900e+01	1.056457e+02
2.710000e-06	3.730404e-06	1.525801e-09	2.584438e+01	1.061921e+02
2.720000e-06	3.765490e-06	1.531661e-09	2.608746e+01	1.067246e+02
2.730000e-06	3.800262e-06	1.536735e-09	2.632836e+01	1.072435e+02
2.740000e-06	3.834667e-06	1.543805e-09	2.656672e+01	1.077492e+02
2.750000e-06	3.868601e-06	1.550766e-09	2.680182e+01	1.082418e+02
2.760000e-06	3.902040e-06	1.557970e-09	2.703348e+01	1.087216e+02
2.770000e-06	3.934945e-06	1.565071e-09	2.726145e+01	1.091889e+02
2.780000e-06	3.967420e-06	1.571527e-09	2.748644e+01	1.096438e+02
2.790000e-06	3.999625e-06	1.579825e-09	2.770956e+01	1.100867e+02
2.800000e-06	4.031612e-06	1.588792e-09	2.793116e+01	1.105177e+02
2.810000e-06	4.063464e-06	1.598195e-09	2.815184e+01	1.109370e+02
2.820000e-06	4.095160e-06	1.606280e-09	2.837143e+01	1.113449e+02
2.830000e-06	4.126641e-06	1.612821e-09	2.858953e+01	1.117414e+02
2.840000e-06	4.157898e-06	1.617704e-09	2.880608e+01	1.121269e+02
2.850000e-06	4.188882e-06	1.621944e-09	2.902073e+01	1.125015e+02
2.860000e-06	4.219559e-06	1.627555e-09	2.923327e+01	1.128655e+02
2.870000e-06	4.249881e-06	1.635610e-09	2.944334e+01	1.132191e+02
2.880000e-06	4.279890e-06	1.642094e-09	2.965124e+01	1.135624e+02
2.890000e-06	4.309638e-06	1.645844e-09	2.985734e+01	1.138958e+02
2.900000e-06	4.339137e-06	1.649441e-09	3.006171e+01	1.142196e+02
