# Temperatura_=_9.96
# Concentracion g/m^3_=_1620.0
# C_Vs_to_Am_M_A/Vsm_=_65563218390.804596
# pendiente_HvsI_1/m_=_3716.3
# ordenada_HvsI_A/m_=_1297.0
# frecuencia_Hz_=_135107.9537248541

Tiempo_(s)	Campo_(V.s)	Magnetizacion_(V.s)	Campo_(kA/m)	Magnetizacion_(A/m)
0.000000e+00	-5.513994e-06	-1.644491e-09	-3.836357e+01	-1.076292e+02
1.000000e-08	-5.514218e-06	-1.646298e-09	-3.836513e+01	-1.075792e+02
2.000000e-08	-5.514188e-06	-1.649537e-09	-3.836492e+01	-1.075269e+02
3.000000e-08	-5.513816e-06	-1.650791e-09	-3.836233e+01	-1.074723e+02
4.000000e-08	-5.512953e-06	-1.648877e-09	-3.835633e+01	-1.074156e+02
5.000000e-08	-5.511470e-06	-1.640823e-09	-3.834601e+01	-1.073567e+02
6.000000e-08	-5.509287e-06	-1.624076e-09	-3.833082e+01	-1.072957e+02
7.000000e-08	-5.506573e-06	-1.617935e-09	-3.831194e+01	-1.072326e+02
8.000000e-08	-5.503374e-06	-1.639937e-09	-3.828968e+01	-1.071673e+02
9.000000e-08	-5.499641e-06	-1.685578e-09	-3.826371e+01	-1.070997e+02
1.000000e-07	-5.495514e-06	-1.715743e-09	-3.823500e+01	-1.070298e+02
1.100000e-07	-5.491086e-06	-1.668727e-09	-3.820419e+01	-1.069575e+02
1.200000e-07	-5.486522e-06	-1.580058e-09	-3.817244e+01	-1.068826e+02
1.300000e-07	-5.481785e-06	-1.587342e-09	-3.813948e+01	-1.068049e+02
1.400000e-07	-5.476596e-06	-1.630679e-09	-3.810337e+01	-1.067242e+02
1.500000e-07	-5.471025e-06	-1.659303e-09	-3.806462e+01	-1.066404e+02
1.600000e-07	-5.465158e-06	-1.612872e-09	-3.802379e+01	-1.065533e+02
1.700000e-07	-5.458921e-06	-1.626049e-09	-3.798040e+01	-1.064625e+02
1.800000e-07	-5.452180e-06	-1.652974e-09	-3.793350e+01	-1.063680e+02
1.900000e-07	-5.444995e-06	-1.649285e-09	-3.788351e+01	-1.062693e+02
2.000000e-07	-5.437561e-06	-1.593127e-09	-3.783179e+01	-1.061664e+02
2.100000e-07	-5.429935e-06	-1.589227e-09	-3.777873e+01	-1.060589e+02
2.200000e-07	-5.422030e-06	-1.645325e-09	-3.772373e+01	-1.059468e+02
2.300000e-07	-5.413760e-06	-1.672392e-09	-3.766620e+01	-1.058297e+02
2.400000e-07	-5.405032e-06	-1.655024e-09	-3.760547e+01	-1.057075e+02
2.500000e-07	-5.395670e-06	-1.619331e-09	-3.754034e+01	-1.055802e+02
2.600000e-07	-5.385533e-06	-1.612279e-09	-3.746981e+01	-1.054475e+02
2.700000e-07	-5.374783e-06	-1.597489e-09	-3.739501e+01	-1.053094e+02
2.800000e-07	-5.363619e-06	-1.602488e-09	-3.731734e+01	-1.051659e+02
2.900000e-07	-5.352043e-06	-1.600297e-09	-3.723680e+01	-1.050171e+02
3.000000e-07	-5.340105e-06	-1.608752e-09	-3.715374e+01	-1.048628e+02
3.100000e-07	-5.327861e-06	-1.591493e-09	-3.706855e+01	-1.047033e+02
3.200000e-07	-5.315213e-06	-1.593771e-09	-3.698055e+01	-1.045387e+02
3.300000e-07	-5.302071e-06	-1.573004e-09	-3.688912e+01	-1.043691e+02
3.400000e-07	-5.288533e-06	-1.568844e-09	-3.679492e+01	-1.041948e+02
3.500000e-07	-5.274536e-06	-1.562614e-09	-3.669755e+01	-1.040160e+02
3.600000e-07	-5.260016e-06	-1.577543e-09	-3.659652e+01	-1.038330e+02
3.700000e-07	-5.245127e-06	-1.574550e-09	-3.649293e+01	-1.036460e+02
3.800000e-07	-5.229890e-06	-1.584334e-09	-3.638692e+01	-1.034555e+02
3.900000e-07	-5.214007e-06	-1.566334e-09	-3.627641e+01	-1.032617e+02
4.000000e-07	-5.197578e-06	-1.545607e-09	-3.616211e+01	-1.030650e+02
4.100000e-07	-5.180918e-06	-1.547200e-09	-3.604620e+01	-1.028657e+02
4.200000e-07	-5.163942e-06	-1.565448e-09	-3.592808e+01	-1.026643e+02
4.300000e-07	-5.146555e-06	-1.548451e-09	-3.580712e+01	-1.024611e+02
4.400000e-07	-5.128865e-06	-1.548309e-09	-3.568404e+01	-1.022564e+02
4.500000e-07	-5.110885e-06	-1.582116e-09	-3.555894e+01	-1.020504e+02
4.600000e-07	-5.092375e-06	-1.564015e-09	-3.543016e+01	-1.018436e+02
4.700000e-07	-5.073273e-06	-1.516279e-09	-3.529726e+01	-1.016362e+02
4.800000e-07	-5.053926e-06	-1.534577e-09	-3.516265e+01	-1.014284e+02
4.900000e-07	-5.034457e-06	-1.558740e-09	-3.502720e+01	-1.012204e+02
5.000000e-07	-5.014802e-06	-1.509360e-09	-3.489044e+01	-1.010124e+02
5.100000e-07	-4.994924e-06	-1.497235e-09	-3.475214e+01	-1.008044e+02
5.200000e-07	-4.974792e-06	-1.534455e-09	-3.461208e+01	-1.005966e+02
5.300000e-07	-4.954324e-06	-1.525857e-09	-3.446967e+01	-1.003889e+02
5.400000e-07	-4.933378e-06	-1.499360e-09	-3.432394e+01	-1.001814e+02
5.500000e-07	-4.912061e-06	-1.529051e-09	-3.417563e+01	-9.997390e+01
5.600000e-07	-4.890408e-06	-1.519573e-09	-3.402498e+01	-9.976639e+01
5.700000e-07	-4.868391e-06	-1.485631e-09	-3.387179e+01	-9.955871e+01
5.800000e-07	-4.846108e-06	-1.503595e-09	-3.371676e+01	-9.935068e+01
5.900000e-07	-4.823496e-06	-1.524164e-09	-3.355943e+01	-9.914209e+01
6.000000e-07	-4.800483e-06	-1.482920e-09	-3.339933e+01	-9.893271e+01
6.100000e-07	-4.777195e-06	-1.476882e-09	-3.323730e+01	-9.872227e+01
6.200000e-07	-4.753655e-06	-1.492723e-09	-3.307352e+01	-9.851052e+01
6.300000e-07	-4.729891e-06	-1.473196e-09	-3.290818e+01	-9.829716e+01
6.400000e-07	-4.705888e-06	-1.459258e-09	-3.274118e+01	-9.808191e+01
6.500000e-07	-4.681506e-06	-1.485517e-09	-3.257154e+01	-9.786447e+01
6.600000e-07	-4.656701e-06	-1.474903e-09	-3.239896e+01	-9.764456e+01
6.700000e-07	-4.631425e-06	-1.450487e-09	-3.222311e+01	-9.742190e+01
6.800000e-07	-4.605594e-06	-1.454687e-09	-3.204338e+01	-9.719622e+01
6.900000e-07	-4.579154e-06	-1.453546e-09	-3.185943e+01	-9.696727e+01
7.000000e-07	-4.552222e-06	-1.429274e-09	-3.167205e+01	-9.673483e+01
7.100000e-07	-4.524957e-06	-1.431368e-09	-3.148235e+01	-9.649867e+01
7.200000e-07	-4.497451e-06	-1.442767e-09	-3.129098e+01	-9.625861e+01
7.300000e-07	-4.469792e-06	-1.439209e-09	-3.109854e+01	-9.601449e+01
7.400000e-07	-4.441965e-06	-1.435937e-09	-3.090493e+01	-9.576618e+01
7.500000e-07	-4.413902e-06	-1.431438e-09	-3.070969e+01	-9.551356e+01
7.600000e-07	-4.385541e-06	-1.414585e-09	-3.051237e+01	-9.525654e+01
7.700000e-07	-4.356888e-06	-1.402244e-09	-3.031302e+01	-9.499507e+01
7.800000e-07	-4.327969e-06	-1.401895e-09	-3.011181e+01	-9.472911e+01
7.900000e-07	-4.298720e-06	-1.398155e-09	-2.990831e+01	-9.445863e+01
8.000000e-07	-4.269185e-06	-1.394310e-09	-2.970282e+01	-9.418364e+01
8.100000e-07	-4.239446e-06	-1.391666e-09	-2.949591e+01	-9.390415e+01
8.200000e-07	-4.209392e-06	-1.384421e-09	-2.928681e+01	-9.362019e+01
8.300000e-07	-4.178946e-06	-1.372069e-09	-2.907498e+01	-9.333179e+01
8.400000e-07	-4.148138e-06	-1.369479e-09	-2.886064e+01	-9.303901e+01
8.500000e-07	-4.117012e-06	-1.369193e-09	-2.864408e+01	-9.274190e+01
8.600000e-07	-4.085667e-06	-1.368529e-09	-2.842600e+01	-9.244052e+01
8.700000e-07	-4.054209e-06	-1.363656e-09	-2.820712e+01	-9.213491e+01
8.800000e-07	-4.022613e-06	-1.360649e-09	-2.798730e+01	-9.182515e+01
8.900000e-07	-3.990816e-06	-1.349251e-09	-2.776607e+01	-9.151128e+01
9.000000e-07	-3.958784e-06	-1.339034e-09	-2.754321e+01	-9.119336e+01
9.100000e-07	-3.926463e-06	-1.330857e-09	-2.731834e+01	-9.087144e+01
9.200000e-07	-3.893774e-06	-1.326702e-09	-2.709090e+01	-9.054557e+01
9.300000e-07	-3.860612e-06	-1.322002e-09	-2.686018e+01	-9.021578e+01
9.400000e-07	-3.826944e-06	-1.321889e-09	-2.662593e+01	-8.988213e+01
9.500000e-07	-3.792863e-06	-1.317786e-09	-2.638881e+01	-8.954464e+01
9.600000e-07	-3.758368e-06	-1.307634e-09	-2.614881e+01	-8.920336e+01
9.700000e-07	-3.723479e-06	-1.295026e-09	-2.590608e+01	-8.885832e+01
9.800000e-07	-3.688306e-06	-1.289558e-09	-2.566136e+01	-8.850957e+01
9.900000e-07	-3.652898e-06	-1.284575e-09	-2.541501e+01	-8.815716e+01
1.000000e-06	-3.617325e-06	-1.282808e-09	-2.516751e+01	-8.780112e+01
1.010000e-06	-3.581646e-06	-1.282061e-09	-2.491928e+01	-8.744151e+01
1.020000e-06	-3.545796e-06	-1.277978e-09	-2.466985e+01	-8.707839e+01
1.030000e-06	-3.509818e-06	-1.271176e-09	-2.441953e+01	-8.671183e+01
1.040000e-06	-3.473690e-06	-1.265367e-09	-2.416817e+01	-8.634190e+01
1.050000e-06	-3.437200e-06	-1.259591e-09	-2.391429e+01	-8.596867e+01
1.060000e-06	-3.400404e-06	-1.252901e-09	-2.365829e+01	-8.559222e+01
1.070000e-06	-3.363340e-06	-1.244564e-09	-2.340042e+01	-8.521265e+01
1.080000e-06	-3.325958e-06	-1.236590e-09	-2.314033e+01	-8.483004e+01
1.090000e-06	-3.288387e-06	-1.227886e-09	-2.287893e+01	-8.444447e+01
1.100000e-06	-3.250728e-06	-1.217788e-09	-2.261692e+01	-8.405603e+01
1.110000e-06	-3.212901e-06	-1.210116e-09	-2.235373e+01	-8.366479e+01
1.120000e-06	-3.174802e-06	-1.201793e-09	-2.208866e+01	-8.327081e+01
1.130000e-06	-3.136423e-06	-1.192388e-09	-2.182164e+01	-8.287414e+01
1.140000e-06	-3.097785e-06	-1.184201e-09	-2.155281e+01	-8.247481e+01
1.150000e-06	-3.058974e-06	-1.183940e-09	-2.128279e+01	-8.207282e+01
1.160000e-06	-3.020000e-06	-1.180061e-09	-2.101163e+01	-8.166813e+01
1.170000e-06	-2.980805e-06	-1.173881e-09	-2.073893e+01	-8.126070e+01
1.180000e-06	-2.941429e-06	-1.167692e-09	-2.046497e+01	-8.085043e+01
1.190000e-06	-2.901904e-06	-1.160776e-09	-2.018998e+01	-8.043717e+01
1.200000e-06	-2.862247e-06	-1.149874e-09	-1.991406e+01	-8.002075e+01
1.210000e-06	-2.822488e-06	-1.141751e-09	-1.963744e+01	-7.960093e+01
1.220000e-06	-2.782627e-06	-1.134805e-09	-1.936010e+01	-7.917744e+01
1.230000e-06	-2.742554e-06	-1.128705e-09	-1.908130e+01	-7.874996e+01
1.240000e-06	-2.702234e-06	-1.122176e-09	-1.880078e+01	-7.831812e+01
1.250000e-06	-2.661693e-06	-1.118571e-09	-1.851871e+01	-7.788148e+01
1.260000e-06	-2.620905e-06	-1.114073e-09	-1.823493e+01	-7.743960e+01
1.270000e-06	-2.579880e-06	-1.107680e-09	-1.794950e+01	-7.699195e+01
1.280000e-06	-2.538636e-06	-1.096659e-09	-1.766254e+01	-7.653800e+01
1.290000e-06	-2.497209e-06	-1.085287e-09	-1.737431e+01	-7.607717e+01
1.300000e-06	-2.455463e-06	-1.073554e-09	-1.708386e+01	-7.560886e+01
1.310000e-06	-2.413254e-06	-1.063199e-09	-1.679020e+01	-7.513244e+01
1.320000e-06	-2.370687e-06	-1.055021e-09	-1.649404e+01	-7.464728e+01
1.330000e-06	-2.327904e-06	-1.048833e-09	-1.619637e+01	-7.415274e+01
1.340000e-06	-2.284917e-06	-1.044535e-09	-1.589729e+01	-7.364818e+01
1.350000e-06	-2.241744e-06	-1.039619e-09	-1.559691e+01	-7.313300e+01
1.360000e-06	-2.198421e-06	-1.033462e-09	-1.529549e+01	-7.260659e+01
1.370000e-06	-2.154960e-06	-1.024526e-09	-1.499312e+01	-7.206839e+01
1.380000e-06	-2.111410e-06	-1.013586e-09	-1.469012e+01	-7.151786e+01
1.390000e-06	-2.067770e-06	-1.002032e-09	-1.438649e+01	-7.095453e+01
1.400000e-06	-2.024052e-06	-9.892853e-10	-1.408232e+01	-7.037797e+01
1.410000e-06	-1.980279e-06	-9.774947e-10	-1.377778e+01	-6.978780e+01
1.420000e-06	-1.936444e-06	-9.681823e-10	-1.347280e+01	-6.918371e+01
1.430000e-06	-1.892518e-06	-9.579794e-10	-1.316718e+01	-6.856546e+01
1.440000e-06	-1.848487e-06	-9.484676e-10	-1.286084e+01	-6.793286e+01
1.450000e-06	-1.804353e-06	-9.389287e-10	-1.255377e+01	-6.728580e+01
1.460000e-06	-1.760124e-06	-9.307201e-10	-1.224605e+01	-6.662423e+01
1.470000e-06	-1.715747e-06	-9.214651e-10	-1.193730e+01	-6.594815e+01
1.480000e-06	-1.671170e-06	-9.128889e-10	-1.162715e+01	-6.525761e+01
1.490000e-06	-1.626457e-06	-9.015405e-10	-1.131606e+01	-6.455273e+01
1.500000e-06	-1.581640e-06	-8.869952e-10	-1.100425e+01	-6.383363e+01
1.510000e-06	-1.536723e-06	-8.711496e-10	-1.069174e+01	-6.310050e+01
1.520000e-06	-1.491671e-06	-8.579552e-10	-1.037829e+01	-6.235350e+01
1.530000e-06	-1.446427e-06	-8.474942e-10	-1.006351e+01	-6.159281e+01
1.540000e-06	-1.401090e-06	-8.399115e-10	-9.748072e+00	-6.081862e+01
1.550000e-06	-1.355709e-06	-8.311164e-10	-9.432334e+00	-6.003106e+01
1.560000e-06	-1.310197e-06	-8.184798e-10	-9.115683e+00	-5.923023e+01
1.570000e-06	-1.264611e-06	-8.015087e-10	-8.798521e+00	-5.841619e+01
1.580000e-06	-1.219064e-06	-7.853724e-10	-8.481627e+00	-5.758889e+01
1.590000e-06	-1.173451e-06	-7.691951e-10	-8.164273e+00	-5.674825e+01
1.600000e-06	-1.127721e-06	-7.520989e-10	-7.846109e+00	-5.589405e+01
1.610000e-06	-1.081873e-06	-7.370886e-10	-7.527121e+00	-5.502597e+01
1.620000e-06	-1.035913e-06	-7.229931e-10	-7.207357e+00	-5.414360e+01
1.630000e-06	-9.899263e-07	-7.091398e-10	-6.887405e+00	-5.324636e+01
1.640000e-06	-9.438670e-07	-6.963069e-10	-6.566947e+00	-5.233357e+01
1.650000e-06	-8.976968e-07	-6.865420e-10	-6.245718e+00	-5.140441e+01
1.660000e-06	-8.514536e-07	-6.778194e-10	-5.923982e+00	-5.045790e+01
1.670000e-06	-8.051710e-07	-6.670771e-10	-5.601971e+00	-4.949296e+01
1.680000e-06	-7.588145e-07	-6.504493e-10	-5.279446e+00	-4.850836e+01
1.690000e-06	-7.124000e-07	-6.307734e-10	-4.956518e+00	-4.750274e+01
1.700000e-06	-6.659994e-07	-6.098540e-10	-4.633686e+00	-4.647463e+01
1.710000e-06	-6.195588e-07	-5.874586e-10	-4.310576e+00	-4.542248e+01
1.720000e-06	-5.731200e-07	-5.665498e-10	-3.987478e+00	-4.434464e+01
1.730000e-06	-5.266691e-07	-5.504519e-10	-3.664296e+00	-4.323937e+01
1.740000e-06	-4.800120e-07	-5.381671e-10	-3.339680e+00	-4.210493e+01
1.750000e-06	-4.332882e-07	-5.261603e-10	-3.014600e+00	-4.093951e+01
1.760000e-06	-3.865839e-07	-5.096966e-10	-2.689654e+00	-3.974133e+01
1.770000e-06	-3.398126e-07	-4.884353e-10	-2.364243e+00	-3.850862e+01
1.780000e-06	-2.930306e-07	-4.633658e-10	-2.038758e+00	-3.723966e+01
1.790000e-06	-2.462325e-07	-4.378283e-10	-1.713161e+00	-3.593281e+01
1.800000e-06	-1.993872e-07	-4.163877e-10	-1.387235e+00	-3.458653e+01
1.810000e-06	-1.524970e-07	-3.991496e-10	-1.060997e+00	-3.319941e+01
1.820000e-06	-1.056126e-07	-3.830146e-10	-7.347991e-01	-3.177020e+01
1.830000e-06	-5.885569e-08	-3.660299e-10	-4.094880e-01	-3.029782e+01
1.840000e-06	-1.213118e-08	-3.465018e-10	-8.440256e-02	-2.878141e+01
1.850000e-06	3.462507e-08	-3.249735e-10	2.409037e-01	-2.722030e+01
1.860000e-06	8.135119e-08	-3.025674e-10	5.660003e-01	-2.561411e+01
1.870000e-06	1.281141e-07	-2.811591e-10	8.913527e-01	-2.396267e+01
1.880000e-06	1.748955e-07	-2.593038e-10	1.216834e+00	-2.226611e+01
1.890000e-06	2.215958e-07	-2.355789e-10	1.541751e+00	-2.052483e+01
1.900000e-06	2.682111e-07	-2.091247e-10	1.866077e+00	-1.873952e+01
1.910000e-06	3.148035e-07	-1.808462e-10	2.190243e+00	-1.691117e+01
1.920000e-06	3.613822e-07	-1.540756e-10	2.514314e+00	-1.504104e+01
1.930000e-06	4.079128e-07	-1.272115e-10	2.838050e+00	-1.313069e+01
1.940000e-06	4.544382e-07	-1.011642e-10	3.161750e+00	-1.118195e+01
1.950000e-06	5.010256e-07	-7.778379e-11	3.485881e+00	-9.196931e+00
1.960000e-06	5.475653e-07	-5.527007e-11	3.809681e+00	-7.177982e+00
1.970000e-06	5.940069e-07	-2.824545e-11	4.132798e+00	-5.127694e+00
1.980000e-06	6.404331e-07	3.585932e-12	4.455808e+00	-3.048871e+00
1.990000e-06	6.867943e-07	3.781240e-11	4.778366e+00	-9.445112e-01
2.000000e-06	7.330516e-07	7.105478e-11	5.100201e+00	1.182218e+00
2.010000e-06	7.792669e-07	1.011170e-10	5.421743e+00	3.328010e+00
2.020000e-06	8.254206e-07	1.306426e-10	5.742857e+00	5.489443e+00
2.030000e-06	8.715273e-07	1.606878e-10	6.063644e+00	7.663011e+00
2.040000e-06	9.175884e-07	1.908319e-10	6.384114e+00	9.845151e+00
2.050000e-06	9.635965e-07	2.197791e-10	6.704215e+00	1.203228e+01
2.060000e-06	1.009564e-06	2.478888e-10	7.024032e+00	1.422080e+01
2.070000e-06	1.055437e-06	2.777300e-10	7.343198e+00	1.640718e+01
2.080000e-06	1.101250e-06	3.086019e-10	7.661936e+00	1.858791e+01
2.090000e-06	1.147004e-06	3.395411e-10	7.980271e+00	2.075959e+01
2.100000e-06	1.192666e-06	3.715436e-10	8.297967e+00	2.291892e+01
2.110000e-06	1.238261e-06	4.027887e-10	8.615192e+00	2.506274e+01
2.120000e-06	1.283790e-06	4.323868e-10	8.931961e+00	2.718803e+01
2.130000e-06	1.329246e-06	4.619448e-10	9.248218e+00	2.929196e+01
2.140000e-06	1.374589e-06	4.906427e-10	9.563689e+00	3.137186e+01
2.150000e-06	1.419822e-06	5.164661e-10	9.878403e+00	3.342527e+01
2.160000e-06	1.464974e-06	5.413720e-10	1.019255e+01	3.544995e+01
2.170000e-06	1.510049e-06	5.669219e-10	1.050615e+01	3.744384e+01
2.180000e-06	1.555047e-06	5.942691e-10	1.081923e+01	3.940514e+01
2.190000e-06	1.599856e-06	6.238100e-10	1.113098e+01	4.133224e+01
2.200000e-06	1.644496e-06	6.536845e-10	1.144157e+01	4.322374e+01
2.210000e-06	1.689017e-06	6.819698e-10	1.175132e+01	4.507849e+01
2.220000e-06	1.733401e-06	7.071907e-10	1.206013e+01	4.689552e+01
2.230000e-06	1.777690e-06	7.302382e-10	1.236826e+01	4.867408e+01
2.240000e-06	1.821874e-06	7.520320e-10	1.267567e+01	5.041358e+01
2.250000e-06	1.865977e-06	7.711284e-10	1.298252e+01	5.211365e+01
2.260000e-06	1.909952e-06	7.889023e-10	1.328848e+01	5.377406e+01
2.270000e-06	1.953763e-06	8.089449e-10	1.359329e+01	5.539475e+01
2.280000e-06	1.997457e-06	8.301615e-10	1.389729e+01	5.697580e+01
2.290000e-06	2.041064e-06	8.515265e-10	1.420068e+01	5.851742e+01
2.300000e-06	2.084647e-06	8.745378e-10	1.450391e+01	6.001992e+01
2.310000e-06	2.128228e-06	8.971183e-10	1.480713e+01	6.148373e+01
2.320000e-06	2.171763e-06	9.168285e-10	1.511003e+01	6.290935e+01
2.330000e-06	2.215215e-06	9.337129e-10	1.541234e+01	6.429736e+01
2.340000e-06	2.258524e-06	9.490097e-10	1.571366e+01	6.564839e+01
2.350000e-06	2.301706e-06	9.641001e-10	1.601410e+01	6.696315e+01
2.360000e-06	2.344696e-06	9.783613e-10	1.631320e+01	6.824234e+01
2.370000e-06	2.387432e-06	9.938151e-10	1.661054e+01	6.948671e+01
2.380000e-06	2.429881e-06	1.011300e-09	1.690588e+01	7.069705e+01
2.390000e-06	2.471973e-06	1.029628e-09	1.719873e+01	7.187412e+01
2.400000e-06	2.513648e-06	1.047493e-09	1.748869e+01	7.301871e+01
2.410000e-06	2.554928e-06	1.062646e-09	1.777589e+01	7.413160e+01
2.420000e-06	2.596036e-06	1.073993e-09	1.806190e+01	7.521356e+01
2.430000e-06	2.636963e-06	1.085115e-09	1.834665e+01	7.626537e+01
2.440000e-06	2.677517e-06	1.099492e-09	1.862880e+01	7.728776e+01
2.450000e-06	2.717754e-06	1.115506e-09	1.890875e+01	7.828148e+01
2.460000e-06	2.757828e-06	1.130783e-09	1.918756e+01	7.924726e+01
2.470000e-06	2.797697e-06	1.143894e-09	1.946495e+01	8.018578e+01
2.480000e-06	2.837404e-06	1.156425e-09	1.974122e+01	8.109775e+01
2.490000e-06	2.877038e-06	1.168489e-09	2.001697e+01	8.198383e+01
2.500000e-06	2.916603e-06	1.177138e-09	2.029225e+01	8.284468e+01
2.510000e-06	2.956099e-06	1.187325e-09	2.056704e+01	8.368093e+01
2.520000e-06	2.995429e-06	1.198431e-09	2.084067e+01	8.449322e+01
2.530000e-06	3.034581e-06	1.211077e-09	2.111307e+01	8.528214e+01
2.540000e-06	3.073529e-06	1.225331e-09	2.138405e+01	8.604831e+01
2.550000e-06	3.112175e-06	1.236462e-09	2.165293e+01	8.679229e+01
2.560000e-06	3.150533e-06	1.243189e-09	2.191981e+01	8.751467e+01
2.570000e-06	3.188649e-06	1.245870e-09	2.218500e+01	8.821599e+01
2.580000e-06	3.226506e-06	1.248904e-09	2.244839e+01	8.889681e+01
2.590000e-06	3.264169e-06	1.255529e-09	2.271043e+01	8.955766e+01
2.600000e-06	3.301721e-06	1.268469e-09	2.297170e+01	9.019905e+01
2.610000e-06	3.339143e-06	1.283499e-09	2.323206e+01	9.082150e+01
2.620000e-06	3.376392e-06	1.298208e-09	2.349122e+01	9.142549e+01
2.630000e-06	3.413349e-06	1.309226e-09	2.374835e+01	9.201150e+01
2.640000e-06	3.449951e-06	1.315036e-09	2.400301e+01	9.258000e+01
2.650000e-06	3.486258e-06	1.319632e-09	2.425561e+01	9.313143e+01
2.660000e-06	3.522295e-06	1.322815e-09	2.450634e+01	9.366622e+01
2.670000e-06	3.558117e-06	1.324698e-09	2.475557e+01	9.418477e+01
2.680000e-06	3.593844e-06	1.328435e-09	2.500414e+01	9.468749e+01
2.690000e-06	3.629501e-06	1.337275e-09	2.525223e+01	9.517475e+01
2.700000e-06	3.664999e-06	1.349125e-09	2.549920e+01	9.564691e+01
2.710000e-06	3.700350e-06	1.357456e-09	2.574516e+01	9.610432e+01
2.720000e-06	3.735520e-06	1.363236e-09	2.598985e+01	9.654729e+01
2.730000e-06	3.770328e-06	1.366318e-09	2.623203e+01	9.697614e+01
2.740000e-06	3.804726e-06	1.365669e-09	2.647135e+01	9.739116e+01
2.750000e-06	3.838700e-06	1.365270e-09	2.670773e+01	9.779265e+01
2.760000e-06	3.872200e-06	1.370402e-09	2.694080e+01	9.818087e+01
2.770000e-06	3.905143e-06	1.381189e-09	2.717000e+01	9.855609e+01
2.780000e-06	3.937643e-06	1.392280e-09	2.739612e+01	9.891856e+01
2.790000e-06	3.969822e-06	1.401503e-09	2.762001e+01	9.926855e+01
2.800000e-06	4.001722e-06	1.408558e-09	2.784195e+01	9.960631e+01
2.810000e-06	4.033476e-06	1.412666e-09	2.806288e+01	9.993208e+01
2.820000e-06	4.065110e-06	1.415100e-09	2.828297e+01	1.002461e+02
2.830000e-06	4.096584e-06	1.419226e-09	2.850195e+01	1.005487e+02
2.840000e-06	4.127831e-06	1.423813e-09	2.871935e+01	1.008401e+02
2.850000e-06	4.158800e-06	1.428233e-09	2.893482e+01	1.011205e+02
2.860000e-06	4.189459e-06	1.433774e-09	2.914813e+01	1.013903e+02
2.870000e-06	4.219743e-06	1.440072e-09	2.935883e+01	1.016498e+02
2.880000e-06	4.249642e-06	1.444794e-09	2.956685e+01	1.018992e+02
2.890000e-06	4.279283e-06	1.447937e-09	2.977308e+01	1.021388e+02
2.900000e-06	4.308712e-06	1.452218e-09	2.997783e+01	1.023691e+02
