# Temperatura_=_14.9
# Concentracion g/m^3_=_1620.0
# C_Vs_to_Am_M_A/Vsm_=_65563218390.804596
# pendiente_HvsI_1/m_=_3716.3
# ordenada_HvsI_A/m_=_1297.0
# frecuencia_Hz_=_135106.6125925199

Tiempo_(s)	Campo_(V.s)	Magnetizacion_(V.s)	Campo_(kA/m)	Magnetizacion_(A/m)
0.000000e+00	-5.520632e-06	-1.834054e-09	-3.836039e+01	-1.195629e+02
1.000000e-08	-5.520877e-06	-1.835415e-09	-3.836209e+01	-1.194995e+02
2.000000e-08	-5.520867e-06	-1.838440e-09	-3.836203e+01	-1.194352e+02
3.000000e-08	-5.520566e-06	-1.840877e-09	-3.835994e+01	-1.193706e+02
4.000000e-08	-5.519936e-06	-1.840017e-09	-3.835556e+01	-1.193059e+02
5.000000e-08	-5.518765e-06	-1.835020e-09	-3.834742e+01	-1.192414e+02
6.000000e-08	-5.516923e-06	-1.819955e-09	-3.833462e+01	-1.191772e+02
7.000000e-08	-5.514546e-06	-1.801447e-09	-3.831810e+01	-1.191138e+02
8.000000e-08	-5.511652e-06	-1.822862e-09	-3.829799e+01	-1.190512e+02
9.000000e-08	-5.508198e-06	-1.883340e-09	-3.827399e+01	-1.189896e+02
1.000000e-07	-5.504227e-06	-1.902568e-09	-3.824640e+01	-1.189291e+02
1.100000e-07	-5.499936e-06	-1.845210e-09	-3.821659e+01	-1.188697e+02
1.200000e-07	-5.495502e-06	-1.788978e-09	-3.818577e+01	-1.188115e+02
1.300000e-07	-5.490833e-06	-1.808943e-09	-3.815333e+01	-1.187543e+02
1.400000e-07	-5.485822e-06	-1.837279e-09	-3.811851e+01	-1.186982e+02
1.500000e-07	-5.480412e-06	-1.814546e-09	-3.808092e+01	-1.186429e+02
1.600000e-07	-5.474615e-06	-1.796359e-09	-3.804064e+01	-1.185881e+02
1.700000e-07	-5.468391e-06	-1.821608e-09	-3.799739e+01	-1.185336e+02
1.800000e-07	-5.461653e-06	-1.843077e-09	-3.795058e+01	-1.184791e+02
1.900000e-07	-5.454515e-06	-1.810263e-09	-3.790097e+01	-1.184242e+02
2.000000e-07	-5.447135e-06	-1.799238e-09	-3.784969e+01	-1.183684e+02
2.100000e-07	-5.439479e-06	-1.823134e-09	-3.779649e+01	-1.183113e+02
2.200000e-07	-5.431525e-06	-1.854715e-09	-3.774123e+01	-1.182523e+02
2.300000e-07	-5.423379e-06	-1.846529e-09	-3.768463e+01	-1.181910e+02
2.400000e-07	-5.414999e-06	-1.837897e-09	-3.762639e+01	-1.181267e+02
2.500000e-07	-5.406047e-06	-1.835454e-09	-3.756419e+01	-1.180589e+02
2.600000e-07	-5.396189e-06	-1.833737e-09	-3.749569e+01	-1.179871e+02
2.700000e-07	-5.385597e-06	-1.826208e-09	-3.742209e+01	-1.179105e+02
2.800000e-07	-5.374579e-06	-1.822701e-09	-3.734554e+01	-1.178288e+02
2.900000e-07	-5.363192e-06	-1.826108e-09	-3.726641e+01	-1.177412e+02
3.000000e-07	-5.351434e-06	-1.826905e-09	-3.718471e+01	-1.176474e+02
3.100000e-07	-5.339264e-06	-1.816303e-09	-3.710014e+01	-1.175467e+02
3.200000e-07	-5.326620e-06	-1.794696e-09	-3.701229e+01	-1.174387e+02
3.300000e-07	-5.313540e-06	-1.790158e-09	-3.692140e+01	-1.173231e+02
3.400000e-07	-5.300148e-06	-1.793831e-09	-3.682835e+01	-1.171994e+02
3.500000e-07	-5.286333e-06	-1.789073e-09	-3.673235e+01	-1.170673e+02
3.600000e-07	-5.271980e-06	-1.788937e-09	-3.663262e+01	-1.169266e+02
3.700000e-07	-5.257310e-06	-1.812489e-09	-3.653069e+01	-1.167772e+02
3.800000e-07	-5.242298e-06	-1.805831e-09	-3.642637e+01	-1.166188e+02
3.900000e-07	-5.226652e-06	-1.773830e-09	-3.631765e+01	-1.164515e+02
4.000000e-07	-5.210409e-06	-1.774664e-09	-3.620479e+01	-1.162752e+02
4.100000e-07	-5.193815e-06	-1.790508e-09	-3.608949e+01	-1.160901e+02
4.200000e-07	-5.176885e-06	-1.761898e-09	-3.597185e+01	-1.158962e+02
4.300000e-07	-5.159586e-06	-1.761675e-09	-3.585164e+01	-1.156937e+02
4.400000e-07	-5.142045e-06	-1.804181e-09	-3.572976e+01	-1.154830e+02
4.500000e-07	-5.124228e-06	-1.800656e-09	-3.560596e+01	-1.152642e+02
4.600000e-07	-5.106004e-06	-1.759535e-09	-3.547933e+01	-1.150378e+02
4.700000e-07	-5.087296e-06	-1.776006e-09	-3.534933e+01	-1.148041e+02
4.800000e-07	-5.068072e-06	-1.785361e-09	-3.521576e+01	-1.145635e+02
4.900000e-07	-5.048524e-06	-1.750522e-09	-3.507993e+01	-1.143165e+02
5.000000e-07	-5.028811e-06	-1.747108e-09	-3.494295e+01	-1.140636e+02
5.100000e-07	-5.008941e-06	-1.769273e-09	-3.480488e+01	-1.138051e+02
5.200000e-07	-4.988830e-06	-1.740017e-09	-3.466514e+01	-1.135416e+02
5.300000e-07	-4.968394e-06	-1.730726e-09	-3.452314e+01	-1.132735e+02
5.400000e-07	-4.947597e-06	-1.763837e-09	-3.437863e+01	-1.130013e+02
5.500000e-07	-4.926423e-06	-1.752659e-09	-3.423150e+01	-1.127254e+02
5.600000e-07	-4.904954e-06	-1.716865e-09	-3.408232e+01	-1.124462e+02
5.700000e-07	-4.883174e-06	-1.737375e-09	-3.393098e+01	-1.121641e+02
5.800000e-07	-4.860997e-06	-1.749176e-09	-3.377688e+01	-1.118795e+02
5.900000e-07	-4.838394e-06	-1.718561e-09	-3.361982e+01	-1.115926e+02
6.000000e-07	-4.815471e-06	-1.716931e-09	-3.346054e+01	-1.113038e+02
6.100000e-07	-4.792322e-06	-1.727611e-09	-3.329969e+01	-1.110132e+02
6.200000e-07	-4.768903e-06	-1.701042e-09	-3.313696e+01	-1.107211e+02
6.300000e-07	-4.745279e-06	-1.686421e-09	-3.297281e+01	-1.104276e+02
6.400000e-07	-4.721408e-06	-1.700976e-09	-3.280694e+01	-1.101327e+02
6.500000e-07	-4.697102e-06	-1.695438e-09	-3.263805e+01	-1.098365e+02
6.600000e-07	-4.672381e-06	-1.686315e-09	-3.246628e+01	-1.095390e+02
6.700000e-07	-4.647295e-06	-1.694248e-09	-3.229196e+01	-1.092402e+02
6.800000e-07	-4.621747e-06	-1.691065e-09	-3.211444e+01	-1.089399e+02
6.900000e-07	-4.595613e-06	-1.670835e-09	-3.193285e+01	-1.086382e+02
7.000000e-07	-4.568916e-06	-1.662524e-09	-3.174735e+01	-1.083346e+02
7.100000e-07	-4.541783e-06	-1.656597e-09	-3.155881e+01	-1.080292e+02
7.200000e-07	-4.514314e-06	-1.647776e-09	-3.136794e+01	-1.077217e+02
7.300000e-07	-4.486608e-06	-1.645083e-09	-3.117542e+01	-1.074118e+02
7.400000e-07	-4.458718e-06	-1.649197e-09	-3.098163e+01	-1.070994e+02
7.500000e-07	-4.430619e-06	-1.641755e-09	-3.078638e+01	-1.067840e+02
7.600000e-07	-4.402260e-06	-1.633888e-09	-3.058932e+01	-1.064655e+02
7.700000e-07	-4.373589e-06	-1.626384e-09	-3.039010e+01	-1.061435e+02
7.800000e-07	-4.344621e-06	-1.617143e-09	-3.018882e+01	-1.058178e+02
7.900000e-07	-4.315397e-06	-1.608423e-09	-2.998575e+01	-1.054880e+02
8.000000e-07	-4.285877e-06	-1.607476e-09	-2.978063e+01	-1.051540e+02
8.100000e-07	-4.256053e-06	-1.601310e-09	-2.957340e+01	-1.048153e+02
8.200000e-07	-4.225950e-06	-1.591009e-09	-2.936423e+01	-1.044719e+02
8.300000e-07	-4.195598e-06	-1.584016e-09	-2.915333e+01	-1.041233e+02
8.400000e-07	-4.164958e-06	-1.578120e-09	-2.894042e+01	-1.037695e+02
8.500000e-07	-4.133950e-06	-1.569990e-09	-2.872496e+01	-1.034101e+02
8.600000e-07	-4.102659e-06	-1.568838e-09	-2.850753e+01	-1.030451e+02
8.700000e-07	-4.071182e-06	-1.569510e-09	-2.828882e+01	-1.026741e+02
8.800000e-07	-4.039508e-06	-1.561845e-09	-2.806873e+01	-1.022972e+02
8.900000e-07	-4.007714e-06	-1.552477e-09	-2.784781e+01	-1.019141e+02
9.000000e-07	-3.975831e-06	-1.545167e-09	-2.762626e+01	-1.015248e+02
9.100000e-07	-3.943667e-06	-1.531403e-09	-2.740277e+01	-1.011293e+02
9.200000e-07	-3.911147e-06	-1.516621e-09	-2.717680e+01	-1.007274e+02
9.300000e-07	-3.878229e-06	-1.512166e-09	-2.694807e+01	-1.003191e+02
9.400000e-07	-3.844859e-06	-1.509422e-09	-2.671620e+01	-9.990454e+01
9.500000e-07	-3.810996e-06	-1.503293e-09	-2.648090e+01	-9.948365e+01
9.600000e-07	-3.776590e-06	-1.499523e-09	-2.624182e+01	-9.905651e+01
9.700000e-07	-3.741822e-06	-1.496057e-09	-2.600024e+01	-9.862319e+01
9.800000e-07	-3.706765e-06	-1.483125e-09	-2.575665e+01	-9.818379e+01
9.900000e-07	-3.671374e-06	-1.470956e-09	-2.551072e+01	-9.773843e+01
1.000000e-06	-3.635786e-06	-1.462754e-09	-2.526344e+01	-9.728724e+01
1.010000e-06	-3.600019e-06	-1.452253e-09	-2.501492e+01	-9.683037e+01
1.020000e-06	-3.564047e-06	-1.440107e-09	-2.476496e+01	-9.636798e+01
1.030000e-06	-3.527987e-06	-1.434010e-09	-2.451440e+01	-9.590025e+01
1.040000e-06	-3.491806e-06	-1.428009e-09	-2.426299e+01	-9.542736e+01
1.050000e-06	-3.455427e-06	-1.420845e-09	-2.401021e+01	-9.494950e+01
1.060000e-06	-3.418797e-06	-1.415533e-09	-2.375569e+01	-9.446685e+01
1.070000e-06	-3.381852e-06	-1.407846e-09	-2.349897e+01	-9.397961e+01
1.080000e-06	-3.344649e-06	-1.392652e-09	-2.324046e+01	-9.348795e+01
1.090000e-06	-3.307232e-06	-1.379922e-09	-2.298047e+01	-9.299207e+01
1.100000e-06	-3.269464e-06	-1.369929e-09	-2.271804e+01	-9.249211e+01
1.110000e-06	-3.231407e-06	-1.358307e-09	-2.245360e+01	-9.198824e+01
1.120000e-06	-3.193215e-06	-1.346390e-09	-2.218822e+01	-9.148057e+01
1.130000e-06	-3.154853e-06	-1.339243e-09	-2.192166e+01	-9.096921e+01
1.140000e-06	-3.116268e-06	-1.333466e-09	-2.165355e+01	-9.045425e+01
1.150000e-06	-3.077399e-06	-1.328322e-09	-2.138346e+01	-8.993572e+01
1.160000e-06	-3.038367e-06	-1.324298e-09	-2.111224e+01	-8.941364e+01
1.170000e-06	-2.999212e-06	-1.317153e-09	-2.084018e+01	-8.888798e+01
1.180000e-06	-2.959769e-06	-1.305241e-09	-2.056611e+01	-8.835867e+01
1.190000e-06	-2.920141e-06	-1.293096e-09	-2.029075e+01	-8.782560e+01
1.200000e-06	-2.880472e-06	-1.281965e-09	-2.001511e+01	-8.728861e+01
1.210000e-06	-2.840675e-06	-1.270486e-09	-1.973858e+01	-8.674750e+01
1.220000e-06	-2.800734e-06	-1.261003e-09	-1.946104e+01	-8.620201e+01
1.230000e-06	-2.760644e-06	-1.254705e-09	-1.918247e+01	-8.565184e+01
1.240000e-06	-2.720346e-06	-1.247571e-09	-1.890246e+01	-8.509666e+01
1.250000e-06	-2.679818e-06	-1.235628e-09	-1.862085e+01	-8.453606e+01
1.260000e-06	-2.639084e-06	-1.225275e-09	-1.833781e+01	-8.396962e+01
1.270000e-06	-2.598124e-06	-1.216222e-09	-1.805320e+01	-8.339686e+01
1.280000e-06	-2.556882e-06	-1.203697e-09	-1.776662e+01	-8.281727e+01
1.290000e-06	-2.515349e-06	-1.189366e-09	-1.747803e+01	-8.223032e+01
1.300000e-06	-2.473543e-06	-1.178221e-09	-1.718754e+01	-8.163545e+01
1.310000e-06	-2.431429e-06	-1.167999e-09	-1.689491e+01	-8.103208e+01
1.320000e-06	-2.389027e-06	-1.155973e-09	-1.660028e+01	-8.041960e+01
1.330000e-06	-2.346313e-06	-1.144034e-09	-1.630348e+01	-7.979743e+01
1.340000e-06	-2.303340e-06	-1.132704e-09	-1.600488e+01	-7.916497e+01
1.350000e-06	-2.260192e-06	-1.121385e-09	-1.570506e+01	-7.852164e+01
1.360000e-06	-2.216780e-06	-1.113442e-09	-1.540341e+01	-7.786687e+01
1.370000e-06	-2.173202e-06	-1.106906e-09	-1.510061e+01	-7.720012e+01
1.380000e-06	-2.129557e-06	-1.098234e-09	-1.479733e+01	-7.652089e+01
1.390000e-06	-2.085804e-06	-1.082794e-09	-1.449331e+01	-7.582871e+01
1.400000e-06	-2.041966e-06	-1.064054e-09	-1.418870e+01	-7.512315e+01
1.410000e-06	-1.998098e-06	-1.046780e-09	-1.388388e+01	-7.440386e+01
1.420000e-06	-1.954176e-06	-1.032198e-09	-1.357869e+01	-7.367050e+01
1.430000e-06	-1.910178e-06	-1.022167e-09	-1.327297e+01	-7.292282e+01
1.440000e-06	-1.866106e-06	-1.013755e-09	-1.296673e+01	-7.216063e+01
1.450000e-06	-1.821933e-06	-1.004032e-09	-1.265979e+01	-7.138378e+01
1.460000e-06	-1.777618e-06	-9.907590e-10	-1.235187e+01	-7.059218e+01
1.470000e-06	-1.733203e-06	-9.773645e-10	-1.204325e+01	-6.978583e+01
1.480000e-06	-1.688672e-06	-9.637364e-10	-1.173382e+01	-6.896473e+01
1.490000e-06	-1.644035e-06	-9.488593e-10	-1.142366e+01	-6.812895e+01
1.500000e-06	-1.599324e-06	-9.333458e-10	-1.111299e+01	-6.727862e+01
1.510000e-06	-1.554450e-06	-9.136996e-10	-1.080117e+01	-6.641386e+01
1.520000e-06	-1.509384e-06	-8.958841e-10	-1.048803e+01	-6.553483e+01
1.530000e-06	-1.464154e-06	-8.824723e-10	-1.017375e+01	-6.464169e+01
1.540000e-06	-1.418802e-06	-8.706172e-10	-9.858620e+00	-6.373462e+01
1.550000e-06	-1.373387e-06	-8.601431e-10	-9.543047e+00	-6.281374e+01
1.560000e-06	-1.327909e-06	-8.481985e-10	-9.227040e+00	-6.187917e+01
1.570000e-06	-1.282401e-06	-8.338019e-10	-8.910828e+00	-6.093098e+01
1.580000e-06	-1.236835e-06	-8.184111e-10	-8.594209e+00	-5.996918e+01
1.590000e-06	-1.191158e-06	-8.007531e-10	-8.276825e+00	-5.899370e+01
1.600000e-06	-1.145406e-06	-7.784689e-10	-7.958911e+00	-5.800441e+01
1.610000e-06	-1.099576e-06	-7.556233e-10	-7.640457e+00	-5.700104e+01
1.620000e-06	-1.053595e-06	-7.356072e-10	-7.320956e+00	-5.598327e+01
1.630000e-06	-1.007422e-06	-7.178660e-10	-7.000121e+00	-5.495060e+01
1.640000e-06	-9.612216e-07	-7.034598e-10	-6.679097e+00	-5.390246e+01
1.650000e-06	-9.150242e-07	-6.910994e-10	-6.358092e+00	-5.283813e+01
1.660000e-06	-8.687750e-07	-6.796669e-10	-6.036727e+00	-5.175673e+01
1.670000e-06	-8.224924e-07	-6.664429e-10	-5.715130e+00	-5.065730e+01
1.680000e-06	-7.760691e-07	-6.505180e-10	-5.392555e+00	-4.953870e+01
1.690000e-06	-7.295014e-07	-6.319699e-10	-5.068977e+00	-4.839969e+01
1.700000e-06	-6.829565e-07	-6.095621e-10	-4.745558e+00	-4.723890e+01
1.710000e-06	-6.364712e-07	-5.848110e-10	-4.422552e+00	-4.605486e+01
1.720000e-06	-5.899180e-07	-5.608923e-10	-4.099075e+00	-4.484597e+01
1.730000e-06	-5.433042e-07	-5.418516e-10	-3.775177e+00	-4.361060e+01
1.740000e-06	-4.966184e-07	-5.280419e-10	-3.450778e+00	-4.234701e+01
1.750000e-06	-4.498423e-07	-5.166952e-10	-3.125752e+00	-4.105344e+01
1.760000e-06	-4.031849e-07	-5.021915e-10	-2.801550e+00	-3.972811e+01
1.770000e-06	-3.566147e-07	-4.818914e-10	-2.477955e+00	-3.836921e+01
1.780000e-06	-3.099428e-07	-4.588893e-10	-2.153653e+00	-3.697501e+01
1.790000e-06	-2.631794e-07	-4.344023e-10	-1.828715e+00	-3.554379e+01
1.800000e-06	-2.163423e-07	-4.094109e-10	-1.503265e+00	-3.407393e+01
1.810000e-06	-1.694461e-07	-3.861480e-10	-1.177405e+00	-3.256392e+01
1.820000e-06	-1.225001e-07	-3.642457e-10	-8.511985e-01	-3.101238e+01
1.830000e-06	-7.559093e-08	-3.434015e-10	-5.252474e-01	-2.941810e+01
1.840000e-06	-2.877922e-08	-3.237196e-10	-1.999739e-01	-2.778005e+01
1.850000e-06	1.802792e-08	-3.046179e-10	1.252679e-01	-2.609741e+01
1.860000e-06	6.484710e-08	-2.836404e-10	4.505934e-01	-2.436961e+01
1.870000e-06	1.116477e-07	-2.601297e-10	7.757899e-01	-2.259633e+01
1.880000e-06	1.584461e-07	-2.351033e-10	1.100971e+00	-2.077751e+01
1.890000e-06	2.051558e-07	-2.092437e-10	1.425536e+00	-1.891339e+01
1.900000e-06	2.519018e-07	-1.814581e-10	1.750352e+00	-1.700450e+01
1.910000e-06	2.987557e-07	-1.525368e-10	2.075919e+00	-1.505168e+01
1.920000e-06	3.455988e-07	-1.243171e-10	2.401411e+00	-1.305607e+01
1.930000e-06	3.923472e-07	-9.559051e-11	2.726245e+00	-1.101914e+01
1.940000e-06	4.389469e-07	-6.708069e-11	3.050045e+00	-8.942624e+00
1.950000e-06	4.854797e-07	-4.003900e-11	3.373380e+00	-6.828599e+00
1.960000e-06	5.319564e-07	-1.344753e-11	3.696326e+00	-4.679402e+00
1.970000e-06	5.784459e-07	1.446591e-11	4.019361e+00	-2.497647e+00
1.980000e-06	6.249672e-07	4.325325e-11	4.342616e+00	-2.862002e-01
1.990000e-06	6.714289e-07	7.341455e-11	4.665458e+00	1.951842e+00
2.000000e-06	7.177775e-07	1.058113e-10	4.987514e+00	4.213177e+00
2.010000e-06	7.640318e-07	1.398741e-10	5.308914e+00	6.494323e+00
2.020000e-06	8.102802e-07	1.743509e-10	5.630273e+00	8.791649e+00
2.030000e-06	8.565013e-07	2.089776e-10	5.951443e+00	1.110141e+01
2.040000e-06	9.026907e-07	2.431459e-10	6.272392e+00	1.341976e+01
2.050000e-06	9.489243e-07	2.755247e-10	6.593648e+00	1.574282e+01
2.060000e-06	9.950481e-07	3.059920e-10	6.914142e+00	1.806669e+01
2.070000e-06	1.041021e-06	3.358457e-10	7.233589e+00	2.038747e+01
2.080000e-06	1.086970e-06	3.671843e-10	7.552868e+00	2.270131e+01
2.090000e-06	1.132881e-06	4.028155e-10	7.871881e+00	2.500445e+01
2.100000e-06	1.178675e-06	4.403947e-10	8.190080e+00	2.729323e+01
2.110000e-06	1.224344e-06	4.750985e-10	8.507416e+00	2.956414e+01
2.120000e-06	1.269926e-06	5.076761e-10	8.824145e+00	3.181382e+01
2.130000e-06	1.315390e-06	5.389793e-10	9.140056e+00	3.403910e+01
2.140000e-06	1.360733e-06	5.693732e-10	9.455122e+00	3.623703e+01
2.150000e-06	1.405978e-06	5.968801e-10	9.769508e+00	3.840487e+01
2.160000e-06	1.451145e-06	6.213588e-10	1.008335e+01	4.054014e+01
2.170000e-06	1.496269e-06	6.452715e-10	1.039690e+01	4.264059e+01
2.180000e-06	1.541236e-06	6.703293e-10	1.070936e+01	4.470425e+01
2.190000e-06	1.586004e-06	6.981975e-10	1.102043e+01	4.672939e+01
2.200000e-06	1.630727e-06	7.292728e-10	1.133119e+01	4.871456e+01
2.210000e-06	1.675338e-06	7.604071e-10	1.164117e+01	5.065858e+01
2.220000e-06	1.719731e-06	7.899834e-10	1.194964e+01	5.256050e+01
2.230000e-06	1.764045e-06	8.183278e-10	1.225756e+01	5.441965e+01
2.240000e-06	1.808305e-06	8.424546e-10	1.256510e+01	5.623556e+01
2.250000e-06	1.852454e-06	8.610905e-10	1.287187e+01	5.800802e+01
2.260000e-06	1.896520e-06	8.771011e-10	1.317807e+01	5.973701e+01
2.270000e-06	1.940504e-06	8.955342e-10	1.348369e+01	6.142270e+01
2.280000e-06	1.984457e-06	9.169693e-10	1.378910e+01	6.306544e+01
2.290000e-06	2.028330e-06	9.417136e-10	1.409396e+01	6.466573e+01
2.300000e-06	2.072131e-06	9.676967e-10	1.439830e+01	6.622420e+01
2.310000e-06	2.115932e-06	9.932035e-10	1.470266e+01	6.774161e+01
2.320000e-06	2.159668e-06	1.016579e-09	1.500656e+01	6.921879e+01
2.330000e-06	2.203310e-06	1.034007e-09	1.530981e+01	7.065666e+01
2.340000e-06	2.246848e-06	1.045885e-09	1.561234e+01	7.205620e+01
2.350000e-06	2.290180e-06	1.057653e-09	1.591343e+01	7.341842e+01
2.360000e-06	2.333221e-06	1.073038e-09	1.621251e+01	7.474434e+01
2.370000e-06	2.375952e-06	1.091998e-09	1.650942e+01	7.603501e+01
2.380000e-06	2.418453e-06	1.113833e-09	1.680474e+01	7.729146e+01
2.390000e-06	2.460693e-06	1.136395e-09	1.709825e+01	7.851469e+01
2.400000e-06	2.502521e-06	1.157048e-09	1.738889e+01	7.970570e+01
2.410000e-06	2.543986e-06	1.174593e-09	1.767701e+01	8.086542e+01
2.420000e-06	2.585185e-06	1.188068e-09	1.796329e+01	8.199476e+01
2.430000e-06	2.626083e-06	1.198828e-09	1.824747e+01	8.309457e+01
2.440000e-06	2.666714e-06	1.211724e-09	1.852980e+01	8.416566e+01
2.450000e-06	2.707171e-06	1.226230e-09	1.881092e+01	8.520878e+01
2.460000e-06	2.747459e-06	1.240079e-09	1.909086e+01	8.622463e+01
2.470000e-06	2.787544e-06	1.253522e-09	1.936939e+01	8.721388e+01
2.480000e-06	2.827443e-06	1.266862e-09	1.964663e+01	8.817712e+01
2.490000e-06	2.867237e-06	1.279765e-09	1.992314e+01	8.911494e+01
2.500000e-06	2.906993e-06	1.291959e-09	2.019939e+01	9.002785e+01
2.510000e-06	2.946632e-06	1.305714e-09	2.047483e+01	9.091636e+01
2.520000e-06	2.986074e-06	1.319385e-09	2.074889e+01	9.178096e+01
2.530000e-06	3.025306e-06	1.330089e-09	2.102149e+01	9.262209e+01
2.540000e-06	3.064293e-06	1.343085e-09	2.129239e+01	9.344019e+01
2.550000e-06	3.102987e-06	1.356649e-09	2.156126e+01	9.423572e+01
2.560000e-06	3.141324e-06	1.366366e-09	2.182765e+01	9.500910e+01
2.570000e-06	3.179399e-06	1.373900e-09	2.209221e+01	9.576078e+01
2.580000e-06	3.217372e-06	1.380987e-09	2.235607e+01	9.649119e+01
2.590000e-06	3.255195e-06	1.387197e-09	2.261889e+01	9.720081e+01
2.600000e-06	3.292909e-06	1.396466e-09	2.288094e+01	9.789010e+01
2.610000e-06	3.330489e-06	1.410892e-09	2.314207e+01	9.855955e+01
2.620000e-06	3.367795e-06	1.427928e-09	2.340130e+01	9.920968e+01
2.630000e-06	3.404813e-06	1.443938e-09	2.365852e+01	9.984100e+01
2.640000e-06	3.441518e-06	1.454293e-09	2.391356e+01	1.004541e+02
2.650000e-06	3.477981e-06	1.460100e-09	2.416693e+01	1.010494e+02
2.660000e-06	3.514228e-06	1.464610e-09	2.441879e+01	1.016277e+02
2.670000e-06	3.550284e-06	1.468918e-09	2.466933e+01	1.021893e+02
2.680000e-06	3.586202e-06	1.474858e-09	2.491890e+01	1.027351e+02
2.690000e-06	3.621998e-06	1.484965e-09	2.516764e+01	1.032655e+02
2.700000e-06	3.657714e-06	1.497895e-09	2.541581e+01	1.037811e+02
2.710000e-06	3.693348e-06	1.509921e-09	2.566342e+01	1.042826e+02
2.720000e-06	3.728710e-06	1.519218e-09	2.590913e+01	1.047704e+02
2.730000e-06	3.763628e-06	1.526170e-09	2.615176e+01	1.052453e+02
2.740000e-06	3.798175e-06	1.530533e-09	2.639181e+01	1.057078e+02
2.750000e-06	3.832349e-06	1.533967e-09	2.662927e+01	1.061584e+02
2.760000e-06	3.866007e-06	1.538042e-09	2.686314e+01	1.065976e+02
2.770000e-06	3.899074e-06	1.543825e-09	2.709291e+01	1.070259e+02
2.780000e-06	3.931641e-06	1.551467e-09	2.731921e+01	1.074438e+02
2.790000e-06	3.963928e-06	1.560567e-09	2.754355e+01	1.078517e+02
2.800000e-06	3.996006e-06	1.569972e-09	2.776645e+01	1.082501e+02
2.810000e-06	4.027905e-06	1.577720e-09	2.798810e+01	1.086392e+02
2.820000e-06	4.059668e-06	1.584266e-09	2.820881e+01	1.090195e+02
2.830000e-06	4.091221e-06	1.592178e-09	2.842806e+01	1.093912e+02
2.840000e-06	4.122615e-06	1.600195e-09	2.864620e+01	1.097546e+02
2.850000e-06	4.153832e-06	1.604778e-09	2.886311e+01	1.101100e+02
2.860000e-06	4.184655e-06	1.608154e-09	2.907728e+01	1.104575e+02
2.870000e-06	4.215070e-06	1.613329e-09	2.928863e+01	1.107973e+02
2.880000e-06	4.245175e-06	1.619471e-09	2.949781e+01	1.111297e+02
2.890000e-06	4.275018e-06	1.625648e-09	2.970518e+01	1.114547e+02
2.900000e-06	4.304633e-06	1.632642e-09	2.991096e+01	1.117725e+02
