# Temperatura_=_-17.25
# Concentracion g/m^3_=_1620.0
# C_Vs_to_Am_M_A/Vsm_=_65563218390.804596
# pendiente_HvsI_1/m_=_3716.3
# ordenada_HvsI_A/m_=_1297.0
# frecuencia_Hz_=_135094.3890988702

Tiempo_(s)	Campo_(V.s)	Magnetizacion_(V.s)	Campo_(kA/m)	Magnetizacion_(A/m)
0.000000e+00	-5.516474e-06	-1.253013e-09	-3.837803e+01	-8.051843e+01
1.000000e-08	-5.516750e-06	-1.251332e-09	-3.837995e+01	-8.056034e+01
2.000000e-08	-5.516796e-06	-1.252284e-09	-3.838028e+01	-8.060171e+01
3.000000e-08	-5.516550e-06	-1.254068e-09	-3.837856e+01	-8.064188e+01
4.000000e-08	-5.515767e-06	-1.254539e-09	-3.837312e+01	-8.068017e+01
5.000000e-08	-5.514442e-06	-1.249250e-09	-3.836390e+01	-8.071585e+01
6.000000e-08	-5.512489e-06	-1.235856e-09	-3.835031e+01	-8.074823e+01
7.000000e-08	-5.509881e-06	-1.224985e-09	-3.833217e+01	-8.077657e+01
8.000000e-08	-5.506848e-06	-1.254096e-09	-3.831106e+01	-8.080019e+01
9.000000e-08	-5.503434e-06	-1.291558e-09	-3.828732e+01	-8.081843e+01
1.000000e-07	-5.499573e-06	-1.276541e-09	-3.826045e+01	-8.083066e+01
1.100000e-07	-5.495280e-06	-1.238937e-09	-3.823059e+01	-8.083635e+01
1.200000e-07	-5.490792e-06	-1.212473e-09	-3.819936e+01	-8.083499e+01
1.300000e-07	-5.486102e-06	-1.239423e-09	-3.816674e+01	-8.082620e+01
1.400000e-07	-5.480944e-06	-1.224571e-09	-3.813086e+01	-8.080966e+01
1.500000e-07	-5.475375e-06	-1.217121e-09	-3.809211e+01	-8.078516e+01
1.600000e-07	-5.469470e-06	-1.237467e-09	-3.805103e+01	-8.075260e+01
1.700000e-07	-5.463148e-06	-1.261140e-09	-3.800705e+01	-8.071199e+01
1.800000e-07	-5.456354e-06	-1.249775e-09	-3.795978e+01	-8.066345e+01
1.900000e-07	-5.449135e-06	-1.217133e-09	-3.790956e+01	-8.060720e+01
2.000000e-07	-5.441610e-06	-1.210289e-09	-3.785721e+01	-8.054360e+01
2.100000e-07	-5.433765e-06	-1.205187e-09	-3.780263e+01	-8.047308e+01
2.200000e-07	-5.425740e-06	-1.218694e-09	-3.774680e+01	-8.039619e+01
2.300000e-07	-5.417571e-06	-1.223805e-09	-3.768997e+01	-8.031356e+01
2.400000e-07	-5.408917e-06	-1.234716e-09	-3.762976e+01	-8.022591e+01
2.500000e-07	-5.399579e-06	-1.211908e-09	-3.756480e+01	-8.013401e+01
2.600000e-07	-5.389563e-06	-1.206725e-09	-3.749512e+01	-8.003870e+01
2.700000e-07	-5.378978e-06	-1.187517e-09	-3.742148e+01	-7.994086e+01
2.800000e-07	-5.367879e-06	-1.189772e-09	-3.734426e+01	-7.984138e+01
2.900000e-07	-5.356310e-06	-1.193398e-09	-3.726378e+01	-7.974118e+01
3.000000e-07	-5.344365e-06	-1.203146e-09	-3.718067e+01	-7.964114e+01
3.100000e-07	-5.331974e-06	-1.194515e-09	-3.709447e+01	-7.954216e+01
3.200000e-07	-5.319205e-06	-1.192531e-09	-3.700564e+01	-7.944507e+01
3.300000e-07	-5.306044e-06	-1.194873e-09	-3.691408e+01	-7.935065e+01
3.400000e-07	-5.292511e-06	-1.186318e-09	-3.681993e+01	-7.925963e+01
3.500000e-07	-5.278606e-06	-1.169974e-09	-3.672319e+01	-7.917265e+01
3.600000e-07	-5.264168e-06	-1.183810e-09	-3.662275e+01	-7.909026e+01
3.700000e-07	-5.249370e-06	-1.197391e-09	-3.651980e+01	-7.901292e+01
3.800000e-07	-5.234203e-06	-1.188056e-09	-3.641428e+01	-7.894099e+01
3.900000e-07	-5.218318e-06	-1.194901e-09	-3.630377e+01	-7.887471e+01
4.000000e-07	-5.201874e-06	-1.211356e-09	-3.618937e+01	-7.881422e+01
4.100000e-07	-5.185157e-06	-1.190896e-09	-3.607307e+01	-7.875954e+01
4.200000e-07	-5.168094e-06	-1.167658e-09	-3.595436e+01	-7.871059e+01
4.300000e-07	-5.150705e-06	-1.201382e-09	-3.583339e+01	-7.866718e+01
4.400000e-07	-5.133123e-06	-1.208257e-09	-3.571106e+01	-7.862904e+01
4.500000e-07	-5.115254e-06	-1.186747e-09	-3.558675e+01	-7.859579e+01
4.600000e-07	-5.096842e-06	-1.195039e-09	-3.545866e+01	-7.856698e+01
4.700000e-07	-5.077952e-06	-1.217283e-09	-3.532725e+01	-7.854210e+01
4.800000e-07	-5.058760e-06	-1.184069e-09	-3.519372e+01	-7.852056e+01
4.900000e-07	-5.039284e-06	-1.181201e-09	-3.505823e+01	-7.850175e+01
5.000000e-07	-5.019599e-06	-1.200225e-09	-3.492129e+01	-7.848504e+01
5.100000e-07	-4.999755e-06	-1.179601e-09	-3.478322e+01	-7.846977e+01
5.200000e-07	-4.979554e-06	-1.154187e-09	-3.464269e+01	-7.845527e+01
5.300000e-07	-4.958989e-06	-1.193219e-09	-3.449962e+01	-7.844091e+01
5.400000e-07	-4.938108e-06	-1.197840e-09	-3.435435e+01	-7.842608e+01
5.500000e-07	-4.916853e-06	-1.170071e-09	-3.420648e+01	-7.841020e+01
5.600000e-07	-4.895235e-06	-1.178099e-09	-3.405608e+01	-7.839273e+01
5.700000e-07	-4.873267e-06	-1.196672e-09	-3.390325e+01	-7.837323e+01
5.800000e-07	-4.851028e-06	-1.169582e-09	-3.374854e+01	-7.835129e+01
5.900000e-07	-4.828448e-06	-1.168773e-09	-3.359145e+01	-7.832657e+01
6.000000e-07	-4.805487e-06	-1.185344e-09	-3.343171e+01	-7.829883e+01
6.100000e-07	-4.782249e-06	-1.167733e-09	-3.327004e+01	-7.826789e+01
6.200000e-07	-4.758742e-06	-1.152517e-09	-3.310650e+01	-7.823366e+01
6.300000e-07	-4.734981e-06	-1.168099e-09	-3.294120e+01	-7.819612e+01
6.400000e-07	-4.710986e-06	-1.164824e-09	-3.277427e+01	-7.815530e+01
6.500000e-07	-4.686737e-06	-1.153327e-09	-3.260557e+01	-7.811133e+01
6.600000e-07	-4.662149e-06	-1.165767e-09	-3.243451e+01	-7.806437e+01
6.700000e-07	-4.637105e-06	-1.167486e-09	-3.226028e+01	-7.801465e+01
6.800000e-07	-4.611439e-06	-1.152990e-09	-3.208172e+01	-7.796241e+01
6.900000e-07	-4.585090e-06	-1.151390e-09	-3.189841e+01	-7.790795e+01
7.000000e-07	-4.558262e-06	-1.152737e-09	-3.171177e+01	-7.785156e+01
7.100000e-07	-4.531103e-06	-1.139340e-09	-3.152283e+01	-7.779355e+01
7.200000e-07	-4.503657e-06	-1.142050e-09	-3.133188e+01	-7.773421e+01
7.300000e-07	-4.476007e-06	-1.153028e-09	-3.113952e+01	-7.767381e+01
7.400000e-07	-4.448189e-06	-1.154023e-09	-3.094599e+01	-7.761261e+01
7.500000e-07	-4.420180e-06	-1.149469e-09	-3.075113e+01	-7.755080e+01
7.600000e-07	-4.391904e-06	-1.154688e-09	-3.055442e+01	-7.748856e+01
7.700000e-07	-4.363371e-06	-1.146785e-09	-3.035591e+01	-7.742598e+01
7.800000e-07	-4.334531e-06	-1.137973e-09	-3.015527e+01	-7.736310e+01
7.900000e-07	-4.305257e-06	-1.135835e-09	-2.995161e+01	-7.729991e+01
8.000000e-07	-4.275661e-06	-1.136960e-09	-2.974572e+01	-7.723631e+01
8.100000e-07	-4.245855e-06	-1.127721e-09	-2.953835e+01	-7.717216e+01
8.200000e-07	-4.215765e-06	-1.128155e-09	-2.932902e+01	-7.710723e+01
8.300000e-07	-4.185380e-06	-1.130752e-09	-2.911763e+01	-7.704124e+01
8.400000e-07	-4.154767e-06	-1.129015e-09	-2.890466e+01	-7.697386e+01
8.500000e-07	-4.123786e-06	-1.128491e-09	-2.868912e+01	-7.690471e+01
8.600000e-07	-4.092500e-06	-1.135128e-09	-2.847147e+01	-7.683338e+01
8.700000e-07	-4.061068e-06	-1.132933e-09	-2.825280e+01	-7.675940e+01
8.800000e-07	-4.029456e-06	-1.129965e-09	-2.803287e+01	-7.668233e+01
8.900000e-07	-3.997687e-06	-1.131719e-09	-2.781185e+01	-7.660168e+01
9.000000e-07	-3.965762e-06	-1.129326e-09	-2.758975e+01	-7.651701e+01
9.100000e-07	-3.933551e-06	-1.122165e-09	-2.736566e+01	-7.642786e+01
9.200000e-07	-3.900961e-06	-1.121623e-09	-2.713893e+01	-7.633384e+01
9.300000e-07	-3.868044e-06	-1.123800e-09	-2.690993e+01	-7.623456e+01
9.400000e-07	-3.834711e-06	-1.120529e-09	-2.667803e+01	-7.612974e+01
9.500000e-07	-3.800893e-06	-1.120346e-09	-2.644276e+01	-7.601911e+01
9.600000e-07	-3.766611e-06	-1.123525e-09	-2.620426e+01	-7.590252e+01
9.700000e-07	-3.731900e-06	-1.121124e-09	-2.596278e+01	-7.577987e+01
9.800000e-07	-3.696781e-06	-1.115181e-09	-2.571845e+01	-7.565117e+01
9.900000e-07	-3.661363e-06	-1.116029e-09	-2.547205e+01	-7.551649e+01
1.000000e-06	-3.625759e-06	-1.116864e-09	-2.522436e+01	-7.537602e+01
1.010000e-06	-3.590015e-06	-1.113829e-09	-2.497568e+01	-7.523001e+01
1.020000e-06	-3.554142e-06	-1.111238e-09	-2.472612e+01	-7.507882e+01
1.030000e-06	-3.518138e-06	-1.111697e-09	-2.447564e+01	-7.492287e+01
1.040000e-06	-3.482000e-06	-1.107424e-09	-2.422423e+01	-7.476267e+01
1.050000e-06	-3.445627e-06	-1.106932e-09	-2.397118e+01	-7.459878e+01
1.060000e-06	-3.408979e-06	-1.107137e-09	-2.371622e+01	-7.443180e+01
1.070000e-06	-3.372106e-06	-1.102949e-09	-2.345969e+01	-7.426239e+01
1.080000e-06	-3.334937e-06	-1.097851e-09	-2.320111e+01	-7.409122e+01
1.090000e-06	-3.297452e-06	-1.098594e-09	-2.294033e+01	-7.391896e+01
1.100000e-06	-3.259772e-06	-1.095175e-09	-2.267819e+01	-7.374629e+01
1.110000e-06	-3.221926e-06	-1.088852e-09	-2.241489e+01	-7.357385e+01
1.120000e-06	-3.183804e-06	-1.081486e-09	-2.214968e+01	-7.340225e+01
1.130000e-06	-3.145425e-06	-1.074502e-09	-2.188268e+01	-7.323204e+01
1.140000e-06	-3.106915e-06	-1.067588e-09	-2.161476e+01	-7.306368e+01
1.150000e-06	-3.068208e-06	-1.066587e-09	-2.134548e+01	-7.289756e+01
1.160000e-06	-3.029145e-06	-1.069509e-09	-2.107372e+01	-7.273398e+01
1.170000e-06	-2.989909e-06	-1.071026e-09	-2.080076e+01	-7.257312e+01
1.180000e-06	-2.950670e-06	-1.069316e-09	-2.052777e+01	-7.241504e+01
1.190000e-06	-2.911217e-06	-1.068008e-09	-2.025330e+01	-7.225968e+01
1.200000e-06	-2.871606e-06	-1.062168e-09	-1.997773e+01	-7.210684e+01
1.210000e-06	-2.831885e-06	-1.051937e-09	-1.970139e+01	-7.195621e+01
1.220000e-06	-2.791979e-06	-1.045942e-09	-1.942376e+01	-7.180733e+01
1.230000e-06	-2.751952e-06	-1.043103e-09	-1.914529e+01	-7.165962e+01
1.240000e-06	-2.711768e-06	-1.039846e-09	-1.886574e+01	-7.151238e+01
1.250000e-06	-2.671345e-06	-1.036287e-09	-1.858451e+01	-7.136481e+01
1.260000e-06	-2.630570e-06	-1.035354e-09	-1.830084e+01	-7.121599e+01
1.270000e-06	-2.589579e-06	-1.033366e-09	-1.801567e+01	-7.106491e+01
1.280000e-06	-2.548384e-06	-1.028109e-09	-1.772907e+01	-7.091051e+01
1.290000e-06	-2.506904e-06	-1.021063e-09	-1.744050e+01	-7.075165e+01
1.300000e-06	-2.465174e-06	-1.015488e-09	-1.715018e+01	-7.058715e+01
1.310000e-06	-2.423112e-06	-1.009182e-09	-1.685756e+01	-7.041583e+01
1.320000e-06	-2.380741e-06	-1.003715e-09	-1.656278e+01	-7.023648e+01
1.330000e-06	-2.337972e-06	-1.000318e-09	-1.626524e+01	-7.004792e+01
1.340000e-06	-2.295046e-06	-9.972662e-10	-1.596660e+01	-6.984900e+01
1.350000e-06	-2.251997e-06	-9.927532e-10	-1.566711e+01	-6.963863e+01
1.360000e-06	-2.208679e-06	-9.902849e-10	-1.536575e+01	-6.941578e+01
1.370000e-06	-2.165209e-06	-9.873182e-10	-1.506333e+01	-6.917950e+01
1.380000e-06	-2.121559e-06	-9.833671e-10	-1.475966e+01	-6.892896e+01
1.390000e-06	-2.077840e-06	-9.762779e-10	-1.445550e+01	-6.866343e+01
1.400000e-06	-2.034142e-06	-9.663830e-10	-1.415150e+01	-6.838228e+01
1.410000e-06	-1.990361e-06	-9.562847e-10	-1.384691e+01	-6.808505e+01
1.420000e-06	-1.946466e-06	-9.486781e-10	-1.354154e+01	-6.777137e+01
1.430000e-06	-1.902500e-06	-9.420118e-10	-1.323566e+01	-6.744104e+01
1.440000e-06	-1.858507e-06	-9.361593e-10	-1.292961e+01	-6.709395e+01
1.450000e-06	-1.814406e-06	-9.325082e-10	-1.262280e+01	-6.673017e+01
1.460000e-06	-1.770121e-06	-9.298640e-10	-1.231471e+01	-6.634985e+01
1.470000e-06	-1.725689e-06	-9.251036e-10	-1.200560e+01	-6.595329e+01
1.480000e-06	-1.681126e-06	-9.184949e-10	-1.169557e+01	-6.554085e+01
1.490000e-06	-1.636408e-06	-9.118851e-10	-1.138447e+01	-6.511301e+01
1.500000e-06	-1.591517e-06	-9.025854e-10	-1.107216e+01	-6.467031e+01
1.510000e-06	-1.546504e-06	-8.915575e-10	-1.075901e+01	-6.421336e+01
1.520000e-06	-1.501418e-06	-8.824067e-10	-1.044535e+01	-6.374279e+01
1.530000e-06	-1.456201e-06	-8.748804e-10	-1.013077e+01	-6.325926e+01
1.540000e-06	-1.410878e-06	-8.697284e-10	-9.815461e+00	-6.276340e+01
1.550000e-06	-1.365453e-06	-8.662697e-10	-9.499439e+00	-6.225586e+01
1.560000e-06	-1.319927e-06	-8.605961e-10	-9.182715e+00	-6.173721e+01
1.570000e-06	-1.274414e-06	-8.508427e-10	-8.866084e+00	-6.120797e+01
1.580000e-06	-1.228787e-06	-8.407207e-10	-8.548652e+00	-6.066858e+01
1.590000e-06	-1.183020e-06	-8.298362e-10	-8.230252e+00	-6.011938e+01
1.600000e-06	-1.137188e-06	-8.172170e-10	-7.911401e+00	-5.956059e+01
1.610000e-06	-1.091311e-06	-8.061278e-10	-7.592236e+00	-5.899231e+01
1.620000e-06	-1.045317e-06	-7.969167e-10	-7.272255e+00	-5.841449e+01
1.630000e-06	-9.992176e-07	-7.887960e-10	-6.951544e+00	-5.782693e+01
1.640000e-06	-9.530165e-07	-7.809856e-10	-6.630123e+00	-5.722928e+01
1.650000e-06	-9.067317e-07	-7.738937e-10	-6.308120e+00	-5.662103e+01
1.660000e-06	-8.604252e-07	-7.659009e-10	-5.985967e+00	-5.600150e+01
1.670000e-06	-8.140729e-07	-7.575401e-10	-5.663494e+00	-5.536985e+01
1.680000e-06	-7.677029e-07	-7.485010e-10	-5.340899e+00	-5.472510e+01
1.690000e-06	-7.213097e-07	-7.380308e-10	-5.018141e+00	-5.406610e+01
1.700000e-06	-6.748971e-07	-7.237273e-10	-4.695250e+00	-5.339158e+01
1.710000e-06	-6.283929e-07	-7.091390e-10	-4.371721e+00	-5.270012e+01
1.720000e-06	-5.818446e-07	-6.948001e-10	-4.047885e+00	-5.199022e+01
1.730000e-06	-5.352895e-07	-6.828948e-10	-3.724001e+00	-5.126025e+01
1.740000e-06	-4.886263e-07	-6.742183e-10	-3.399366e+00	-5.050853e+01
1.750000e-06	-4.418714e-07	-6.665318e-10	-3.074094e+00	-4.973330e+01
1.760000e-06	-3.951338e-07	-6.560909e-10	-2.748940e+00	-4.893277e+01
1.770000e-06	-3.483937e-07	-6.433355e-10	-2.423770e+00	-4.810515e+01
1.780000e-06	-3.015646e-07	-6.288970e-10	-2.097981e+00	-4.724863e+01
1.790000e-06	-2.546976e-07	-6.130688e-10	-1.771928e+00	-4.636145e+01
1.800000e-06	-2.078745e-07	-5.979628e-10	-1.446180e+00	-4.544189e+01
1.810000e-06	-1.611770e-07	-5.840193e-10	-1.121306e+00	-4.448831e+01
1.820000e-06	-1.144552e-07	-5.725480e-10	-7.962632e-01	-4.349915e+01
1.830000e-06	-6.756857e-08	-5.620783e-10	-4.700737e-01	-4.247298e+01
1.840000e-06	-2.061041e-08	-5.480840e-10	-1.433863e-01	-4.140849e+01
1.850000e-06	2.625678e-08	-5.306158e-10	1.826681e-01	-4.030454e+01
1.860000e-06	7.298641e-08	-5.131279e-10	5.077654e-01	-3.916013e+01
1.870000e-06	1.198090e-07	-4.955109e-10	8.335097e-01	-3.797446e+01
1.880000e-06	1.666582e-07	-4.784023e-10	1.159438e+00	-3.674691e+01
1.890000e-06	2.134385e-07	-4.612960e-10	1.484889e+00	-3.547708e+01
1.900000e-06	2.602125e-07	-4.435135e-10	1.810295e+00	-3.416475e+01
1.910000e-06	3.069918e-07	-4.242052e-10	2.135738e+00	-3.280994e+01
1.920000e-06	3.537558e-07	-4.030185e-10	2.461075e+00	-3.141287e+01
1.930000e-06	4.004486e-07	-3.801678e-10	2.785915e+00	-2.997401e+01
1.940000e-06	4.470992e-07	-3.569680e-10	3.110463e+00	-2.849401e+01
1.950000e-06	4.937323e-07	-3.350132e-10	3.434889e+00	-2.697376e+01
1.960000e-06	5.403547e-07	-3.154704e-10	3.759240e+00	-2.541436e+01
1.970000e-06	5.869280e-07	-2.966421e-10	4.083250e+00	-2.381712e+01
1.980000e-06	6.333778e-07	-2.766325e-10	4.406401e+00	-2.218351e+01
1.990000e-06	6.797309e-07	-2.524109e-10	4.728879e+00	-2.051524e+01
2.000000e-06	7.259757e-07	-2.247987e-10	5.050603e+00	-1.881417e+01
2.010000e-06	7.722185e-07	-1.972555e-10	5.372313e+00	-1.708231e+01
2.020000e-06	8.184565e-07	-1.700113e-10	5.693991e+00	-1.532185e+01
2.030000e-06	8.646768e-07	-1.411539e-10	6.015545e+00	-1.353509e+01
2.040000e-06	9.109230e-07	-1.152240e-10	6.337279e+00	-1.172448e+01
2.050000e-06	9.570322e-07	-9.257480e-11	6.658060e+00	-9.892549e+00
2.060000e-06	1.003051e-06	-7.012114e-11	6.978214e+00	-8.041934e+00
2.070000e-06	1.048983e-06	-4.754382e-11	7.297758e+00	-6.175339e+00
2.080000e-06	1.094783e-06	-2.551633e-11	7.616391e+00	-4.295531e+00
2.090000e-06	1.140538e-06	-6.246442e-13	7.934709e+00	-2.405319e+00
2.100000e-06	1.186240e-06	2.798548e-11	8.252657e+00	-5.075378e-01
2.110000e-06	1.231826e-06	5.605567e-11	8.569800e+00	1.394964e+00
2.120000e-06	1.277259e-06	8.310264e-11	8.885875e+00	3.299344e+00
2.130000e-06	1.322573e-06	1.113655e-10	9.201119e+00	5.202777e+00
2.140000e-06	1.367886e-06	1.387332e-10	9.516366e+00	7.102469e+00
2.150000e-06	1.413158e-06	1.620791e-10	9.831318e+00	8.995674e+00
2.160000e-06	1.458253e-06	1.838242e-10	1.014505e+01	1.087971e+01
2.170000e-06	1.503268e-06	2.035030e-10	1.045822e+01	1.275195e+01
2.180000e-06	1.548205e-06	2.255814e-10	1.077084e+01	1.460987e+01
2.190000e-06	1.592950e-06	2.528128e-10	1.108213e+01	1.645103e+01
2.200000e-06	1.637622e-06	2.815846e-10	1.139292e+01	1.827310e+01
2.210000e-06	1.682227e-06	3.108208e-10	1.170323e+01	2.007385e+01
2.220000e-06	1.726639e-06	3.379468e-10	1.201221e+01	2.185118e+01
2.230000e-06	1.770912e-06	3.600667e-10	1.232021e+01	2.360313e+01
2.240000e-06	1.815144e-06	3.776376e-10	1.262793e+01	2.532785e+01
2.250000e-06	1.859254e-06	3.927542e-10	1.293480e+01	2.702364e+01
2.260000e-06	1.903193e-06	4.096401e-10	1.324049e+01	2.868895e+01
2.270000e-06	1.947077e-06	4.306433e-10	1.354579e+01	3.032238e+01
2.280000e-06	1.990923e-06	4.549153e-10	1.385083e+01	3.192267e+01
2.290000e-06	2.034727e-06	4.799109e-10	1.415557e+01	3.348872e+01
2.300000e-06	2.078464e-06	5.052598e-10	1.445985e+01	3.501957e+01
2.310000e-06	2.122102e-06	5.269591e-10	1.476343e+01	3.651442e+01
2.320000e-06	2.165674e-06	5.444354e-10	1.506656e+01	3.797262e+01
2.330000e-06	2.209183e-06	5.570399e-10	1.536926e+01	3.939368e+01
2.340000e-06	2.252617e-06	5.721077e-10	1.567143e+01	4.077723e+01
2.350000e-06	2.295876e-06	5.887406e-10	1.597238e+01	4.212305e+01
2.360000e-06	2.338849e-06	6.058852e-10	1.627134e+01	4.343108e+01
2.370000e-06	2.381609e-06	6.241457e-10	1.656882e+01	4.470135e+01
2.380000e-06	2.424018e-06	6.430060e-10	1.686386e+01	4.593404e+01
2.390000e-06	2.465917e-06	6.599439e-10	1.715535e+01	4.712943e+01
2.400000e-06	2.507544e-06	6.726719e-10	1.744495e+01	4.828794e+01
2.410000e-06	2.548989e-06	6.862543e-10	1.773329e+01	4.941004e+01
2.420000e-06	2.590076e-06	6.987717e-10	1.801912e+01	5.049635e+01
2.430000e-06	2.630827e-06	7.097639e-10	1.830263e+01	5.154753e+01
2.440000e-06	2.671349e-06	7.247628e-10	1.858454e+01	5.256433e+01
2.450000e-06	2.711657e-06	7.422498e-10	1.886496e+01	5.354757e+01
2.460000e-06	2.751733e-06	7.575200e-10	1.914377e+01	5.449811e+01
2.470000e-06	2.791686e-06	7.702030e-10	1.942172e+01	5.541688e+01
2.480000e-06	2.831608e-06	7.804290e-10	1.969946e+01	5.630483e+01
2.490000e-06	2.871409e-06	7.917553e-10	1.997635e+01	5.716295e+01
2.500000e-06	2.911076e-06	8.026491e-10	2.025232e+01	5.799223e+01
2.510000e-06	2.950591e-06	8.158802e-10	2.052722e+01	5.879370e+01
2.520000e-06	2.989978e-06	8.278965e-10	2.080124e+01	5.956836e+01
2.530000e-06	3.029178e-06	8.411023e-10	2.107395e+01	6.031725e+01
2.540000e-06	3.068126e-06	8.557985e-10	2.134491e+01	6.104136e+01
2.550000e-06	3.106753e-06	8.691201e-10	2.161364e+01	6.174168e+01
2.560000e-06	3.145150e-06	8.784283e-10	2.188076e+01	6.241917e+01
2.570000e-06	3.183375e-06	8.844159e-10	2.214670e+01	6.307479e+01
2.580000e-06	3.221335e-06	8.879919e-10	2.241079e+01	6.370943e+01
2.590000e-06	3.259111e-06	8.926326e-10	2.267359e+01	6.432398e+01
2.600000e-06	3.296699e-06	9.001188e-10	2.293509e+01	6.491926e+01
2.610000e-06	3.333977e-06	9.130358e-10	2.319443e+01	6.549607e+01
2.620000e-06	3.371129e-06	9.300363e-10	2.345290e+01	6.605516e+01
2.630000e-06	3.408097e-06	9.426833e-10	2.371009e+01	6.659725e+01
2.640000e-06	3.444658e-06	9.510032e-10	2.396444e+01	6.712300e+01
2.650000e-06	3.480961e-06	9.567803e-10	2.421700e+01	6.763302e+01
2.660000e-06	3.517055e-06	9.618956e-10	2.446810e+01	6.812790e+01
2.670000e-06	3.552971e-06	9.657652e-10	2.471797e+01	6.860818e+01
2.680000e-06	3.588769e-06	9.699721e-10	2.496702e+01	6.907433e+01
2.690000e-06	3.624485e-06	9.774834e-10	2.521549e+01	6.952681e+01
2.700000e-06	3.660057e-06	9.871878e-10	2.546297e+01	6.996602e+01
2.710000e-06	3.695453e-06	9.947968e-10	2.570922e+01	7.039235e+01
2.720000e-06	3.730602e-06	1.000372e-09	2.595375e+01	7.080611e+01
2.730000e-06	3.765425e-06	1.005225e-09	2.619601e+01	7.120761e+01
2.740000e-06	3.799864e-06	1.009941e-09	2.643560e+01	7.159712e+01
2.750000e-06	3.833858e-06	1.013355e-09	2.667210e+01	7.197486e+01
2.760000e-06	3.867378e-06	1.020176e-09	2.690530e+01	7.234106e+01
2.770000e-06	3.900303e-06	1.028942e-09	2.713436e+01	7.269587e+01
2.780000e-06	3.932762e-06	1.036096e-09	2.736018e+01	7.303947e+01
2.790000e-06	3.964963e-06	1.040991e-09	2.758419e+01	7.337198e+01
2.800000e-06	3.996956e-06	1.044592e-09	2.780677e+01	7.369352e+01
2.810000e-06	4.028793e-06	1.047329e-09	2.802826e+01	7.400419e+01
2.820000e-06	4.060490e-06	1.049349e-09	2.824878e+01	7.430406e+01
2.830000e-06	4.092001e-06	1.053311e-09	2.846799e+01	7.459321e+01
2.840000e-06	4.123255e-06	1.058744e-09	2.868543e+01	7.487169e+01
2.850000e-06	4.154288e-06	1.063343e-09	2.890133e+01	7.513957e+01
2.860000e-06	4.185029e-06	1.069232e-09	2.911519e+01	7.539688e+01
2.870000e-06	4.215406e-06	1.074983e-09	2.932652e+01	7.564367e+01
2.880000e-06	4.245441e-06	1.077523e-09	2.953547e+01	7.587999e+01
2.890000e-06	4.275160e-06	1.076089e-09	2.974223e+01	7.610589e+01
2.900000e-06	4.304545e-06	1.074711e-09	2.994666e+01	7.632143e+01
