# Temperatura_=_-0.09
# Concentracion g/m^3_=_1620.0
# C_Vs_to_Am_M_A/Vsm_=_65563218390.804596
# pendiente_HvsI_1/m_=_3716.3
# ordenada_HvsI_A/m_=_1297.0
# frecuencia_Hz_=_135109.94230218034

Tiempo_(s)	Campo_(V.s)	Magnetizacion_(V.s)	Campo_(kA/m)	Magnetizacion_(A/m)
0.000000e+00	-5.539989e-06	-1.466630e-09	-3.836855e+01	-9.470101e+01
1.000000e-08	-5.540136e-06	-1.466274e-09	-3.836958e+01	-9.466477e+01
2.000000e-08	-5.539965e-06	-1.467254e-09	-3.836839e+01	-9.463002e+01
3.000000e-08	-5.539329e-06	-1.469545e-09	-3.836398e+01	-9.459657e+01
4.000000e-08	-5.538198e-06	-1.472049e-09	-3.835615e+01	-9.456421e+01
5.000000e-08	-5.536410e-06	-1.470150e-09	-3.834377e+01	-9.453266e+01
6.000000e-08	-5.533968e-06	-1.463178e-09	-3.832686e+01	-9.450161e+01
7.000000e-08	-5.531029e-06	-1.452731e-09	-3.830650e+01	-9.447071e+01
8.000000e-08	-5.527641e-06	-1.469870e-09	-3.828304e+01	-9.443957e+01
9.000000e-08	-5.523830e-06	-1.526262e-09	-3.825664e+01	-9.440778e+01
1.000000e-07	-5.519610e-06	-1.517906e-09	-3.822741e+01	-9.437493e+01
1.100000e-07	-5.515067e-06	-1.425432e-09	-3.819595e+01	-9.434056e+01
1.200000e-07	-5.510420e-06	-1.424270e-09	-3.816377e+01	-9.430422e+01
1.300000e-07	-5.505573e-06	-1.453588e-09	-3.813020e+01	-9.426548e+01
1.400000e-07	-5.500149e-06	-1.495804e-09	-3.809263e+01	-9.422389e+01
1.500000e-07	-5.494284e-06	-1.434099e-09	-3.805202e+01	-9.417902e+01
1.600000e-07	-5.488194e-06	-1.439306e-09	-3.800984e+01	-9.413047e+01
1.700000e-07	-5.481667e-06	-1.491501e-09	-3.796463e+01	-9.407786e+01
1.800000e-07	-5.474637e-06	-1.464516e-09	-3.791594e+01	-9.402085e+01
1.900000e-07	-5.467290e-06	-1.435944e-09	-3.786506e+01	-9.395913e+01
2.000000e-07	-5.459682e-06	-1.411118e-09	-3.781237e+01	-9.389244e+01
2.100000e-07	-5.451779e-06	-1.475243e-09	-3.775764e+01	-9.382058e+01
2.200000e-07	-5.443581e-06	-1.461146e-09	-3.770086e+01	-9.374337e+01
2.300000e-07	-5.435068e-06	-1.464962e-09	-3.764190e+01	-9.366070e+01
2.400000e-07	-5.426047e-06	-1.434954e-09	-3.757942e+01	-9.357252e+01
2.500000e-07	-5.416307e-06	-1.457737e-09	-3.751197e+01	-9.347883e+01
2.600000e-07	-5.405888e-06	-1.426351e-09	-3.743981e+01	-9.337968e+01
2.700000e-07	-5.394971e-06	-1.425355e-09	-3.736420e+01	-9.327517e+01
2.800000e-07	-5.383573e-06	-1.419535e-09	-3.728525e+01	-9.316546e+01
2.900000e-07	-5.371789e-06	-1.450793e-09	-3.720364e+01	-9.305074e+01
3.000000e-07	-5.359722e-06	-1.441643e-09	-3.712007e+01	-9.293126e+01
3.100000e-07	-5.347297e-06	-1.418545e-09	-3.703402e+01	-9.280730e+01
3.200000e-07	-5.334367e-06	-1.403371e-09	-3.694447e+01	-9.267917e+01
3.300000e-07	-5.321062e-06	-1.411481e-09	-3.685232e+01	-9.254720e+01
3.400000e-07	-5.307440e-06	-1.419444e-09	-3.675798e+01	-9.241176e+01
3.500000e-07	-5.293262e-06	-1.392421e-09	-3.665979e+01	-9.227322e+01
3.600000e-07	-5.278481e-06	-1.415743e-09	-3.655742e+01	-9.213195e+01
3.700000e-07	-5.263354e-06	-1.442049e-09	-3.645265e+01	-9.198833e+01
3.800000e-07	-5.247799e-06	-1.416798e-09	-3.634492e+01	-9.184273e+01
3.900000e-07	-5.231579e-06	-1.367360e-09	-3.623258e+01	-9.169552e+01
4.000000e-07	-5.214923e-06	-1.413435e-09	-3.611723e+01	-9.154704e+01
4.100000e-07	-5.198009e-06	-1.411832e-09	-3.600009e+01	-9.139761e+01
4.200000e-07	-5.180722e-06	-1.364344e-09	-3.588037e+01	-9.124752e+01
4.300000e-07	-5.163059e-06	-1.380235e-09	-3.575804e+01	-9.109703e+01
4.400000e-07	-5.145223e-06	-1.451296e-09	-3.563451e+01	-9.094638e+01
4.500000e-07	-5.127014e-06	-1.385485e-09	-3.550839e+01	-9.079575e+01
4.600000e-07	-5.108259e-06	-1.356219e-09	-3.537850e+01	-9.064530e+01
4.700000e-07	-5.089139e-06	-1.410837e-09	-3.524608e+01	-9.049515e+01
4.800000e-07	-5.069768e-06	-1.410974e-09	-3.511193e+01	-9.034539e+01
4.900000e-07	-5.050148e-06	-1.333783e-09	-3.497604e+01	-9.019604e+01
5.000000e-07	-5.030333e-06	-1.383238e-09	-3.483880e+01	-9.004713e+01
5.100000e-07	-5.010294e-06	-1.401677e-09	-3.470003e+01	-8.989862e+01
5.200000e-07	-4.989864e-06	-1.342019e-09	-3.455853e+01	-8.975048e+01
5.300000e-07	-4.968957e-06	-1.353965e-09	-3.441373e+01	-8.960261e+01
5.400000e-07	-4.947710e-06	-1.419373e-09	-3.426658e+01	-8.945493e+01
5.500000e-07	-4.926198e-06	-1.357931e-09	-3.411760e+01	-8.930732e+01
5.600000e-07	-4.904424e-06	-1.334793e-09	-3.396679e+01	-8.915964e+01
5.700000e-07	-4.882420e-06	-1.395042e-09	-3.381440e+01	-8.901177e+01
5.800000e-07	-4.860019e-06	-1.379320e-09	-3.365925e+01	-8.886355e+01
5.900000e-07	-4.837080e-06	-1.324687e-09	-3.350038e+01	-8.871486e+01
6.000000e-07	-4.813761e-06	-1.363848e-09	-3.333888e+01	-8.856554e+01
6.100000e-07	-4.790262e-06	-1.371440e-09	-3.317613e+01	-8.841547e+01
6.200000e-07	-4.766605e-06	-1.323276e-09	-3.301230e+01	-8.826452e+01
6.300000e-07	-4.742751e-06	-1.344541e-09	-3.284709e+01	-8.811259e+01
6.400000e-07	-4.718574e-06	-1.370033e-09	-3.267964e+01	-8.795956e+01
6.500000e-07	-4.693915e-06	-1.337890e-09	-3.250886e+01	-8.780536e+01
6.600000e-07	-4.668807e-06	-1.333464e-09	-3.233497e+01	-8.764992e+01
6.700000e-07	-4.643274e-06	-1.359689e-09	-3.215814e+01	-8.749316e+01
6.800000e-07	-4.617096e-06	-1.332892e-09	-3.197683e+01	-8.733504e+01
6.900000e-07	-4.590258e-06	-1.320161e-09	-3.179096e+01	-8.717552e+01
7.000000e-07	-4.563051e-06	-1.330816e-09	-3.160253e+01	-8.701457e+01
7.100000e-07	-4.535586e-06	-1.327431e-09	-3.141232e+01	-8.685216e+01
7.200000e-07	-4.507925e-06	-1.314824e-09	-3.122074e+01	-8.668826e+01
7.300000e-07	-4.480127e-06	-1.334891e-09	-3.102822e+01	-8.652284e+01
7.400000e-07	-4.452155e-06	-1.326711e-09	-3.083449e+01	-8.635586e+01
7.500000e-07	-4.423966e-06	-1.313434e-09	-3.063926e+01	-8.618728e+01
7.600000e-07	-4.395483e-06	-1.313304e-09	-3.044200e+01	-8.601704e+01
7.700000e-07	-4.366664e-06	-1.316889e-09	-3.024241e+01	-8.584506e+01
7.800000e-07	-4.337466e-06	-1.298103e-09	-3.004018e+01	-8.567124e+01
7.900000e-07	-4.307930e-06	-1.302420e-09	-2.983563e+01	-8.549548e+01
8.000000e-07	-4.278152e-06	-1.301411e-09	-2.962939e+01	-8.531762e+01
8.100000e-07	-4.248153e-06	-1.288119e-09	-2.942163e+01	-8.513751e+01
8.200000e-07	-4.217864e-06	-1.277070e-09	-2.921185e+01	-8.495495e+01
8.300000e-07	-4.187228e-06	-1.283745e-09	-2.899967e+01	-8.476973e+01
8.400000e-07	-4.156213e-06	-1.274425e-09	-2.878487e+01	-8.458162e+01
8.500000e-07	-4.124936e-06	-1.271295e-09	-2.856826e+01	-8.439035e+01
8.600000e-07	-4.093529e-06	-1.278189e-09	-2.835074e+01	-8.419566e+01
8.700000e-07	-4.061962e-06	-1.274264e-09	-2.813211e+01	-8.399726e+01
8.800000e-07	-4.030175e-06	-1.257603e-09	-2.791196e+01	-8.379484e+01
8.900000e-07	-3.998158e-06	-1.254824e-09	-2.769023e+01	-8.358810e+01
9.000000e-07	-3.965878e-06	-1.250621e-09	-2.746666e+01	-8.337675e+01
9.100000e-07	-3.933199e-06	-1.233696e-09	-2.724034e+01	-8.316049e+01
9.200000e-07	-3.900149e-06	-1.230391e-09	-2.701144e+01	-8.293903e+01
9.300000e-07	-3.866683e-06	-1.236521e-09	-2.677967e+01	-8.271213e+01
9.400000e-07	-3.832747e-06	-1.229892e-09	-2.654463e+01	-8.247953e+01
9.500000e-07	-3.798346e-06	-1.219896e-09	-2.630638e+01	-8.224105e+01
9.600000e-07	-3.763478e-06	-1.221435e-09	-2.606489e+01	-8.199652e+01
9.700000e-07	-3.728221e-06	-1.210602e-09	-2.582071e+01	-8.174580e+01
9.800000e-07	-3.692702e-06	-1.198160e-09	-2.557471e+01	-8.148884e+01
9.900000e-07	-3.657094e-06	-1.195721e-09	-2.532811e+01	-8.122560e+01
1.000000e-06	-3.621425e-06	-1.197000e-09	-2.508107e+01	-8.095611e+01
1.010000e-06	-3.585640e-06	-1.184857e-09	-2.483323e+01	-8.068046e+01
1.020000e-06	-3.549720e-06	-1.182482e-09	-2.458446e+01	-8.039878e+01
1.030000e-06	-3.513624e-06	-1.181387e-09	-2.433446e+01	-8.011125e+01
1.040000e-06	-3.477237e-06	-1.176272e-09	-2.408246e+01	-7.981813e+01
1.050000e-06	-3.440459e-06	-1.168135e-09	-2.382775e+01	-7.951969e+01
1.060000e-06	-3.403359e-06	-1.167857e-09	-2.357080e+01	-7.921627e+01
1.070000e-06	-3.366030e-06	-1.158673e-09	-2.331227e+01	-7.890823e+01
1.080000e-06	-3.328478e-06	-1.150983e-09	-2.305219e+01	-7.859597e+01
1.090000e-06	-3.290698e-06	-1.147818e-09	-2.279054e+01	-7.827989e+01
1.100000e-06	-3.252664e-06	-1.144754e-09	-2.252713e+01	-7.796042e+01
1.110000e-06	-3.214405e-06	-1.133125e-09	-2.226215e+01	-7.763799e+01
1.120000e-06	-3.175991e-06	-1.126589e-09	-2.199611e+01	-7.731302e+01
1.130000e-06	-3.137388e-06	-1.120278e-09	-2.172875e+01	-7.698590e+01
1.140000e-06	-3.098525e-06	-1.114077e-09	-2.145960e+01	-7.665700e+01
1.150000e-06	-3.059520e-06	-1.111847e-09	-2.118946e+01	-7.632666e+01
1.160000e-06	-3.020395e-06	-1.112668e-09	-2.091849e+01	-7.599515e+01
1.170000e-06	-2.981022e-06	-1.107904e-09	-2.064580e+01	-7.566270e+01
1.180000e-06	-2.941460e-06	-1.102777e-09	-2.037181e+01	-7.532946e+01
1.190000e-06	-2.901812e-06	-1.098914e-09	-2.009721e+01	-7.499552e+01
1.200000e-06	-2.862113e-06	-1.089238e-09	-1.982227e+01	-7.466087e+01
1.210000e-06	-2.822289e-06	-1.077931e-09	-1.954646e+01	-7.432543e+01
1.220000e-06	-2.782284e-06	-1.071265e-09	-1.926939e+01	-7.398905e+01
1.230000e-06	-2.742033e-06	-1.065511e-09	-1.899062e+01	-7.365146e+01
1.240000e-06	-2.701443e-06	-1.057159e-09	-1.870951e+01	-7.331232e+01
1.250000e-06	-2.660541e-06	-1.055179e-09	-1.842623e+01	-7.297121e+01
1.260000e-06	-2.619410e-06	-1.054184e-09	-1.814137e+01	-7.262762e+01
1.270000e-06	-2.578011e-06	-1.049913e-09	-1.785465e+01	-7.228097e+01
1.280000e-06	-2.536278e-06	-1.038743e-09	-1.756562e+01	-7.193060e+01
1.290000e-06	-2.494268e-06	-1.029021e-09	-1.727466e+01	-7.157582e+01
1.300000e-06	-2.451974e-06	-1.017905e-09	-1.698175e+01	-7.121587e+01
1.310000e-06	-2.409336e-06	-1.008428e-09	-1.668645e+01	-7.084996e+01
1.320000e-06	-2.366416e-06	-1.001595e-09	-1.638919e+01	-7.047728e+01
1.330000e-06	-2.323339e-06	-9.984956e-10	-1.609086e+01	-7.009699e+01
1.340000e-06	-2.280077e-06	-9.951571e-10	-1.579123e+01	-6.970827e+01
1.350000e-06	-2.236684e-06	-9.931412e-10	-1.549071e+01	-6.931031e+01
1.360000e-06	-2.193220e-06	-9.896978e-10	-1.518968e+01	-6.890233e+01
1.370000e-06	-2.149624e-06	-9.834136e-10	-1.488775e+01	-6.848359e+01
1.380000e-06	-2.105953e-06	-9.731388e-10	-1.458529e+01	-6.805339e+01
1.390000e-06	-2.062184e-06	-9.628101e-10	-1.428217e+01	-6.761111e+01
1.400000e-06	-2.018294e-06	-9.522163e-10	-1.397819e+01	-6.715618e+01
1.410000e-06	-1.974358e-06	-9.435017e-10	-1.367390e+01	-6.668813e+01
1.420000e-06	-1.930341e-06	-9.348580e-10	-1.336905e+01	-6.620656e+01
1.430000e-06	-1.886154e-06	-9.279715e-10	-1.306302e+01	-6.571115e+01
1.440000e-06	-1.841862e-06	-9.208474e-10	-1.275627e+01	-6.520168e+01
1.450000e-06	-1.797541e-06	-9.128391e-10	-1.244931e+01	-6.467803e+01
1.460000e-06	-1.753116e-06	-9.029865e-10	-1.214163e+01	-6.414014e+01
1.470000e-06	-1.708519e-06	-8.937654e-10	-1.183277e+01	-6.358803e+01
1.480000e-06	-1.663718e-06	-8.862066e-10	-1.152248e+01	-6.302181e+01
1.490000e-06	-1.618711e-06	-8.778567e-10	-1.121078e+01	-6.244164e+01
1.500000e-06	-1.573581e-06	-8.653979e-10	-1.089822e+01	-6.184773e+01
1.510000e-06	-1.528393e-06	-8.490226e-10	-1.058526e+01	-6.124033e+01
1.520000e-06	-1.483100e-06	-8.336417e-10	-1.027157e+01	-6.061969e+01
1.530000e-06	-1.437759e-06	-8.207851e-10	-9.957555e+00	-5.998610e+01
1.540000e-06	-1.392332e-06	-8.114199e-10	-9.642938e+00	-5.933982e+01
1.550000e-06	-1.346767e-06	-8.044186e-10	-9.327366e+00	-5.868108e+01
1.560000e-06	-1.301139e-06	-7.959709e-10	-9.011360e+00	-5.801006e+01
1.570000e-06	-1.255394e-06	-7.831689e-10	-8.694538e+00	-5.732689e+01
1.580000e-06	-1.209486e-06	-7.692231e-10	-8.376591e+00	-5.663161e+01
1.590000e-06	-1.163501e-06	-7.533192e-10	-8.058109e+00	-5.592416e+01
1.600000e-06	-1.117487e-06	-7.371828e-10	-7.739433e+00	-5.520437e+01
1.610000e-06	-1.071386e-06	-7.229317e-10	-7.420144e+00	-5.447195e+01
1.620000e-06	-1.025236e-06	-7.115883e-10	-7.100523e+00	-5.372647e+01
1.630000e-06	-9.789516e-07	-7.009243e-10	-6.779970e+00	-5.296737e+01
1.640000e-06	-9.326117e-07	-6.911023e-10	-6.459031e+00	-5.219392e+01
1.650000e-06	-8.863124e-07	-6.802961e-10	-6.138374e+00	-5.140526e+01
1.660000e-06	-8.398324e-07	-6.696273e-10	-5.816465e+00	-5.060035e+01
1.670000e-06	-7.931557e-07	-6.569228e-10	-5.493195e+00	-4.977803e+01
1.680000e-06	-7.464203e-07	-6.427256e-10	-5.169517e+00	-4.893699e+01
1.690000e-06	-6.997249e-07	-6.295463e-10	-4.846117e+00	-4.807576e+01
1.700000e-06	-6.530495e-07	-6.152147e-10	-4.522855e+00	-4.719279e+01
1.710000e-06	-6.063004e-07	-5.967983e-10	-4.199083e+00	-4.628639e+01
1.720000e-06	-5.595879e-07	-5.796854e-10	-3.875564e+00	-4.535479e+01
1.730000e-06	-5.128348e-07	-5.644724e-10	-3.551764e+00	-4.439616e+01
1.740000e-06	-4.659426e-07	-5.511351e-10	-3.227000e+00	-4.340862e+01
1.750000e-06	-4.190452e-07	-5.367227e-10	-2.902200e+00	-4.239027e+01
1.760000e-06	-3.720874e-07	-5.210314e-10	-2.576983e+00	-4.133921e+01
1.770000e-06	-3.250872e-07	-5.048260e-10	-2.251471e+00	-4.025357e+01
1.780000e-06	-2.781124e-07	-4.874641e-10	-1.926136e+00	-3.913154e+01
1.790000e-06	-2.311509e-07	-4.713365e-10	-1.600892e+00	-3.797141e+01
1.800000e-06	-1.841896e-07	-4.558035e-10	-1.275650e+00	-3.677157e+01
1.810000e-06	-1.371539e-07	-4.397882e-10	-9.498930e-01	-3.553055e+01
1.820000e-06	-9.013010e-08	-4.221626e-10	-6.242181e-01	-3.424707e+01
1.830000e-06	-4.318700e-08	-4.032526e-10	-2.991022e-01	-3.292001e+01
1.840000e-06	3.831766e-09	-3.833065e-10	2.653784e-02	-3.154849e+01
1.850000e-06	5.093679e-08	-3.644959e-10	3.527753e-01	-3.013186e+01
1.860000e-06	9.799104e-08	-3.473255e-10	6.786610e-01	-2.866970e+01
1.870000e-06	1.450268e-07	-3.307383e-10	1.004419e+00	-2.716189e+01
1.880000e-06	1.920781e-07	-3.124315e-10	1.330284e+00	-2.560858e+01
1.890000e-06	2.390946e-07	-2.920525e-10	1.655909e+00	-2.401017e+01
1.900000e-06	2.860590e-07	-2.682075e-10	1.981172e+00	-2.236740e+01
1.910000e-06	3.329638e-07	-2.420418e-10	2.306023e+00	-2.068128e+01
1.920000e-06	3.798908e-07	-2.175569e-10	2.631027e+00	-1.895310e+01
1.930000e-06	4.268403e-07	-1.948215e-10	2.956187e+00	-1.718443e+01
1.940000e-06	4.737185e-07	-1.715954e-10	3.280854e+00	-1.537714e+01
1.950000e-06	5.204466e-07	-1.483142e-10	3.604481e+00	-1.353332e+01
1.960000e-06	5.671604e-07	-1.247039e-10	3.928008e+00	-1.165534e+01
1.970000e-06	6.139220e-07	-9.981768e-11	4.251868e+00	-9.745767e+00
1.980000e-06	6.606024e-07	-7.405534e-11	4.575164e+00	-7.807383e+00
1.990000e-06	7.071855e-07	-4.880967e-11	4.897787e+00	-5.843144e+00
2.000000e-06	7.537102e-07	-2.270240e-11	5.220005e+00	-3.856161e+00
2.010000e-06	8.001699e-07	4.111471e-12	5.541773e+00	-1.849670e+00
2.020000e-06	8.465490e-07	3.344596e-11	5.862983e+00	1.729931e-01
2.030000e-06	8.928959e-07	6.517445e-11	6.183970e+00	2.208424e+00
2.040000e-06	9.392137e-07	9.472785e-11	6.504755e+00	4.253178e+00
2.050000e-06	9.854397e-07	1.214633e-10	6.824905e+00	6.303795e+00
2.060000e-06	1.031534e-06	1.476916e-10	7.144140e+00	8.356835e+00
2.070000e-06	1.077615e-06	1.732551e-10	7.463288e+00	1.040890e+01
2.080000e-06	1.123696e-06	1.990658e-10	7.782432e+00	1.245665e+01
2.090000e-06	1.169636e-06	2.286178e-10	8.100599e+00	1.449685e+01
2.100000e-06	1.215503e-06	2.618849e-10	8.418266e+00	1.652637e+01
2.110000e-06	1.261267e-06	2.946872e-10	8.735212e+00	1.854223e+01
2.120000e-06	1.306918e-06	3.260439e-10	9.051381e+00	2.054157e+01
2.130000e-06	1.352524e-06	3.561029e-10	9.367237e+00	2.252174e+01
2.140000e-06	1.397994e-06	3.827049e-10	9.682151e+00	2.448024e+01
2.150000e-06	1.443388e-06	4.046842e-10	9.996538e+00	2.641475e+01
2.160000e-06	1.488740e-06	4.254615e-10	1.031064e+01	2.832319e+01
2.170000e-06	1.533929e-06	4.489081e-10	1.062360e+01	3.020362e+01
2.180000e-06	1.578985e-06	4.761799e-10	1.093565e+01	3.205437e+01
2.190000e-06	1.623971e-06	5.058868e-10	1.124721e+01	3.387392e+01
2.200000e-06	1.668825e-06	5.357229e-10	1.155786e+01	3.566097e+01
2.210000e-06	1.713504e-06	5.648972e-10	1.186729e+01	3.741442e+01
2.220000e-06	1.758069e-06	5.908346e-10	1.217594e+01	3.913336e+01
2.230000e-06	1.802542e-06	6.132053e-10	1.248394e+01	4.081705e+01
2.240000e-06	1.846880e-06	6.314685e-10	1.279102e+01	4.246493e+01
2.250000e-06	1.891026e-06	6.483671e-10	1.309677e+01	4.407659e+01
2.260000e-06	1.935041e-06	6.673063e-10	1.340160e+01	4.565178e+01
2.270000e-06	1.979012e-06	6.883152e-10	1.370613e+01	4.719037e+01
2.280000e-06	2.022874e-06	7.107853e-10	1.400991e+01	4.869238e+01
2.290000e-06	2.066638e-06	7.333842e-10	1.431301e+01	5.015792e+01
2.300000e-06	2.110351e-06	7.552161e-10	1.461576e+01	5.158720e+01
2.310000e-06	2.154011e-06	7.742163e-10	1.491813e+01	5.298052e+01
2.320000e-06	2.197582e-06	7.896862e-10	1.521989e+01	5.433824e+01
2.330000e-06	2.241088e-06	8.034630e-10	1.552121e+01	5.566080e+01
2.340000e-06	2.284525e-06	8.179644e-10	1.582204e+01	5.694868e+01
2.350000e-06	2.327778e-06	8.363385e-10	1.612160e+01	5.820240e+01
2.360000e-06	2.370753e-06	8.567657e-10	1.641923e+01	5.942250e+01
2.370000e-06	2.413498e-06	8.761649e-10	1.671527e+01	6.060957e+01
2.380000e-06	2.456119e-06	8.926709e-10	1.701046e+01	6.176419e+01
2.390000e-06	2.498443e-06	9.062943e-10	1.730358e+01	6.288697e+01
2.400000e-06	2.540343e-06	9.188500e-10	1.759377e+01	6.397852e+01
2.410000e-06	2.581932e-06	9.318920e-10	1.788181e+01	6.503945e+01
2.420000e-06	2.623257e-06	9.458315e-10	1.816801e+01	6.607036e+01
2.430000e-06	2.664276e-06	9.613691e-10	1.845210e+01	6.707185e+01
2.440000e-06	2.704986e-06	9.770277e-10	1.873405e+01	6.804454e+01
2.450000e-06	2.745467e-06	9.899562e-10	1.901441e+01	6.898901e+01
2.460000e-06	2.785759e-06	1.000402e-09	1.929346e+01	6.990585e+01
2.470000e-06	2.825875e-06	1.008076e-09	1.957129e+01	7.079565e+01
2.480000e-06	2.865823e-06	1.015056e-09	1.984796e+01	7.165899e+01
2.490000e-06	2.905595e-06	1.023435e-09	2.012342e+01	7.249643e+01
2.500000e-06	2.945208e-06	1.033839e-09	2.039776e+01	7.330856e+01
2.510000e-06	2.984661e-06	1.048072e-09	2.067100e+01	7.409594e+01
2.520000e-06	3.023980e-06	1.062101e-09	2.094332e+01	7.485915e+01
2.530000e-06	3.063179e-06	1.075492e-09	2.121480e+01	7.559875e+01
2.540000e-06	3.102143e-06	1.088380e-09	2.148465e+01	7.631531e+01
2.550000e-06	3.140927e-06	1.097331e-09	2.175326e+01	7.700940e+01
2.560000e-06	3.179532e-06	1.102544e-09	2.202063e+01	7.768160e+01
2.570000e-06	3.217820e-06	1.106695e-09	2.228580e+01	7.833247e+01
2.580000e-06	3.255837e-06	1.110906e-09	2.254910e+01	7.896259e+01
2.590000e-06	3.293641e-06	1.115124e-09	2.281092e+01	7.957252e+01
2.600000e-06	3.331204e-06	1.124619e-09	2.307107e+01	8.016285e+01
2.610000e-06	3.368507e-06	1.139177e-09	2.332942e+01	8.073413e+01
2.620000e-06	3.405565e-06	1.154058e-09	2.358608e+01	8.128692e+01
2.630000e-06	3.442353e-06	1.163854e-09	2.384086e+01	8.182178e+01
2.640000e-06	3.478898e-06	1.169328e-09	2.409396e+01	8.233926e+01
2.650000e-06	3.515219e-06	1.172886e-09	2.434551e+01	8.283990e+01
2.660000e-06	3.551343e-06	1.175595e-09	2.459570e+01	8.332423e+01
2.670000e-06	3.587274e-06	1.179606e-09	2.484455e+01	8.379275e+01
2.680000e-06	3.623069e-06	1.185695e-09	2.509245e+01	8.424596e+01
2.690000e-06	3.658780e-06	1.194992e-09	2.533978e+01	8.468435e+01
2.700000e-06	3.694322e-06	1.205264e-09	2.558594e+01	8.510838e+01
2.710000e-06	3.729709e-06	1.212750e-09	2.583102e+01	8.551849e+01
2.720000e-06	3.764870e-06	1.217381e-09	2.607453e+01	8.591512e+01
2.730000e-06	3.799641e-06	1.219885e-09	2.631535e+01	8.629866e+01
2.740000e-06	3.833969e-06	1.222589e-09	2.655310e+01	8.666950e+01
2.750000e-06	3.867805e-06	1.226200e-09	2.678743e+01	8.702802e+01
2.760000e-06	3.901201e-06	1.231631e-09	2.701873e+01	8.737455e+01
2.770000e-06	3.934239e-06	1.239212e-09	2.724754e+01	8.770943e+01
2.780000e-06	3.966872e-06	1.246624e-09	2.747355e+01	8.803297e+01
2.790000e-06	3.999122e-06	1.253053e-09	2.769690e+01	8.834546e+01
2.800000e-06	4.031099e-06	1.258560e-09	2.791837e+01	8.864720e+01
2.810000e-06	4.062879e-06	1.263259e-09	2.813847e+01	8.893845e+01
2.820000e-06	4.094532e-06	1.268575e-09	2.835769e+01	8.921948e+01
2.830000e-06	4.126045e-06	1.275635e-09	2.857594e+01	8.949053e+01
2.840000e-06	4.157343e-06	1.282356e-09	2.879270e+01	8.975186e+01
2.850000e-06	4.188351e-06	1.288499e-09	2.900745e+01	9.000372e+01
2.860000e-06	4.218987e-06	1.295574e-09	2.921963e+01	9.024634e+01
2.870000e-06	4.249286e-06	1.301509e-09	2.942948e+01	9.047997e+01
2.880000e-06	4.279299e-06	1.302994e-09	2.963734e+01	9.070486e+01
2.890000e-06	4.309020e-06	1.304427e-09	2.984318e+01	9.092126e+01
2.900000e-06	4.338442e-06	1.308219e-09	3.004695e+01	9.112941e+01
