# Temperatura_=_-11.3
# Concentracion g/m^3_=_1620.0
# C_Vs_to_Am_M_A/Vsm_=_65563218390.804596
# pendiente_HvsI_1/m_=_3716.3
# ordenada_HvsI_A/m_=_1297.0
# frecuencia_Hz_=_135106.55669925016

Tiempo_(s)	Campo_(V.s)	Magnetizacion_(V.s)	Campo_(kA/m)	Magnetizacion_(A/m)
0.000000e+00	-5.514740e-06	-1.351354e-09	-3.836837e+01	-8.727880e+01
1.000000e-08	-5.514945e-06	-1.347645e-09	-3.836980e+01	-8.722787e+01
2.000000e-08	-5.514916e-06	-1.345765e-09	-3.836959e+01	-8.717748e+01
3.000000e-08	-5.514595e-06	-1.345253e-09	-3.836736e+01	-8.712765e+01
4.000000e-08	-5.513825e-06	-1.345002e-09	-3.836200e+01	-8.707836e+01
5.000000e-08	-5.512587e-06	-1.340931e-09	-3.835339e+01	-8.702957e+01
6.000000e-08	-5.510797e-06	-1.329323e-09	-3.834093e+01	-8.698123e+01
7.000000e-08	-5.508329e-06	-1.317345e-09	-3.832377e+01	-8.693323e+01
8.000000e-08	-5.505238e-06	-1.340399e-09	-3.830226e+01	-8.688548e+01
9.000000e-08	-5.501680e-06	-1.401966e-09	-3.827750e+01	-8.683784e+01
1.000000e-07	-5.497703e-06	-1.410315e-09	-3.824984e+01	-8.679015e+01
1.100000e-07	-5.493352e-06	-1.318905e-09	-3.821956e+01	-8.674226e+01
1.200000e-07	-5.488874e-06	-1.293439e-09	-3.818841e+01	-8.669398e+01
1.300000e-07	-5.484105e-06	-1.312984e-09	-3.815523e+01	-8.664510e+01
1.400000e-07	-5.478827e-06	-1.342591e-09	-3.811851e+01	-8.659544e+01
1.500000e-07	-5.473218e-06	-1.304141e-09	-3.807948e+01	-8.654478e+01
1.600000e-07	-5.467381e-06	-1.298634e-09	-3.803888e+01	-8.649291e+01
1.700000e-07	-5.461126e-06	-1.373609e-09	-3.799535e+01	-8.643962e+01
1.800000e-07	-5.454299e-06	-1.360839e-09	-3.794786e+01	-8.638468e+01
1.900000e-07	-5.447050e-06	-1.345618e-09	-3.789743e+01	-8.632792e+01
2.000000e-07	-5.439556e-06	-1.289990e-09	-3.784528e+01	-8.626911e+01
2.100000e-07	-5.431844e-06	-1.326498e-09	-3.779163e+01	-8.620809e+01
2.200000e-07	-5.423870e-06	-1.320187e-09	-3.773615e+01	-8.614468e+01
2.300000e-07	-5.415723e-06	-1.345174e-09	-3.767947e+01	-8.607872e+01
2.400000e-07	-5.407219e-06	-1.324853e-09	-3.762030e+01	-8.601009e+01
2.500000e-07	-5.398024e-06	-1.338328e-09	-3.755633e+01	-8.593865e+01
2.600000e-07	-5.388074e-06	-1.316103e-09	-3.748710e+01	-8.586431e+01
2.700000e-07	-5.377529e-06	-1.300098e-09	-3.741374e+01	-8.578700e+01
2.800000e-07	-5.366501e-06	-1.284894e-09	-3.733701e+01	-8.570665e+01
2.900000e-07	-5.355038e-06	-1.304681e-09	-3.725726e+01	-8.562325e+01
3.000000e-07	-5.343187e-06	-1.315728e-09	-3.717481e+01	-8.553677e+01
3.100000e-07	-5.330900e-06	-1.289036e-09	-3.708932e+01	-8.544723e+01
3.200000e-07	-5.318135e-06	-1.278124e-09	-3.700050e+01	-8.535465e+01
3.300000e-07	-5.304968e-06	-1.282389e-09	-3.690890e+01	-8.525910e+01
3.400000e-07	-5.291458e-06	-1.299511e-09	-3.681491e+01	-8.516064e+01
3.500000e-07	-5.277561e-06	-1.256601e-09	-3.671822e+01	-8.505936e+01
3.600000e-07	-5.263217e-06	-1.271911e-09	-3.661842e+01	-8.495537e+01
3.700000e-07	-5.248552e-06	-1.296174e-09	-3.651639e+01	-8.484878e+01
3.800000e-07	-5.233484e-06	-1.297299e-09	-3.641155e+01	-8.473972e+01
3.900000e-07	-5.217777e-06	-1.258259e-09	-3.630227e+01	-8.462833e+01
4.000000e-07	-5.201537e-06	-1.300597e-09	-3.618928e+01	-8.451476e+01
4.100000e-07	-5.184810e-06	-1.290407e-09	-3.607291e+01	-8.439917e+01
4.200000e-07	-5.167695e-06	-1.248505e-09	-3.595383e+01	-8.428171e+01
4.300000e-07	-5.150335e-06	-1.255602e-09	-3.583305e+01	-8.416254e+01
4.400000e-07	-5.132793e-06	-1.321574e-09	-3.571100e+01	-8.404183e+01
4.500000e-07	-5.114933e-06	-1.272455e-09	-3.558674e+01	-8.391973e+01
4.600000e-07	-5.096543e-06	-1.251761e-09	-3.545880e+01	-8.379641e+01
4.700000e-07	-5.077639e-06	-1.291761e-09	-3.532728e+01	-8.367202e+01
4.800000e-07	-5.058441e-06	-1.283825e-09	-3.519371e+01	-8.354671e+01
4.900000e-07	-5.039008e-06	-1.222266e-09	-3.505850e+01	-8.342062e+01
5.000000e-07	-5.019348e-06	-1.267574e-09	-3.492172e+01	-8.329390e+01
5.100000e-07	-4.999478e-06	-1.278411e-09	-3.478347e+01	-8.316667e+01
5.200000e-07	-4.979309e-06	-1.223280e-09	-3.464315e+01	-8.303906e+01
5.300000e-07	-4.958813e-06	-1.240098e-09	-3.450055e+01	-8.291119e+01
5.400000e-07	-4.938008e-06	-1.299786e-09	-3.435581e+01	-8.278316e+01
5.500000e-07	-4.916819e-06	-1.245765e-09	-3.420838e+01	-8.265506e+01
5.600000e-07	-4.895196e-06	-1.214221e-09	-3.405794e+01	-8.252700e+01
5.700000e-07	-4.873241e-06	-1.266372e-09	-3.390519e+01	-8.239905e+01
5.800000e-07	-4.851032e-06	-1.256236e-09	-3.375067e+01	-8.227127e+01
5.900000e-07	-4.828464e-06	-1.216083e-09	-3.359366e+01	-8.214374e+01
6.000000e-07	-4.805469e-06	-1.250568e-09	-3.343367e+01	-8.201650e+01
6.100000e-07	-4.782216e-06	-1.259788e-09	-3.327189e+01	-8.188959e+01
6.200000e-07	-4.758685e-06	-1.209123e-09	-3.310818e+01	-8.176305e+01
6.300000e-07	-4.734918e-06	-1.220836e-09	-3.294282e+01	-8.163688e+01
6.400000e-07	-4.711033e-06	-1.240345e-09	-3.277664e+01	-8.151110e+01
6.500000e-07	-4.686823e-06	-1.222499e-09	-3.260820e+01	-8.138570e+01
6.600000e-07	-4.662172e-06	-1.220502e-09	-3.243670e+01	-8.126065e+01
6.700000e-07	-4.636995e-06	-1.248258e-09	-3.226153e+01	-8.113591e+01
6.800000e-07	-4.611231e-06	-1.221635e-09	-3.208228e+01	-8.101143e+01
6.900000e-07	-4.584987e-06	-1.206515e-09	-3.189969e+01	-8.088715e+01
7.000000e-07	-4.558241e-06	-1.212998e-09	-3.171360e+01	-8.076297e+01
7.100000e-07	-4.531124e-06	-1.210877e-09	-3.152494e+01	-8.063880e+01
7.200000e-07	-4.503773e-06	-1.195153e-09	-3.133465e+01	-8.051449e+01
7.300000e-07	-4.476170e-06	-1.215871e-09	-3.114260e+01	-8.038991e+01
7.400000e-07	-4.448363e-06	-1.220041e-09	-3.094913e+01	-8.026489e+01
7.500000e-07	-4.420361e-06	-1.211335e-09	-3.075431e+01	-8.013926e+01
7.600000e-07	-4.392125e-06	-1.203300e-09	-3.055786e+01	-8.001279e+01
7.700000e-07	-4.363543e-06	-1.204930e-09	-3.035901e+01	-7.988528e+01
7.800000e-07	-4.334534e-06	-1.188245e-09	-3.015718e+01	-7.975648e+01
7.900000e-07	-4.305179e-06	-1.188189e-09	-2.995294e+01	-7.962614e+01
8.000000e-07	-4.275613e-06	-1.192068e-09	-2.974724e+01	-7.949398e+01
8.100000e-07	-4.245798e-06	-1.186925e-09	-2.953981e+01	-7.935972e+01
8.200000e-07	-4.215679e-06	-1.176784e-09	-2.933025e+01	-7.922306e+01
8.300000e-07	-4.185277e-06	-1.181201e-09	-2.911873e+01	-7.908372e+01
8.400000e-07	-4.154532e-06	-1.178593e-09	-2.890483e+01	-7.894138e+01
8.500000e-07	-4.123507e-06	-1.174695e-09	-2.868898e+01	-7.879574e+01
8.600000e-07	-4.092274e-06	-1.183311e-09	-2.847168e+01	-7.864651e+01
8.700000e-07	-4.060855e-06	-1.185760e-09	-2.825308e+01	-7.849339e+01
8.800000e-07	-4.029259e-06	-1.173316e-09	-2.803326e+01	-7.833612e+01
8.900000e-07	-3.997447e-06	-1.167828e-09	-2.781192e+01	-7.817444e+01
9.000000e-07	-3.965418e-06	-1.168642e-09	-2.758909e+01	-7.800810e+01
9.100000e-07	-3.933152e-06	-1.154000e-09	-2.736459e+01	-7.783691e+01
9.200000e-07	-3.900598e-06	-1.147174e-09	-2.713810e+01	-7.766068e+01
9.300000e-07	-3.867687e-06	-1.149456e-09	-2.690913e+01	-7.747927e+01
9.400000e-07	-3.834294e-06	-1.148105e-09	-2.667680e+01	-7.729257e+01
9.500000e-07	-3.800368e-06	-1.139852e-09	-2.644076e+01	-7.710051e+01
9.600000e-07	-3.765927e-06	-1.144956e-09	-2.620114e+01	-7.690307e+01
9.700000e-07	-3.731068e-06	-1.139329e-09	-2.595861e+01	-7.670026e+01
9.800000e-07	-3.695944e-06	-1.128564e-09	-2.571424e+01	-7.649216e+01
9.900000e-07	-3.660613e-06	-1.124977e-09	-2.546843e+01	-7.627887e+01
1.000000e-06	-3.625125e-06	-1.130959e-09	-2.522152e+01	-7.606055e+01
1.010000e-06	-3.589491e-06	-1.120668e-09	-2.497360e+01	-7.583738e+01
1.020000e-06	-3.553681e-06	-1.114758e-09	-2.472446e+01	-7.560960e+01
1.030000e-06	-3.517709e-06	-1.113623e-09	-2.447419e+01	-7.537748e+01
1.040000e-06	-3.481583e-06	-1.110710e-09	-2.422284e+01	-7.514132e+01
1.050000e-06	-3.445203e-06	-1.102830e-09	-2.396973e+01	-7.490145e+01
1.060000e-06	-3.408525e-06	-1.103085e-09	-2.371454e+01	-7.465821e+01
1.070000e-06	-3.371576e-06	-1.097594e-09	-2.345748e+01	-7.441196e+01
1.080000e-06	-3.334353e-06	-1.089424e-09	-2.319850e+01	-7.416308e+01
1.090000e-06	-3.296861e-06	-1.084347e-09	-2.293765e+01	-7.391193e+01
1.100000e-06	-3.259116e-06	-1.082723e-09	-2.267504e+01	-7.365885e+01
1.110000e-06	-3.221167e-06	-1.072599e-09	-2.241102e+01	-7.340421e+01
1.120000e-06	-3.182948e-06	-1.061986e-09	-2.214511e+01	-7.314830e+01
1.130000e-06	-3.144544e-06	-1.055588e-09	-2.187792e+01	-7.289141e+01
1.140000e-06	-3.106066e-06	-1.049891e-09	-2.161021e+01	-7.263378e+01
1.150000e-06	-3.067381e-06	-1.047501e-09	-2.134106e+01	-7.237561e+01
1.160000e-06	-3.028427e-06	-1.050608e-09	-2.107004e+01	-7.211702e+01
1.170000e-06	-2.989189e-06	-1.051919e-09	-2.079705e+01	-7.185812e+01
1.180000e-06	-2.949776e-06	-1.047358e-09	-2.052283e+01	-7.159889e+01
1.190000e-06	-2.910263e-06	-1.043592e-09	-2.024793e+01	-7.133931e+01
1.200000e-06	-2.870627e-06	-1.036625e-09	-1.997216e+01	-7.107923e+01
1.210000e-06	-2.830832e-06	-1.026800e-09	-1.969529e+01	-7.081847e+01
1.220000e-06	-2.790879e-06	-1.018326e-09	-1.941732e+01	-7.055675e+01
1.230000e-06	-2.750885e-06	-1.017274e-09	-1.913906e+01	-7.029373e+01
1.240000e-06	-2.710741e-06	-1.013016e-09	-1.885977e+01	-7.002902e+01
1.250000e-06	-2.670302e-06	-1.009256e-09	-1.857841e+01	-6.976212e+01
1.260000e-06	-2.629715e-06	-1.007034e-09	-1.829604e+01	-6.949253e+01
1.270000e-06	-2.588868e-06	-1.005352e-09	-1.801185e+01	-6.921965e+01
1.280000e-06	-2.547733e-06	-9.958210e-10	-1.772565e+01	-6.894285e+01
1.290000e-06	-2.506351e-06	-9.876989e-10	-1.743774e+01	-6.866147e+01
1.300000e-06	-2.464561e-06	-9.812366e-10	-1.714699e+01	-6.837481e+01
1.310000e-06	-2.422334e-06	-9.735859e-10	-1.685320e+01	-6.808218e+01
1.320000e-06	-2.379824e-06	-9.637761e-10	-1.655744e+01	-6.778284e+01
1.330000e-06	-2.337108e-06	-9.581508e-10	-1.626025e+01	-6.747610e+01
1.340000e-06	-2.294187e-06	-9.538001e-10	-1.596162e+01	-6.716124e+01
1.350000e-06	-2.251099e-06	-9.510663e-10	-1.566184e+01	-6.683760e+01
1.360000e-06	-2.207856e-06	-9.491550e-10	-1.536099e+01	-6.650455e+01
1.370000e-06	-2.164486e-06	-9.488786e-10	-1.505924e+01	-6.616147e+01
1.380000e-06	-2.120929e-06	-9.432029e-10	-1.475620e+01	-6.580784e+01
1.390000e-06	-2.077183e-06	-9.334691e-10	-1.445184e+01	-6.544317e+01
1.400000e-06	-2.033332e-06	-9.220028e-10	-1.414675e+01	-6.506705e+01
1.410000e-06	-1.989456e-06	-9.087272e-10	-1.384148e+01	-6.467913e+01
1.420000e-06	-1.945541e-06	-8.991129e-10	-1.353595e+01	-6.427914e+01
1.430000e-06	-1.901500e-06	-8.949105e-10	-1.322953e+01	-6.386688e+01
1.440000e-06	-1.857310e-06	-8.922349e-10	-1.292209e+01	-6.344224e+01
1.450000e-06	-1.813056e-06	-8.849527e-10	-1.261420e+01	-6.300517e+01
1.460000e-06	-1.768745e-06	-8.768458e-10	-1.230590e+01	-6.255569e+01
1.470000e-06	-1.724323e-06	-8.682830e-10	-1.199684e+01	-6.209389e+01
1.480000e-06	-1.679726e-06	-8.593177e-10	-1.168656e+01	-6.161992e+01
1.490000e-06	-1.635039e-06	-8.519758e-10	-1.137566e+01	-6.113395e+01
1.500000e-06	-1.590179e-06	-8.435535e-10	-1.106355e+01	-6.063623e+01
1.510000e-06	-1.545139e-06	-8.315673e-10	-1.075018e+01	-6.012699e+01
1.520000e-06	-1.500079e-06	-8.201265e-10	-1.043668e+01	-5.960651e+01
1.530000e-06	-1.454954e-06	-8.109746e-10	-1.012273e+01	-5.907505e+01
1.540000e-06	-1.409733e-06	-8.035785e-10	-9.808105e+00	-5.853286e+01
1.550000e-06	-1.364398e-06	-7.961676e-10	-9.492694e+00	-5.798015e+01
1.560000e-06	-1.318976e-06	-7.875448e-10	-9.176670e+00	-5.741709e+01
1.570000e-06	-1.273510e-06	-7.754352e-10	-8.860349e+00	-5.684380e+01
1.580000e-06	-1.227937e-06	-7.635846e-10	-8.543274e+00	-5.626031e+01
1.590000e-06	-1.182201e-06	-7.524609e-10	-8.225073e+00	-5.566657e+01
1.600000e-06	-1.136395e-06	-7.392640e-10	-7.906377e+00	-5.506244e+01
1.610000e-06	-1.090478e-06	-7.263996e-10	-7.586916e+00	-5.444765e+01
1.620000e-06	-1.044469e-06	-7.180761e-10	-7.266811e+00	-5.382183e+01
1.630000e-06	-9.984382e-07	-7.099084e-10	-6.946555e+00	-5.318447e+01
1.640000e-06	-9.523029e-07	-6.992089e-10	-6.625573e+00	-5.253494e+01
1.650000e-06	-9.060755e-07	-6.875221e-10	-6.303949e+00	-5.187245e+01
1.660000e-06	-8.598777e-07	-6.773294e-10	-5.982532e+00	-5.119612e+01
1.670000e-06	-8.136826e-07	-6.665756e-10	-5.661133e+00	-5.050488e+01
1.680000e-06	-7.673985e-07	-6.582083e-10	-5.339115e+00	-4.979758e+01
1.690000e-06	-7.209905e-07	-6.522348e-10	-5.016235e+00	-4.907292e+01
1.700000e-06	-6.744889e-07	-6.433623e-10	-4.692704e+00	-4.832950e+01
1.710000e-06	-6.279871e-07	-6.270873e-10	-4.369171e+00	-4.756581e+01
1.720000e-06	-5.814631e-07	-6.063410e-10	-4.045484e+00	-4.678024e+01
1.730000e-06	-5.348778e-07	-5.866448e-10	-3.721370e+00	-4.597113e+01
1.740000e-06	-4.882748e-07	-5.712154e-10	-3.397134e+00	-4.513675e+01
1.750000e-06	-4.415961e-07	-5.624136e-10	-3.072370e+00	-4.427535e+01
1.760000e-06	-3.948175e-07	-5.562215e-10	-2.746912e+00	-4.338514e+01
1.770000e-06	-3.480292e-07	-5.479253e-10	-2.421386e+00	-4.246436e+01
1.780000e-06	-3.012177e-07	-5.356328e-10	-2.095699e+00	-4.151126e+01
1.790000e-06	-2.543899e-07	-5.185450e-10	-1.769898e+00	-4.052416e+01
1.800000e-06	-2.075586e-07	-4.974978e-10	-1.444073e+00	-3.950144e+01
1.810000e-06	-1.606852e-07	-4.767384e-10	-1.117955e+00	-3.844158e+01
1.820000e-06	-1.137933e-07	-4.604652e-10	-7.917081e-01	-3.734318e+01
1.830000e-06	-6.697777e-08	-4.484501e-10	-4.659926e-01	-3.620498e+01
1.840000e-06	-2.024123e-08	-4.381288e-10	-1.408267e-01	-3.502589e+01
1.850000e-06	2.647491e-08	-4.272897e-10	1.841971e-01	-3.380496e+01
1.860000e-06	7.321216e-08	-4.136866e-10	5.093679e-01	-3.254148e+01
1.870000e-06	1.199527e-07	-3.971302e-10	8.345617e-01	-3.123493e+01
1.880000e-06	1.667565e-07	-3.755868e-10	1.160195e+00	-2.988499e+01
1.890000e-06	2.136531e-07	-3.531971e-10	1.486475e+00	-2.849160e+01
1.900000e-06	2.605153e-07	-3.298659e-10	1.812515e+00	-2.705493e+01
1.910000e-06	3.073347e-07	-3.083948e-10	2.138257e+00	-2.557537e+01
1.920000e-06	3.540848e-07	-2.897311e-10	2.463517e+00	-2.405357e+01
1.930000e-06	4.008071e-07	-2.713367e-10	2.788584e+00	-2.249043e+01
1.940000e-06	4.475717e-07	-2.508903e-10	3.113945e+00	-2.088707e+01
1.950000e-06	4.941568e-07	-2.278595e-10	3.438057e+00	-1.924485e+01
1.960000e-06	5.405455e-07	-2.042343e-10	3.760803e+00	-1.756535e+01
1.970000e-06	5.869265e-07	-1.796438e-10	4.083495e+00	-1.585036e+01
1.980000e-06	6.333000e-07	-1.567685e-10	4.406135e+00	-1.410187e+01
1.990000e-06	6.796918e-07	-1.348735e-10	4.728903e+00	-1.232205e+01
2.000000e-06	7.260562e-07	-1.106183e-10	5.051479e+00	-1.051325e+01
2.010000e-06	7.723313e-07	-8.523473e-11	5.373434e+00	-8.677961e+00
2.020000e-06	8.185821e-07	-5.834470e-11	5.695220e+00	-6.818791e+00
2.030000e-06	8.647987e-07	-2.863045e-11	6.016769e+00	-4.938472e+00
2.040000e-06	9.109794e-07	2.378980e-12	6.338068e+00	-3.039816e+00
2.050000e-06	9.571017e-07	3.100463e-11	6.658960e+00	-1.125706e+00
2.060000e-06	1.003115e-06	5.524315e-11	6.979095e+00	8.009322e-01
2.070000e-06	1.049079e-06	7.757342e-11	7.298887e+00	2.737146e+00
2.080000e-06	1.094960e-06	9.846910e-11	7.618099e+00	4.679980e+00
2.090000e-06	1.140746e-06	1.210892e-10	7.936651e+00	6.626493e+00
2.100000e-06	1.186438e-06	1.475793e-10	8.254548e+00	8.573777e+00
2.110000e-06	1.232013e-06	1.770484e-10	8.571637e+00	1.051898e+01
2.120000e-06	1.277482e-06	2.069848e-10	8.887984e+00	1.245930e+01
2.130000e-06	1.322955e-06	2.388094e-10	9.204356e+00	1.439205e+01
2.140000e-06	1.368405e-06	2.700090e-10	9.520570e+00	1.631462e+01
2.150000e-06	1.413677e-06	2.957534e-10	9.835549e+00	1.822449e+01
2.160000e-06	1.458780e-06	3.171170e-10	1.014935e+01	2.011929e+01
2.170000e-06	1.503799e-06	3.351852e-10	1.046256e+01	2.199675e+01
2.180000e-06	1.548755e-06	3.535887e-10	1.077534e+01	2.385475e+01
2.190000e-06	1.593562e-06	3.772461e-10	1.108708e+01	2.569131e+01
2.200000e-06	1.638244e-06	4.055287e-10	1.139795e+01	2.750457e+01
2.210000e-06	1.682797e-06	4.366848e-10	1.170793e+01	2.929282e+01
2.220000e-06	1.727234e-06	4.680617e-10	1.201709e+01	3.105452e+01
2.230000e-06	1.771583e-06	4.958812e-10	1.232565e+01	3.278823e+01
2.240000e-06	1.815755e-06	5.169367e-10	1.263297e+01	3.449269e+01
2.250000e-06	1.859804e-06	5.315890e-10	1.293944e+01	3.616676e+01
2.260000e-06	1.903775e-06	5.434114e-10	1.324537e+01	3.780944e+01
2.270000e-06	1.947650e-06	5.584217e-10	1.355062e+01	3.941985e+01
2.280000e-06	1.991470e-06	5.811257e-10	1.385550e+01	4.099725e+01
2.290000e-06	2.035265e-06	6.078319e-10	1.416020e+01	4.254102e+01
2.300000e-06	2.079040e-06	6.342529e-10	1.446476e+01	4.405066e+01
2.310000e-06	2.122757e-06	6.588439e-10	1.476891e+01	4.552575e+01
2.320000e-06	2.166374e-06	6.789535e-10	1.507238e+01	4.696600e+01
2.330000e-06	2.209835e-06	6.933663e-10	1.537475e+01	4.837123e+01
2.340000e-06	2.253187e-06	7.061283e-10	1.567637e+01	4.974131e+01
2.350000e-06	2.296458e-06	7.213552e-10	1.597743e+01	5.107623e+01
2.360000e-06	2.339506e-06	7.390220e-10	1.627693e+01	5.237604e+01
2.370000e-06	2.382228e-06	7.572476e-10	1.657416e+01	5.364089e+01
2.380000e-06	2.424681e-06	7.760706e-10	1.686953e+01	5.487097e+01
2.390000e-06	2.466820e-06	7.935897e-10	1.716271e+01	5.606655e+01
2.400000e-06	2.508479e-06	8.084788e-10	1.745255e+01	5.722795e+01
2.410000e-06	2.549789e-06	8.219513e-10	1.773996e+01	5.835557e+01
2.420000e-06	2.590895e-06	8.349858e-10	1.802595e+01	5.944984e+01
2.430000e-06	2.631739e-06	8.496510e-10	1.831011e+01	6.051124e+01
2.440000e-06	2.672350e-06	8.670620e-10	1.859267e+01	6.154030e+01
2.450000e-06	2.712729e-06	8.839043e-10	1.887360e+01	6.253758e+01
2.460000e-06	2.752891e-06	8.987200e-10	1.915302e+01	6.350369e+01
2.470000e-06	2.792884e-06	9.109425e-10	1.943127e+01	6.443926e+01
2.480000e-06	2.832736e-06	9.212789e-10	1.970854e+01	6.534497e+01
2.490000e-06	2.872487e-06	9.302015e-10	1.998510e+01	6.622149e+01
2.500000e-06	2.912079e-06	9.393191e-10	2.026056e+01	6.706956e+01
2.510000e-06	2.951491e-06	9.521776e-10	2.053477e+01	6.788988e+01
2.520000e-06	2.990741e-06	9.655197e-10	2.080785e+01	6.868323e+01
2.530000e-06	3.029754e-06	9.804422e-10	2.107928e+01	6.945034e+01
2.540000e-06	3.068552e-06	9.969207e-10	2.134921e+01	7.019198e+01
2.550000e-06	3.107222e-06	1.008829e-09	2.161825e+01	7.090893e+01
2.560000e-06	3.145722e-06	1.014394e-09	2.188611e+01	7.160194e+01
2.570000e-06	3.183937e-06	1.017168e-09	2.215199e+01	7.227178e+01
2.580000e-06	3.221904e-06	1.022161e-09	2.241614e+01	7.291919e+01
2.590000e-06	3.259681e-06	1.028970e-09	2.267898e+01	7.354492e+01
2.600000e-06	3.297223e-06	1.038908e-09	2.294017e+01	7.414970e+01
2.610000e-06	3.334580e-06	1.052869e-09	2.320008e+01	7.473421e+01
2.620000e-06	3.371675e-06	1.067487e-09	2.345817e+01	7.529914e+01
2.630000e-06	3.408549e-06	1.078728e-09	2.371471e+01	7.584514e+01
2.640000e-06	3.445243e-06	1.085446e-09	2.397001e+01	7.637284e+01
2.650000e-06	3.481648e-06	1.090256e-09	2.422329e+01	7.688283e+01
2.660000e-06	3.517807e-06	1.092948e-09	2.447487e+01	7.737567e+01
2.670000e-06	3.553812e-06	1.094159e-09	2.472537e+01	7.785188e+01
2.680000e-06	3.589684e-06	1.097337e-09	2.497494e+01	7.831196e+01
2.690000e-06	3.625442e-06	1.106253e-09	2.522373e+01	7.875636e+01
2.700000e-06	3.661072e-06	1.118326e-09	2.547162e+01	7.918550e+01
2.710000e-06	3.696481e-06	1.126115e-09	2.571798e+01	7.959977e+01
2.720000e-06	3.731614e-06	1.129764e-09	2.596241e+01	7.999952e+01
2.730000e-06	3.766419e-06	1.132526e-09	2.620456e+01	8.038508e+01
2.740000e-06	3.800850e-06	1.136171e-09	2.644412e+01	8.075674e+01
2.750000e-06	3.834739e-06	1.140977e-09	2.667989e+01	8.111477e+01
2.760000e-06	3.868017e-06	1.146212e-09	2.691143e+01	8.145942e+01
2.770000e-06	3.900870e-06	1.152719e-09	2.714000e+01	8.179091e+01
2.780000e-06	3.933387e-06	1.159393e-09	2.736623e+01	8.210946e+01
2.790000e-06	3.965648e-06	1.165401e-09	2.759068e+01	8.241526e+01
2.800000e-06	3.997699e-06	1.170970e-09	2.781368e+01	8.270851e+01
2.810000e-06	4.029540e-06	1.175716e-09	2.803521e+01	8.298939e+01
2.820000e-06	4.061206e-06	1.180302e-09	2.825552e+01	8.325811e+01
2.830000e-06	4.092685e-06	1.185723e-09	2.847453e+01	8.351484e+01
2.840000e-06	4.123917e-06	1.191501e-09	2.869183e+01	8.375979e+01
2.850000e-06	4.154802e-06	1.195571e-09	2.890671e+01	8.399318e+01
2.860000e-06	4.185407e-06	1.198263e-09	2.911964e+01	8.421523e+01
2.870000e-06	4.215780e-06	1.201487e-09	2.933096e+01	8.442620e+01
2.880000e-06	4.245840e-06	1.204518e-09	2.954010e+01	8.462633e+01
2.890000e-06	4.275609e-06	1.206326e-09	2.974721e+01	8.481594e+01
2.900000e-06	4.305086e-06	1.209413e-09	2.995230e+01	8.499531e+01
