# Temperatura_=_-7.2
# Concentracion g/m^3_=_1620.0
# C_Vs_to_Am_M_A/Vsm_=_65563218390.804596
# pendiente_HvsI_1/m_=_3716.3
# ordenada_HvsI_A/m_=_1297.0
# frecuencia_Hz_=_135110.05688427048

Tiempo_(s)	Campo_(V.s)	Magnetizacion_(V.s)	Campo_(kA/m)	Magnetizacion_(A/m)
0.000000e+00	-5.520662e-06	-1.402390e-09	-3.836818e+01	-9.311107e+01
1.000000e-08	-5.520821e-06	-1.397991e-09	-3.836929e+01	-9.296834e+01
2.000000e-08	-5.520666e-06	-1.396824e-09	-3.836821e+01	-9.282893e+01
3.000000e-08	-5.520123e-06	-1.397582e-09	-3.836443e+01	-9.269359e+01
4.000000e-08	-5.519093e-06	-1.398205e-09	-3.835728e+01	-9.256300e+01
5.000000e-08	-5.517520e-06	-1.401793e-09	-3.834635e+01	-9.243774e+01
6.000000e-08	-5.515360e-06	-1.415153e-09	-3.833134e+01	-9.231830e+01
7.000000e-08	-5.512688e-06	-1.420713e-09	-3.831277e+01	-9.220504e+01
8.000000e-08	-5.509529e-06	-1.394163e-09	-3.829081e+01	-9.209822e+01
9.000000e-08	-5.505847e-06	-1.344205e-09	-3.826522e+01	-9.199798e+01
1.000000e-07	-5.501764e-06	-1.321137e-09	-3.823684e+01	-9.190432e+01
1.100000e-07	-5.497419e-06	-1.367007e-09	-3.820664e+01	-9.181714e+01
1.200000e-07	-5.492832e-06	-1.448659e-09	-3.817477e+01	-9.173619e+01
1.300000e-07	-5.487884e-06	-1.417689e-09	-3.814038e+01	-9.166111e+01
1.400000e-07	-5.482537e-06	-1.344342e-09	-3.810322e+01	-9.159146e+01
1.500000e-07	-5.476935e-06	-1.347279e-09	-3.806429e+01	-9.152665e+01
1.600000e-07	-5.471046e-06	-1.436093e-09	-3.802336e+01	-9.146604e+01
1.700000e-07	-5.464745e-06	-1.432940e-09	-3.797957e+01	-9.140889e+01
1.800000e-07	-5.458004e-06	-1.335745e-09	-3.793272e+01	-9.135441e+01
1.900000e-07	-5.450866e-06	-1.321461e-09	-3.788310e+01	-9.130177e+01
2.000000e-07	-5.443395e-06	-1.413151e-09	-3.783118e+01	-9.125007e+01
2.100000e-07	-5.435594e-06	-1.444542e-09	-3.777697e+01	-9.119845e+01
2.200000e-07	-5.427509e-06	-1.390881e-09	-3.772078e+01	-9.114600e+01
2.300000e-07	-5.419103e-06	-1.380567e-09	-3.766236e+01	-9.109187e+01
2.400000e-07	-5.410243e-06	-1.433560e-09	-3.760078e+01	-9.103522e+01
2.500000e-07	-5.400667e-06	-1.455940e-09	-3.753423e+01	-9.097526e+01
2.600000e-07	-5.390355e-06	-1.413150e-09	-3.746256e+01	-9.091128e+01
2.700000e-07	-5.379556e-06	-1.394416e-09	-3.738751e+01	-9.084263e+01
2.800000e-07	-5.368302e-06	-1.414894e-09	-3.730930e+01	-9.076874e+01
2.900000e-07	-5.356607e-06	-1.430672e-09	-3.722802e+01	-9.068915e+01
3.000000e-07	-5.344591e-06	-1.399497e-09	-3.714450e+01	-9.060350e+01
3.100000e-07	-5.332248e-06	-1.393593e-09	-3.705872e+01	-9.051150e+01
3.200000e-07	-5.319486e-06	-1.413879e-09	-3.697002e+01	-9.041302e+01
3.300000e-07	-5.306358e-06	-1.423761e-09	-3.687879e+01	-9.030800e+01
3.400000e-07	-5.292864e-06	-1.389328e-09	-3.678500e+01	-9.019648e+01
3.500000e-07	-5.278882e-06	-1.376460e-09	-3.668783e+01	-9.007863e+01
3.600000e-07	-5.264305e-06	-1.395012e-09	-3.658652e+01	-8.995468e+01
3.700000e-07	-5.249281e-06	-1.410816e-09	-3.648210e+01	-8.982495e+01
3.800000e-07	-5.233800e-06	-1.389889e-09	-3.637451e+01	-8.968985e+01
3.900000e-07	-5.217766e-06	-1.385849e-09	-3.626308e+01	-8.954984e+01
4.000000e-07	-5.201429e-06	-1.391875e-09	-3.614954e+01	-8.940543e+01
4.100000e-07	-5.184755e-06	-1.368030e-09	-3.603366e+01	-8.925717e+01
4.200000e-07	-5.167632e-06	-1.352855e-09	-3.591466e+01	-8.910562e+01
4.300000e-07	-5.150208e-06	-1.392182e-09	-3.579356e+01	-8.895137e+01
4.400000e-07	-5.132469e-06	-1.396398e-09	-3.567028e+01	-8.879500e+01
4.500000e-07	-5.114335e-06	-1.348239e-09	-3.554424e+01	-8.863707e+01
4.600000e-07	-5.095836e-06	-1.358525e-09	-3.541568e+01	-8.847810e+01
4.700000e-07	-5.077049e-06	-1.398034e-09	-3.528511e+01	-8.831858e+01
4.800000e-07	-5.057946e-06	-1.358894e-09	-3.515234e+01	-8.815896e+01
4.900000e-07	-5.038488e-06	-1.324722e-09	-3.501711e+01	-8.799962e+01
5.000000e-07	-5.018792e-06	-1.365128e-09	-3.488023e+01	-8.784086e+01
5.100000e-07	-4.998861e-06	-1.361441e-09	-3.474170e+01	-8.768293e+01
5.200000e-07	-4.978587e-06	-1.319387e-09	-3.460081e+01	-8.752601e+01
5.300000e-07	-4.957983e-06	-1.346078e-09	-3.445761e+01	-8.737017e+01
5.400000e-07	-4.937044e-06	-1.363525e-09	-3.431208e+01	-8.721544e+01
5.500000e-07	-4.915718e-06	-1.310147e-09	-3.416387e+01	-8.706176e+01
5.600000e-07	-4.893991e-06	-1.317917e-09	-3.401287e+01	-8.690900e+01
5.700000e-07	-4.871929e-06	-1.365041e-09	-3.385954e+01	-8.675697e+01
5.800000e-07	-4.849592e-06	-1.330372e-09	-3.370430e+01	-8.660541e+01
5.900000e-07	-4.826955e-06	-1.297550e-09	-3.354697e+01	-8.645402e+01
6.000000e-07	-4.803953e-06	-1.338893e-09	-3.338711e+01	-8.630245e+01
6.100000e-07	-4.780617e-06	-1.327466e-09	-3.322493e+01	-8.615033e+01
6.200000e-07	-4.757022e-06	-1.282410e-09	-3.306095e+01	-8.599726e+01
6.300000e-07	-4.733175e-06	-1.305279e-09	-3.289521e+01	-8.584281e+01
6.400000e-07	-4.708945e-06	-1.328732e-09	-3.272681e+01	-8.568658e+01
6.500000e-07	-4.684340e-06	-1.298757e-09	-3.255581e+01	-8.552814e+01
6.600000e-07	-4.659429e-06	-1.304285e-09	-3.238268e+01	-8.536711e+01
6.700000e-07	-4.634077e-06	-1.321023e-09	-3.220649e+01	-8.520312e+01
6.800000e-07	-4.608225e-06	-1.289525e-09	-3.202682e+01	-8.503582e+01
6.900000e-07	-4.581827e-06	-1.273094e-09	-3.184335e+01	-8.486492e+01
7.000000e-07	-4.554921e-06	-1.291112e-09	-3.165636e+01	-8.469016e+01
7.100000e-07	-4.527722e-06	-1.278040e-09	-3.146732e+01	-8.451134e+01
7.200000e-07	-4.500330e-06	-1.266591e-09	-3.127695e+01	-8.432830e+01
7.300000e-07	-4.472678e-06	-1.289619e-09	-3.108478e+01	-8.414093e+01
7.400000e-07	-4.444815e-06	-1.293321e-09	-3.089113e+01	-8.394919e+01
7.500000e-07	-4.416719e-06	-1.272409e-09	-3.069586e+01	-8.375308e+01
7.600000e-07	-4.388277e-06	-1.274762e-09	-3.049819e+01	-8.355264e+01
7.700000e-07	-4.359541e-06	-1.276000e-09	-3.029848e+01	-8.334797e+01
7.800000e-07	-4.330482e-06	-1.255923e-09	-3.009653e+01	-8.313921e+01
7.900000e-07	-4.301086e-06	-1.250782e-09	-2.989222e+01	-8.292654e+01
8.000000e-07	-4.271409e-06	-1.256955e-09	-2.968597e+01	-8.271014e+01
8.100000e-07	-4.241439e-06	-1.250971e-09	-2.947768e+01	-8.249025e+01
8.200000e-07	-4.211213e-06	-1.247106e-09	-2.926761e+01	-8.226710e+01
8.300000e-07	-4.180713e-06	-1.253231e-09	-2.905564e+01	-8.204096e+01
8.400000e-07	-4.149931e-06	-1.242803e-09	-2.884170e+01	-8.181206e+01
8.500000e-07	-4.118847e-06	-1.235275e-09	-2.862568e+01	-8.158067e+01
8.600000e-07	-4.087544e-06	-1.244574e-09	-2.840812e+01	-8.134702e+01
8.700000e-07	-4.056073e-06	-1.242917e-09	-2.818940e+01	-8.111133e+01
8.800000e-07	-4.024396e-06	-1.229815e-09	-2.796925e+01	-8.087382e+01
8.900000e-07	-3.992604e-06	-1.227303e-09	-2.774829e+01	-8.063467e+01
9.000000e-07	-3.960572e-06	-1.224944e-09	-2.752568e+01	-8.039402e+01
9.100000e-07	-3.928149e-06	-1.214366e-09	-2.730034e+01	-8.015201e+01
9.200000e-07	-3.895336e-06	-1.210929e-09	-2.707229e+01	-7.990874e+01
9.300000e-07	-3.862123e-06	-1.215738e-09	-2.684146e+01	-7.966426e+01
9.400000e-07	-3.828490e-06	-1.205443e-09	-2.660771e+01	-7.941861e+01
9.500000e-07	-3.794441e-06	-1.198259e-09	-2.637108e+01	-7.917180e+01
9.600000e-07	-3.759943e-06	-1.200301e-09	-2.613132e+01	-7.892381e+01
9.700000e-07	-3.725039e-06	-1.193706e-09	-2.588874e+01	-7.867460e+01
9.800000e-07	-3.689882e-06	-1.183128e-09	-2.564440e+01	-7.842410e+01
9.900000e-07	-3.654519e-06	-1.183975e-09	-2.539863e+01	-7.817222e+01
1.000000e-06	-3.618998e-06	-1.183028e-09	-2.515176e+01	-7.791887e+01
1.010000e-06	-3.583322e-06	-1.169209e-09	-2.490382e+01	-7.766394e+01
1.020000e-06	-3.547421e-06	-1.162321e-09	-2.465431e+01	-7.740733e+01
1.030000e-06	-3.511274e-06	-1.161683e-09	-2.440309e+01	-7.714890e+01
1.040000e-06	-3.474989e-06	-1.154063e-09	-2.415091e+01	-7.688854e+01
1.050000e-06	-3.438551e-06	-1.150177e-09	-2.389767e+01	-7.662614e+01
1.060000e-06	-3.401808e-06	-1.153558e-09	-2.364231e+01	-7.636157e+01
1.070000e-06	-3.364771e-06	-1.147462e-09	-2.338490e+01	-7.609475e+01
1.080000e-06	-3.327529e-06	-1.135513e-09	-2.312608e+01	-7.582555e+01
1.090000e-06	-3.290081e-06	-1.128904e-09	-2.286582e+01	-7.555388e+01
1.100000e-06	-3.252369e-06	-1.119688e-09	-2.260372e+01	-7.527965e+01
1.110000e-06	-3.214396e-06	-1.106125e-09	-2.233981e+01	-7.500277e+01
1.120000e-06	-3.176105e-06	-1.098386e-09	-2.207369e+01	-7.472314e+01
1.130000e-06	-3.137585e-06	-1.093115e-09	-2.180598e+01	-7.444067e+01
1.140000e-06	-3.098943e-06	-1.086875e-09	-2.153742e+01	-7.415527e+01
1.150000e-06	-3.060117e-06	-1.087621e-09	-2.126758e+01	-7.386681e+01
1.160000e-06	-3.021041e-06	-1.092288e-09	-2.099601e+01	-7.357519e+01
1.170000e-06	-2.981745e-06	-1.087263e-09	-2.072290e+01	-7.328025e+01
1.180000e-06	-2.942348e-06	-1.077137e-09	-2.044909e+01	-7.298185e+01
1.190000e-06	-2.902906e-06	-1.068895e-09	-2.017498e+01	-7.267979e+01
1.200000e-06	-2.863317e-06	-1.058407e-09	-1.989984e+01	-7.237386e+01
1.210000e-06	-2.823525e-06	-1.045685e-09	-1.962329e+01	-7.206381e+01
1.220000e-06	-2.783566e-06	-1.040727e-09	-1.934557e+01	-7.174938e+01
1.230000e-06	-2.743457e-06	-1.039167e-09	-1.906682e+01	-7.143026e+01
1.240000e-06	-2.703206e-06	-1.034142e-09	-1.878708e+01	-7.110610e+01
1.250000e-06	-2.662684e-06	-1.029164e-09	-1.850545e+01	-7.077653e+01
1.260000e-06	-2.621861e-06	-1.026131e-09	-1.822173e+01	-7.044114e+01
1.270000e-06	-2.580787e-06	-1.019671e-09	-1.793628e+01	-7.009951e+01
1.280000e-06	-2.539379e-06	-1.009641e-09	-1.764850e+01	-6.975118e+01
1.290000e-06	-2.497715e-06	-1.001416e-09	-1.735893e+01	-6.939567e+01
1.300000e-06	-2.455863e-06	-9.953892e-10	-1.706806e+01	-6.903249e+01
1.310000e-06	-2.413671e-06	-9.862836e-10	-1.677483e+01	-6.866115e+01
1.320000e-06	-2.371083e-06	-9.764348e-10	-1.647885e+01	-6.828115e+01
1.330000e-06	-2.328208e-06	-9.699374e-10	-1.618087e+01	-6.789199e+01
1.340000e-06	-2.285194e-06	-9.637140e-10	-1.588193e+01	-6.749320e+01
1.350000e-06	-2.242058e-06	-9.609051e-10	-1.558214e+01	-6.708432e+01
1.360000e-06	-2.198711e-06	-9.603256e-10	-1.528088e+01	-6.666494e+01
1.370000e-06	-2.155215e-06	-9.569732e-10	-1.497858e+01	-6.623465e+01
1.380000e-06	-2.111701e-06	-9.489489e-10	-1.467617e+01	-6.579313e+01
1.390000e-06	-2.068108e-06	-9.386466e-10	-1.437319e+01	-6.534006e+01
1.400000e-06	-2.024424e-06	-9.251139e-10	-1.406959e+01	-6.487521e+01
1.410000e-06	-1.980657e-06	-9.094065e-10	-1.376541e+01	-6.439839e+01
1.420000e-06	-1.936772e-06	-8.971067e-10	-1.346042e+01	-6.390948e+01
1.430000e-06	-1.892820e-06	-8.880361e-10	-1.315496e+01	-6.340841e+01
1.440000e-06	-1.848787e-06	-8.822238e-10	-1.284893e+01	-6.289518e+01
1.450000e-06	-1.804586e-06	-8.789709e-10	-1.254173e+01	-6.236985e+01
1.460000e-06	-1.760160e-06	-8.766015e-10	-1.223298e+01	-6.183251e+01
1.470000e-06	-1.715605e-06	-8.714839e-10	-1.192332e+01	-6.128331e+01
1.480000e-06	-1.670985e-06	-8.620644e-10	-1.161322e+01	-6.072246e+01
1.490000e-06	-1.626192e-06	-8.509186e-10	-1.130191e+01	-6.015016e+01
1.500000e-06	-1.581217e-06	-8.375801e-10	-1.098934e+01	-5.956666e+01
1.510000e-06	-1.536133e-06	-8.222236e-10	-1.067601e+01	-5.897221e+01
1.520000e-06	-1.490961e-06	-8.075059e-10	-1.036206e+01	-5.836705e+01
1.530000e-06	-1.445661e-06	-7.965279e-10	-1.004724e+01	-5.775139e+01
1.540000e-06	-1.400211e-06	-7.912282e-10	-9.731363e+00	-5.712545e+01
1.550000e-06	-1.354651e-06	-7.880890e-10	-9.414722e+00	-5.648934e+01
1.560000e-06	-1.309109e-06	-7.827816e-10	-9.098212e+00	-5.584316e+01
1.570000e-06	-1.263581e-06	-7.738599e-10	-8.781790e+00	-5.518690e+01
1.580000e-06	-1.217928e-06	-7.630043e-10	-8.464506e+00	-5.452048e+01
1.590000e-06	-1.172144e-06	-7.489764e-10	-8.146309e+00	-5.384372e+01
1.600000e-06	-1.126262e-06	-7.315915e-10	-7.827439e+00	-5.315629e+01
1.610000e-06	-1.080283e-06	-7.164379e-10	-7.507884e+00	-5.245779e+01
1.620000e-06	-1.034251e-06	-7.054540e-10	-7.187968e+00	-5.174764e+01
1.630000e-06	-9.881905e-07	-6.963048e-10	-6.867849e+00	-5.102516e+01
1.640000e-06	-9.420947e-07	-6.890818e-10	-6.547487e+00	-5.028952e+01
1.650000e-06	-8.959034e-07	-6.833712e-10	-6.226461e+00	-4.953973e+01
1.660000e-06	-8.496197e-07	-6.764164e-10	-5.904793e+00	-4.877469e+01
1.670000e-06	-8.033236e-07	-6.639878e-10	-5.583038e+00	-4.799314e+01
1.680000e-06	-7.569927e-07	-6.467596e-10	-5.261042e+00	-4.719372e+01
1.690000e-06	-7.105859e-07	-6.301859e-10	-4.938518e+00	-4.637492e+01
1.700000e-06	-6.640849e-07	-6.139042e-10	-4.615340e+00	-4.553515e+01
1.710000e-06	-6.175018e-07	-5.958621e-10	-4.291591e+00	-4.467271e+01
1.720000e-06	-5.708843e-07	-5.767904e-10	-3.967603e+00	-4.378585e+01
1.730000e-06	-5.242334e-07	-5.599307e-10	-3.643383e+00	-4.287274e+01
1.740000e-06	-4.775039e-07	-5.472930e-10	-3.318616e+00	-4.193153e+01
1.750000e-06	-4.307714e-07	-5.353243e-10	-2.993829e+00	-4.096034e+01
1.760000e-06	-3.840299e-07	-5.197690e-10	-2.668979e+00	-3.995732e+01
1.770000e-06	-3.372140e-07	-5.013023e-10	-2.343612e+00	-3.892065e+01
1.780000e-06	-2.904498e-07	-4.817326e-10	-2.018604e+00	-3.784855e+01
1.790000e-06	-2.437099e-07	-4.630906e-10	-1.693765e+00	-3.673934e+01
1.800000e-06	-1.968843e-07	-4.465123e-10	-1.368331e+00	-3.559145e+01
1.810000e-06	-1.500150e-07	-4.306760e-10	-1.042593e+00	-3.440342e+01
1.820000e-06	-1.031418e-07	-4.131657e-10	-7.168275e-01	-3.317395e+01
1.830000e-06	-5.632396e-08	-3.942547e-10	-3.914473e-01	-3.190193e+01
1.840000e-06	-9.506320e-09	-3.760316e-10	-6.606821e-02	-3.058642e+01
1.850000e-06	3.737292e-08	-3.584303e-10	2.597390e-01	-2.922668e+01
1.860000e-06	8.424290e-08	-3.404389e-10	5.854818e-01	-2.782223e+01
1.870000e-06	1.311050e-07	-3.200323e-10	9.111696e-01	-2.637278e+01
1.880000e-06	1.779392e-07	-2.986592e-10	1.236664e+00	-2.487831e+01
1.890000e-06	2.247005e-07	-2.766258e-10	1.561651e+00	-2.333904e+01
1.900000e-06	2.714632e-07	-2.529014e-10	1.886649e+00	-2.175545e+01
1.910000e-06	3.182419e-07	-2.281688e-10	2.211757e+00	-2.012829e+01
1.920000e-06	3.650049e-07	-2.023818e-10	2.536756e+00	-1.845852e+01
1.930000e-06	4.116608e-07	-1.786616e-10	2.861012e+00	-1.674739e+01
1.940000e-06	4.583078e-07	-1.578194e-10	3.185205e+00	-1.499638e+01
1.950000e-06	5.050158e-07	-1.374957e-10	3.509822e+00	-1.320719e+01
1.960000e-06	5.516182e-07	-1.160881e-10	3.833705e+00	-1.138175e+01
1.970000e-06	5.981385e-07	-9.181600e-11	4.157018e+00	-9.522191e+00
1.980000e-06	6.446168e-07	-6.565440e-11	4.480038e+00	-7.630834e+00
1.990000e-06	6.910109e-07	-3.748703e-11	4.802474e+00	-5.710168e+00
2.000000e-06	7.373437e-07	-6.886336e-12	5.124483e+00	-3.762839e+00
2.010000e-06	7.836429e-07	2.263382e-11	5.446259e+00	-1.791621e+00
2.020000e-06	8.298767e-07	5.136610e-11	5.767580e+00	2.005997e-01
2.030000e-06	8.760407e-07	8.022862e-11	6.088417e+00	2.210848e+00
2.040000e-06	9.221246e-07	1.063566e-10	6.408696e+00	4.236081e+00
2.050000e-06	9.681470e-07	1.301071e-10	6.728548e+00	6.273207e+00
2.060000e-06	1.014114e-06	1.541354e-10	7.048018e+00	8.319109e+00
2.070000e-06	1.059992e-06	1.796953e-10	7.366863e+00	1.037067e+01
2.080000e-06	1.105823e-06	2.069947e-10	7.685383e+00	1.242477e+01
2.090000e-06	1.151596e-06	2.364417e-10	8.003503e+00	1.447835e+01
2.100000e-06	1.197258e-06	2.669860e-10	8.320856e+00	1.652837e+01
2.110000e-06	1.242828e-06	2.964943e-10	8.637562e+00	1.857189e+01
2.120000e-06	1.288319e-06	3.251450e-10	8.953721e+00	2.060602e+01
2.130000e-06	1.333759e-06	3.536498e-10	9.269522e+00	2.262798e+01
2.140000e-06	1.379163e-06	3.802571e-10	9.585078e+00	2.463511e+01
2.150000e-06	1.424491e-06	4.045227e-10	9.900106e+00	2.662484e+01
2.160000e-06	1.469675e-06	4.278691e-10	1.021413e+01	2.859475e+01
2.170000e-06	1.514745e-06	4.510938e-10	1.052737e+01	3.054255e+01
2.180000e-06	1.559801e-06	4.768477e-10	1.084050e+01	3.246608e+01
2.190000e-06	1.604736e-06	5.039511e-10	1.115279e+01	3.436334e+01
2.200000e-06	1.649457e-06	5.312291e-10	1.146360e+01	3.623247e+01
2.210000e-06	1.694016e-06	5.585084e-10	1.177328e+01	3.807179e+01
2.220000e-06	1.738448e-06	5.850353e-10	1.208208e+01	3.987974e+01
2.230000e-06	1.782761e-06	6.104947e-10	1.239005e+01	4.165493e+01
2.240000e-06	1.826936e-06	6.316852e-10	1.269706e+01	4.339614e+01
2.250000e-06	1.870995e-06	6.484392e-10	1.300327e+01	4.510228e+01
2.260000e-06	1.914977e-06	6.648815e-10	1.330894e+01	4.677243e+01
2.270000e-06	1.958857e-06	6.838595e-10	1.361391e+01	4.840581e+01
2.280000e-06	2.002578e-06	7.062367e-10	1.391776e+01	5.000181e+01
2.290000e-06	2.046174e-06	7.302989e-10	1.422075e+01	5.155994e+01
2.300000e-06	2.089770e-06	7.547873e-10	1.452375e+01	5.307986e+01
2.310000e-06	2.133393e-06	7.792889e-10	1.482692e+01	5.456136e+01
2.320000e-06	2.176964e-06	7.993624e-10	1.512974e+01	5.600438e+01
2.330000e-06	2.220406e-06	8.150234e-10	1.543165e+01	5.740896e+01
2.340000e-06	2.263741e-06	8.303314e-10	1.573283e+01	5.877528e+01
2.350000e-06	2.306940e-06	8.470724e-10	1.603306e+01	6.010362e+01
2.360000e-06	2.349980e-06	8.649482e-10	1.633219e+01	6.139439e+01
2.370000e-06	2.392778e-06	8.849097e-10	1.662963e+01	6.264805e+01
2.380000e-06	2.435190e-06	9.059790e-10	1.692438e+01	6.386522e+01
2.390000e-06	2.477304e-06	9.241569e-10	1.721708e+01	6.504654e+01
2.400000e-06	2.519148e-06	9.390901e-10	1.750789e+01	6.619277e+01
2.410000e-06	2.560690e-06	9.535113e-10	1.779660e+01	6.730471e+01
2.420000e-06	2.601930e-06	9.682654e-10	1.808322e+01	6.838323e+01
2.430000e-06	2.642890e-06	9.835831e-10	1.836789e+01	6.942925e+01
2.440000e-06	2.683610e-06	1.000347e-09	1.865089e+01	7.044372e+01
2.450000e-06	2.724012e-06	1.018041e-09	1.893167e+01	7.142762e+01
2.460000e-06	2.764136e-06	1.034605e-09	1.921054e+01	7.238195e+01
2.470000e-06	2.804072e-06	1.045711e-09	1.948809e+01	7.330772e+01
2.480000e-06	2.843848e-06	1.053453e-09	1.976453e+01	7.420594e+01
2.490000e-06	2.883494e-06	1.062482e-09	2.004007e+01	7.507761e+01
2.500000e-06	2.923016e-06	1.074004e-09	2.031474e+01	7.592369e+01
2.510000e-06	2.962449e-06	1.090456e-09	2.058880e+01	7.674514e+01
2.520000e-06	3.001800e-06	1.107430e-09	2.086228e+01	7.754287e+01
2.530000e-06	3.040960e-06	1.124170e-09	2.113444e+01	7.831774e+01
2.540000e-06	3.079796e-06	1.140843e-09	2.140435e+01	7.907057e+01
2.550000e-06	3.118412e-06	1.151249e-09	2.167273e+01	7.980210e+01
2.560000e-06	3.156864e-06	1.154882e-09	2.193996e+01	8.051304e+01
2.570000e-06	3.194993e-06	1.155896e-09	2.220496e+01	8.120402e+01
2.580000e-06	3.232912e-06	1.159378e-09	2.246850e+01	8.187559e+01
2.590000e-06	3.270722e-06	1.167058e-09	2.273127e+01	8.252826e+01
2.600000e-06	3.308352e-06	1.180905e-09	2.299280e+01	8.316244e+01
2.610000e-06	3.345757e-06	1.199411e-09	2.325276e+01	8.377848e+01
2.620000e-06	3.382838e-06	1.217190e-09	2.351047e+01	8.437669e+01
2.630000e-06	3.419678e-06	1.226714e-09	2.376650e+01	8.495730e+01
2.640000e-06	3.456247e-06	1.228906e-09	2.402066e+01	8.552048e+01
2.650000e-06	3.492524e-06	1.229361e-09	2.427278e+01	8.606635e+01
2.660000e-06	3.528614e-06	1.229685e-09	2.452360e+01	8.659501e+01
2.670000e-06	3.564542e-06	1.232948e-09	2.477329e+01	8.710649e+01
2.680000e-06	3.600331e-06	1.240951e-09	2.502203e+01	8.760082e+01
2.690000e-06	3.635961e-06	1.253457e-09	2.526966e+01	8.807801e+01
2.700000e-06	3.671417e-06	1.266584e-09	2.551607e+01	8.853804e+01
2.710000e-06	3.706639e-06	1.273400e-09	2.576086e+01	8.898091e+01
2.720000e-06	3.741654e-06	1.275042e-09	2.600421e+01	8.940662e+01
2.730000e-06	3.776447e-06	1.274541e-09	2.624602e+01	8.981518e+01
2.740000e-06	3.810869e-06	1.274822e-09	2.648525e+01	9.020665e+01
2.750000e-06	3.844874e-06	1.277815e-09	2.672159e+01	9.058109e+01
2.760000e-06	3.878328e-06	1.283404e-09	2.695409e+01	9.093862e+01
2.770000e-06	3.911207e-06	1.291985e-09	2.718259e+01	9.127940e+01
2.780000e-06	3.943669e-06	1.299943e-09	2.740820e+01	9.160363e+01
2.790000e-06	3.975830e-06	1.305699e-09	2.763172e+01	9.191157e+01
2.800000e-06	4.007826e-06	1.310716e-09	2.785409e+01	9.220353e+01
2.810000e-06	4.039613e-06	1.313189e-09	2.807500e+01	9.247987e+01
2.820000e-06	4.071203e-06	1.314135e-09	2.829455e+01	9.274102e+01
2.830000e-06	4.102630e-06	1.317238e-09	2.851297e+01	9.298743e+01
2.840000e-06	4.133853e-06	1.319236e-09	2.872996e+01	9.321963e+01
2.850000e-06	4.164892e-06	1.320486e-09	2.894569e+01	9.343817e+01
2.860000e-06	4.195676e-06	1.325852e-09	2.915963e+01	9.364364e+01
2.870000e-06	4.226099e-06	1.335062e-09	2.937107e+01	9.383668e+01
2.880000e-06	4.256136e-06	1.341566e-09	2.957982e+01	9.401792e+01
2.890000e-06	4.285847e-06	1.343862e-09	2.978631e+01	9.418803e+01
2.900000e-06	4.315272e-06	1.342505e-09	2.999081e+01	9.434768e+01
