# Temperatura_=_-6.24
# Concentracion g/m^3_=_1620.0
# C_Vs_to_Am_M_A/Vsm_=_65563218390.804596
# pendiente_HvsI_1/m_=_3716.3
# ordenada_HvsI_A/m_=_1297.0
# frecuencia_Hz_=_135110.64803006616

Tiempo_(s)	Campo_(V.s)	Magnetizacion_(V.s)	Campo_(kA/m)	Magnetizacion_(A/m)
0.000000e+00	-5.527380e-06	-1.373427e-09	-3.837039e+01	-9.024706e+01
1.000000e-08	-5.527493e-06	-1.371112e-09	-3.837118e+01	-9.016363e+01
2.000000e-08	-5.527301e-06	-1.370772e-09	-3.836985e+01	-9.008544e+01
3.000000e-08	-5.526625e-06	-1.371069e-09	-3.836515e+01	-9.001327e+01
4.000000e-08	-5.525321e-06	-1.369425e-09	-3.835610e+01	-8.994780e+01
5.000000e-08	-5.523357e-06	-1.356907e-09	-3.834247e+01	-8.988963e+01
6.000000e-08	-5.520792e-06	-1.331753e-09	-3.832466e+01	-8.983919e+01
7.000000e-08	-5.517735e-06	-1.324775e-09	-3.830344e+01	-8.979682e+01
8.000000e-08	-5.514321e-06	-1.388712e-09	-3.827974e+01	-8.976267e+01
9.000000e-08	-5.510498e-06	-1.497355e-09	-3.825320e+01	-8.973677e+01
1.000000e-07	-5.506161e-06	-1.477278e-09	-3.822309e+01	-8.971896e+01
1.100000e-07	-5.501470e-06	-1.304505e-09	-3.819053e+01	-8.970893e+01
1.200000e-07	-5.496710e-06	-1.232592e-09	-3.815749e+01	-8.970622e+01
1.300000e-07	-5.491778e-06	-1.364426e-09	-3.812325e+01	-8.971019e+01
1.400000e-07	-5.486343e-06	-1.442825e-09	-3.808552e+01	-8.972005e+01
1.500000e-07	-5.480471e-06	-1.345675e-09	-3.804475e+01	-8.973491e+01
1.600000e-07	-5.474396e-06	-1.269334e-09	-3.800259e+01	-8.975370e+01
1.700000e-07	-5.467958e-06	-1.384916e-09	-3.795789e+01	-8.977529e+01
1.800000e-07	-5.460936e-06	-1.460384e-09	-3.790915e+01	-8.979843e+01
1.900000e-07	-5.453572e-06	-1.385315e-09	-3.785802e+01	-8.982182e+01
2.000000e-07	-5.446038e-06	-1.299795e-09	-3.780572e+01	-8.984410e+01
2.100000e-07	-5.438213e-06	-1.374719e-09	-3.775141e+01	-8.986388e+01
2.200000e-07	-5.430104e-06	-1.458692e-09	-3.769512e+01	-8.987981e+01
2.300000e-07	-5.421672e-06	-1.446145e-09	-3.763658e+01	-8.989051e+01
2.400000e-07	-5.412680e-06	-1.390715e-09	-3.757416e+01	-8.989470e+01
2.500000e-07	-5.402916e-06	-1.401715e-09	-3.750638e+01	-8.989113e+01
2.600000e-07	-5.392389e-06	-1.430144e-09	-3.743330e+01	-8.987868e+01
2.700000e-07	-5.381296e-06	-1.396945e-09	-3.735630e+01	-8.985632e+01
2.800000e-07	-5.369800e-06	-1.372511e-09	-3.727649e+01	-8.982316e+01
2.900000e-07	-5.358000e-06	-1.405892e-09	-3.719458e+01	-8.977845e+01
3.000000e-07	-5.345944e-06	-1.440145e-09	-3.711088e+01	-8.972161e+01
3.100000e-07	-5.333515e-06	-1.396172e-09	-3.702461e+01	-8.965223e+01
3.200000e-07	-5.320557e-06	-1.363906e-09	-3.693465e+01	-8.957005e+01
3.300000e-07	-5.307160e-06	-1.375066e-09	-3.684166e+01	-8.947503e+01
3.400000e-07	-5.293516e-06	-1.402326e-09	-3.674693e+01	-8.936727e+01
3.500000e-07	-5.279462e-06	-1.364680e-09	-3.664938e+01	-8.924707e+01
3.600000e-07	-5.264778e-06	-1.366008e-09	-3.654744e+01	-8.911487e+01
3.700000e-07	-5.249575e-06	-1.401349e-09	-3.644190e+01	-8.897129e+01
3.800000e-07	-5.233972e-06	-1.397690e-09	-3.633359e+01	-8.881708e+01
3.900000e-07	-5.217727e-06	-1.342389e-09	-3.622082e+01	-8.865311e+01
4.000000e-07	-5.201035e-06	-1.372701e-09	-3.610495e+01	-8.848038e+01
4.100000e-07	-5.184150e-06	-1.400237e-09	-3.598773e+01	-8.829995e+01
4.200000e-07	-5.166918e-06	-1.339659e-09	-3.586811e+01	-8.811298e+01
4.300000e-07	-5.149382e-06	-1.323275e-09	-3.574637e+01	-8.792066e+01
4.400000e-07	-5.131611e-06	-1.412363e-09	-3.562301e+01	-8.772418e+01
4.500000e-07	-5.113381e-06	-1.399993e-09	-3.549646e+01	-8.752477e+01
4.600000e-07	-5.094624e-06	-1.315114e-09	-3.536625e+01	-8.732361e+01
4.700000e-07	-5.075495e-06	-1.350577e-09	-3.523346e+01	-8.712184e+01
4.800000e-07	-5.056087e-06	-1.399601e-09	-3.509873e+01	-8.692056e+01
4.900000e-07	-5.036496e-06	-1.326253e-09	-3.496274e+01	-8.672075e+01
5.000000e-07	-5.016741e-06	-1.309593e-09	-3.482560e+01	-8.652332e+01
5.100000e-07	-4.996755e-06	-1.369507e-09	-3.468686e+01	-8.632906e+01
5.200000e-07	-4.976374e-06	-1.329666e-09	-3.454538e+01	-8.613863e+01
5.300000e-07	-4.955537e-06	-1.295849e-09	-3.440073e+01	-8.595258e+01
5.400000e-07	-4.934380e-06	-1.371988e-09	-3.425386e+01	-8.577130e+01
5.500000e-07	-4.912930e-06	-1.370617e-09	-3.410496e+01	-8.559505e+01
5.600000e-07	-4.891119e-06	-1.286946e-09	-3.395355e+01	-8.542396e+01
5.700000e-07	-4.869055e-06	-1.321413e-09	-3.380038e+01	-8.525801e+01
5.800000e-07	-4.846608e-06	-1.363896e-09	-3.364455e+01	-8.509705e+01
5.900000e-07	-4.823643e-06	-1.301611e-09	-3.348514e+01	-8.494081e+01
6.000000e-07	-4.800329e-06	-1.288584e-09	-3.332329e+01	-8.478894e+01
6.100000e-07	-4.776829e-06	-1.340894e-09	-3.316016e+01	-8.464094e+01
6.200000e-07	-4.753197e-06	-1.308146e-09	-3.299611e+01	-8.449626e+01
6.300000e-07	-4.729354e-06	-1.279523e-09	-3.283059e+01	-8.435427e+01
6.400000e-07	-4.705228e-06	-1.318845e-09	-3.266311e+01	-8.421428e+01
6.500000e-07	-4.680683e-06	-1.318589e-09	-3.249273e+01	-8.407559e+01
6.600000e-07	-4.655597e-06	-1.282313e-09	-3.231858e+01	-8.393745e+01
6.700000e-07	-4.629961e-06	-1.303113e-09	-3.214062e+01	-8.379911e+01
6.800000e-07	-4.603773e-06	-1.307155e-09	-3.195883e+01	-8.365985e+01
6.900000e-07	-4.577078e-06	-1.274877e-09	-3.177351e+01	-8.351896e+01
7.000000e-07	-4.550003e-06	-1.275879e-09	-3.158556e+01	-8.337577e+01
7.100000e-07	-4.522688e-06	-1.294146e-09	-3.139594e+01	-8.322967e+01
7.200000e-07	-4.495175e-06	-1.277737e-09	-3.120495e+01	-8.308009e+01
7.300000e-07	-4.467513e-06	-1.276354e-09	-3.101293e+01	-8.292656e+01
7.400000e-07	-4.439673e-06	-1.288700e-09	-3.081966e+01	-8.276865e+01
7.500000e-07	-4.411525e-06	-1.276456e-09	-3.062426e+01	-8.260603e+01
7.600000e-07	-4.383037e-06	-1.262319e-09	-3.042651e+01	-8.243845e+01
7.700000e-07	-4.354236e-06	-1.266211e-09	-3.022657e+01	-8.226571e+01
7.800000e-07	-4.325117e-06	-1.258739e-09	-3.002443e+01	-8.208773e+01
7.900000e-07	-4.295629e-06	-1.252443e-09	-2.981972e+01	-8.190446e+01
8.000000e-07	-4.265786e-06	-1.259283e-09	-2.961256e+01	-8.171594e+01
8.100000e-07	-4.235705e-06	-1.253299e-09	-2.940375e+01	-8.152226e+01
8.200000e-07	-4.205381e-06	-1.237304e-09	-2.919324e+01	-8.132358e+01
8.300000e-07	-4.174740e-06	-1.238719e-09	-2.898053e+01	-8.112006e+01
8.400000e-07	-4.143753e-06	-1.242698e-09	-2.876542e+01	-8.091193e+01
8.500000e-07	-4.112494e-06	-1.234025e-09	-2.854843e+01	-8.069944e+01
8.600000e-07	-4.081073e-06	-1.236145e-09	-2.833030e+01	-8.048281e+01
8.700000e-07	-4.049521e-06	-1.239788e-09	-2.811128e+01	-8.026232e+01
8.800000e-07	-4.017799e-06	-1.229431e-09	-2.789107e+01	-8.003821e+01
8.900000e-07	-3.985897e-06	-1.220571e-09	-2.766960e+01	-7.981071e+01
9.000000e-07	-3.953720e-06	-1.222474e-09	-2.744624e+01	-7.958003e+01
9.100000e-07	-3.921054e-06	-1.209642e-09	-2.721948e+01	-7.934636e+01
9.200000e-07	-3.887951e-06	-1.198400e-09	-2.698968e+01	-7.910984e+01
9.300000e-07	-3.854589e-06	-1.203165e-09	-2.675809e+01	-7.887059e+01
9.400000e-07	-3.820820e-06	-1.203933e-09	-2.652366e+01	-7.862870e+01
9.500000e-07	-3.786414e-06	-1.189781e-09	-2.628482e+01	-7.838420e+01
9.600000e-07	-3.751526e-06	-1.185803e-09	-2.604263e+01	-7.813709e+01
9.700000e-07	-3.716367e-06	-1.184552e-09	-2.579856e+01	-7.788736e+01
9.800000e-07	-3.680994e-06	-1.174388e-09	-2.555301e+01	-7.763493e+01
9.900000e-07	-3.645469e-06	-1.168217e-09	-2.530639e+01	-7.737974e+01
1.000000e-06	-3.609862e-06	-1.172008e-09	-2.505922e+01	-7.712166e+01
1.010000e-06	-3.574165e-06	-1.164484e-09	-2.481141e+01	-7.686058e+01
1.020000e-06	-3.538267e-06	-1.154381e-09	-2.456221e+01	-7.659637e+01
1.030000e-06	-3.502166e-06	-1.153095e-09	-2.431161e+01	-7.632890e+01
1.040000e-06	-3.465769e-06	-1.151950e-09	-2.405894e+01	-7.605805e+01
1.050000e-06	-3.429012e-06	-1.143630e-09	-2.380378e+01	-7.578368e+01
1.060000e-06	-3.392004e-06	-1.137882e-09	-2.354687e+01	-7.550571e+01
1.070000e-06	-3.354731e-06	-1.133105e-09	-2.328813e+01	-7.522404e+01
1.080000e-06	-3.317187e-06	-1.124735e-09	-2.302750e+01	-7.493862e+01
1.090000e-06	-3.279431e-06	-1.117998e-09	-2.276541e+01	-7.464941e+01
1.100000e-06	-3.241539e-06	-1.113928e-09	-2.250237e+01	-7.435641e+01
1.110000e-06	-3.203476e-06	-1.104594e-09	-2.223813e+01	-7.405963e+01
1.120000e-06	-3.165184e-06	-1.093094e-09	-2.197232e+01	-7.375913e+01
1.130000e-06	-3.126708e-06	-1.088611e-09	-2.170522e+01	-7.345497e+01
1.140000e-06	-3.087978e-06	-1.084766e-09	-2.143636e+01	-7.314725e+01
1.150000e-06	-3.048958e-06	-1.079666e-09	-2.116549e+01	-7.283606e+01
1.160000e-06	-3.009758e-06	-1.075969e-09	-2.089337e+01	-7.252152e+01
1.170000e-06	-2.970413e-06	-1.073681e-09	-2.062024e+01	-7.220376e+01
1.180000e-06	-2.930925e-06	-1.068234e-09	-2.034612e+01	-7.188288e+01
1.190000e-06	-2.891294e-06	-1.061503e-09	-2.007101e+01	-7.155898e+01
1.200000e-06	-2.851501e-06	-1.052912e-09	-1.979477e+01	-7.123215e+01
1.210000e-06	-2.811560e-06	-1.044445e-09	-1.951750e+01	-7.090244e+01
1.220000e-06	-2.771513e-06	-1.038070e-09	-1.923950e+01	-7.056987e+01
1.230000e-06	-2.731340e-06	-1.033487e-09	-1.896063e+01	-7.023442e+01
1.240000e-06	-2.690937e-06	-1.025385e-09	-1.868015e+01	-6.989602e+01
1.250000e-06	-2.650221e-06	-1.019198e-09	-1.839751e+01	-6.955455e+01
1.260000e-06	-2.609200e-06	-1.016701e-09	-1.811275e+01	-6.920982e+01
1.270000e-06	-2.567825e-06	-1.012829e-09	-1.782553e+01	-6.886161e+01
1.280000e-06	-2.526148e-06	-1.004308e-09	-1.753621e+01	-6.850961e+01
1.290000e-06	-2.484282e-06	-9.960283e-10	-1.724558e+01	-6.815348e+01
1.300000e-06	-2.442159e-06	-9.870354e-10	-1.695317e+01	-6.779278e+01
1.310000e-06	-2.399695e-06	-9.773665e-10	-1.665839e+01	-6.742707e+01
1.320000e-06	-2.356944e-06	-9.676634e-10	-1.636161e+01	-6.705583e+01
1.330000e-06	-2.313951e-06	-9.601361e-10	-1.606317e+01	-6.667849e+01
1.340000e-06	-2.270718e-06	-9.553407e-10	-1.576305e+01	-6.629447e+01
1.350000e-06	-2.227364e-06	-9.513972e-10	-1.546208e+01	-6.590316e+01
1.360000e-06	-2.183922e-06	-9.467369e-10	-1.516052e+01	-6.550394e+01
1.370000e-06	-2.140381e-06	-9.413362e-10	-1.485826e+01	-6.509615e+01
1.380000e-06	-2.096766e-06	-9.323243e-10	-1.455549e+01	-6.467920e+01
1.390000e-06	-2.053044e-06	-9.172384e-10	-1.425198e+01	-6.425245e+01
1.400000e-06	-2.009208e-06	-9.017672e-10	-1.394768e+01	-6.381535e+01
1.410000e-06	-1.965323e-06	-8.901497e-10	-1.364303e+01	-6.336734e+01
1.420000e-06	-1.921392e-06	-8.806013e-10	-1.333807e+01	-6.290793e+01
1.430000e-06	-1.877362e-06	-8.740729e-10	-1.303242e+01	-6.243668e+01
1.440000e-06	-1.833154e-06	-8.705469e-10	-1.272553e+01	-6.195322e+01
1.450000e-06	-1.788802e-06	-8.644145e-10	-1.241765e+01	-6.145723e+01
1.460000e-06	-1.744366e-06	-8.550647e-10	-1.210917e+01	-6.094847e+01
1.470000e-06	-1.699756e-06	-8.448881e-10	-1.179950e+01	-6.042677e+01
1.480000e-06	-1.654992e-06	-8.351562e-10	-1.148875e+01	-5.989203e+01
1.490000e-06	-1.610127e-06	-8.239253e-10	-1.117730e+01	-5.934420e+01
1.500000e-06	-1.565088e-06	-8.113939e-10	-1.086465e+01	-5.878330e+01
1.510000e-06	-1.519919e-06	-8.006252e-10	-1.055109e+01	-5.820940e+01
1.520000e-06	-1.474724e-06	-7.913608e-10	-1.023735e+01	-5.762261e+01
1.530000e-06	-1.429446e-06	-7.812065e-10	-9.923040e+00	-5.702307e+01
1.540000e-06	-1.384029e-06	-7.714288e-10	-9.607756e+00	-5.641093e+01
1.550000e-06	-1.338517e-06	-7.594449e-10	-9.291819e+00	-5.578635e+01
1.560000e-06	-1.292902e-06	-7.451618e-10	-8.975166e+00	-5.514946e+01
1.570000e-06	-1.247184e-06	-7.306017e-10	-8.657800e+00	-5.450038e+01
1.580000e-06	-1.201387e-06	-7.185512e-10	-8.339879e+00	-5.383915e+01
1.590000e-06	-1.155488e-06	-7.054893e-10	-8.021253e+00	-5.316578e+01
1.600000e-06	-1.109556e-06	-6.930103e-10	-7.702404e+00	-5.248016e+01
1.610000e-06	-1.063529e-06	-6.829584e-10	-7.382890e+00	-5.178212e+01
1.620000e-06	-1.017390e-06	-6.738311e-10	-7.062598e+00	-5.107134e+01
1.630000e-06	-9.711948e-07	-6.650639e-10	-6.741915e+00	-5.034742e+01
1.640000e-06	-9.249417e-07	-6.556933e-10	-6.420831e+00	-4.960978e+01
1.650000e-06	-8.786487e-07	-6.451103e-10	-6.099471e+00	-4.885774e+01
1.660000e-06	-8.322946e-07	-6.335371e-10	-5.777687e+00	-4.809044e+01
1.670000e-06	-7.858989e-07	-6.225883e-10	-5.455614e+00	-4.730690e+01
1.680000e-06	-7.394831e-07	-6.111225e-10	-5.133400e+00	-4.650597e+01
1.690000e-06	-6.929810e-07	-5.981776e-10	-4.810589e+00	-4.568638e+01
1.700000e-06	-6.464440e-07	-5.816654e-10	-4.487535e+00	-4.484669e+01
1.710000e-06	-5.998843e-07	-5.623525e-10	-4.164323e+00	-4.398538e+01
1.720000e-06	-5.532278e-07	-5.437683e-10	-3.840439e+00	-4.310078e+01
1.730000e-06	-5.065683e-07	-5.285680e-10	-3.516535e+00	-4.219116e+01
1.740000e-06	-4.598862e-07	-5.155263e-10	-3.192473e+00	-4.125469e+01
1.750000e-06	-4.131332e-07	-5.020455e-10	-2.867920e+00	-4.028952e+01
1.760000e-06	-3.663132e-07	-4.873497e-10	-2.542901e+00	-3.929373e+01
1.770000e-06	-3.194444e-07	-4.715493e-10	-2.217543e+00	-3.826546e+01
1.780000e-06	-2.725752e-07	-4.560294e-10	-1.892184e+00	-3.720282e+01
1.790000e-06	-2.257363e-07	-4.406512e-10	-1.567034e+00	-3.610402e+01
1.800000e-06	-1.789089e-07	-4.236231e-10	-1.241964e+00	-3.496733e+01
1.810000e-06	-1.320798e-07	-4.056425e-10	-9.168815e-01	-3.379114e+01
1.820000e-06	-8.517991e-08	-3.880239e-10	-5.913085e-01	-3.257401e+01
1.830000e-06	-3.824688e-08	-3.708517e-10	-2.655051e-01	-3.131462e+01
1.840000e-06	8.649707e-09	-3.527543e-10	6.004520e-02	-3.001190e+01
1.850000e-06	5.554443e-08	-3.354115e-10	3.855826e-01	-2.866495e+01
1.860000e-06	1.024357e-07	-3.178421e-10	7.110958e-01	-2.727313e+01
1.870000e-06	1.493101e-07	-2.998500e-10	1.036492e+00	-2.583608e+01
1.880000e-06	1.961841e-07	-2.796286e-10	1.361886e+00	-2.435367e+01
1.890000e-06	2.430841e-07	-2.553120e-10	1.687460e+00	-2.282607e+01
1.900000e-06	2.899671e-07	-2.303783e-10	2.012916e+00	-2.125375e+01
1.910000e-06	3.368464e-07	-2.050511e-10	2.338346e+00	-1.963746e+01
1.920000e-06	3.837404e-07	-1.825094e-10	2.663879e+00	-1.797825e+01
1.930000e-06	4.306057e-07	-1.623974e-10	2.989212e+00	-1.627746e+01
1.940000e-06	4.773835e-07	-1.418571e-10	3.313938e+00	-1.453670e+01
1.950000e-06	5.240869e-07	-1.188455e-10	3.638147e+00	-1.275786e+01
1.960000e-06	5.707373e-07	-9.469942e-11	3.961988e+00	-1.094308e+01
1.970000e-06	6.173594e-07	-6.945056e-11	4.285633e+00	-9.094739e+00
1.980000e-06	6.639689e-07	-4.253884e-11	4.609191e+00	-7.215431e+00
1.990000e-06	7.105589e-07	-1.525687e-11	4.932612e+00	-5.307940e+00
2.000000e-06	7.571235e-07	1.185212e-11	5.255858e+00	-3.375218e+00
2.010000e-06	8.036423e-07	3.947062e-11	5.578786e+00	-1.420358e+00
2.020000e-06	8.500300e-07	6.866258e-11	5.900804e+00	5.534380e-01
2.030000e-06	8.962462e-07	9.875242e-11	6.221631e+00	2.542882e+00
2.040000e-06	9.423427e-07	1.272334e-10	6.541627e+00	4.544634e+00
2.050000e-06	9.883358e-07	1.541115e-10	6.860906e+00	6.555328e+00
2.060000e-06	1.034338e-06	1.795828e-10	7.180250e+00	8.571599e+00
2.070000e-06	1.080339e-06	2.040733e-10	7.499577e+00	1.059011e+01
2.080000e-06	1.126184e-06	2.300951e-10	7.817832e+00	1.260759e+01
2.090000e-06	1.171893e-06	2.573628e-10	8.135139e+00	1.462083e+01
2.100000e-06	1.217560e-06	2.880183e-10	8.452153e+00	1.662673e+01
2.110000e-06	1.263216e-06	3.176107e-10	8.769089e+00	1.862231e+01
2.120000e-06	1.308826e-06	3.452681e-10	9.085712e+00	2.060473e+01
2.130000e-06	1.354283e-06	3.726387e-10	9.401263e+00	2.257128e+01
2.140000e-06	1.399588e-06	3.989456e-10	9.715768e+00	2.451944e+01
2.150000e-06	1.444813e-06	4.233140e-10	1.002972e+01	2.644684e+01
2.160000e-06	1.489925e-06	4.464664e-10	1.034288e+01	2.835130e+01
2.170000e-06	1.534980e-06	4.710375e-10	1.065564e+01	3.023081e+01
2.180000e-06	1.579949e-06	4.976140e-10	1.096781e+01	3.208354e+01
2.190000e-06	1.624797e-06	5.255498e-10	1.127914e+01	3.390786e+01
2.200000e-06	1.669527e-06	5.544100e-10	1.158965e+01	3.570229e+01
2.210000e-06	1.714112e-06	5.816768e-10	1.189916e+01	3.746554e+01
2.220000e-06	1.758511e-06	6.060045e-10	1.220737e+01	3.919648e+01
2.230000e-06	1.802767e-06	6.267928e-10	1.251458e+01	4.089414e+01
2.240000e-06	1.846949e-06	6.448279e-10	1.282129e+01	4.255770e+01
2.250000e-06	1.890970e-06	6.606713e-10	1.312688e+01	4.418649e+01
2.260000e-06	1.934853e-06	6.783700e-10	1.343151e+01	4.577994e+01
2.270000e-06	1.978663e-06	7.004596e-10	1.373564e+01	4.733764e+01
2.280000e-06	2.022392e-06	7.232646e-10	1.403920e+01	4.885925e+01
2.290000e-06	2.066040e-06	7.463609e-10	1.434219e+01	5.034456e+01
2.300000e-06	2.109653e-06	7.680431e-10	1.464495e+01	5.179345e+01
2.310000e-06	2.153244e-06	7.864868e-10	1.494756e+01	5.320587e+01
2.320000e-06	2.196787e-06	8.021185e-10	1.524983e+01	5.458184e+01
2.330000e-06	2.240266e-06	8.164586e-10	1.555165e+01	5.592146e+01
2.340000e-06	2.283666e-06	8.322242e-10	1.585293e+01	5.722489e+01
2.350000e-06	2.326956e-06	8.510048e-10	1.615344e+01	5.849235e+01
2.360000e-06	2.370043e-06	8.700453e-10	1.645255e+01	5.972409e+01
2.370000e-06	2.412859e-06	8.876231e-10	1.674977e+01	6.092043e+01
2.380000e-06	2.455398e-06	9.038278e-10	1.704507e+01	6.208173e+01
2.390000e-06	2.497556e-06	9.176390e-10	1.733773e+01	6.320837e+01
2.400000e-06	2.539307e-06	9.294497e-10	1.762755e+01	6.430081e+01
2.410000e-06	2.580689e-06	9.412131e-10	1.791483e+01	6.535952e+01
2.420000e-06	2.621718e-06	9.538714e-10	1.819965e+01	6.638500e+01
2.430000e-06	2.662483e-06	9.691090e-10	1.848263e+01	6.737782e+01
2.440000e-06	2.702993e-06	9.852649e-10	1.876385e+01	6.833856e+01
2.450000e-06	2.743288e-06	1.000538e-09	1.904357e+01	6.926784e+01
2.460000e-06	2.783374e-06	1.013638e-09	1.932184e+01	7.016632e+01
2.470000e-06	2.823293e-06	1.024040e-09	1.959895e+01	7.103469e+01
2.480000e-06	2.863104e-06	1.033931e-09	1.987532e+01	7.187366e+01
2.490000e-06	2.902780e-06	1.043726e-09	2.015074e+01	7.268398e+01
2.500000e-06	2.942355e-06	1.054586e-09	2.042547e+01	7.346643e+01
2.510000e-06	2.981791e-06	1.068057e-09	2.069922e+01	7.422179e+01
2.520000e-06	3.021078e-06	1.081893e-09	2.097195e+01	7.495088e+01
2.530000e-06	3.060195e-06	1.097300e-09	2.124350e+01	7.565453e+01
2.540000e-06	3.099022e-06	1.111359e-09	2.151303e+01	7.633358e+01
2.550000e-06	3.137646e-06	1.118350e-09	2.178115e+01	7.698886e+01
2.560000e-06	3.176108e-06	1.120728e-09	2.204815e+01	7.762121e+01
2.570000e-06	3.214300e-06	1.122420e-09	2.231327e+01	7.823148e+01
2.580000e-06	3.252221e-06	1.126766e-09	2.257652e+01	7.882049e+01
2.590000e-06	3.289919e-06	1.134831e-09	2.283821e+01	7.938905e+01
2.600000e-06	3.327377e-06	1.147742e-09	2.309824e+01	7.993794e+01
2.610000e-06	3.364659e-06	1.163494e-09	2.335705e+01	8.046793e+01
2.620000e-06	3.401832e-06	1.175330e-09	2.361510e+01	8.097976e+01
2.630000e-06	3.438728e-06	1.181319e-09	2.387123e+01	8.147412e+01
2.640000e-06	3.475285e-06	1.183115e-09	2.412500e+01	8.195169e+01
2.650000e-06	3.511475e-06	1.186172e-09	2.437623e+01	8.241308e+01
2.660000e-06	3.547389e-06	1.190726e-09	2.462554e+01	8.285890e+01
2.670000e-06	3.583196e-06	1.197741e-09	2.487411e+01	8.328968e+01
2.680000e-06	3.618912e-06	1.206677e-09	2.512204e+01	8.370594e+01
2.690000e-06	3.654537e-06	1.215415e-09	2.536934e+01	8.410815e+01
2.700000e-06	3.690012e-06	1.221615e-09	2.561561e+01	8.449673e+01
2.710000e-06	3.725352e-06	1.222685e-09	2.586093e+01	8.487210e+01
2.720000e-06	3.760560e-06	1.222869e-09	2.610535e+01	8.523461e+01
2.730000e-06	3.795474e-06	1.225477e-09	2.634771e+01	8.558461e+01
2.740000e-06	3.829986e-06	1.228848e-09	2.658729e+01	8.592241e+01
2.750000e-06	3.863967e-06	1.235567e-09	2.682318e+01	8.624830e+01
2.760000e-06	3.897314e-06	1.245292e-09	2.705467e+01	8.656257e+01
2.770000e-06	3.930075e-06	1.253583e-09	2.728210e+01	8.686549e+01
2.780000e-06	3.962410e-06	1.258703e-09	2.750656e+01	8.715732e+01
2.790000e-06	3.994462e-06	1.261097e-09	2.772906e+01	8.743831e+01
2.800000e-06	4.026323e-06	1.264075e-09	2.795024e+01	8.770873e+01
2.810000e-06	4.058028e-06	1.265565e-09	2.817033e+01	8.796884e+01
2.820000e-06	4.089567e-06	1.269390e-09	2.838927e+01	8.821891e+01
2.830000e-06	4.120939e-06	1.276383e-09	2.860705e+01	8.845922e+01
2.840000e-06	4.152098e-06	1.282895e-09	2.882336e+01	8.869005e+01
2.850000e-06	4.182967e-06	1.287870e-09	2.903764e+01	8.891171e+01
2.860000e-06	4.213557e-06	1.293514e-09	2.925000e+01	8.912450e+01
2.870000e-06	4.243871e-06	1.298302e-09	2.946043e+01	8.932873e+01
2.880000e-06	4.273800e-06	1.299051e-09	2.966819e+01	8.952472e+01
2.890000e-06	4.303423e-06	1.299213e-09	2.987383e+01	8.971279e+01
2.900000e-06	4.332815e-06	1.302625e-09	3.007787e+01	8.989327e+01
