# Temperatura_=_-11.6
# Concentracion g/m^3_=_1620.0
# C_Vs_to_Am_M_A/Vsm_=_65563218390.804596
# pendiente_HvsI_1/m_=_3716.3
# ordenada_HvsI_A/m_=_1297.0
# frecuencia_Hz_=_135105.1899438336

Tiempo_(s)	Campo_(V.s)	Magnetizacion_(V.s)	Campo_(kA/m)	Magnetizacion_(A/m)
0.000000e+00	-5.514110e-06	-1.363551e-09	-3.836717e+01	-8.802933e+01
1.000000e-08	-5.514354e-06	-1.362157e-09	-3.836887e+01	-8.798332e+01
2.000000e-08	-5.514373e-06	-1.366239e-09	-3.836900e+01	-8.794031e+01
3.000000e-08	-5.514078e-06	-1.372274e-09	-3.836695e+01	-8.790036e+01
4.000000e-08	-5.513314e-06	-1.375694e-09	-3.836163e+01	-8.786350e+01
5.000000e-08	-5.511976e-06	-1.373952e-09	-3.835232e+01	-8.782967e+01
6.000000e-08	-5.510007e-06	-1.365616e-09	-3.833862e+01	-8.779876e+01
7.000000e-08	-5.507485e-06	-1.356564e-09	-3.832107e+01	-8.777060e+01
8.000000e-08	-5.504395e-06	-1.349520e-09	-3.829957e+01	-8.774496e+01
9.000000e-08	-5.500765e-06	-1.370145e-09	-3.827431e+01	-8.772155e+01
1.000000e-07	-5.496745e-06	-1.413084e-09	-3.824634e+01	-8.770001e+01
1.100000e-07	-5.492333e-06	-1.378989e-09	-3.821565e+01	-8.767995e+01
1.200000e-07	-5.487713e-06	-1.322884e-09	-3.818350e+01	-8.766096e+01
1.300000e-07	-5.482962e-06	-1.310916e-09	-3.815045e+01	-8.764254e+01
1.400000e-07	-5.477786e-06	-1.348186e-09	-3.811443e+01	-8.762422e+01
1.500000e-07	-5.472132e-06	-1.387236e-09	-3.807509e+01	-8.760547e+01
1.600000e-07	-5.466227e-06	-1.320199e-09	-3.803400e+01	-8.758577e+01
1.700000e-07	-5.460042e-06	-1.319983e-09	-3.799096e+01	-8.756459e+01
1.800000e-07	-5.453329e-06	-1.314522e-09	-3.794425e+01	-8.754142e+01
1.900000e-07	-5.446169e-06	-1.391893e-09	-3.789444e+01	-8.751575e+01
2.000000e-07	-5.438761e-06	-1.371581e-09	-3.784289e+01	-8.748709e+01
2.100000e-07	-5.431165e-06	-1.361848e-09	-3.779004e+01	-8.745500e+01
2.200000e-07	-5.423270e-06	-1.333344e-09	-3.773511e+01	-8.741906e+01
2.300000e-07	-5.415022e-06	-1.361881e-09	-3.767772e+01	-8.737889e+01
2.400000e-07	-5.406429e-06	-1.361313e-09	-3.761793e+01	-8.733418e+01
2.500000e-07	-5.397274e-06	-1.348335e-09	-3.755423e+01	-8.728465e+01
2.600000e-07	-5.387289e-06	-1.339484e-09	-3.748475e+01	-8.723009e+01
2.700000e-07	-5.376735e-06	-1.355176e-09	-3.741132e+01	-8.717034e+01
2.800000e-07	-5.365778e-06	-1.361981e-09	-3.733508e+01	-8.710530e+01
2.900000e-07	-5.354316e-06	-1.331427e-09	-3.725532e+01	-8.703492e+01
3.000000e-07	-5.342491e-06	-1.343706e-09	-3.717304e+01	-8.695922e+01
3.100000e-07	-5.330340e-06	-1.341485e-09	-3.708850e+01	-8.687827e+01
3.200000e-07	-5.317695e-06	-1.344856e-09	-3.700051e+01	-8.679218e+01
3.300000e-07	-5.304519e-06	-1.295049e-09	-3.690884e+01	-8.670110e+01
3.400000e-07	-5.291052e-06	-1.330430e-09	-3.681513e+01	-8.660525e+01
3.500000e-07	-5.277304e-06	-1.337222e-09	-3.671947e+01	-8.650485e+01
3.600000e-07	-5.262985e-06	-1.347882e-09	-3.661984e+01	-8.640017e+01
3.700000e-07	-5.248240e-06	-1.321398e-09	-3.651725e+01	-8.629149e+01
3.800000e-07	-5.233109e-06	-1.344575e-09	-3.641197e+01	-8.617910e+01
3.900000e-07	-5.217227e-06	-1.312437e-09	-3.630146e+01	-8.606330e+01
4.000000e-07	-5.200860e-06	-1.315279e-09	-3.618758e+01	-8.594441e+01
4.100000e-07	-5.184167e-06	-1.324151e-09	-3.607143e+01	-8.582272e+01
4.200000e-07	-5.167156e-06	-1.329445e-09	-3.595307e+01	-8.569852e+01
4.300000e-07	-5.149806e-06	-1.291109e-09	-3.583235e+01	-8.557208e+01
4.400000e-07	-5.132137e-06	-1.325099e-09	-3.570941e+01	-8.544366e+01
4.500000e-07	-5.114170e-06	-1.340303e-09	-3.558439e+01	-8.531349e+01
4.600000e-07	-5.095769e-06	-1.307826e-09	-3.545636e+01	-8.518178e+01
4.700000e-07	-5.076893e-06	-1.294222e-09	-3.532501e+01	-8.504869e+01
4.800000e-07	-5.057643e-06	-1.332211e-09	-3.519108e+01	-8.491440e+01
4.900000e-07	-5.038173e-06	-1.300348e-09	-3.505560e+01	-8.477902e+01
5.000000e-07	-5.018480e-06	-1.266956e-09	-3.491858e+01	-8.464265e+01
5.100000e-07	-4.998569e-06	-1.300262e-09	-3.478004e+01	-8.450538e+01
5.200000e-07	-4.978452e-06	-1.307134e-09	-3.464006e+01	-8.436727e+01
5.300000e-07	-4.958004e-06	-1.265890e-09	-3.449779e+01	-8.422836e+01
5.400000e-07	-4.937125e-06	-1.286253e-09	-3.435251e+01	-8.408868e+01
5.500000e-07	-4.915936e-06	-1.324055e-09	-3.420508e+01	-8.394826e+01
5.600000e-07	-4.894457e-06	-1.288007e-09	-3.405562e+01	-8.380713e+01
5.700000e-07	-4.872615e-06	-1.277797e-09	-3.390365e+01	-8.366531e+01
5.800000e-07	-4.850474e-06	-1.298961e-09	-3.374959e+01	-8.352284e+01
5.900000e-07	-4.827983e-06	-1.281402e-09	-3.359310e+01	-8.337976e+01
6.000000e-07	-4.805073e-06	-1.251467e-09	-3.343369e+01	-8.323612e+01
6.100000e-07	-4.781825e-06	-1.278578e-09	-3.327193e+01	-8.309202e+01
6.200000e-07	-4.758311e-06	-1.272932e-09	-3.310832e+01	-8.294753e+01
6.300000e-07	-4.734543e-06	-1.258226e-09	-3.294294e+01	-8.280278e+01
6.400000e-07	-4.710566e-06	-1.267583e-09	-3.277611e+01	-8.265791e+01
6.500000e-07	-4.686355e-06	-1.282722e-09	-3.260765e+01	-8.251308e+01
6.600000e-07	-4.661696e-06	-1.258237e-09	-3.243608e+01	-8.236845e+01
6.700000e-07	-4.636613e-06	-1.264621e-09	-3.226155e+01	-8.222424e+01
6.800000e-07	-4.611054e-06	-1.267374e-09	-3.208371e+01	-8.208063e+01
6.900000e-07	-4.584886e-06	-1.258052e-09	-3.190163e+01	-8.193785e+01
7.000000e-07	-4.558130e-06	-1.246744e-09	-3.171546e+01	-8.179612e+01
7.100000e-07	-4.530927e-06	-1.263182e-09	-3.152618e+01	-8.165564e+01
7.200000e-07	-4.503448e-06	-1.258359e-09	-3.133499e+01	-8.151662e+01
7.300000e-07	-4.475757e-06	-1.254530e-09	-3.114231e+01	-8.137924e+01
7.400000e-07	-4.447893e-06	-1.251049e-09	-3.094843e+01	-8.124367e+01
7.500000e-07	-4.419820e-06	-1.252678e-09	-3.075310e+01	-8.111004e+01
7.600000e-07	-4.391474e-06	-1.246365e-09	-3.055587e+01	-8.097842e+01
7.700000e-07	-4.362897e-06	-1.249061e-09	-3.035703e+01	-8.084888e+01
7.800000e-07	-4.334032e-06	-1.243748e-09	-3.015619e+01	-8.072141e+01
7.900000e-07	-4.304796e-06	-1.237310e-09	-2.995276e+01	-8.059594e+01
8.000000e-07	-4.275248e-06	-1.235419e-09	-2.974717e+01	-8.047236e+01
8.100000e-07	-4.245466e-06	-1.234917e-09	-2.953994e+01	-8.035049e+01
8.200000e-07	-4.215406e-06	-1.226535e-09	-2.933079e+01	-8.023007e+01
8.300000e-07	-4.185009e-06	-1.220747e-09	-2.911929e+01	-8.011082e+01
8.400000e-07	-4.154323e-06	-1.223996e-09	-2.890578e+01	-7.999235e+01
8.500000e-07	-4.123407e-06	-1.224720e-09	-2.869066e+01	-7.987425e+01
8.600000e-07	-4.092206e-06	-1.228451e-09	-2.847356e+01	-7.975602e+01
8.700000e-07	-4.060774e-06	-1.229128e-09	-2.825486e+01	-7.963714e+01
8.800000e-07	-4.029198e-06	-1.225290e-09	-2.803516e+01	-7.951706e+01
8.900000e-07	-3.997428e-06	-1.212582e-09	-2.781410e+01	-7.939515e+01
9.000000e-07	-3.965462e-06	-1.211257e-09	-2.759168e+01	-7.927082e+01
9.100000e-07	-3.933247e-06	-1.207009e-09	-2.736753e+01	-7.914342e+01
9.200000e-07	-3.900648e-06	-1.202792e-09	-2.714071e+01	-7.901232e+01
9.300000e-07	-3.867687e-06	-1.198717e-09	-2.691136e+01	-7.887691e+01
9.400000e-07	-3.834232e-06	-1.205122e-09	-2.667858e+01	-7.873660e+01
9.500000e-07	-3.800211e-06	-1.200145e-09	-2.644186e+01	-7.859083e+01
9.600000e-07	-3.765844e-06	-1.196027e-09	-2.620274e+01	-7.843908e+01
9.700000e-07	-3.731092e-06	-1.189823e-09	-2.596093e+01	-7.828092e+01
9.800000e-07	-3.695939e-06	-1.184417e-09	-2.571634e+01	-7.811595e+01
9.900000e-07	-3.660549e-06	-1.172703e-09	-2.547010e+01	-7.794388e+01
1.000000e-06	-3.625006e-06	-1.173855e-09	-2.522279e+01	-7.776447e+01
1.010000e-06	-3.589323e-06	-1.172367e-09	-2.497451e+01	-7.757761e+01
1.020000e-06	-3.553493e-06	-1.167277e-09	-2.472520e+01	-7.738323e+01
1.030000e-06	-3.517511e-06	-1.161088e-09	-2.447484e+01	-7.718141e+01
1.040000e-06	-3.481361e-06	-1.161491e-09	-2.422331e+01	-7.697228e+01
1.050000e-06	-3.444949e-06	-1.156970e-09	-2.396995e+01	-7.675607e+01
1.060000e-06	-3.408257e-06	-1.151991e-09	-2.371465e+01	-7.653311e+01
1.070000e-06	-3.371363e-06	-1.147125e-09	-2.345794e+01	-7.630379e+01
1.080000e-06	-3.334261e-06	-1.139105e-09	-2.319978e+01	-7.606857e+01
1.090000e-06	-3.296864e-06	-1.128053e-09	-2.293957e+01	-7.582798e+01
1.100000e-06	-3.259197e-06	-1.122654e-09	-2.267749e+01	-7.558259e+01
1.110000e-06	-3.221352e-06	-1.120266e-09	-2.241416e+01	-7.533299e+01
1.120000e-06	-3.183326e-06	-1.115257e-09	-2.214958e+01	-7.507980e+01
1.130000e-06	-3.145013e-06	-1.111766e-09	-2.188300e+01	-7.482362e+01
1.140000e-06	-3.106365e-06	-1.111562e-09	-2.161409e+01	-7.456505e+01
1.150000e-06	-3.067440e-06	-1.110251e-09	-2.134324e+01	-7.430467e+01
1.160000e-06	-3.028300e-06	-1.104752e-09	-2.107091e+01	-7.404297e+01
1.170000e-06	-2.989080e-06	-1.101206e-09	-2.079802e+01	-7.378042e+01
1.180000e-06	-2.949733e-06	-1.093741e-09	-2.052424e+01	-7.351738e+01
1.190000e-06	-2.910216e-06	-1.088497e-09	-2.024928e+01	-7.325414e+01
1.200000e-06	-2.870611e-06	-1.084443e-09	-1.997371e+01	-7.299087e+01
1.210000e-06	-2.830872e-06	-1.081571e-09	-1.969721e+01	-7.272764e+01
1.220000e-06	-2.791000e-06	-1.074207e-09	-1.941977e+01	-7.246439e+01
1.230000e-06	-2.751008e-06	-1.069864e-09	-1.914151e+01	-7.220096e+01
1.240000e-06	-2.710842e-06	-1.062313e-09	-1.886204e+01	-7.193703e+01
1.250000e-06	-2.670470e-06	-1.054455e-09	-1.858113e+01	-7.167218e+01
1.260000e-06	-2.629851e-06	-1.045820e-09	-1.829850e+01	-7.140587e+01
1.270000e-06	-2.589081e-06	-1.044647e-09	-1.801483e+01	-7.113743e+01
1.280000e-06	-2.548062e-06	-1.043876e-09	-1.772941e+01	-7.086610e+01
1.290000e-06	-2.506554e-06	-1.041777e-09	-1.744060e+01	-7.059101e+01
1.300000e-06	-2.464712e-06	-1.037329e-09	-1.714946e+01	-7.031123e+01
1.310000e-06	-2.422559e-06	-1.031381e-09	-1.685616e+01	-7.002575e+01
1.320000e-06	-2.380064e-06	-1.019495e-09	-1.656048e+01	-6.973350e+01
1.330000e-06	-2.337371e-06	-1.008217e-09	-1.626342e+01	-6.943342e+01
1.340000e-06	-2.294466e-06	-1.001869e-09	-1.596489e+01	-6.912440e+01
1.350000e-06	-2.251370e-06	-1.001420e-09	-1.566503e+01	-6.880536e+01
1.360000e-06	-2.208105e-06	-1.004781e-09	-1.536399e+01	-6.847525e+01
1.370000e-06	-2.164648e-06	-1.007213e-09	-1.506162e+01	-6.813306e+01
1.380000e-06	-2.121123e-06	-1.004177e-09	-1.475877e+01	-6.777786e+01
1.390000e-06	-2.077556e-06	-9.953545e-10	-1.445563e+01	-6.740880e+01
1.400000e-06	-2.033827e-06	-9.814016e-10	-1.415137e+01	-6.702514e+01
1.410000e-06	-1.989964e-06	-9.658966e-10	-1.384617e+01	-6.662624e+01
1.420000e-06	-1.946051e-06	-9.524089e-10	-1.354062e+01	-6.621159e+01
1.430000e-06	-1.902102e-06	-9.443666e-10	-1.323483e+01	-6.578083e+01
1.440000e-06	-1.858061e-06	-9.425762e-10	-1.292839e+01	-6.533371e+01
1.450000e-06	-1.813892e-06	-9.410116e-10	-1.262106e+01	-6.487016e+01
1.460000e-06	-1.769646e-06	-9.379392e-10	-1.231319e+01	-6.439020e+01
1.470000e-06	-1.725271e-06	-9.305857e-10	-1.200443e+01	-6.389404e+01
1.480000e-06	-1.680694e-06	-9.205973e-10	-1.169427e+01	-6.338196e+01
1.490000e-06	-1.636003e-06	-9.071077e-10	-1.138330e+01	-6.285442e+01
1.500000e-06	-1.591222e-06	-8.906726e-10	-1.107172e+01	-6.231191e+01
1.510000e-06	-1.546247e-06	-8.741249e-10	-1.075878e+01	-6.175507e+01
1.520000e-06	-1.501121e-06	-8.633679e-10	-1.044480e+01	-6.118456e+01
1.530000e-06	-1.455894e-06	-8.565476e-10	-1.013011e+01	-6.060109e+01
1.540000e-06	-1.410566e-06	-8.529609e-10	-9.814713e+00	-6.000541e+01
1.550000e-06	-1.365147e-06	-8.476309e-10	-9.498694e+00	-5.939823e+01
1.560000e-06	-1.319643e-06	-8.362219e-10	-9.182073e+00	-5.878027e+01
1.570000e-06	-1.274046e-06	-8.185556e-10	-8.864811e+00	-5.815217e+01
1.580000e-06	-1.228395e-06	-8.014392e-10	-8.547174e+00	-5.751447e+01
1.590000e-06	-1.182669e-06	-7.863742e-10	-8.229012e+00	-5.686764e+01
1.600000e-06	-1.136840e-06	-7.732549e-10	-7.910133e+00	-5.621201e+01
1.610000e-06	-1.090971e-06	-7.607357e-10	-7.590975e+00	-5.554774e+01
1.620000e-06	-1.045058e-06	-7.511624e-10	-7.271515e+00	-5.487484e+01
1.630000e-06	-9.991120e-07	-7.433698e-10	-6.951820e+00	-5.419315e+01
1.640000e-06	-9.531248e-07	-7.343912e-10	-6.631841e+00	-5.350228e+01
1.650000e-06	-9.070400e-07	-7.230526e-10	-6.311183e+00	-5.280167e+01
1.660000e-06	-8.608466e-07	-7.113558e-10	-5.989770e+00	-5.209053e+01
1.670000e-06	-8.146092e-07	-6.985882e-10	-5.668050e+00	-5.136785e+01
1.680000e-06	-7.683191e-07	-6.848461e-10	-5.345963e+00	-5.063246e+01
1.690000e-06	-7.219651e-07	-6.716123e-10	-5.023432e+00	-4.988293e+01
1.700000e-06	-6.755245e-07	-6.594661e-10	-4.700299e+00	-4.911770e+01
1.710000e-06	-6.290742e-07	-6.456120e-10	-4.377098e+00	-4.833501e+01
1.720000e-06	-5.826034e-07	-6.293243e-10	-4.053754e+00	-4.753294e+01
1.730000e-06	-5.360441e-07	-6.134548e-10	-3.729794e+00	-4.670946e+01
1.740000e-06	-4.894230e-07	-6.003729e-10	-3.405405e+00	-4.586243e+01
1.750000e-06	-4.426751e-07	-5.898238e-10	-3.080133e+00	-4.498965e+01
1.760000e-06	-3.958932e-07	-5.776240e-10	-2.754624e+00	-4.408885e+01
1.770000e-06	-3.490787e-07	-5.634081e-10	-2.428889e+00	-4.315777e+01
1.780000e-06	-3.021830e-07	-5.469635e-10	-2.102589e+00	-4.219418e+01
1.790000e-06	-2.553025e-07	-5.307283e-10	-1.776395e+00	-4.119588e+01
1.800000e-06	-2.084546e-07	-5.139441e-10	-1.450427e+00	-4.016079e+01
1.810000e-06	-1.616233e-07	-4.978810e-10	-1.124575e+00	-3.908694e+01
1.820000e-06	-1.147633e-07	-4.828768e-10	-7.985231e-01	-3.797252e+01
1.830000e-06	-6.794072e-08	-4.690157e-10	-4.727314e-01	-3.681591e+01
1.840000e-06	-2.117403e-08	-4.534740e-10	-1.473289e-01	-3.561571e+01
1.850000e-06	2.559191e-08	-4.358679e-10	1.780685e-01	-3.437076e+01
1.860000e-06	7.233970e-08	-4.179611e-10	5.033395e-01	-3.308015e+01
1.870000e-06	1.190643e-07	-4.000538e-10	8.284492e-01	-3.174327e+01
1.880000e-06	1.657730e-07	-3.817614e-10	1.153448e+00	-3.035981e+01
1.890000e-06	2.125563e-07	-3.624664e-10	1.478967e+00	-2.892976e+01
1.900000e-06	2.593984e-07	-3.418613e-10	1.804894e+00	-2.745341e+01
1.910000e-06	3.062174e-07	-3.207219e-10	2.130661e+00	-2.593139e+01
1.920000e-06	3.530127e-07	-2.972702e-10	2.456262e+00	-2.436463e+01
1.930000e-06	3.997591e-07	-2.736897e-10	2.781523e+00	-2.275439e+01
1.940000e-06	4.463859e-07	-2.504419e-10	3.105952e+00	-2.110219e+01
1.950000e-06	4.929047e-07	-2.279200e-10	3.429630e+00	-1.940985e+01
1.960000e-06	5.394011e-07	-2.063404e-10	3.753152e+00	-1.767948e+01
1.970000e-06	5.858660e-07	-1.823087e-10	4.076455e+00	-1.591340e+01
1.980000e-06	6.323028e-07	-1.583240e-10	4.399562e+00	-1.411416e+01
1.990000e-06	6.786601e-07	-1.322161e-10	4.722116e+00	-1.228450e+01
2.000000e-06	7.249602e-07	-1.039894e-10	5.044273e+00	-1.042735e+01
2.010000e-06	7.712454e-07	-7.699363e-11	5.366325e+00	-8.545752e+00
2.020000e-06	8.174187e-07	-5.015268e-11	5.687598e+00	-6.642856e+00
2.030000e-06	8.635483e-07	-2.355824e-11	6.008568e+00	-4.721897e+00
2.040000e-06	9.096424e-07	3.496773e-12	6.329291e+00	-2.786151e+00
2.050000e-06	9.557238e-07	2.982200e-11	6.649925e+00	-8.389096e-01
2.060000e-06	1.001769e-06	5.570882e-11	6.970310e+00	1.116549e+00
2.070000e-06	1.047678e-06	8.053210e-11	7.289741e+00	3.076987e+00
2.080000e-06	1.093516e-06	1.047827e-10	7.608682e+00	5.039234e+00
2.090000e-06	1.139311e-06	1.301168e-10	7.927327e+00	7.000209e+00
2.100000e-06	1.184992e-06	1.574365e-10	8.245176e+00	8.956940e+00
2.110000e-06	1.230579e-06	1.874008e-10	8.562370e+00	1.090658e+01
2.120000e-06	1.276095e-06	2.178998e-10	8.879070e+00	1.284645e+01
2.130000e-06	1.321495e-06	2.485291e-10	9.194959e+00	1.477398e+01
2.140000e-06	1.366791e-06	2.766393e-10	9.510127e+00	1.668682e+01
2.150000e-06	1.412044e-06	3.012603e-10	9.825001e+00	1.858275e+01
2.160000e-06	1.457259e-06	3.224917e-10	1.013961e+01	2.045975e+01
2.170000e-06	1.502372e-06	3.413948e-10	1.045350e+01	2.231598e+01
2.180000e-06	1.547357e-06	3.634186e-10	1.076651e+01	2.414976e+01
2.190000e-06	1.592131e-06	3.909703e-10	1.107804e+01	2.595959e+01
2.200000e-06	1.636780e-06	4.226426e-10	1.138871e+01	2.774415e+01
2.210000e-06	1.681340e-06	4.536822e-10	1.169876e+01	2.950226e+01
2.220000e-06	1.725705e-06	4.815459e-10	1.200745e+01	3.123290e+01
2.230000e-06	1.770000e-06	5.063789e-10	1.231566e+01	3.293520e+01
2.240000e-06	1.814241e-06	5.263178e-10	1.262349e+01	3.460840e+01
2.250000e-06	1.858351e-06	5.427285e-10	1.293041e+01	3.625187e+01
2.260000e-06	1.902341e-06	5.594495e-10	1.323649e+01	3.786510e+01
2.270000e-06	1.946239e-06	5.795669e-10	1.354193e+01	3.944764e+01
2.280000e-06	1.990042e-06	6.009058e-10	1.384671e+01	4.099916e+01
2.290000e-06	2.033751e-06	6.238950e-10	1.415083e+01	4.251939e+01
2.300000e-06	2.077394e-06	6.487093e-10	1.445450e+01	4.400812e+01
2.310000e-06	2.120996e-06	6.736940e-10	1.475789e+01	4.546519e+01
2.320000e-06	2.164539e-06	6.954976e-10	1.506086e+01	4.689050e+01
2.330000e-06	2.208003e-06	7.121596e-10	1.536328e+01	4.828399e+01
2.340000e-06	2.251372e-06	7.262277e-10	1.566504e+01	4.964562e+01
2.350000e-06	2.294594e-06	7.405505e-10	1.596578e+01	5.097538e+01
2.360000e-06	2.337529e-06	7.561666e-10	1.626453e+01	5.227332e+01
2.370000e-06	2.380228e-06	7.734357e-10	1.656162e+01	5.353946e+01
2.380000e-06	2.422639e-06	7.926353e-10	1.685672e+01	5.477389e+01
2.390000e-06	2.464643e-06	8.123962e-10	1.714898e+01	5.597671e+01
2.400000e-06	2.506339e-06	8.297531e-10	1.743911e+01	5.714803e+01
2.410000e-06	2.547788e-06	8.434092e-10	1.772750e+01	5.828800e+01
2.420000e-06	2.588936e-06	8.540240e-10	1.801381e+01	5.939680e+01
2.430000e-06	2.629718e-06	8.648942e-10	1.829758e+01	6.047463e+01
2.440000e-06	2.670238e-06	8.789355e-10	1.857951e+01	6.152173e+01
2.450000e-06	2.710504e-06	8.958378e-10	1.885968e+01	6.253838e+01
2.460000e-06	2.750546e-06	9.135652e-10	1.913830e+01	6.352488e+01
2.470000e-06	2.790474e-06	9.293292e-10	1.941611e+01	6.448159e+01
2.480000e-06	2.830308e-06	9.424767e-10	1.969328e+01	6.540889e+01
2.490000e-06	2.870027e-06	9.524347e-10	1.996965e+01	6.630721e+01
2.500000e-06	2.909676e-06	9.604329e-10	2.024552e+01	6.717704e+01
2.510000e-06	2.949200e-06	9.719786e-10	2.052053e+01	6.801889e+01
2.520000e-06	2.988532e-06	9.862767e-10	2.079420e+01	6.883331e+01
2.530000e-06	3.027634e-06	9.992764e-10	2.106627e+01	6.962089e+01
2.540000e-06	3.066471e-06	1.012470e-09	2.133650e+01	7.038227e+01
2.550000e-06	3.105051e-06	1.024960e-09	2.160494e+01	7.111811e+01
2.560000e-06	3.143388e-06	1.033272e-09	2.187169e+01	7.182909e+01
2.570000e-06	3.181539e-06	1.037613e-09	2.213715e+01	7.251593e+01
2.580000e-06	3.219480e-06	1.040801e-09	2.240114e+01	7.317935e+01
2.590000e-06	3.257221e-06	1.045337e-09	2.266374e+01	7.382010e+01
2.600000e-06	3.294811e-06	1.054906e-09	2.292529e+01	7.443892e+01
2.610000e-06	3.332138e-06	1.068980e-09	2.318501e+01	7.503656e+01
2.620000e-06	3.369235e-06	1.084652e-09	2.344313e+01	7.561377e+01
2.630000e-06	3.406148e-06	1.095333e-09	2.369997e+01	7.617126e+01
2.640000e-06	3.442774e-06	1.100292e-09	2.395482e+01	7.670976e+01
2.650000e-06	3.479146e-06	1.103648e-09	2.420789e+01	7.722994e+01
2.660000e-06	3.515335e-06	1.106210e-09	2.445970e+01	7.773248e+01
2.670000e-06	3.551344e-06	1.108434e-09	2.471025e+01	7.821799e+01
2.680000e-06	3.587194e-06	1.111871e-09	2.495969e+01	7.868708e+01
2.690000e-06	3.622946e-06	1.118446e-09	2.520845e+01	7.914031e+01
2.700000e-06	3.658564e-06	1.127223e-09	2.545628e+01	7.957818e+01
2.710000e-06	3.694029e-06	1.136014e-09	2.570305e+01	8.000119e+01
2.720000e-06	3.729296e-06	1.141831e-09	2.594844e+01	8.040976e+01
2.730000e-06	3.764155e-06	1.145336e-09	2.619099e+01	8.080431e+01
2.740000e-06	3.798508e-06	1.149206e-09	2.643001e+01	8.118518e+01
2.750000e-06	3.832387e-06	1.152587e-09	2.666574e+01	8.155270e+01
2.760000e-06	3.865782e-06	1.157084e-09	2.689811e+01	8.190718e+01
2.770000e-06	3.898747e-06	1.163651e-09	2.712747e+01	8.224886e+01
2.780000e-06	3.931324e-06	1.170478e-09	2.735414e+01	8.257800e+01
2.790000e-06	3.963517e-06	1.177888e-09	2.757815e+01	8.289481e+01
2.800000e-06	3.995448e-06	1.185061e-09	2.780032e+01	8.319949e+01
2.810000e-06	4.027256e-06	1.190990e-09	2.802164e+01	8.349224e+01
2.820000e-06	4.058930e-06	1.194960e-09	2.824203e+01	8.377324e+01
2.830000e-06	4.090437e-06	1.199123e-09	2.846126e+01	8.404267e+01
2.840000e-06	4.121738e-06	1.203266e-09	2.867905e+01	8.430072e+01
2.850000e-06	4.152815e-06	1.205351e-09	2.889528e+01	8.454758e+01
2.860000e-06	4.183544e-06	1.207506e-09	2.910909e+01	8.478345e+01
2.870000e-06	4.213851e-06	1.213369e-09	2.931997e+01	8.500856e+01
2.880000e-06	4.243826e-06	1.219216e-09	2.952853e+01	8.522314e+01
2.890000e-06	4.273539e-06	1.221616e-09	2.973528e+01	8.542744e+01
2.900000e-06	4.302997e-06	1.225104e-09	2.994025e+01	8.562173e+01
