# Temperatura_=_14.7
# Concentracion g/m^3_=_1620.0
# C_Vs_to_Am_M_A/Vsm_=_65563218390.804596
# pendiente_HvsI_1/m_=_3716.3
# ordenada_HvsI_A/m_=_1297.0
# frecuencia_Hz_=_135105.70632372217

Tiempo_(s)	Campo_(V.s)	Magnetizacion_(V.s)	Campo_(kA/m)	Magnetizacion_(A/m)
0.000000e+00	-5.525940e-06	-1.868742e-09	-3.837531e+01	-1.221076e+02
1.000000e-08	-5.526104e-06	-1.866217e-09	-3.837645e+01	-1.220669e+02
2.000000e-08	-5.526000e-06	-1.867435e-09	-3.837572e+01	-1.220258e+02
3.000000e-08	-5.525488e-06	-1.870586e-09	-3.837217e+01	-1.219839e+02
4.000000e-08	-5.524449e-06	-1.872192e-09	-3.836495e+01	-1.219410e+02
5.000000e-08	-5.522862e-06	-1.870318e-09	-3.835393e+01	-1.218968e+02
6.000000e-08	-5.520658e-06	-1.867811e-09	-3.833862e+01	-1.218507e+02
7.000000e-08	-5.517924e-06	-1.881717e-09	-3.831963e+01	-1.218025e+02
8.000000e-08	-5.514733e-06	-1.891722e-09	-3.829748e+01	-1.217516e+02
9.000000e-08	-5.511101e-06	-1.855352e-09	-3.827225e+01	-1.216976e+02
1.000000e-07	-5.507077e-06	-1.830994e-09	-3.824431e+01	-1.216400e+02
1.100000e-07	-5.502670e-06	-1.878597e-09	-3.821371e+01	-1.215783e+02
1.200000e-07	-5.497997e-06	-1.877845e-09	-3.818125e+01	-1.215121e+02
1.300000e-07	-5.493126e-06	-1.841450e-09	-3.814742e+01	-1.214408e+02
1.400000e-07	-5.487905e-06	-1.813679e-09	-3.811116e+01	-1.213642e+02
1.500000e-07	-5.482281e-06	-1.871952e-09	-3.807211e+01	-1.212818e+02
1.600000e-07	-5.476292e-06	-1.913824e-09	-3.803052e+01	-1.211933e+02
1.700000e-07	-5.469919e-06	-1.852597e-09	-3.798626e+01	-1.210985e+02
1.800000e-07	-5.463110e-06	-1.819335e-09	-3.793898e+01	-1.209971e+02
1.900000e-07	-5.455877e-06	-1.840944e-09	-3.788875e+01	-1.208889e+02
2.000000e-07	-5.448367e-06	-1.883601e-09	-3.783659e+01	-1.207739e+02
2.100000e-07	-5.440645e-06	-1.860341e-09	-3.778297e+01	-1.206521e+02
2.200000e-07	-5.432681e-06	-1.833904e-09	-3.772766e+01	-1.205235e+02
2.300000e-07	-5.424406e-06	-1.840813e-09	-3.767019e+01	-1.203882e+02
2.400000e-07	-5.415680e-06	-1.856363e-09	-3.760959e+01	-1.202463e+02
2.500000e-07	-5.406272e-06	-1.828381e-09	-3.754426e+01	-1.200980e+02
2.600000e-07	-5.396135e-06	-1.810373e-09	-3.747386e+01	-1.199437e+02
2.700000e-07	-5.385385e-06	-1.817066e-09	-3.739921e+01	-1.197835e+02
2.800000e-07	-5.374193e-06	-1.828886e-09	-3.732149e+01	-1.196178e+02
2.900000e-07	-5.362677e-06	-1.816729e-09	-3.724152e+01	-1.194471e+02
3.000000e-07	-5.350711e-06	-1.801302e-09	-3.715842e+01	-1.192715e+02
3.100000e-07	-5.338301e-06	-1.804150e-09	-3.707223e+01	-1.190916e+02
3.200000e-07	-5.325546e-06	-1.810583e-09	-3.698365e+01	-1.189077e+02
3.300000e-07	-5.312395e-06	-1.796302e-09	-3.689233e+01	-1.187202e+02
3.400000e-07	-5.298842e-06	-1.773207e-09	-3.679820e+01	-1.185294e+02
3.500000e-07	-5.284921e-06	-1.788315e-09	-3.670153e+01	-1.183357e+02
3.600000e-07	-5.270487e-06	-1.804723e-09	-3.660129e+01	-1.181394e+02
3.700000e-07	-5.255392e-06	-1.783977e-09	-3.649646e+01	-1.179407e+02
3.800000e-07	-5.239729e-06	-1.784058e-09	-3.638769e+01	-1.177399e+02
3.900000e-07	-5.223694e-06	-1.808384e-09	-3.627634e+01	-1.175371e+02
4.000000e-07	-5.207326e-06	-1.775340e-09	-3.616267e+01	-1.173325e+02
4.100000e-07	-5.190636e-06	-1.742125e-09	-3.604676e+01	-1.171262e+02
4.200000e-07	-5.173635e-06	-1.784963e-09	-3.592870e+01	-1.169181e+02
4.300000e-07	-5.156294e-06	-1.803948e-09	-3.580827e+01	-1.167083e+02
4.400000e-07	-5.138518e-06	-1.744002e-09	-3.568483e+01	-1.164966e+02
4.500000e-07	-5.120254e-06	-1.754805e-09	-3.555799e+01	-1.162831e+02
4.600000e-07	-5.101561e-06	-1.798417e-09	-3.542818e+01	-1.160674e+02
4.700000e-07	-5.082515e-06	-1.754648e-09	-3.529591e+01	-1.158494e+02
4.800000e-07	-5.063235e-06	-1.723632e-09	-3.516201e+01	-1.156288e+02
4.900000e-07	-5.043793e-06	-1.772786e-09	-3.502700e+01	-1.154054e+02
5.000000e-07	-5.024200e-06	-1.747725e-09	-3.489093e+01	-1.151789e+02
5.100000e-07	-5.004305e-06	-1.692902e-09	-3.475277e+01	-1.149490e+02
5.200000e-07	-4.983999e-06	-1.741221e-09	-3.461175e+01	-1.147154e+02
5.300000e-07	-4.963352e-06	-1.765537e-09	-3.446837e+01	-1.144778e+02
5.400000e-07	-4.942364e-06	-1.699900e-09	-3.432262e+01	-1.142358e+02
5.500000e-07	-4.921008e-06	-1.710351e-09	-3.417431e+01	-1.139893e+02
5.600000e-07	-4.899343e-06	-1.753181e-09	-3.402385e+01	-1.137379e+02
5.700000e-07	-4.877398e-06	-1.706623e-09	-3.387145e+01	-1.134815e+02
5.800000e-07	-4.855051e-06	-1.686377e-09	-3.371626e+01	-1.132198e+02
5.900000e-07	-4.832336e-06	-1.729507e-09	-3.355852e+01	-1.129526e+02
6.000000e-07	-4.809324e-06	-1.702005e-09	-3.339871e+01	-1.126799e+02
6.100000e-07	-4.786001e-06	-1.660364e-09	-3.323674e+01	-1.124016e+02
6.200000e-07	-4.762493e-06	-1.692764e-09	-3.307349e+01	-1.121176e+02
6.300000e-07	-4.738763e-06	-1.695008e-09	-3.290870e+01	-1.118280e+02
6.400000e-07	-4.714673e-06	-1.660657e-09	-3.274140e+01	-1.115328e+02
6.500000e-07	-4.690182e-06	-1.678000e-09	-3.257132e+01	-1.112321e+02
6.600000e-07	-4.665262e-06	-1.690109e-09	-3.239826e+01	-1.109260e+02
6.700000e-07	-4.639798e-06	-1.653470e-09	-3.222143e+01	-1.106148e+02
6.800000e-07	-4.613808e-06	-1.649718e-09	-3.204093e+01	-1.102986e+02
6.900000e-07	-4.587352e-06	-1.663792e-09	-3.185721e+01	-1.099776e+02
7.000000e-07	-4.560396e-06	-1.641586e-09	-3.167001e+01	-1.096520e+02
7.100000e-07	-4.533104e-06	-1.630908e-09	-3.148048e+01	-1.093222e+02
7.200000e-07	-4.505648e-06	-1.649369e-09	-3.128981e+01	-1.089884e+02
7.300000e-07	-4.478063e-06	-1.641355e-09	-3.109824e+01	-1.086508e+02
7.400000e-07	-4.450267e-06	-1.626171e-09	-3.090521e+01	-1.083096e+02
7.500000e-07	-4.422139e-06	-1.626808e-09	-3.070988e+01	-1.079652e+02
7.600000e-07	-4.393630e-06	-1.618261e-09	-3.051189e+01	-1.076177e+02
7.700000e-07	-4.364773e-06	-1.603968e-09	-3.031150e+01	-1.072673e+02
7.800000e-07	-4.335643e-06	-1.606384e-09	-3.010920e+01	-1.069141e+02
7.900000e-07	-4.306254e-06	-1.602625e-09	-2.990510e+01	-1.065582e+02
8.000000e-07	-4.276600e-06	-1.587930e-09	-2.969917e+01	-1.061998e+02
8.100000e-07	-4.246703e-06	-1.582876e-09	-2.949155e+01	-1.058388e+02
8.200000e-07	-4.216561e-06	-1.579863e-09	-2.928223e+01	-1.054753e+02
8.300000e-07	-4.186078e-06	-1.564980e-09	-2.907054e+01	-1.051092e+02
8.400000e-07	-4.155290e-06	-1.558259e-09	-2.885673e+01	-1.047403e+02
8.500000e-07	-4.124268e-06	-1.564107e-09	-2.864129e+01	-1.043686e+02
8.600000e-07	-4.093030e-06	-1.562524e-09	-2.842435e+01	-1.039939e+02
8.700000e-07	-4.061621e-06	-1.553047e-09	-2.820623e+01	-1.036159e+02
8.800000e-07	-4.030008e-06	-1.548538e-09	-2.798670e+01	-1.032345e+02
8.900000e-07	-3.998160e-06	-1.537502e-09	-2.776552e+01	-1.028493e+02
9.000000e-07	-3.966041e-06	-1.522722e-09	-2.754247e+01	-1.024601e+02
9.100000e-07	-3.933626e-06	-1.518925e-09	-2.731736e+01	-1.020666e+02
9.200000e-07	-3.900791e-06	-1.517435e-09	-2.708934e+01	-1.016685e+02
9.300000e-07	-3.867495e-06	-1.509167e-09	-2.685811e+01	-1.012655e+02
9.400000e-07	-3.833720e-06	-1.503956e-09	-2.662356e+01	-1.008574e+02
9.500000e-07	-3.799423e-06	-1.501894e-09	-2.638538e+01	-1.004438e+02
9.600000e-07	-3.764765e-06	-1.489641e-09	-2.614469e+01	-1.000246e+02
9.700000e-07	-3.729801e-06	-1.477144e-09	-2.590188e+01	-9.959944e+01
9.800000e-07	-3.694522e-06	-1.471761e-09	-2.565688e+01	-9.916824e+01
9.900000e-07	-3.659074e-06	-1.465292e-09	-2.541071e+01	-9.873084e+01
1.000000e-06	-3.623517e-06	-1.457075e-09	-2.516379e+01	-9.828714e+01
1.010000e-06	-3.587785e-06	-1.451659e-09	-2.491564e+01	-9.783710e+01
1.020000e-06	-3.551902e-06	-1.444355e-09	-2.466645e+01	-9.738070e+01
1.030000e-06	-3.515857e-06	-1.432876e-09	-2.441613e+01	-9.691799e+01
1.040000e-06	-3.479492e-06	-1.423854e-09	-2.416360e+01	-9.644905e+01
1.050000e-06	-3.442830e-06	-1.419764e-09	-2.390899e+01	-9.597402e+01
1.060000e-06	-3.405964e-06	-1.410970e-09	-2.365297e+01	-9.549307e+01
1.070000e-06	-3.368861e-06	-1.400944e-09	-2.339531e+01	-9.500641e+01
1.080000e-06	-3.331578e-06	-1.393476e-09	-2.313639e+01	-9.451427e+01
1.090000e-06	-3.294075e-06	-1.384340e-09	-2.287595e+01	-9.401692e+01
1.100000e-06	-3.256269e-06	-1.372171e-09	-2.261340e+01	-9.351465e+01
1.110000e-06	-3.218244e-06	-1.362220e-09	-2.234934e+01	-9.300773e+01
1.120000e-06	-3.180019e-06	-1.351949e-09	-2.208388e+01	-9.249648e+01
1.130000e-06	-3.141566e-06	-1.340132e-09	-2.181684e+01	-9.198116e+01
1.140000e-06	-3.102916e-06	-1.332535e-09	-2.154843e+01	-9.146206e+01
1.150000e-06	-3.064121e-06	-1.330675e-09	-2.127902e+01	-9.093942e+01
1.160000e-06	-3.025115e-06	-1.326220e-09	-2.100814e+01	-9.041346e+01
1.170000e-06	-2.985800e-06	-1.318964e-09	-2.073512e+01	-8.988435e+01
1.180000e-06	-2.946335e-06	-1.311776e-09	-2.046104e+01	-8.935222e+01
1.190000e-06	-2.906826e-06	-1.302118e-09	-2.018667e+01	-8.881715e+01
1.200000e-06	-2.867215e-06	-1.287507e-09	-1.991159e+01	-8.827914e+01
1.210000e-06	-2.827461e-06	-1.273431e-09	-1.963551e+01	-8.773814e+01
1.220000e-06	-2.787459e-06	-1.262529e-09	-1.935772e+01	-8.719405e+01
1.230000e-06	-2.747303e-06	-1.252929e-09	-1.907885e+01	-8.664666e+01
1.240000e-06	-2.707024e-06	-1.245081e-09	-1.879913e+01	-8.609572e+01
1.250000e-06	-2.666420e-06	-1.237701e-09	-1.851715e+01	-8.554090e+01
1.260000e-06	-2.625440e-06	-1.231218e-09	-1.823257e+01	-8.498180e+01
1.270000e-06	-2.584236e-06	-1.222973e-09	-1.794642e+01	-8.441795e+01
1.280000e-06	-2.542814e-06	-1.211138e-09	-1.765876e+01	-8.384884e+01
1.290000e-06	-2.501005e-06	-1.198474e-09	-1.736842e+01	-8.327389e+01
1.300000e-06	-2.458782e-06	-1.185061e-09	-1.707519e+01	-8.269246e+01
1.310000e-06	-2.416298e-06	-1.171288e-09	-1.678016e+01	-8.210388e+01
1.320000e-06	-2.373636e-06	-1.158088e-09	-1.648389e+01	-8.150747e+01
1.330000e-06	-2.330743e-06	-1.147467e-09	-1.618602e+01	-8.090249e+01
1.340000e-06	-2.287649e-06	-1.140590e-09	-1.588675e+01	-8.028821e+01
1.350000e-06	-2.244401e-06	-1.135191e-09	-1.558641e+01	-7.966389e+01
1.360000e-06	-2.201014e-06	-1.128725e-09	-1.528511e+01	-7.902880e+01
1.370000e-06	-2.157515e-06	-1.117135e-09	-1.498303e+01	-7.838222e+01
1.380000e-06	-2.113965e-06	-1.104652e-09	-1.468059e+01	-7.772346e+01
1.390000e-06	-2.070363e-06	-1.089686e-09	-1.437779e+01	-7.705187e+01
1.400000e-06	-2.026666e-06	-1.074137e-09	-1.407433e+01	-7.636683e+01
1.410000e-06	-1.982839e-06	-1.060235e-09	-1.376998e+01	-7.566777e+01
1.420000e-06	-1.938878e-06	-1.048007e-09	-1.346468e+01	-7.495418e+01
1.430000e-06	-1.894817e-06	-1.036559e-09	-1.315870e+01	-7.422561e+01
1.440000e-06	-1.850648e-06	-1.026040e-09	-1.285196e+01	-7.348166e+01
1.450000e-06	-1.806367e-06	-1.016348e-09	-1.254445e+01	-7.272200e+01
1.460000e-06	-1.762011e-06	-1.006475e-09	-1.223642e+01	-7.194636e+01
1.470000e-06	-1.717517e-06	-9.944918e-10	-1.192742e+01	-7.115454e+01
1.480000e-06	-1.672785e-06	-9.794272e-10	-1.161678e+01	-7.034637e+01
1.490000e-06	-1.627930e-06	-9.655814e-10	-1.130528e+01	-6.952175e+01
1.500000e-06	-1.583005e-06	-9.485709e-10	-1.099330e+01	-6.868063e+01
1.510000e-06	-1.537944e-06	-9.306479e-10	-1.068037e+01	-6.782296e+01
1.520000e-06	-1.492793e-06	-9.168292e-10	-1.036681e+01	-6.694876e+01
1.530000e-06	-1.447533e-06	-9.038780e-10	-1.005250e+01	-6.605804e+01
1.540000e-06	-1.402157e-06	-8.910494e-10	-9.737384e+00	-6.515082e+01
1.550000e-06	-1.356723e-06	-8.771001e-10	-9.421868e+00	-6.422710e+01
1.560000e-06	-1.311245e-06	-8.617032e-10	-9.106039e+00	-6.328687e+01
1.570000e-06	-1.265649e-06	-8.445207e-10	-8.789391e+00	-6.233010e+01
1.580000e-06	-1.219956e-06	-8.256768e-10	-8.472072e+00	-6.135668e+01
1.590000e-06	-1.174238e-06	-8.069534e-10	-8.154585e+00	-6.036648e+01
1.600000e-06	-1.128466e-06	-7.868590e-10	-7.836718e+00	-5.935927e+01
1.610000e-06	-1.082575e-06	-7.696353e-10	-7.518022e+00	-5.833476e+01
1.620000e-06	-1.036524e-06	-7.556102e-10	-7.198218e+00	-5.729256e+01
1.630000e-06	-9.903389e-07	-7.427483e-10	-6.877483e+00	-5.623218e+01
1.640000e-06	-9.440893e-07	-7.286775e-10	-6.556299e+00	-5.515305e+01
1.650000e-06	-8.978726e-07	-7.138516e-10	-6.235344e+00	-5.405446e+01
1.660000e-06	-8.516363e-07	-6.995300e-10	-5.914252e+00	-5.293563e+01
1.670000e-06	-8.052769e-07	-6.830596e-10	-5.592306e+00	-5.179564e+01
1.680000e-06	-7.587960e-07	-6.666311e-10	-5.269515e+00	-5.063349e+01
1.690000e-06	-7.122725e-07	-6.510157e-10	-4.946430e+00	-4.944805e+01
1.700000e-06	-6.657296e-07	-6.314323e-10	-4.623209e+00	-4.823813e+01
1.710000e-06	-6.191102e-07	-6.081609e-10	-4.299457e+00	-4.700243e+01
1.720000e-06	-5.725049e-07	-5.837302e-10	-3.975803e+00	-4.573959e+01
1.730000e-06	-5.258747e-07	-5.604497e-10	-3.651976e+00	-4.444820e+01
1.740000e-06	-4.792057e-07	-5.421865e-10	-3.327880e+00	-4.312680e+01
1.750000e-06	-4.325175e-07	-5.264874e-10	-3.003650e+00	-4.177392e+01
1.760000e-06	-3.857949e-07	-5.100380e-10	-2.679182e+00	-4.038807e+01
1.770000e-06	-3.390667e-07	-4.898178e-10	-2.354674e+00	-3.896778e+01
1.780000e-06	-2.923144e-07	-4.652691e-10	-2.030000e+00	-3.751165e+01
1.790000e-06	-2.454632e-07	-4.400842e-10	-1.704638e+00	-3.601830e+01
1.800000e-06	-1.985147e-07	-4.158938e-10	-1.378600e+00	-3.448647e+01
1.810000e-06	-1.516217e-07	-3.911853e-10	-1.052948e+00	-3.291500e+01
1.820000e-06	-1.047793e-07	-3.687871e-10	-7.276478e-01	-3.130286e+01
1.830000e-06	-5.793953e-08	-3.487485e-10	-4.023654e-01	-2.964918e+01
1.840000e-06	-1.104032e-08	-3.265073e-10	-7.667032e-02	-2.795327e+01
1.850000e-06	3.592916e-08	-3.031300e-10	2.495128e-01	-2.621462e+01
1.860000e-06	8.287300e-08	-2.807156e-10	5.755178e-01	-2.443296e+01
1.870000e-06	1.297569e-07	-2.567847e-10	9.011064e-01	-2.260824e+01
1.880000e-06	1.766149e-07	-2.314872e-10	1.226516e+00	-2.074065e+01
1.890000e-06	2.234504e-07	-2.043815e-10	1.551768e+00	-1.883063e+01
1.900000e-06	2.703009e-07	-1.748476e-10	1.877125e+00	-1.687891e+01
1.910000e-06	3.171619e-07	-1.457047e-10	2.202555e+00	-1.488647e+01
1.920000e-06	3.640394e-07	-1.168133e-10	2.528099e+00	-1.285456e+01
1.930000e-06	4.109345e-07	-8.808249e-11	2.853765e+00	-1.078472e+01
1.940000e-06	4.577436e-07	-6.023955e-11	3.178835e+00	-8.678734e+00
1.950000e-06	5.044491e-07	-3.383712e-11	3.503185e+00	-6.538662e+00
1.960000e-06	5.511644e-07	-6.364415e-12	3.827603e+00	-4.366807e+00
1.970000e-06	5.978593e-07	2.283795e-11	4.151879e+00	-2.165709e+00
1.980000e-06	6.444188e-07	5.302063e-11	4.475215e+00	6.187239e-02
1.990000e-06	6.909065e-07	8.641322e-11	4.798052e+00	2.312979e+00
2.000000e-06	7.373525e-07	1.209584e-10	5.120600e+00	4.584472e+00
2.010000e-06	7.837643e-07	1.537592e-10	5.442910e+00	6.873059e+00
2.020000e-06	8.301194e-07	1.868584e-10	5.764826e+00	9.175319e+00
2.030000e-06	8.763692e-07	2.206427e-10	6.086011e+00	1.148773e+01
2.040000e-06	9.225700e-07	2.535509e-10	6.406856e+00	1.380669e+01
2.050000e-06	9.686968e-07	2.851817e-10	6.727187e+00	1.612855e+01
2.060000e-06	1.014696e-06	3.179844e-10	7.046635e+00	1.844967e+01
2.070000e-06	1.060633e-06	3.516613e-10	7.365642e+00	2.076640e+01
2.080000e-06	1.106554e-06	3.832362e-10	7.684549e+00	2.307512e+01
2.090000e-06	1.152467e-06	4.152046e-10	8.003393e+00	2.537233e+01
2.100000e-06	1.198370e-06	4.490416e-10	8.322173e+00	2.765458e+01
2.110000e-06	1.244158e-06	4.820621e-10	8.640147e+00	2.991856e+01
2.120000e-06	1.289775e-06	5.135828e-10	8.956937e+00	3.216112e+01
2.130000e-06	1.335244e-06	5.472649e-10	9.272701e+00	3.437926e+01
2.140000e-06	1.380567e-06	5.804672e-10	9.587451e+00	3.657018e+01
2.150000e-06	1.425814e-06	6.091724e-10	9.901675e+00	3.873129e+01
2.160000e-06	1.471084e-06	6.348114e-10	1.021605e+01	4.086021e+01
2.170000e-06	1.516279e-06	6.591209e-10	1.052991e+01	4.295479e+01
2.180000e-06	1.561350e-06	6.840002e-10	1.084291e+01	4.501311e+01
2.190000e-06	1.606259e-06	7.109831e-10	1.115479e+01	4.703352e+01
2.200000e-06	1.650991e-06	7.414388e-10	1.146543e+01	4.901460e+01
2.210000e-06	1.695680e-06	7.726668e-10	1.177577e+01	5.095517e+01
2.220000e-06	1.740286e-06	8.022799e-10	1.208555e+01	5.285430e+01
2.230000e-06	1.784712e-06	8.286552e-10	1.239407e+01	5.471131e+01
2.240000e-06	1.829012e-06	8.492921e-10	1.270171e+01	5.652571e+01
2.250000e-06	1.873191e-06	8.674596e-10	1.300851e+01	5.829726e+01
2.260000e-06	1.917167e-06	8.850608e-10	1.331391e+01	6.002592e+01
2.270000e-06	1.961021e-06	9.056839e-10	1.361846e+01	6.171183e+01
2.280000e-06	2.004819e-06	9.277287e-10	1.392262e+01	6.335530e+01
2.290000e-06	2.048545e-06	9.496376e-10	1.422627e+01	6.495681e+01
2.300000e-06	2.092251e-06	9.732690e-10	1.452980e+01	6.651697e+01
2.310000e-06	2.135899e-06	9.961950e-10	1.483291e+01	6.803651e+01
2.320000e-06	2.179383e-06	1.016111e-09	1.513489e+01	6.951627e+01
2.330000e-06	2.222761e-06	1.033441e-09	1.543613e+01	7.095717e+01
2.340000e-06	2.266030e-06	1.050996e-09	1.573662e+01	7.236018e+01
2.350000e-06	2.309140e-06	1.068784e-09	1.603600e+01	7.372633e+01
2.360000e-06	2.352044e-06	1.086115e-09	1.633395e+01	7.505669e+01
2.370000e-06	2.394750e-06	1.103154e-09	1.663052e+01	7.635233e+01
2.380000e-06	2.437252e-06	1.121451e-09	1.692568e+01	7.761433e+01
2.390000e-06	2.479455e-06	1.139968e-09	1.721876e+01	7.884375e+01
2.400000e-06	2.521305e-06	1.157584e-09	1.750939e+01	8.004164e+01
2.410000e-06	2.562831e-06	1.174735e-09	1.779777e+01	8.120900e+01
2.420000e-06	2.604156e-06	1.190694e-09	1.808476e+01	8.234681e+01
2.430000e-06	2.645259e-06	1.206462e-09	1.837020e+01	8.345600e+01
2.440000e-06	2.685970e-06	1.223666e-09	1.865292e+01	8.453744e+01
2.450000e-06	2.726384e-06	1.239000e-09	1.893358e+01	8.559196e+01
2.460000e-06	2.766645e-06	1.253707e-09	1.921318e+01	8.662033e+01
2.470000e-06	2.806764e-06	1.268352e-09	1.949179e+01	8.762328e+01
2.480000e-06	2.846721e-06	1.282682e-09	1.976927e+01	8.860147e+01
2.490000e-06	2.886473e-06	1.296001e-09	2.004533e+01	8.955554e+01
2.500000e-06	2.926027e-06	1.308304e-09	2.032001e+01	9.048606e+01
2.510000e-06	2.965438e-06	1.322460e-09	2.059370e+01	9.139359e+01
2.520000e-06	3.004676e-06	1.334149e-09	2.086620e+01	9.227862e+01
2.530000e-06	3.043733e-06	1.347084e-09	2.113743e+01	9.314166e+01
2.540000e-06	3.082601e-06	1.362323e-09	2.140736e+01	9.398316e+01
2.550000e-06	3.121235e-06	1.374453e-09	2.167565e+01	9.480359e+01
2.560000e-06	3.159681e-06	1.383673e-09	2.194264e+01	9.560337e+01
2.570000e-06	3.197917e-06	1.391360e-09	2.220817e+01	9.638296e+01
2.580000e-06	3.235909e-06	1.398827e-09	2.247202e+01	9.714279e+01
2.590000e-06	3.273667e-06	1.407477e-09	2.273423e+01	9.788332e+01
2.600000e-06	3.311176e-06	1.419342e-09	2.299471e+01	9.860499e+01
2.610000e-06	3.348429e-06	1.434640e-09	2.325341e+01	9.930829e+01
2.620000e-06	3.385471e-06	1.449451e-09	2.351065e+01	9.999368e+01
2.630000e-06	3.422356e-06	1.460149e-09	2.376681e+01	1.006617e+02
2.640000e-06	3.458970e-06	1.469676e-09	2.402108e+01	1.013128e+02
2.650000e-06	3.495336e-06	1.478209e-09	2.427362e+01	1.019475e+02
2.660000e-06	3.531523e-06	1.484131e-09	2.452492e+01	1.025663e+02
2.670000e-06	3.567496e-06	1.487489e-09	2.477474e+01	1.031699e+02
2.680000e-06	3.603300e-06	1.491442e-09	2.502339e+01	1.037587e+02
2.690000e-06	3.638909e-06	1.498620e-09	2.527067e+01	1.043332e+02
2.700000e-06	3.674323e-06	1.508982e-09	2.551661e+01	1.048940e+02
2.710000e-06	3.709573e-06	1.517935e-09	2.576141e+01	1.054416e+02
2.720000e-06	3.744608e-06	1.525127e-09	2.600471e+01	1.059765e+02
2.730000e-06	3.779305e-06	1.530138e-09	2.624567e+01	1.064992e+02
2.740000e-06	3.813665e-06	1.534587e-09	2.648428e+01	1.070101e+02
2.750000e-06	3.847708e-06	1.539568e-09	2.672070e+01	1.075095e+02
2.760000e-06	3.881386e-06	1.545250e-09	2.695458e+01	1.079979e+02
2.770000e-06	3.914582e-06	1.553507e-09	2.718511e+01	1.084757e+02
2.780000e-06	3.947263e-06	1.561185e-09	2.741206e+01	1.089429e+02
2.790000e-06	3.979622e-06	1.569520e-09	2.763678e+01	1.094000e+02
2.800000e-06	4.011677e-06	1.580003e-09	2.785940e+01	1.098470e+02
2.810000e-06	4.043449e-06	1.589618e-09	2.808003e+01	1.102841e+02
2.820000e-06	4.075045e-06	1.596491e-09	2.829946e+01	1.107113e+02
2.830000e-06	4.106473e-06	1.599332e-09	2.851771e+01	1.111287e+02
2.840000e-06	4.137648e-06	1.600998e-09	2.873421e+01	1.115363e+02
2.850000e-06	4.168504e-06	1.604592e-09	2.894849e+01	1.119340e+02
2.860000e-06	4.199128e-06	1.611640e-09	2.916116e+01	1.123217e+02
2.870000e-06	4.229518e-06	1.620622e-09	2.937220e+01	1.126992e+02
2.880000e-06	4.259604e-06	1.627211e-09	2.958114e+01	1.130665e+02
2.890000e-06	4.289403e-06	1.633311e-09	2.978808e+01	1.134233e+02
2.900000e-06	4.318872e-06	1.639579e-09	2.999273e+01	1.137694e+02
