# Temperatura_=_13.19
# Concentracion g/m^3_=_1620.0
# C_Vs_to_Am_M_A/Vsm_=_65563218390.804596
# pendiente_HvsI_1/m_=_3716.3
# ordenada_HvsI_A/m_=_1297.0
# frecuencia_Hz_=_135107.31000854445

Tiempo_(s)	Campo_(V.s)	Magnetizacion_(V.s)	Campo_(kA/m)	Magnetizacion_(A/m)
0.000000e+00	-5.523665e-06	-1.806508e-09	-3.836479e+01	-1.179719e+02
1.000000e-08	-5.523912e-06	-1.803706e-09	-3.836651e+01	-1.179418e+02
2.000000e-08	-5.523799e-06	-1.805488e-09	-3.836572e+01	-1.179109e+02
3.000000e-08	-5.523401e-06	-1.809085e-09	-3.836296e+01	-1.178792e+02
4.000000e-08	-5.522641e-06	-1.811392e-09	-3.835767e+01	-1.178464e+02
5.000000e-08	-5.521289e-06	-1.810288e-09	-3.834828e+01	-1.178123e+02
6.000000e-08	-5.519314e-06	-1.804461e-09	-3.833457e+01	-1.177767e+02
7.000000e-08	-5.516760e-06	-1.803000e-09	-3.831683e+01	-1.177393e+02
8.000000e-08	-5.513723e-06	-1.814556e-09	-3.829573e+01	-1.176997e+02
9.000000e-08	-5.510250e-06	-1.842810e-09	-3.827162e+01	-1.176578e+02
1.000000e-07	-5.506261e-06	-1.841248e-09	-3.824391e+01	-1.176132e+02
1.100000e-07	-5.501924e-06	-1.745040e-09	-3.821379e+01	-1.175656e+02
1.200000e-07	-5.497405e-06	-1.721717e-09	-3.818240e+01	-1.175147e+02
1.300000e-07	-5.492619e-06	-1.791516e-09	-3.814916e+01	-1.174602e+02
1.400000e-07	-5.487395e-06	-1.846196e-09	-3.811287e+01	-1.174019e+02
1.500000e-07	-5.481728e-06	-1.783991e-09	-3.807352e+01	-1.173393e+02
1.600000e-07	-5.475796e-06	-1.745074e-09	-3.803231e+01	-1.172723e+02
1.700000e-07	-5.469583e-06	-1.825087e-09	-3.798916e+01	-1.172006e+02
1.800000e-07	-5.462854e-06	-1.830323e-09	-3.794242e+01	-1.171239e+02
1.900000e-07	-5.455705e-06	-1.756263e-09	-3.789277e+01	-1.170421e+02
2.000000e-07	-5.448338e-06	-1.701214e-09	-3.784160e+01	-1.169550e+02
2.100000e-07	-5.440755e-06	-1.781645e-09	-3.778894e+01	-1.168622e+02
2.200000e-07	-5.432870e-06	-1.815504e-09	-3.773417e+01	-1.167638e+02
2.300000e-07	-5.424669e-06	-1.795887e-09	-3.767721e+01	-1.166596e+02
2.400000e-07	-5.416093e-06	-1.759359e-09	-3.761765e+01	-1.165495e+02
2.500000e-07	-5.406870e-06	-1.793974e-09	-3.755359e+01	-1.164334e+02
2.600000e-07	-5.396775e-06	-1.793821e-09	-3.748347e+01	-1.163112e+02
2.700000e-07	-5.386041e-06	-1.768010e-09	-3.740892e+01	-1.161830e+02
2.800000e-07	-5.374975e-06	-1.737480e-09	-3.733206e+01	-1.160486e+02
2.900000e-07	-5.363499e-06	-1.764754e-09	-3.725235e+01	-1.159083e+02
3.000000e-07	-5.351637e-06	-1.785732e-09	-3.716997e+01	-1.157618e+02
3.100000e-07	-5.339463e-06	-1.762978e-09	-3.708541e+01	-1.156094e+02
3.200000e-07	-5.326772e-06	-1.741217e-09	-3.699726e+01	-1.154511e+02
3.300000e-07	-5.313574e-06	-1.749718e-09	-3.690560e+01	-1.152870e+02
3.400000e-07	-5.300138e-06	-1.775233e-09	-3.681228e+01	-1.151171e+02
3.500000e-07	-5.286432e-06	-1.747133e-09	-3.671708e+01	-1.149416e+02
3.600000e-07	-5.272209e-06	-1.728079e-09	-3.661830e+01	-1.147606e+02
3.700000e-07	-5.257515e-06	-1.752911e-09	-3.651623e+01	-1.145743e+02
3.800000e-07	-5.242349e-06	-1.770511e-09	-3.641090e+01	-1.143827e+02
3.900000e-07	-5.226563e-06	-1.718001e-09	-3.630126e+01	-1.141861e+02
4.000000e-07	-5.210197e-06	-1.721477e-09	-3.618759e+01	-1.139845e+02
4.100000e-07	-5.193515e-06	-1.757477e-09	-3.607172e+01	-1.137782e+02
4.200000e-07	-5.176578e-06	-1.725222e-09	-3.595409e+01	-1.135672e+02
4.300000e-07	-5.159173e-06	-1.679779e-09	-3.583320e+01	-1.133518e+02
4.400000e-07	-5.141533e-06	-1.757766e-09	-3.571068e+01	-1.131321e+02
4.500000e-07	-5.123715e-06	-1.763592e-09	-3.558692e+01	-1.129082e+02
4.600000e-07	-5.105365e-06	-1.683751e-09	-3.545947e+01	-1.126804e+02
4.700000e-07	-5.086436e-06	-1.698352e-09	-3.532800e+01	-1.124487e+02
4.800000e-07	-5.067275e-06	-1.776628e-09	-3.519492e+01	-1.122133e+02
4.900000e-07	-5.047937e-06	-1.703000e-09	-3.506061e+01	-1.119744e+02
5.000000e-07	-5.028347e-06	-1.665168e-09	-3.492454e+01	-1.117321e+02
5.100000e-07	-5.008536e-06	-1.731198e-09	-3.478694e+01	-1.114867e+02
5.200000e-07	-4.988423e-06	-1.716861e-09	-3.464725e+01	-1.112381e+02
5.300000e-07	-4.967860e-06	-1.650431e-09	-3.450443e+01	-1.109866e+02
5.400000e-07	-4.946905e-06	-1.721179e-09	-3.435889e+01	-1.107324e+02
5.500000e-07	-4.925609e-06	-1.743020e-09	-3.421097e+01	-1.104755e+02
5.600000e-07	-4.903938e-06	-1.658849e-09	-3.406045e+01	-1.102161e+02
5.700000e-07	-4.882047e-06	-1.677201e-09	-3.390841e+01	-1.099544e+02
5.800000e-07	-4.859886e-06	-1.742676e-09	-3.375449e+01	-1.096904e+02
5.900000e-07	-4.837309e-06	-1.676446e-09	-3.359768e+01	-1.094244e+02
6.000000e-07	-4.814405e-06	-1.643347e-09	-3.343860e+01	-1.091564e+02
6.100000e-07	-4.791235e-06	-1.700236e-09	-3.327767e+01	-1.088865e+02
6.200000e-07	-4.767709e-06	-1.669469e-09	-3.311427e+01	-1.086149e+02
6.300000e-07	-4.743929e-06	-1.620268e-09	-3.294911e+01	-1.083416e+02
6.400000e-07	-4.719961e-06	-1.663718e-09	-3.278264e+01	-1.080668e+02
6.500000e-07	-4.695631e-06	-1.678746e-09	-3.261365e+01	-1.077906e+02
6.600000e-07	-4.670835e-06	-1.635259e-09	-3.244143e+01	-1.075129e+02
6.700000e-07	-4.645639e-06	-1.654189e-09	-3.226643e+01	-1.072338e+02
6.800000e-07	-4.619983e-06	-1.662411e-09	-3.208824e+01	-1.069534e+02
6.900000e-07	-4.593736e-06	-1.620091e-09	-3.190594e+01	-1.066717e+02
7.000000e-07	-4.566948e-06	-1.608196e-09	-3.171988e+01	-1.063886e+02
7.100000e-07	-4.539765e-06	-1.629175e-09	-3.153108e+01	-1.061042e+02
7.200000e-07	-4.512311e-06	-1.605582e-09	-3.134040e+01	-1.058182e+02
7.300000e-07	-4.484688e-06	-1.604118e-09	-3.114854e+01	-1.055307e+02
7.400000e-07	-4.456924e-06	-1.625525e-09	-3.095571e+01	-1.052416e+02
7.500000e-07	-4.428882e-06	-1.617680e-09	-3.076094e+01	-1.049506e+02
7.600000e-07	-4.400506e-06	-1.592321e-09	-3.056385e+01	-1.046576e+02
7.700000e-07	-4.371804e-06	-1.598511e-09	-3.036450e+01	-1.043624e+02
7.800000e-07	-4.342751e-06	-1.585971e-09	-3.016272e+01	-1.040647e+02
7.900000e-07	-4.313481e-06	-1.568895e-09	-2.995942e+01	-1.037643e+02
8.000000e-07	-4.284048e-06	-1.572902e-09	-2.975499e+01	-1.034609e+02
8.100000e-07	-4.254346e-06	-1.574089e-09	-2.954869e+01	-1.031542e+02
8.200000e-07	-4.224336e-06	-1.551842e-09	-2.934026e+01	-1.028438e+02
8.300000e-07	-4.194015e-06	-1.550777e-09	-2.912966e+01	-1.025295e+02
8.400000e-07	-4.163310e-06	-1.554382e-09	-2.891640e+01	-1.022108e+02
8.500000e-07	-4.132250e-06	-1.542563e-09	-2.870067e+01	-1.018873e+02
8.600000e-07	-4.100945e-06	-1.540445e-09	-2.848325e+01	-1.015588e+02
8.700000e-07	-4.069462e-06	-1.550232e-09	-2.826458e+01	-1.012247e+02
8.800000e-07	-4.037817e-06	-1.535319e-09	-2.804479e+01	-1.008849e+02
8.900000e-07	-4.006006e-06	-1.515150e-09	-2.782384e+01	-1.005389e+02
9.000000e-07	-3.973970e-06	-1.513817e-09	-2.760134e+01	-1.001864e+02
9.100000e-07	-3.941586e-06	-1.503441e-09	-2.737641e+01	-9.982707e+01
9.200000e-07	-3.908858e-06	-1.487030e-09	-2.714910e+01	-9.946070e+01
9.300000e-07	-3.875849e-06	-1.490522e-09	-2.691983e+01	-9.908704e+01
9.400000e-07	-3.842378e-06	-1.497080e-09	-2.668736e+01	-9.870589e+01
9.500000e-07	-3.808294e-06	-1.484070e-09	-2.645063e+01	-9.831712e+01
9.600000e-07	-3.773765e-06	-1.480595e-09	-2.621081e+01	-9.792064e+01
9.700000e-07	-3.738860e-06	-1.479404e-09	-2.596837e+01	-9.751641e+01
9.800000e-07	-3.703638e-06	-1.462895e-09	-2.572374e+01	-9.710446e+01
9.900000e-07	-3.668232e-06	-1.444131e-09	-2.547782e+01	-9.668486e+01
1.000000e-06	-3.632660e-06	-1.445303e-09	-2.523076e+01	-9.625775e+01
1.010000e-06	-3.596963e-06	-1.436550e-09	-2.498282e+01	-9.582334e+01
1.020000e-06	-3.561175e-06	-1.421297e-09	-2.473425e+01	-9.538186e+01
1.030000e-06	-3.525176e-06	-1.417735e-09	-2.448422e+01	-9.493362e+01
1.040000e-06	-3.488944e-06	-1.421132e-09	-2.423257e+01	-9.447899e+01
1.050000e-06	-3.452504e-06	-1.412321e-09	-2.397947e+01	-9.401835e+01
1.060000e-06	-3.415743e-06	-1.407981e-09	-2.372415e+01	-9.355214e+01
1.070000e-06	-3.378704e-06	-1.401463e-09	-2.346690e+01	-9.308083e+01
1.080000e-06	-3.341468e-06	-1.384338e-09	-2.320827e+01	-9.260488e+01
1.090000e-06	-3.304017e-06	-1.367206e-09	-2.294815e+01	-9.212481e+01
1.100000e-06	-3.266288e-06	-1.363213e-09	-2.268610e+01	-9.164111e+01
1.110000e-06	-3.228263e-06	-1.356011e-09	-2.242200e+01	-9.115427e+01
1.120000e-06	-3.190033e-06	-1.346021e-09	-2.215648e+01	-9.066475e+01
1.130000e-06	-3.151669e-06	-1.340804e-09	-2.189002e+01	-9.017300e+01
1.140000e-06	-3.113076e-06	-1.336443e-09	-2.162197e+01	-8.967941e+01
1.150000e-06	-3.074258e-06	-1.327647e-09	-2.135236e+01	-8.918434e+01
1.160000e-06	-3.035312e-06	-1.321513e-09	-2.108185e+01	-8.868807e+01
1.170000e-06	-2.996186e-06	-1.316072e-09	-2.081011e+01	-8.819081e+01
1.180000e-06	-2.956863e-06	-1.305247e-09	-2.053699e+01	-8.769270e+01
1.190000e-06	-2.917360e-06	-1.296603e-09	-2.026262e+01	-8.719380e+01
1.200000e-06	-2.877725e-06	-1.290724e-09	-1.998733e+01	-8.669406e+01
1.210000e-06	-2.837992e-06	-1.280032e-09	-1.971136e+01	-8.619335e+01
1.220000e-06	-2.798119e-06	-1.267484e-09	-1.943442e+01	-8.569144e+01
1.230000e-06	-2.758062e-06	-1.260688e-09	-1.915621e+01	-8.518800e+01
1.240000e-06	-2.717830e-06	-1.251575e-09	-1.887678e+01	-8.468258e+01
1.250000e-06	-2.677342e-06	-1.241900e-09	-1.859556e+01	-8.417466e+01
1.260000e-06	-2.636511e-06	-1.236322e-09	-1.831197e+01	-8.366363e+01
1.270000e-06	-2.595416e-06	-1.232269e-09	-1.802654e+01	-8.314876e+01
1.280000e-06	-2.554065e-06	-1.220987e-09	-1.773934e+01	-8.262929e+01
1.290000e-06	-2.512452e-06	-1.209163e-09	-1.745031e+01	-8.210435e+01
1.300000e-06	-2.470522e-06	-1.198029e-09	-1.715909e+01	-8.157303e+01
1.310000e-06	-2.428238e-06	-1.185298e-09	-1.686540e+01	-8.103438e+01
1.320000e-06	-2.385692e-06	-1.169591e-09	-1.656990e+01	-8.048740e+01
1.330000e-06	-2.342901e-06	-1.158029e-09	-1.627269e+01	-7.993109e+01
1.340000e-06	-2.299895e-06	-1.148547e-09	-1.597400e+01	-7.936442e+01
1.350000e-06	-2.256696e-06	-1.141540e-09	-1.567395e+01	-7.878640e+01
1.360000e-06	-2.213371e-06	-1.135666e-09	-1.537304e+01	-7.819605e+01
1.370000e-06	-2.169952e-06	-1.129728e-09	-1.507147e+01	-7.759243e+01
1.380000e-06	-2.126354e-06	-1.120414e-09	-1.476866e+01	-7.697465e+01
1.390000e-06	-2.082639e-06	-1.107999e-09	-1.446504e+01	-7.634190e+01
1.400000e-06	-2.038898e-06	-1.091394e-09	-1.416123e+01	-7.569343e+01
1.410000e-06	-1.995084e-06	-1.073861e-09	-1.385692e+01	-7.502858e+01
1.420000e-06	-1.951174e-06	-1.056615e-09	-1.355194e+01	-7.434681e+01
1.430000e-06	-1.907159e-06	-1.042938e-09	-1.324624e+01	-7.364765e+01
1.440000e-06	-1.862980e-06	-1.032357e-09	-1.293938e+01	-7.293075e+01
1.450000e-06	-1.818714e-06	-1.022261e-09	-1.263193e+01	-7.219587e+01
1.460000e-06	-1.774388e-06	-1.011727e-09	-1.232407e+01	-7.144286e+01
1.470000e-06	-1.729929e-06	-9.989950e-10	-1.201528e+01	-7.067170e+01
1.480000e-06	-1.685335e-06	-9.847840e-10	-1.170555e+01	-6.988246e+01
1.490000e-06	-1.640546e-06	-9.694611e-10	-1.139446e+01	-6.907527e+01
1.500000e-06	-1.595635e-06	-9.509352e-10	-1.108253e+01	-6.825039e+01
1.510000e-06	-1.550583e-06	-9.296470e-10	-1.076962e+01	-6.740811e+01
1.520000e-06	-1.505399e-06	-9.112429e-10	-1.045579e+01	-6.654877e+01
1.530000e-06	-1.460171e-06	-8.978221e-10	-1.014166e+01	-6.567278e+01
1.540000e-06	-1.414827e-06	-8.881240e-10	-9.826726e+00	-6.478053e+01
1.550000e-06	-1.369357e-06	-8.796951e-10	-9.510912e+00	-6.387244e+01
1.560000e-06	-1.323838e-06	-8.698749e-10	-9.194760e+00	-6.294889e+01
1.570000e-06	-1.278294e-06	-8.543290e-10	-8.878431e+00	-6.201023e+01
1.580000e-06	-1.232651e-06	-8.356714e-10	-8.561414e+00	-6.105674e+01
1.590000e-06	-1.186912e-06	-8.162404e-10	-8.243738e+00	-6.008864e+01
1.600000e-06	-1.141097e-06	-7.967008e-10	-7.925524e+00	-5.910605e+01
1.610000e-06	-1.095178e-06	-7.764464e-10	-7.606596e+00	-5.810896e+01
1.620000e-06	-1.049201e-06	-7.596873e-10	-7.287259e+00	-5.709724e+01
1.630000e-06	-1.003150e-06	-7.468841e-10	-6.967410e+00	-5.607063e+01
1.640000e-06	-9.570164e-07	-7.350482e-10	-6.646987e+00	-5.502872e+01
1.650000e-06	-9.107367e-07	-7.226865e-10	-6.325550e+00	-5.397091e+01
1.660000e-06	-8.643555e-07	-7.104759e-10	-6.003409e+00	-5.289648e+01
1.670000e-06	-8.179352e-07	-6.954147e-10	-5.680995e+00	-5.180451e+01
1.680000e-06	-7.714684e-07	-6.773198e-10	-5.358258e+00	-5.069393e+01
1.690000e-06	-7.249896e-07	-6.581193e-10	-5.035438e+00	-4.956351e+01
1.700000e-06	-6.784580e-07	-6.384361e-10	-4.712252e+00	-4.841189e+01
1.710000e-06	-6.319219e-07	-6.159053e-10	-4.389033e+00	-4.723754e+01
1.720000e-06	-5.853486e-07	-5.926431e-10	-4.065557e+00	-4.603884e+01
1.730000e-06	-5.387179e-07	-5.721925e-10	-3.741682e+00	-4.481406e+01
1.740000e-06	-4.920414e-07	-5.541732e-10	-3.417489e+00	-4.356137e+01
1.750000e-06	-4.452039e-07	-5.372674e-10	-3.092177e+00	-4.227891e+01
1.760000e-06	-3.982868e-07	-5.198173e-10	-2.766313e+00	-4.096479e+01
1.770000e-06	-3.514039e-07	-4.995140e-10	-2.440687e+00	-3.961712e+01
1.780000e-06	-3.044936e-07	-4.771965e-10	-2.114870e+00	-3.823403e+01
1.790000e-06	-2.575854e-07	-4.559610e-10	-1.789068e+00	-3.681371e+01
1.800000e-06	-2.107128e-07	-4.356311e-10	-1.463513e+00	-3.535446e+01
1.810000e-06	-1.638830e-07	-4.148511e-10	-1.138255e+00	-3.385470e+01
1.820000e-06	-1.170938e-07	-3.935810e-10	-8.132785e-01	-3.231300e+01
1.830000e-06	-7.028916e-08	-3.727562e-10	-4.881956e-01	-3.072811e+01
1.840000e-06	-2.347122e-08	-3.519728e-10	-1.630201e-01	-2.909900e+01
1.850000e-06	2.337958e-08	-3.307500e-10	1.623836e-01	-2.742489e+01
1.860000e-06	7.027387e-08	-3.103753e-10	4.880894e-01	-2.570523e+01
1.870000e-06	1.171468e-07	-2.899638e-10	8.136467e-01	-2.393978e+01
1.880000e-06	1.640258e-07	-2.669386e-10	1.139246e+00	-2.212859e+01
1.890000e-06	2.109121e-07	-2.396626e-10	1.464896e+00	-2.027200e+01
1.900000e-06	2.577046e-07	-2.087917e-10	1.789895e+00	-1.837071e+01
1.910000e-06	3.045073e-07	-1.780589e-10	2.114965e+00	-1.642570e+01
1.920000e-06	3.512770e-07	-1.475795e-10	2.439806e+00	-1.443830e+01
1.930000e-06	3.979018e-07	-1.189741e-10	2.763640e+00	-1.241016e+01
1.940000e-06	4.444694e-07	-9.275538e-11	3.087076e+00	-1.034322e+01
1.950000e-06	4.910152e-07	-6.889452e-11	3.410361e+00	-8.239740e+00
1.960000e-06	5.375785e-07	-4.385933e-11	3.733768e+00	-6.102252e+00
1.970000e-06	5.841278e-07	-1.464349e-11	4.057078e+00	-3.933550e+00
1.980000e-06	6.306183e-07	1.567736e-11	4.379980e+00	-1.736666e+00
1.990000e-06	6.770822e-07	4.719323e-11	4.702696e+00	4.851554e-01
2.000000e-06	7.234900e-07	8.126918e-11	5.025023e+00	2.728492e+00
2.010000e-06	7.697615e-07	1.149240e-10	5.346403e+00	4.989770e+00
2.020000e-06	8.159867e-07	1.483394e-10	5.667461e+00	7.265301e+00
2.030000e-06	8.621849e-07	1.826152e-10	5.988333e+00	9.551314e+00
2.040000e-06	9.083266e-07	2.155979e-10	6.308811e+00	1.184399e+01
2.050000e-06	9.544138e-07	2.452519e-10	6.628911e+00	1.413951e+01
2.060000e-06	1.000440e-06	2.741377e-10	6.948588e+00	1.643407e+01
2.070000e-06	1.046423e-06	3.045064e-10	7.267961e+00	1.872392e+01
2.080000e-06	1.092280e-06	3.360771e-10	7.586464e+00	2.100540e+01
2.090000e-06	1.138022e-06	3.696192e-10	7.904168e+00	2.327497e+01
2.100000e-06	1.183767e-06	4.061593e-10	8.221888e+00	2.552926e+01
2.110000e-06	1.229445e-06	4.421476e-10	8.539148e+00	2.776504e+01
2.120000e-06	1.275010e-06	4.740252e-10	8.855625e+00	2.997930e+01
2.130000e-06	1.320536e-06	5.046181e-10	9.171821e+00	3.216922e+01
2.140000e-06	1.365983e-06	5.339859e-10	9.487476e+00	3.433223e+01
2.150000e-06	1.411324e-06	5.604372e-10	9.802396e+00	3.646598e+01
2.160000e-06	1.456579e-06	5.842505e-10	1.011672e+01	3.856839e+01
2.170000e-06	1.501701e-06	6.084766e-10	1.043011e+01	4.063761e+01
2.180000e-06	1.546698e-06	6.355893e-10	1.074264e+01	4.267207e+01
2.190000e-06	1.591631e-06	6.644465e-10	1.105472e+01	4.467040e+01
2.200000e-06	1.636459e-06	6.951680e-10	1.136608e+01	4.663153e+01
2.210000e-06	1.681086e-06	7.285654e-10	1.167604e+01	4.855459e+01
2.220000e-06	1.725560e-06	7.602570e-10	1.198493e+01	5.043892e+01
2.230000e-06	1.769887e-06	7.872308e-10	1.229281e+01	5.228410e+01
2.240000e-06	1.814093e-06	8.092919e-10	1.259984e+01	5.408988e+01
2.250000e-06	1.858184e-06	8.266867e-10	1.290607e+01	5.585619e+01
2.260000e-06	1.902124e-06	8.414677e-10	1.321126e+01	5.758309e+01
2.270000e-06	1.945990e-06	8.599829e-10	1.351593e+01	5.927081e+01
2.280000e-06	1.989791e-06	8.831017e-10	1.382016e+01	6.091966e+01
2.290000e-06	2.033554e-06	9.078305e-10	1.412411e+01	6.253007e+01
2.300000e-06	2.077283e-06	9.343850e-10	1.442784e+01	6.410252e+01
2.310000e-06	2.120968e-06	9.592558e-10	1.473125e+01	6.563755e+01
2.320000e-06	2.164540e-06	9.800846e-10	1.503388e+01	6.713576e+01
2.330000e-06	2.207972e-06	9.966184e-10	1.533554e+01	6.859773e+01
2.340000e-06	2.251341e-06	1.012599e-09	1.563676e+01	7.002408e+01
2.350000e-06	2.294643e-06	1.029736e-09	1.593751e+01	7.141541e+01
2.360000e-06	2.337753e-06	1.048015e-09	1.623694e+01	7.277230e+01
2.370000e-06	2.380627e-06	1.066145e-09	1.653472e+01	7.409533e+01
2.380000e-06	2.423278e-06	1.083851e-09	1.683095e+01	7.538503e+01
2.390000e-06	2.465577e-06	1.101553e-09	1.712474e+01	7.664189e+01
2.400000e-06	2.507457e-06	1.118610e-09	1.741562e+01	7.786639e+01
2.410000e-06	2.548975e-06	1.136386e-09	1.770399e+01	7.905895e+01
2.420000e-06	2.590242e-06	1.154469e-09	1.799061e+01	8.021998e+01
2.430000e-06	2.631252e-06	1.171385e-09	1.827545e+01	8.134985e+01
2.440000e-06	2.671986e-06	1.187763e-09	1.855837e+01	8.244891e+01
2.450000e-06	2.712508e-06	1.202285e-09	1.883981e+01	8.351751e+01
2.460000e-06	2.752767e-06	1.214619e-09	1.911943e+01	8.455597e+01
2.470000e-06	2.792800e-06	1.224557e-09	1.939748e+01	8.556463e+01
2.480000e-06	2.832698e-06	1.233924e-09	1.967460e+01	8.654384e+01
2.490000e-06	2.872477e-06	1.246146e-09	1.995088e+01	8.749394e+01
2.500000e-06	2.912136e-06	1.258234e-09	2.022633e+01	8.841534e+01
2.510000e-06	2.951715e-06	1.273376e-09	2.050123e+01	8.930845e+01
2.520000e-06	2.991132e-06	1.289294e-09	2.077500e+01	9.017375e+01
2.530000e-06	3.030295e-06	1.303337e-09	2.104701e+01	9.101174e+01
2.540000e-06	3.069285e-06	1.316966e-09	2.131782e+01	9.182300e+01
2.550000e-06	3.108058e-06	1.328236e-09	2.158712e+01	9.260816e+01
2.560000e-06	3.146546e-06	1.335419e-09	2.185443e+01	9.336789e+01
2.570000e-06	3.184811e-06	1.339250e-09	2.212021e+01	9.410293e+01
2.580000e-06	3.222895e-06	1.343513e-09	2.238472e+01	9.481410e+01
2.590000e-06	3.260788e-06	1.349838e-09	2.264791e+01	9.550224e+01
2.600000e-06	3.298457e-06	1.359855e-09	2.290954e+01	9.616825e+01
2.610000e-06	3.335885e-06	1.374512e-09	2.316949e+01	9.681309e+01
2.620000e-06	3.373150e-06	1.390642e-09	2.342832e+01	9.743774e+01
2.630000e-06	3.410147e-06	1.403861e-09	2.368528e+01	9.804322e+01
2.640000e-06	3.446754e-06	1.413190e-09	2.393954e+01	9.863056e+01
2.650000e-06	3.483122e-06	1.420372e-09	2.419213e+01	9.920080e+01
2.660000e-06	3.519334e-06	1.424876e-09	2.444365e+01	9.975497e+01
2.670000e-06	3.555340e-06	1.428561e-09	2.469372e+01	1.002941e+02
2.680000e-06	3.591165e-06	1.434128e-09	2.494255e+01	1.008192e+02
2.690000e-06	3.626861e-06	1.442823e-09	2.519048e+01	1.013313e+02
2.700000e-06	3.662414e-06	1.454201e-09	2.543741e+01	1.018312e+02
2.710000e-06	3.697764e-06	1.464361e-09	2.568294e+01	1.023198e+02
2.720000e-06	3.732941e-06	1.474740e-09	2.592726e+01	1.027979e+02
2.730000e-06	3.767888e-06	1.483613e-09	2.616998e+01	1.032663e+02
2.740000e-06	3.802442e-06	1.489136e-09	2.640998e+01	1.037255e+02
2.750000e-06	3.836542e-06	1.492138e-09	2.664683e+01	1.041762e+02
2.760000e-06	3.870170e-06	1.494892e-09	2.688039e+01	1.046188e+02
2.770000e-06	3.903369e-06	1.500562e-09	2.711097e+01	1.050536e+02
2.780000e-06	3.936171e-06	1.505700e-09	2.733880e+01	1.054811e+02
2.790000e-06	3.968579e-06	1.513725e-09	2.756389e+01	1.059013e+02
2.800000e-06	4.000634e-06	1.524967e-09	2.778653e+01	1.063145e+02
2.810000e-06	4.032493e-06	1.536721e-09	2.800781e+01	1.067205e+02
2.820000e-06	4.064199e-06	1.545925e-09	2.822802e+01	1.071195e+02
2.830000e-06	4.095708e-06	1.553245e-09	2.844687e+01	1.075112e+02
2.840000e-06	4.127066e-06	1.558364e-09	2.866466e+01	1.078955e+02
2.850000e-06	4.158207e-06	1.560751e-09	2.888096e+01	1.082722e+02
2.860000e-06	4.189040e-06	1.563500e-09	2.909511e+01	1.086410e+02
2.870000e-06	4.219449e-06	1.569907e-09	2.930632e+01	1.090016e+02
2.880000e-06	4.249453e-06	1.577301e-09	2.951471e+01	1.093538e+02
2.890000e-06	4.279261e-06	1.583252e-09	2.972174e+01	1.096972e+02
2.900000e-06	4.308836e-06	1.590128e-09	2.992716e+01	1.100314e+02
