# Temperatura_=_-7.5
# Concentracion g/m^3_=_1620.0
# C_Vs_to_Am_M_A/Vsm_=_65563218390.804596
# pendiente_HvsI_1/m_=_3716.3
# ordenada_HvsI_A/m_=_1297.0
# frecuencia_Hz_=_135106.9360135114

Tiempo_(s)	Campo_(V.s)	Magnetizacion_(V.s)	Campo_(kA/m)	Magnetizacion_(A/m)
0.000000e+00	-5.514437e-06	-1.421369e-09	-3.835350e+01	-9.283684e+01
1.000000e-08	-5.514617e-06	-1.422015e-09	-3.835475e+01	-9.275567e+01
2.000000e-08	-5.514433e-06	-1.424649e-09	-3.835348e+01	-9.267633e+01
3.000000e-08	-5.513710e-06	-1.425605e-09	-3.834844e+01	-9.259876e+01
4.000000e-08	-5.512416e-06	-1.422837e-09	-3.833945e+01	-9.252286e+01
5.000000e-08	-5.510610e-06	-1.413415e-09	-3.832688e+01	-9.244841e+01
6.000000e-08	-5.508273e-06	-1.403189e-09	-3.831063e+01	-9.237516e+01
7.000000e-08	-5.505490e-06	-1.427018e-09	-3.829128e+01	-9.230276e+01
8.000000e-08	-5.502308e-06	-1.470559e-09	-3.826914e+01	-9.223081e+01
9.000000e-08	-5.498543e-06	-1.435950e-09	-3.824296e+01	-9.215883e+01
1.000000e-07	-5.494305e-06	-1.358201e-09	-3.821348e+01	-9.208632e+01
1.100000e-07	-5.489904e-06	-1.391977e-09	-3.818287e+01	-9.201270e+01
1.200000e-07	-5.485232e-06	-1.471423e-09	-3.815038e+01	-9.193738e+01
1.300000e-07	-5.480112e-06	-1.436720e-09	-3.811477e+01	-9.185975e+01
1.400000e-07	-5.474629e-06	-1.352721e-09	-3.807663e+01	-9.177918e+01
1.500000e-07	-5.468943e-06	-1.383562e-09	-3.803709e+01	-9.169505e+01
1.600000e-07	-5.462904e-06	-1.482254e-09	-3.799509e+01	-9.160676e+01
1.700000e-07	-5.456294e-06	-1.418862e-09	-3.794911e+01	-9.151373e+01
1.800000e-07	-5.449285e-06	-1.303979e-09	-3.790036e+01	-9.141543e+01
1.900000e-07	-5.442055e-06	-1.332416e-09	-3.785008e+01	-9.131136e+01
2.000000e-07	-5.434598e-06	-1.446101e-09	-3.779821e+01	-9.120110e+01
2.100000e-07	-5.426899e-06	-1.455750e-09	-3.774467e+01	-9.108432e+01
2.200000e-07	-5.418925e-06	-1.386210e-09	-3.768921e+01	-9.096073e+01
2.300000e-07	-5.410607e-06	-1.380129e-09	-3.763135e+01	-9.083017e+01
2.400000e-07	-5.401727e-06	-1.415569e-09	-3.756959e+01	-9.069254e+01
2.500000e-07	-5.392068e-06	-1.401173e-09	-3.750241e+01	-9.054785e+01
2.600000e-07	-5.381753e-06	-1.354808e-09	-3.743067e+01	-9.039622e+01
2.700000e-07	-5.370894e-06	-1.370200e-09	-3.735514e+01	-9.023785e+01
2.800000e-07	-5.359533e-06	-1.395325e-09	-3.727613e+01	-9.007305e+01
2.900000e-07	-5.347804e-06	-1.381320e-09	-3.719455e+01	-8.990220e+01
3.000000e-07	-5.335707e-06	-1.336407e-09	-3.711042e+01	-8.972580e+01
3.100000e-07	-5.323194e-06	-1.340436e-09	-3.702339e+01	-8.954439e+01
3.200000e-07	-5.310297e-06	-1.360369e-09	-3.693368e+01	-8.935861e+01
3.300000e-07	-5.297045e-06	-1.343571e-09	-3.684152e+01	-8.916913e+01
3.400000e-07	-5.283473e-06	-1.303034e-09	-3.674712e+01	-8.897669e+01
3.500000e-07	-5.269494e-06	-1.330241e-09	-3.664990e+01	-8.878204e+01
3.600000e-07	-5.255024e-06	-1.372979e-09	-3.654926e+01	-8.858596e+01
3.700000e-07	-5.240008e-06	-1.337093e-09	-3.644482e+01	-8.838922e+01
3.800000e-07	-5.224292e-06	-1.294649e-09	-3.633551e+01	-8.819261e+01
3.900000e-07	-5.208054e-06	-1.342785e-09	-3.622257e+01	-8.799686e+01
4.000000e-07	-5.191557e-06	-1.349773e-09	-3.610784e+01	-8.780268e+01
4.100000e-07	-5.174783e-06	-1.280404e-09	-3.599117e+01	-8.761072e+01
4.200000e-07	-5.157636e-06	-1.306201e-09	-3.587191e+01	-8.742157e+01
4.300000e-07	-5.140116e-06	-1.378608e-09	-3.575006e+01	-8.723573e+01
4.400000e-07	-5.122141e-06	-1.321816e-09	-3.562504e+01	-8.705364e+01
4.500000e-07	-5.103804e-06	-1.270272e-09	-3.549751e+01	-8.687564e+01
4.600000e-07	-5.085216e-06	-1.352402e-09	-3.536823e+01	-8.670195e+01
4.700000e-07	-5.066214e-06	-1.357604e-09	-3.523606e+01	-8.653271e+01
4.800000e-07	-5.046862e-06	-1.278072e-09	-3.510147e+01	-8.636796e+01
4.900000e-07	-5.027286e-06	-1.302963e-09	-3.496532e+01	-8.620763e+01
5.000000e-07	-5.007552e-06	-1.341780e-09	-3.482806e+01	-8.605153e+01
5.100000e-07	-4.987530e-06	-1.270334e-09	-3.468881e+01	-8.589941e+01
5.200000e-07	-4.967111e-06	-1.278187e-09	-3.454679e+01	-8.575090e+01
5.300000e-07	-4.946370e-06	-1.345642e-09	-3.440253e+01	-8.560557e+01
5.400000e-07	-4.925190e-06	-1.295109e-09	-3.425523e+01	-8.546290e+01
5.500000e-07	-4.903626e-06	-1.250065e-09	-3.410524e+01	-8.532232e+01
5.600000e-07	-4.881883e-06	-1.326634e-09	-3.395402e+01	-8.518321e+01
5.700000e-07	-4.859852e-06	-1.324606e-09	-3.380079e+01	-8.504490e+01
5.800000e-07	-4.837424e-06	-1.257134e-09	-3.364480e+01	-8.490673e+01
5.900000e-07	-4.814623e-06	-1.285806e-09	-3.348622e+01	-8.476801e+01
6.000000e-07	-4.791470e-06	-1.314070e-09	-3.332519e+01	-8.462805e+01
6.100000e-07	-4.768053e-06	-1.255759e-09	-3.316232e+01	-8.448619e+01
6.200000e-07	-4.744500e-06	-1.256469e-09	-3.299851e+01	-8.434180e+01
6.300000e-07	-4.720774e-06	-1.298194e-09	-3.283349e+01	-8.419429e+01
6.400000e-07	-4.696632e-06	-1.272387e-09	-3.266558e+01	-8.404314e+01
6.500000e-07	-4.672093e-06	-1.256062e-09	-3.249491e+01	-8.388787e+01
6.600000e-07	-4.647239e-06	-1.285045e-09	-3.232205e+01	-8.372809e+01
6.700000e-07	-4.621796e-06	-1.269526e-09	-3.214509e+01	-8.356348e+01
6.800000e-07	-4.595588e-06	-1.240685e-09	-3.196281e+01	-8.339380e+01
6.900000e-07	-4.568802e-06	-1.254838e-09	-3.177651e+01	-8.321890e+01
7.000000e-07	-4.541695e-06	-1.255264e-09	-3.158798e+01	-8.303871e+01
7.100000e-07	-4.514335e-06	-1.238803e-09	-3.139768e+01	-8.285324e+01
7.200000e-07	-4.486785e-06	-1.251862e-09	-3.120607e+01	-8.266258e+01
7.300000e-07	-4.459067e-06	-1.260406e-09	-3.101329e+01	-8.246691e+01
7.400000e-07	-4.431196e-06	-1.237757e-09	-3.081944e+01	-8.226643e+01
7.500000e-07	-4.403118e-06	-1.232074e-09	-3.062416e+01	-8.206146e+01
7.600000e-07	-4.374643e-06	-1.237104e-09	-3.042611e+01	-8.185232e+01
7.700000e-07	-4.345828e-06	-1.227009e-09	-3.022570e+01	-8.163939e+01
7.800000e-07	-4.316747e-06	-1.220533e-09	-3.002344e+01	-8.142308e+01
7.900000e-07	-4.287371e-06	-1.226125e-09	-2.981912e+01	-8.120379e+01
8.000000e-07	-4.257756e-06	-1.214697e-09	-2.961315e+01	-8.098195e+01
8.100000e-07	-4.227899e-06	-1.203868e-09	-2.940549e+01	-8.075798e+01
8.200000e-07	-4.197671e-06	-1.206242e-09	-2.919525e+01	-8.053226e+01
8.300000e-07	-4.167129e-06	-1.201806e-09	-2.898283e+01	-8.030517e+01
8.400000e-07	-4.136320e-06	-1.191817e-09	-2.876855e+01	-8.007703e+01
8.500000e-07	-4.105261e-06	-1.201719e-09	-2.855253e+01	-7.984812e+01
8.600000e-07	-4.073973e-06	-1.208223e-09	-2.833492e+01	-7.961866e+01
8.700000e-07	-4.042429e-06	-1.196619e-09	-2.811552e+01	-7.938883e+01
8.800000e-07	-4.010751e-06	-1.188175e-09	-2.789521e+01	-7.915873e+01
8.900000e-07	-3.978934e-06	-1.185376e-09	-2.767391e+01	-7.892840e+01
9.000000e-07	-3.946876e-06	-1.171563e-09	-2.745095e+01	-7.869783e+01
9.100000e-07	-3.914470e-06	-1.164877e-09	-2.722556e+01	-7.846691e+01
9.200000e-07	-3.881672e-06	-1.169073e-09	-2.699744e+01	-7.823552e+01
9.300000e-07	-3.848500e-06	-1.164071e-09	-2.676673e+01	-7.800345e+01
9.400000e-07	-3.814833e-06	-1.154658e-09	-2.653257e+01	-7.777046e+01
9.500000e-07	-3.780556e-06	-1.156685e-09	-2.629417e+01	-7.753624e+01
9.600000e-07	-3.745791e-06	-1.154159e-09	-2.605238e+01	-7.730050e+01
9.700000e-07	-3.710704e-06	-1.140791e-09	-2.580834e+01	-7.706287e+01
9.800000e-07	-3.675384e-06	-1.136193e-09	-2.556269e+01	-7.682300e+01
9.900000e-07	-3.639950e-06	-1.136814e-09	-2.531624e+01	-7.658053e+01
1.000000e-06	-3.604454e-06	-1.129709e-09	-2.506937e+01	-7.633510e+01
1.010000e-06	-3.568802e-06	-1.123527e-09	-2.482140e+01	-7.608637e+01
1.020000e-06	-3.533005e-06	-1.124243e-09	-2.457243e+01	-7.583401e+01
1.030000e-06	-3.497060e-06	-1.120315e-09	-2.432243e+01	-7.557775e+01
1.040000e-06	-3.460804e-06	-1.116641e-09	-2.407026e+01	-7.531734e+01
1.050000e-06	-3.424155e-06	-1.119250e-09	-2.381537e+01	-7.505257e+01
1.060000e-06	-3.387225e-06	-1.118420e-09	-2.355851e+01	-7.478330e+01
1.070000e-06	-3.350073e-06	-1.107497e-09	-2.330011e+01	-7.450942e+01
1.080000e-06	-3.312685e-06	-1.100080e-09	-2.304008e+01	-7.423089e+01
1.090000e-06	-3.275120e-06	-1.094308e-09	-2.277881e+01	-7.394772e+01
1.100000e-06	-3.237310e-06	-1.085492e-09	-2.251584e+01	-7.365997e+01
1.110000e-06	-3.199218e-06	-1.077978e-09	-2.225090e+01	-7.336773e+01
1.120000e-06	-3.160903e-06	-1.073708e-09	-2.198442e+01	-7.307115e+01
1.130000e-06	-3.122378e-06	-1.067263e-09	-2.171647e+01	-7.277042e+01
1.140000e-06	-3.083657e-06	-1.062039e-09	-2.144716e+01	-7.246574e+01
1.150000e-06	-3.044753e-06	-1.060967e-09	-2.117658e+01	-7.215734e+01
1.160000e-06	-3.005638e-06	-1.058462e-09	-2.090453e+01	-7.184543e+01
1.170000e-06	-2.966333e-06	-1.051464e-09	-2.063116e+01	-7.153026e+01
1.180000e-06	-2.926877e-06	-1.045726e-09	-2.035675e+01	-7.121204e+01
1.190000e-06	-2.887274e-06	-1.040302e-09	-2.008130e+01	-7.089094e+01
1.200000e-06	-2.847547e-06	-1.031910e-09	-1.980499e+01	-7.056712e+01
1.210000e-06	-2.807710e-06	-1.023395e-09	-1.952792e+01	-7.024070e+01
1.220000e-06	-2.767724e-06	-1.016593e-09	-1.924982e+01	-6.991171e+01
1.230000e-06	-2.727583e-06	-1.009031e-09	-1.897064e+01	-6.958014e+01
1.240000e-06	-2.687306e-06	-1.001968e-09	-1.869050e+01	-6.924592e+01
1.250000e-06	-2.646902e-06	-9.970127e-10	-1.840949e+01	-6.890890e+01
1.260000e-06	-2.606248e-06	-9.934165e-10	-1.812674e+01	-6.856882e+01
1.270000e-06	-2.565253e-06	-9.868265e-10	-1.784161e+01	-6.822540e+01
1.280000e-06	-2.523935e-06	-9.773554e-10	-1.755424e+01	-6.787822e+01
1.290000e-06	-2.482306e-06	-9.693742e-10	-1.726471e+01	-6.752684e+01
1.300000e-06	-2.440356e-06	-9.595759e-10	-1.697294e+01	-6.717070e+01
1.310000e-06	-2.398107e-06	-9.479465e-10	-1.667909e+01	-6.680922e+01
1.320000e-06	-2.355581e-06	-9.388986e-10	-1.638332e+01	-6.644172e+01
1.330000e-06	-2.312720e-06	-9.336187e-10	-1.608521e+01	-6.606750e+01
1.340000e-06	-2.269628e-06	-9.304369e-10	-1.578551e+01	-6.568582e+01
1.350000e-06	-2.226373e-06	-9.296751e-10	-1.548466e+01	-6.529591e+01
1.360000e-06	-2.182975e-06	-9.272734e-10	-1.518283e+01	-6.489698e+01
1.370000e-06	-2.139463e-06	-9.191941e-10	-1.488020e+01	-6.448825e+01
1.380000e-06	-2.095840e-06	-9.065447e-10	-1.457679e+01	-6.406898e+01
1.390000e-06	-2.052134e-06	-8.945929e-10	-1.427281e+01	-6.363841e+01
1.400000e-06	-2.008370e-06	-8.840471e-10	-1.396843e+01	-6.319585e+01
1.410000e-06	-1.964586e-06	-8.744617e-10	-1.366390e+01	-6.274067e+01
1.420000e-06	-1.920711e-06	-8.647919e-10	-1.335875e+01	-6.227229e+01
1.430000e-06	-1.876687e-06	-8.564749e-10	-1.305256e+01	-6.179020e+01
1.440000e-06	-1.832568e-06	-8.491810e-10	-1.274571e+01	-6.129398e+01
1.450000e-06	-1.788320e-06	-8.417799e-10	-1.243796e+01	-6.078331e+01
1.460000e-06	-1.743979e-06	-8.347917e-10	-1.212956e+01	-6.025794e+01
1.470000e-06	-1.699496e-06	-8.266606e-10	-1.182018e+01	-5.971770e+01
1.480000e-06	-1.654835e-06	-8.155095e-10	-1.150955e+01	-5.916255e+01
1.490000e-06	-1.610077e-06	-8.030356e-10	-1.119826e+01	-5.859251e+01
1.500000e-06	-1.565209e-06	-7.895146e-10	-1.088620e+01	-5.800768e+01
1.510000e-06	-1.520217e-06	-7.767829e-10	-1.057327e+01	-5.740822e+01
1.520000e-06	-1.475070e-06	-7.674873e-10	-1.025927e+01	-5.679439e+01
1.530000e-06	-1.429789e-06	-7.589990e-10	-9.944339e+00	-5.616646e+01
1.540000e-06	-1.384432e-06	-7.508431e-10	-9.628872e+00	-5.552473e+01
1.550000e-06	-1.339009e-06	-7.422664e-10	-9.312951e+00	-5.486955e+01
1.560000e-06	-1.293546e-06	-7.304311e-10	-8.996752e+00	-5.420124e+01
1.570000e-06	-1.247983e-06	-7.160046e-10	-8.679855e+00	-5.352011e+01
1.580000e-06	-1.202292e-06	-7.013367e-10	-8.362067e+00	-5.282641e+01
1.590000e-06	-1.156601e-06	-6.867511e-10	-8.044286e+00	-5.212038e+01
1.600000e-06	-1.110816e-06	-6.730082e-10	-7.725847e+00	-5.140213e+01
1.610000e-06	-1.064862e-06	-6.618127e-10	-7.406230e+00	-5.067170e+01
1.620000e-06	-1.018877e-06	-6.524274e-10	-7.086401e+00	-4.992903e+01
1.630000e-06	-9.728729e-07	-6.437549e-10	-6.766436e+00	-4.917393e+01
1.640000e-06	-9.267398e-07	-6.352322e-10	-6.445575e+00	-4.840606e+01
1.650000e-06	-8.804854e-07	-6.250650e-10	-6.123870e+00	-4.762494e+01
1.660000e-06	-8.342152e-07	-6.134696e-10	-5.802056e+00	-4.682994e+01
1.670000e-06	-7.878711e-07	-6.002513e-10	-5.479728e+00	-4.602027e+01
1.680000e-06	-7.414611e-07	-5.867104e-10	-5.156942e+00	-4.519498e+01
1.690000e-06	-6.950138e-07	-5.733547e-10	-4.833895e+00	-4.435296e+01
1.700000e-06	-6.484460e-07	-5.586301e-10	-4.510012e+00	-4.349295e+01
1.710000e-06	-6.019020e-07	-5.415825e-10	-4.186293e+00	-4.261355e+01
1.720000e-06	-5.554351e-07	-5.248237e-10	-3.863111e+00	-4.171322e+01
1.730000e-06	-5.089293e-07	-5.105522e-10	-3.539658e+00	-4.079032e+01
1.740000e-06	-4.623727e-07	-4.979146e-10	-3.215852e+00	-3.984310e+01
1.750000e-06	-4.157262e-07	-4.852495e-10	-2.891421e+00	-3.886974e+01
1.760000e-06	-3.689949e-07	-4.711969e-10	-2.566399e+00	-3.786837e+01
1.770000e-06	-3.222206e-07	-4.545498e-10	-2.241079e+00	-3.683709e+01
1.780000e-06	-2.754046e-07	-4.355743e-10	-1.915469e+00	-3.577400e+01
1.790000e-06	-2.286108e-07	-4.168046e-10	-1.590013e+00	-3.467723e+01
1.800000e-06	-1.818451e-07	-3.997881e-10	-1.264752e+00	-3.354498e+01
1.810000e-06	-1.349626e-07	-3.833883e-10	-9.386791e-01	-3.237552e+01
1.820000e-06	-8.805366e-08	-3.677346e-10	-6.124227e-01	-3.116725e+01
1.830000e-06	-4.123479e-08	-3.533003e-10	-2.867924e-01	-2.991871e+01
1.840000e-06	5.559943e-09	-3.376677e-10	3.867000e-02	-2.862861e+01
1.850000e-06	5.230494e-08	-3.203601e-10	3.637864e-01	-2.729588e+01
1.860000e-06	9.902218e-08	-3.034715e-10	6.887099e-01	-2.591963e+01
1.870000e-06	1.457913e-07	-2.863122e-10	1.013994e+00	-2.449926e+01
1.880000e-06	1.925382e-07	-2.665661e-10	1.339124e+00	-2.303438e+01
1.890000e-06	2.392602e-07	-2.436551e-10	1.664081e+00	-2.152492e+01
1.900000e-06	2.860013e-07	-2.200890e-10	1.989170e+00	-1.997106e+01
1.910000e-06	3.326949e-07	-1.955886e-10	2.313929e+00	-1.837328e+01
1.920000e-06	3.793506e-07	-1.718198e-10	2.638424e+00	-1.673238e+01
1.930000e-06	4.260423e-07	-1.487058e-10	2.963170e+00	-1.504941e+01
1.940000e-06	4.727588e-07	-1.285340e-10	3.288088e+00	-1.332575e+01
1.950000e-06	5.193755e-07	-1.094771e-10	3.612312e+00	-1.156303e+01
1.960000e-06	5.658762e-07	-8.783398e-11	3.935730e+00	-9.763182e+00
1.970000e-06	6.123025e-07	-6.354989e-11	4.258630e+00	-7.928365e+00
1.980000e-06	6.586529e-07	-3.553666e-11	4.581002e+00	-6.060987e+00
1.990000e-06	7.049269e-07	-6.937384e-12	4.902842e+00	-4.163670e+00
2.000000e-06	7.511395e-07	2.229869e-11	5.224256e+00	-2.239228e+00
2.010000e-06	7.972996e-07	5.085331e-11	5.545304e+00	-2.906394e-01
2.020000e-06	8.434386e-07	7.930259e-11	5.866206e+00	1.678978e+00
2.030000e-06	8.896370e-07	1.075178e-10	6.187521e+00	3.666397e+00
2.040000e-06	9.357970e-07	1.349471e-10	6.508569e+00	5.668308e+00
2.050000e-06	9.818064e-07	1.603205e-10	6.828569e+00	7.681352e+00
2.060000e-06	1.027720e-06	1.860607e-10	7.147906e+00	9.702148e+00
2.070000e-06	1.073560e-06	2.139141e-10	7.466722e+00	1.172732e+01
2.080000e-06	1.119361e-06	2.428554e-10	7.785277e+00	1.375353e+01
2.090000e-06	1.165093e-06	2.716431e-10	8.103348e+00	1.577750e+01
2.100000e-06	1.210710e-06	3.020556e-10	8.420618e+00	1.779604e+01
2.110000e-06	1.256253e-06	3.319094e-10	8.737373e+00	1.980606e+01
2.120000e-06	1.301770e-06	3.607168e-10	9.053952e+00	2.180461e+01
2.130000e-06	1.347218e-06	3.877735e-10	9.370048e+00	2.378888e+01
2.140000e-06	1.392598e-06	4.127379e-10	9.685670e+00	2.575623e+01
2.150000e-06	1.437850e-06	4.352623e-10	1.000040e+01	2.770418e+01
2.160000e-06	1.482919e-06	4.573579e-10	1.031386e+01	2.963045e+01
2.170000e-06	1.527941e-06	4.804002e-10	1.062699e+01	3.153294e+01
2.180000e-06	1.572847e-06	5.068103e-10	1.093932e+01	3.340974e+01
2.190000e-06	1.617577e-06	5.365268e-10	1.125042e+01	3.525914e+01
2.200000e-06	1.662232e-06	5.651718e-10	1.156100e+01	3.707963e+01
2.210000e-06	1.706763e-06	5.920841e-10	1.187072e+01	3.886990e+01
2.220000e-06	1.751134e-06	6.158469e-10	1.217932e+01	4.062878e+01
2.230000e-06	1.795371e-06	6.366692e-10	1.248700e+01	4.235534e+01
2.240000e-06	1.839497e-06	6.537673e-10	1.279390e+01	4.404875e+01
2.250000e-06	1.883547e-06	6.695401e-10	1.310028e+01	4.570840e+01
2.260000e-06	1.927457e-06	6.869491e-10	1.340567e+01	4.733378e+01
2.270000e-06	1.971224e-06	7.082327e-10	1.371008e+01	4.892453e+01
2.280000e-06	2.014916e-06	7.307719e-10	1.401396e+01	5.048042e+01
2.290000e-06	2.058613e-06	7.540510e-10	1.431787e+01	5.200129e+01
2.300000e-06	2.102298e-06	7.780811e-10	1.462171e+01	5.348712e+01
2.310000e-06	2.145863e-06	7.995538e-10	1.492471e+01	5.493793e+01
2.320000e-06	2.189321e-06	8.166503e-10	1.522696e+01	5.635384e+01
2.330000e-06	2.232658e-06	8.321745e-10	1.552837e+01	5.773501e+01
2.340000e-06	2.275894e-06	8.469981e-10	1.582908e+01	5.908165e+01
2.350000e-06	2.319008e-06	8.638718e-10	1.612895e+01	6.039401e+01
2.360000e-06	2.361841e-06	8.830468e-10	1.642686e+01	6.167237e+01
2.370000e-06	2.404343e-06	9.023872e-10	1.672246e+01	6.291702e+01
2.380000e-06	2.446552e-06	9.216906e-10	1.701603e+01	6.412828e+01
2.390000e-06	2.488517e-06	9.373985e-10	1.730790e+01	6.530649e+01
2.400000e-06	2.530183e-06	9.509197e-10	1.759769e+01	6.645197e+01
2.410000e-06	2.571463e-06	9.655393e-10	1.788480e+01	6.756508e+01
2.420000e-06	2.612446e-06	9.803706e-10	1.816984e+01	6.864615e+01
2.430000e-06	2.653118e-06	9.960511e-10	1.845272e+01	6.969556e+01
2.440000e-06	2.693455e-06	1.012641e-09	1.873327e+01	7.071365e+01
2.450000e-06	2.733621e-06	1.028538e-09	1.901263e+01	7.170080e+01
2.460000e-06	2.773648e-06	1.040820e-09	1.929102e+01	7.265739e+01
2.470000e-06	2.813461e-06	1.049950e-09	1.956793e+01	7.358381e+01
2.480000e-06	2.853170e-06	1.057422e-09	1.984410e+01	7.448046e+01
2.490000e-06	2.892850e-06	1.067180e-09	2.012008e+01	7.534778e+01
2.500000e-06	2.932392e-06	1.080410e-09	2.039510e+01	7.618620e+01
2.510000e-06	2.971766e-06	1.096985e-09	2.066895e+01	7.699619e+01
2.520000e-06	3.010943e-06	1.112182e-09	2.094143e+01	7.777825e+01
2.530000e-06	3.049883e-06	1.125553e-09	2.121227e+01	7.853290e+01
2.540000e-06	3.088600e-06	1.138849e-09	2.148155e+01	7.926069e+01
2.550000e-06	3.127104e-06	1.145012e-09	2.174934e+01	7.996219e+01
2.560000e-06	3.165370e-06	1.147403e-09	2.201549e+01	8.063802e+01
2.570000e-06	3.203405e-06	1.150556e-09	2.228003e+01	8.128881e+01
2.580000e-06	3.241273e-06	1.155068e-09	2.254340e+01	8.191522e+01
2.590000e-06	3.278933e-06	1.163337e-09	2.280533e+01	8.251795e+01
2.600000e-06	3.316375e-06	1.177499e-09	2.306574e+01	8.309772e+01
2.610000e-06	3.353583e-06	1.196047e-09	2.332453e+01	8.365525e+01
2.620000e-06	3.390508e-06	1.212198e-09	2.358135e+01	8.419129e+01
2.630000e-06	3.427220e-06	1.223142e-09	2.383668e+01	8.470662e+01
2.640000e-06	3.463731e-06	1.225907e-09	2.409062e+01	8.520200e+01
2.650000e-06	3.499994e-06	1.225426e-09	2.434283e+01	8.567821e+01
2.660000e-06	3.536006e-06	1.223956e-09	2.459330e+01	8.613602e+01
2.670000e-06	3.571838e-06	1.223675e-09	2.484251e+01	8.657620e+01
2.680000e-06	3.607592e-06	1.228340e-09	2.509119e+01	8.699951e+01
2.690000e-06	3.643232e-06	1.241668e-09	2.533907e+01	8.740668e+01
2.700000e-06	3.678688e-06	1.257830e-09	2.558567e+01	8.779843e+01
2.710000e-06	3.713917e-06	1.268449e-09	2.583069e+01	8.817546e+01
2.720000e-06	3.748911e-06	1.273616e-09	2.607408e+01	8.853842e+01
2.730000e-06	3.783608e-06	1.271184e-09	2.631540e+01	8.888795e+01
2.740000e-06	3.817804e-06	1.266322e-09	2.655324e+01	8.922464e+01
2.750000e-06	3.851545e-06	1.263003e-09	2.678791e+01	8.954904e+01
2.760000e-06	3.884903e-06	1.266574e-09	2.701991e+01	8.986166e+01
2.770000e-06	3.917775e-06	1.276365e-09	2.724855e+01	9.016297e+01
2.780000e-06	3.950240e-06	1.287048e-09	2.747434e+01	9.045339e+01
2.790000e-06	3.982380e-06	1.297239e-09	2.769788e+01	9.073332e+01
2.800000e-06	4.014323e-06	1.303090e-09	2.792005e+01	9.100308e+01
2.810000e-06	4.046142e-06	1.302846e-09	2.814135e+01	9.126299e+01
2.820000e-06	4.077740e-06	1.302057e-09	2.836112e+01	9.151328e+01
2.830000e-06	4.109088e-06	1.302127e-09	2.857915e+01	9.175419e+01
2.840000e-06	4.140160e-06	1.303978e-09	2.879526e+01	9.198590e+01
2.850000e-06	4.170990e-06	1.307163e-09	2.900969e+01	9.220856e+01
2.860000e-06	4.201551e-06	1.314145e-09	2.922224e+01	9.242229e+01
2.870000e-06	4.231765e-06	1.320198e-09	2.943238e+01	9.262719e+01
2.880000e-06	4.261695e-06	1.322548e-09	2.964055e+01	9.282335e+01
2.890000e-06	4.291379e-06	1.323542e-09	2.984700e+01	9.301081e+01
2.900000e-06	4.320770e-06	1.325009e-09	3.005142e+01	9.318963e+01
