# Temperatura_=_12.46
# Concentracion g/m^3_=_1620.0
# C_Vs_to_Am_M_A/Vsm_=_65563218390.804596
# pendiente_HvsI_1/m_=_3716.3
# ordenada_HvsI_A/m_=_1297.0
# frecuencia_Hz_=_135106.77238569126

Tiempo_(s)	Campo_(V.s)	Magnetizacion_(V.s)	Campo_(kA/m)	Magnetizacion_(A/m)
0.000000e+00	-5.539533e-06	-1.804712e-09	-3.836841e+01	-1.157952e+02
1.000000e-08	-5.539686e-06	-1.805764e-09	-3.836947e+01	-1.157573e+02
2.000000e-08	-5.539661e-06	-1.807422e-09	-3.836930e+01	-1.157180e+02
3.000000e-08	-5.539253e-06	-1.806714e-09	-3.836647e+01	-1.156773e+02
4.000000e-08	-5.538369e-06	-1.802758e-09	-3.836035e+01	-1.156347e+02
5.000000e-08	-5.536907e-06	-1.794053e-09	-3.835023e+01	-1.155902e+02
6.000000e-08	-5.534748e-06	-1.774454e-09	-3.833527e+01	-1.155435e+02
7.000000e-08	-5.531990e-06	-1.766472e-09	-3.831617e+01	-1.154943e+02
8.000000e-08	-5.528730e-06	-1.810995e-09	-3.829359e+01	-1.154424e+02
9.000000e-08	-5.524972e-06	-1.887024e-09	-3.826756e+01	-1.153876e+02
1.000000e-07	-5.520752e-06	-1.889916e-09	-3.823833e+01	-1.153295e+02
1.100000e-07	-5.516257e-06	-1.796273e-09	-3.820720e+01	-1.152680e+02
1.200000e-07	-5.511653e-06	-1.709091e-09	-3.817530e+01	-1.152028e+02
1.300000e-07	-5.506842e-06	-1.759866e-09	-3.814198e+01	-1.151337e+02
1.400000e-07	-5.501573e-06	-1.819829e-09	-3.810549e+01	-1.150605e+02
1.500000e-07	-5.495862e-06	-1.802883e-09	-3.806593e+01	-1.149829e+02
1.600000e-07	-5.489848e-06	-1.760983e-09	-3.802428e+01	-1.149007e+02
1.700000e-07	-5.483387e-06	-1.785677e-09	-3.797953e+01	-1.148138e+02
1.800000e-07	-5.476400e-06	-1.827274e-09	-3.793114e+01	-1.147220e+02
1.900000e-07	-5.469010e-06	-1.787690e-09	-3.787995e+01	-1.146251e+02
2.000000e-07	-5.461378e-06	-1.722950e-09	-3.782709e+01	-1.145229e+02
2.100000e-07	-5.453527e-06	-1.733516e-09	-3.777271e+01	-1.144153e+02
2.200000e-07	-5.445345e-06	-1.799567e-09	-3.771604e+01	-1.143022e+02
2.300000e-07	-5.436906e-06	-1.820293e-09	-3.765759e+01	-1.141834e+02
2.400000e-07	-5.428137e-06	-1.781868e-09	-3.759685e+01	-1.140588e+02
2.500000e-07	-5.418688e-06	-1.749762e-09	-3.753140e+01	-1.139284e+02
2.600000e-07	-5.408367e-06	-1.757409e-09	-3.745992e+01	-1.137920e+02
2.700000e-07	-5.397409e-06	-1.752108e-09	-3.738402e+01	-1.136495e+02
2.800000e-07	-5.386087e-06	-1.744104e-09	-3.730560e+01	-1.135010e+02
2.900000e-07	-5.374361e-06	-1.749531e-09	-3.722438e+01	-1.133464e+02
3.000000e-07	-5.362238e-06	-1.767193e-09	-3.714041e+01	-1.131855e+02
3.100000e-07	-5.349738e-06	-1.748772e-09	-3.705384e+01	-1.130185e+02
3.200000e-07	-5.336850e-06	-1.727604e-09	-3.696457e+01	-1.128453e+02
3.300000e-07	-5.323577e-06	-1.723358e-09	-3.687264e+01	-1.126660e+02
3.400000e-07	-5.310023e-06	-1.730835e-09	-3.677876e+01	-1.124805e+02
3.500000e-07	-5.296071e-06	-1.715863e-09	-3.668213e+01	-1.122889e+02
3.600000e-07	-5.281575e-06	-1.714669e-09	-3.658172e+01	-1.120914e+02
3.700000e-07	-5.266662e-06	-1.725548e-09	-3.647843e+01	-1.118879e+02
3.800000e-07	-5.251265e-06	-1.723883e-09	-3.637179e+01	-1.116787e+02
3.900000e-07	-5.235196e-06	-1.702899e-09	-3.626048e+01	-1.114638e+02
4.000000e-07	-5.218598e-06	-1.706748e-09	-3.614553e+01	-1.112435e+02
4.100000e-07	-5.201742e-06	-1.719645e-09	-3.602877e+01	-1.110178e+02
4.200000e-07	-5.184581e-06	-1.702128e-09	-3.590991e+01	-1.107871e+02
4.300000e-07	-5.167103e-06	-1.687948e-09	-3.578885e+01	-1.105515e+02
4.400000e-07	-5.149386e-06	-1.708925e-09	-3.566614e+01	-1.103113e+02
4.500000e-07	-5.131290e-06	-1.715495e-09	-3.554080e+01	-1.100667e+02
4.600000e-07	-5.112623e-06	-1.679447e-09	-3.541151e+01	-1.098181e+02
4.700000e-07	-5.093569e-06	-1.670552e-09	-3.527954e+01	-1.095657e+02
4.800000e-07	-5.074249e-06	-1.694057e-09	-3.514572e+01	-1.093099e+02
4.900000e-07	-5.054628e-06	-1.688720e-09	-3.500982e+01	-1.090510e+02
5.000000e-07	-5.034813e-06	-1.663129e-09	-3.487257e+01	-1.087893e+02
5.100000e-07	-5.014825e-06	-1.668635e-09	-3.473413e+01	-1.085252e+02
5.200000e-07	-4.994563e-06	-1.666796e-09	-3.459379e+01	-1.082590e+02
5.300000e-07	-4.973896e-06	-1.652118e-09	-3.445064e+01	-1.079910e+02
5.400000e-07	-4.952794e-06	-1.659946e-09	-3.430449e+01	-1.077216e+02
5.500000e-07	-4.931346e-06	-1.668666e-09	-3.415593e+01	-1.074512e+02
5.600000e-07	-4.909609e-06	-1.643886e-09	-3.400537e+01	-1.071800e+02
5.700000e-07	-4.887635e-06	-1.636194e-09	-3.385318e+01	-1.069083e+02
5.800000e-07	-4.865299e-06	-1.651202e-09	-3.369847e+01	-1.066365e+02
5.900000e-07	-4.842497e-06	-1.643143e-09	-3.354054e+01	-1.063647e+02
6.000000e-07	-4.819364e-06	-1.624635e-09	-3.338031e+01	-1.060932e+02
6.100000e-07	-4.795980e-06	-1.628778e-09	-3.321835e+01	-1.058222e+02
6.200000e-07	-4.772364e-06	-1.623514e-09	-3.305478e+01	-1.055518e+02
6.300000e-07	-4.748509e-06	-1.608598e-09	-3.288955e+01	-1.052822e+02
6.400000e-07	-4.724380e-06	-1.609455e-09	-3.272243e+01	-1.050133e+02
6.500000e-07	-4.699855e-06	-1.610575e-09	-3.255256e+01	-1.047454e+02
6.600000e-07	-4.674839e-06	-1.598767e-09	-3.237929e+01	-1.044782e+02
6.700000e-07	-4.649276e-06	-1.596441e-09	-3.220223e+01	-1.042119e+02
6.800000e-07	-4.623177e-06	-1.593385e-09	-3.202147e+01	-1.039462e+02
6.900000e-07	-4.596542e-06	-1.581295e-09	-3.183698e+01	-1.036810e+02
7.000000e-07	-4.569353e-06	-1.578596e-09	-3.164866e+01	-1.034161e+02
7.100000e-07	-4.541834e-06	-1.579117e-09	-3.145806e+01	-1.031513e+02
7.200000e-07	-4.514231e-06	-1.574022e-09	-3.126687e+01	-1.028862e+02
7.300000e-07	-4.486509e-06	-1.576321e-09	-3.107486e+01	-1.026206e+02
7.400000e-07	-4.458569e-06	-1.577073e-09	-3.088134e+01	-1.023540e+02
7.500000e-07	-4.430374e-06	-1.563289e-09	-3.068605e+01	-1.020862e+02
7.600000e-07	-4.401860e-06	-1.554129e-09	-3.048856e+01	-1.018165e+02
7.700000e-07	-4.372962e-06	-1.549969e-09	-3.028840e+01	-1.015446e+02
7.800000e-07	-4.343739e-06	-1.537912e-09	-3.008600e+01	-1.012700e+02
7.900000e-07	-4.314264e-06	-1.533342e-09	-2.988185e+01	-1.009922e+02
8.000000e-07	-4.284584e-06	-1.540182e-09	-2.967627e+01	-1.007106e+02
8.100000e-07	-4.254687e-06	-1.533731e-09	-2.946919e+01	-1.004249e+02
8.200000e-07	-4.224400e-06	-1.521702e-09	-2.925942e+01	-1.001344e+02
8.300000e-07	-4.193755e-06	-1.520011e-09	-2.904717e+01	-9.983859e+01
8.400000e-07	-4.162853e-06	-1.516810e-09	-2.883313e+01	-9.953707e+01
8.500000e-07	-4.131673e-06	-1.507248e-09	-2.861716e+01	-9.922934e+01
8.600000e-07	-4.100206e-06	-1.505084e-09	-2.839922e+01	-9.891493e+01
8.700000e-07	-4.068543e-06	-1.501546e-09	-2.817991e+01	-9.859344e+01
8.800000e-07	-4.036770e-06	-1.491275e-09	-2.795984e+01	-9.826448e+01
8.900000e-07	-4.004858e-06	-1.481619e-09	-2.773880e+01	-9.792770e+01
9.000000e-07	-3.972666e-06	-1.476761e-09	-2.751584e+01	-9.758280e+01
9.100000e-07	-3.940028e-06	-1.466003e-09	-2.728978e+01	-9.722954e+01
9.200000e-07	-3.907018e-06	-1.454664e-09	-2.706114e+01	-9.686770e+01
9.300000e-07	-3.873661e-06	-1.452803e-09	-2.683010e+01	-9.649716e+01
9.400000e-07	-3.839831e-06	-1.450412e-09	-2.659578e+01	-9.611780e+01
9.500000e-07	-3.805496e-06	-1.439240e-09	-2.635797e+01	-9.572961e+01
9.600000e-07	-3.770811e-06	-1.428020e-09	-2.611773e+01	-9.533260e+01
9.700000e-07	-3.735794e-06	-1.417979e-09	-2.587519e+01	-9.492685e+01
9.800000e-07	-3.700422e-06	-1.407080e-09	-2.563019e+01	-9.451249e+01
9.900000e-07	-3.664850e-06	-1.398898e-09	-2.538381e+01	-9.408971e+01
1.000000e-06	-3.629117e-06	-1.396526e-09	-2.513632e+01	-9.365874e+01
1.010000e-06	-3.593238e-06	-1.391448e-09	-2.488781e+01	-9.321987e+01
1.020000e-06	-3.557226e-06	-1.383192e-09	-2.463838e+01	-9.277342e+01
1.030000e-06	-3.520953e-06	-1.375762e-09	-2.438714e+01	-9.231975e+01
1.040000e-06	-3.484424e-06	-1.366665e-09	-2.413413e+01	-9.185924e+01
1.050000e-06	-3.447762e-06	-1.357462e-09	-2.388020e+01	-9.139232e+01
1.060000e-06	-3.410875e-06	-1.348650e-09	-2.362471e+01	-9.091940e+01
1.070000e-06	-3.373671e-06	-1.339599e-09	-2.336702e+01	-9.044094e+01
1.080000e-06	-3.336179e-06	-1.331314e-09	-2.310734e+01	-8.995737e+01
1.090000e-06	-3.298461e-06	-1.324839e-09	-2.284610e+01	-8.946913e+01
1.100000e-06	-3.260567e-06	-1.317944e-09	-2.258363e+01	-8.897663e+01
1.110000e-06	-3.222435e-06	-1.307692e-09	-2.231952e+01	-8.848029e+01
1.120000e-06	-3.184041e-06	-1.294858e-09	-2.205359e+01	-8.798047e+01
1.130000e-06	-3.145390e-06	-1.283383e-09	-2.178588e+01	-8.747751e+01
1.140000e-06	-3.106505e-06	-1.273673e-09	-2.151655e+01	-8.697170e+01
1.150000e-06	-3.067507e-06	-1.267392e-09	-2.124644e+01	-8.646328e+01
1.160000e-06	-3.028329e-06	-1.260676e-09	-2.097509e+01	-8.595245e+01
1.170000e-06	-2.988978e-06	-1.253067e-09	-2.070253e+01	-8.543932e+01
1.180000e-06	-2.949495e-06	-1.245153e-09	-2.042906e+01	-8.492397e+01
1.190000e-06	-2.909814e-06	-1.238328e-09	-2.015422e+01	-8.440638e+01
1.200000e-06	-2.870002e-06	-1.229321e-09	-1.987846e+01	-8.388649e+01
1.210000e-06	-2.830054e-06	-1.219404e-09	-1.960177e+01	-8.336416e+01
1.220000e-06	-2.789960e-06	-1.211326e-09	-1.932407e+01	-8.283916e+01
1.230000e-06	-2.749735e-06	-1.203309e-09	-1.904546e+01	-8.231123e+01
1.240000e-06	-2.709281e-06	-1.193081e-09	-1.876527e+01	-8.178002e+01
1.250000e-06	-2.668601e-06	-1.182217e-09	-1.848350e+01	-8.124512e+01
1.260000e-06	-2.627734e-06	-1.170981e-09	-1.820045e+01	-8.070607e+01
1.270000e-06	-2.586533e-06	-1.158919e-09	-1.791508e+01	-8.016234e+01
1.280000e-06	-2.544919e-06	-1.146984e-09	-1.762685e+01	-7.961339e+01
1.290000e-06	-2.502954e-06	-1.137305e-09	-1.733619e+01	-7.905860e+01
1.300000e-06	-2.460733e-06	-1.129899e-09	-1.704375e+01	-7.849736e+01
1.310000e-06	-2.418187e-06	-1.122409e-09	-1.674907e+01	-7.792901e+01
1.320000e-06	-2.375350e-06	-1.112146e-09	-1.645236e+01	-7.735291e+01
1.330000e-06	-2.332356e-06	-1.098794e-09	-1.615457e+01	-7.676838e+01
1.340000e-06	-2.289186e-06	-1.086276e-09	-1.585557e+01	-7.617478e+01
1.350000e-06	-2.245867e-06	-1.076491e-09	-1.555552e+01	-7.557148e+01
1.360000e-06	-2.202377e-06	-1.069067e-09	-1.525430e+01	-7.495785e+01
1.370000e-06	-2.158732e-06	-1.062318e-09	-1.495200e+01	-7.433334e+01
1.380000e-06	-2.114992e-06	-1.052776e-09	-1.464905e+01	-7.369740e+01
1.390000e-06	-2.071171e-06	-1.037623e-09	-1.434553e+01	-7.304955e+01
1.400000e-06	-2.027281e-06	-1.020539e-09	-1.404154e+01	-7.238937e+01
1.410000e-06	-1.983302e-06	-1.006025e-09	-1.373693e+01	-7.171647e+01
1.420000e-06	-1.939253e-06	-9.934518e-10	-1.343183e+01	-7.103056e+01
1.430000e-06	-1.895111e-06	-9.822763e-10	-1.312609e+01	-7.033138e+01
1.440000e-06	-1.850857e-06	-9.743298e-10	-1.281957e+01	-6.961876e+01
1.450000e-06	-1.806501e-06	-9.654884e-10	-1.251235e+01	-6.889256e+01
1.460000e-06	-1.761999e-06	-9.517483e-10	-1.220412e+01	-6.815272e+01
1.470000e-06	-1.717363e-06	-9.335777e-10	-1.189495e+01	-6.739924e+01
1.480000e-06	-1.672568e-06	-9.159103e-10	-1.158469e+01	-6.663214e+01
1.490000e-06	-1.627620e-06	-9.018716e-10	-1.127337e+01	-6.585150e+01
1.500000e-06	-1.582581e-06	-8.870742e-10	-1.096142e+01	-6.505741e+01
1.510000e-06	-1.537414e-06	-8.728675e-10	-1.064858e+01	-6.425000e+01
1.520000e-06	-1.492079e-06	-8.621882e-10	-1.033457e+01	-6.342937e+01
1.530000e-06	-1.446607e-06	-8.511277e-10	-1.001962e+01	-6.259566e+01
1.540000e-06	-1.401065e-06	-8.378019e-10	-9.704186e+00	-6.174894e+01
1.550000e-06	-1.355483e-06	-8.219954e-10	-9.388469e+00	-6.088927e+01
1.560000e-06	-1.309779e-06	-8.064041e-10	-9.071912e+00	-6.001665e+01
1.570000e-06	-1.263987e-06	-7.898859e-10	-8.754739e+00	-5.913103e+01
1.580000e-06	-1.218186e-06	-7.753619e-10	-8.437510e+00	-5.823227e+01
1.590000e-06	-1.172301e-06	-7.607288e-10	-8.119694e+00	-5.732014e+01
1.600000e-06	-1.126312e-06	-7.424630e-10	-7.801162e+00	-5.639430e+01
1.610000e-06	-1.080247e-06	-7.251473e-10	-7.482105e+00	-5.545431e+01
1.620000e-06	-1.034077e-06	-7.109928e-10	-7.162320e+00	-5.449961e+01
1.630000e-06	-9.878449e-07	-6.986994e-10	-6.842100e+00	-5.352949e+01
1.640000e-06	-9.415947e-07	-6.854964e-10	-6.521758e+00	-5.254313e+01
1.650000e-06	-8.952776e-07	-6.719395e-10	-6.200952e+00	-5.153956e+01
1.660000e-06	-8.488334e-07	-6.572928e-10	-5.879266e+00	-5.051767e+01
1.670000e-06	-8.023345e-07	-6.397149e-10	-5.557201e+00	-4.947624e+01
1.680000e-06	-7.558103e-07	-6.206208e-10	-5.234962e+00	-4.841388e+01
1.690000e-06	-7.092139e-07	-6.035353e-10	-4.912221e+00	-4.732912e+01
1.700000e-06	-6.625661e-07	-5.849459e-10	-4.589125e+00	-4.622037e+01
1.710000e-06	-6.158658e-07	-5.644262e-10	-4.265665e+00	-4.508593e+01
1.720000e-06	-5.691459e-07	-5.449654e-10	-3.942070e+00	-4.392404e+01
1.730000e-06	-5.224353e-07	-5.262227e-10	-3.618538e+00	-4.273287e+01
1.740000e-06	-4.756533e-07	-5.083669e-10	-3.294513e+00	-4.151055e+01
1.750000e-06	-4.288354e-07	-4.911779e-10	-2.970238e+00	-4.025520e+01
1.760000e-06	-3.819951e-07	-4.720225e-10	-2.645809e+00	-3.896495e+01
1.770000e-06	-3.350944e-07	-4.507578e-10	-2.320961e+00	-3.763796e+01
1.780000e-06	-2.881694e-07	-4.289805e-10	-1.995945e+00	-3.627244e+01
1.790000e-06	-2.412586e-07	-4.085055e-10	-1.671027e+00	-3.486673e+01
1.800000e-06	-1.943145e-07	-3.892589e-10	-1.345878e+00	-3.341923e+01
1.810000e-06	-1.472320e-07	-3.696178e-10	-1.019771e+00	-3.192854e+01
1.820000e-06	-1.001619e-07	-3.495090e-10	-6.937502e-01	-3.039338e+01
1.830000e-06	-5.317163e-08	-3.277629e-10	-3.682821e-01	-2.881272e+01
1.840000e-06	-6.150735e-09	-3.030336e-10	-4.260177e-02	-2.718571e+01
1.850000e-06	4.089377e-08	-2.781329e-10	2.832421e-01	-2.551175e+01
1.860000e-06	8.789962e-08	-2.563737e-10	6.088183e-01	-2.379053e+01
1.870000e-06	1.349170e-07	-2.339211e-10	9.344743e-01	-2.202198e+01
1.880000e-06	1.819649e-07	-2.098614e-10	1.260342e+00	-2.020636e+01
1.890000e-06	2.289519e-07	-1.848363e-10	1.585787e+00	-1.834420e+01
1.900000e-06	2.759298e-07	-1.577012e-10	1.911170e+00	-1.643637e+01
1.910000e-06	3.228684e-07	-1.287838e-10	2.236280e+00	-1.448404e+01
1.920000e-06	3.697065e-07	-1.000009e-10	2.560695e+00	-1.248869e+01
1.930000e-06	4.164638e-07	-7.123090e-11	2.884549e+00	-1.045212e+01
1.940000e-06	4.631874e-07	-4.263046e-11	3.208170e+00	-8.376421e+00
1.950000e-06	5.099205e-07	-1.482292e-11	3.531857e+00	-6.263976e+00
1.960000e-06	5.566394e-07	1.338918e-11	3.855446e+00	-4.117441e+00
1.970000e-06	6.033594e-07	4.244995e-11	4.179042e+00	-1.939725e+00
1.980000e-06	6.501040e-07	7.215951e-11	4.502809e+00	2.660322e-01
1.990000e-06	6.968201e-07	1.032439e-10	4.826378e+00	2.496486e+00
2.000000e-06	7.433913e-07	1.367513e-10	5.148943e+00	4.748114e+00
2.010000e-06	7.898658e-07	1.688507e-10	5.470840e+00	7.017245e+00
2.020000e-06	8.363400e-07	1.992596e-10	5.792734e+00	9.300093e+00
2.030000e-06	8.828894e-07	2.301759e-10	6.115148e+00	1.159279e+01
2.040000e-06	9.294023e-07	2.621486e-10	6.437310e+00	1.389142e+01
2.050000e-06	9.756940e-07	2.953957e-10	6.757939e+00	1.619205e+01
2.060000e-06	1.021884e-06	3.297993e-10	7.077867e+00	1.849076e+01
2.070000e-06	1.068035e-06	3.636999e-10	7.397520e+00	2.078369e+01
2.080000e-06	1.114037e-06	3.968604e-10	7.716145e+00	2.306707e+01
2.090000e-06	1.159936e-06	4.293679e-10	8.034056e+00	2.533723e+01
2.100000e-06	1.205791e-06	4.605398e-10	8.351659e+00	2.759064e+01
2.110000e-06	1.251558e-06	4.915547e-10	8.668651e+00	2.982397e+01
2.120000e-06	1.297256e-06	5.233968e-10	8.985168e+00	3.203405e+01
2.130000e-06	1.342861e-06	5.545067e-10	9.301042e+00	3.421794e+01
2.140000e-06	1.388335e-06	5.835917e-10	9.616012e+00	3.637291e+01
2.150000e-06	1.433753e-06	6.134179e-10	9.930587e+00	3.849650e+01
2.160000e-06	1.479108e-06	6.414484e-10	1.024473e+01	4.058649e+01
2.170000e-06	1.524318e-06	6.681924e-10	1.055787e+01	4.264093e+01
2.180000e-06	1.569397e-06	6.956863e-10	1.087010e+01	4.465811e+01
2.190000e-06	1.614311e-06	7.238729e-10	1.118119e+01	4.663662e+01
2.200000e-06	1.659104e-06	7.523397e-10	1.149143e+01	4.857528e+01
2.210000e-06	1.703808e-06	7.821488e-10	1.180107e+01	5.047319e+01
2.220000e-06	1.748408e-06	8.097734e-10	1.210998e+01	5.232967e+01
2.230000e-06	1.792858e-06	8.345961e-10	1.241785e+01	5.414428e+01
2.240000e-06	1.837165e-06	8.567568e-10	1.272473e+01	5.591681e+01
2.250000e-06	1.881395e-06	8.754973e-10	1.303109e+01	5.764724e+01
2.260000e-06	1.925502e-06	8.953823e-10	1.333659e+01	5.933574e+01
2.270000e-06	1.969468e-06	9.173991e-10	1.364111e+01	6.098263e+01
2.280000e-06	2.013368e-06	9.407836e-10	1.394517e+01	6.258839e+01
2.290000e-06	2.057222e-06	9.640573e-10	1.424891e+01	6.415360e+01
2.300000e-06	2.100999e-06	9.870795e-10	1.455213e+01	6.567898e+01
2.310000e-06	2.144706e-06	1.009455e-09	1.485485e+01	6.716529e+01
2.320000e-06	2.188307e-06	1.029107e-09	1.515685e+01	6.861338e+01
2.330000e-06	2.231810e-06	1.045080e-09	1.545816e+01	7.002413e+01
2.340000e-06	2.275223e-06	1.059656e-09	1.575886e+01	7.139845e+01
2.350000e-06	2.318473e-06	1.074587e-09	1.605842e+01	7.273726e+01
2.360000e-06	2.361536e-06	1.091995e-09	1.635669e+01	7.404148e+01
2.370000e-06	2.404442e-06	1.111197e-09	1.665386e+01	7.531199e+01
2.380000e-06	2.447059e-06	1.130996e-09	1.694904e+01	7.654966e+01
2.390000e-06	2.489279e-06	1.148688e-09	1.724147e+01	7.775534e+01
2.400000e-06	2.531154e-06	1.165646e-09	1.753151e+01	7.892980e+01
2.410000e-06	2.572716e-06	1.180347e-09	1.781937e+01	8.007378e+01
2.420000e-06	2.613956e-06	1.192955e-09	1.810502e+01	8.118799e+01
2.430000e-06	2.654915e-06	1.204971e-09	1.838871e+01	8.227306e+01
2.440000e-06	2.695567e-06	1.218651e-09	1.867028e+01	8.332959e+01
2.450000e-06	2.735982e-06	1.234226e-09	1.895021e+01	8.435813e+01
2.460000e-06	2.776267e-06	1.251045e-09	1.922923e+01	8.535918e+01
2.470000e-06	2.816376e-06	1.266499e-09	1.950704e+01	8.633323e+01
2.480000e-06	2.856306e-06	1.279960e-09	1.978361e+01	8.728071e+01
2.490000e-06	2.896130e-06	1.290832e-09	2.005943e+01	8.820206e+01
2.500000e-06	2.935840e-06	1.298637e-09	2.033448e+01	8.909767e+01
2.510000e-06	2.975379e-06	1.310390e-09	2.060834e+01	8.996796e+01
2.520000e-06	3.014771e-06	1.321707e-09	2.088118e+01	9.081332e+01
2.530000e-06	3.054042e-06	1.332730e-09	2.115318e+01	9.163416e+01
2.540000e-06	3.093084e-06	1.346257e-09	2.142359e+01	9.243092e+01
2.550000e-06	3.131785e-06	1.357951e-09	2.169165e+01	9.320403e+01
2.560000e-06	3.170188e-06	1.366427e-09	2.195764e+01	9.395397e+01
2.570000e-06	3.208382e-06	1.374369e-09	2.222218e+01	9.468122e+01
2.580000e-06	3.246488e-06	1.381931e-09	2.248612e+01	9.538633e+01
2.590000e-06	3.284518e-06	1.390266e-09	2.274952e+01	9.606985e+01
2.600000e-06	3.322267e-06	1.400763e-09	2.301098e+01	9.673237e+01
2.610000e-06	3.359685e-06	1.414240e-09	2.327015e+01	9.737453e+01
2.620000e-06	3.396894e-06	1.428619e-09	2.352788e+01	9.799697e+01
2.630000e-06	3.433894e-06	1.437887e-09	2.378415e+01	9.860038e+01
2.640000e-06	3.470620e-06	1.444046e-09	2.403852e+01	9.918547e+01
2.650000e-06	3.507067e-06	1.449745e-09	2.429096e+01	9.975294e+01
2.660000e-06	3.543267e-06	1.453861e-09	2.454169e+01	1.003035e+02
2.670000e-06	3.579247e-06	1.458684e-09	2.479090e+01	1.008380e+02
2.680000e-06	3.615095e-06	1.465708e-09	2.503919e+01	1.013570e+02
2.690000e-06	3.650821e-06	1.476673e-09	2.528664e+01	1.018613e+02
2.700000e-06	3.686391e-06	1.489345e-09	2.553301e+01	1.023516e+02
2.710000e-06	3.721810e-06	1.497183e-09	2.577834e+01	1.028286e+02
2.720000e-06	3.757005e-06	1.500055e-09	2.602210e+01	1.032928e+02
2.730000e-06	3.791959e-06	1.502257e-09	2.626421e+01	1.037450e+02
2.740000e-06	3.826530e-06	1.505171e-09	2.650366e+01	1.041857e+02
2.750000e-06	3.860511e-06	1.508719e-09	2.673902e+01	1.046153e+02
2.760000e-06	3.893857e-06	1.515722e-09	2.696998e+01	1.050344e+02
2.770000e-06	3.926723e-06	1.526366e-09	2.719762e+01	1.054433e+02
2.780000e-06	3.959314e-06	1.536402e-09	2.742336e+01	1.058424e+02
2.790000e-06	3.991667e-06	1.544969e-09	2.764744e+01	1.062320e+02
2.800000e-06	4.023784e-06	1.552279e-09	2.786990e+01	1.066122e+02
2.810000e-06	4.055675e-06	1.556848e-09	2.809078e+01	1.069834e+02
2.820000e-06	4.087385e-06	1.560134e-09	2.831042e+01	1.073456e+02
2.830000e-06	4.118963e-06	1.564715e-09	2.852914e+01	1.076988e+02
2.840000e-06	4.150402e-06	1.570210e-09	2.874689e+01	1.080432e+02
2.850000e-06	4.181514e-06	1.577032e-09	2.896238e+01	1.083787e+02
2.860000e-06	4.212216e-06	1.586052e-09	2.917503e+01	1.087052e+02
2.870000e-06	4.242625e-06	1.595314e-09	2.938565e+01	1.090229e+02
2.880000e-06	4.272749e-06	1.600868e-09	2.959430e+01	1.093315e+02
2.890000e-06	4.302541e-06	1.603474e-09	2.980064e+01	1.096310e+02
2.900000e-06	4.332063e-06	1.607041e-09	3.000512e+01	1.099213e+02
