# Temperatura_=_13.3
# Concentracion g/m^3_=_1620.0
# C_Vs_to_Am_M_A/Vsm_=_65563218390.804596
# pendiente_HvsI_1/m_=_3716.3
# ordenada_HvsI_A/m_=_1297.0
# frecuencia_Hz_=_135105.89452939213

Tiempo_(s)	Campo_(V.s)	Magnetizacion_(V.s)	Campo_(kA/m)	Magnetizacion_(A/m)
0.000000e+00	-5.533669e-06	-1.799157e-09	-3.837125e+01	-1.176581e+02
1.000000e-08	-5.533848e-06	-1.798247e-09	-3.837249e+01	-1.175879e+02
2.000000e-08	-5.533682e-06	-1.798972e-09	-3.837134e+01	-1.175164e+02
3.000000e-08	-5.533092e-06	-1.799165e-09	-3.836724e+01	-1.174437e+02
4.000000e-08	-5.531988e-06	-1.796606e-09	-3.835959e+01	-1.173701e+02
5.000000e-08	-5.530315e-06	-1.787373e-09	-3.834799e+01	-1.172960e+02
6.000000e-08	-5.528114e-06	-1.774029e-09	-3.833273e+01	-1.172215e+02
7.000000e-08	-5.525410e-06	-1.787977e-09	-3.831398e+01	-1.171469e+02
8.000000e-08	-5.522231e-06	-1.857096e-09	-3.829193e+01	-1.170723e+02
9.000000e-08	-5.518536e-06	-1.864831e-09	-3.826631e+01	-1.169978e+02
1.000000e-07	-5.514312e-06	-1.740618e-09	-3.823702e+01	-1.169237e+02
1.100000e-07	-5.509854e-06	-1.692926e-09	-3.820611e+01	-1.168499e+02
1.200000e-07	-5.505285e-06	-1.808628e-09	-3.817442e+01	-1.167764e+02
1.300000e-07	-5.500318e-06	-1.854640e-09	-3.813999e+01	-1.167034e+02
1.400000e-07	-5.494913e-06	-1.768975e-09	-3.810250e+01	-1.166307e+02
1.500000e-07	-5.489189e-06	-1.696583e-09	-3.806282e+01	-1.165581e+02
1.600000e-07	-5.483140e-06	-1.843074e-09	-3.802087e+01	-1.164857e+02
1.700000e-07	-5.476643e-06	-1.870217e-09	-3.797582e+01	-1.164131e+02
1.800000e-07	-5.469699e-06	-1.758593e-09	-3.792767e+01	-1.163401e+02
1.900000e-07	-5.462432e-06	-1.672170e-09	-3.787728e+01	-1.162665e+02
2.000000e-07	-5.454874e-06	-1.764293e-09	-3.782487e+01	-1.161919e+02
2.100000e-07	-5.447063e-06	-1.843312e-09	-3.777071e+01	-1.161159e+02
2.200000e-07	-5.439118e-06	-1.788650e-09	-3.771561e+01	-1.160383e+02
2.300000e-07	-5.430925e-06	-1.738287e-09	-3.765881e+01	-1.159585e+02
2.400000e-07	-5.422103e-06	-1.757446e-09	-3.759763e+01	-1.158761e+02
2.500000e-07	-5.412358e-06	-1.799262e-09	-3.753006e+01	-1.157906e+02
2.600000e-07	-5.401979e-06	-1.756548e-09	-3.745809e+01	-1.157017e+02
2.700000e-07	-5.391266e-06	-1.747980e-09	-3.738380e+01	-1.156087e+02
2.800000e-07	-5.380051e-06	-1.771863e-09	-3.730604e+01	-1.155113e+02
2.900000e-07	-5.368452e-06	-1.809812e-09	-3.722561e+01	-1.154089e+02
3.000000e-07	-5.356540e-06	-1.754435e-09	-3.714301e+01	-1.153012e+02
3.100000e-07	-5.344092e-06	-1.733967e-09	-3.705669e+01	-1.151877e+02
3.200000e-07	-5.331125e-06	-1.743663e-09	-3.696678e+01	-1.150679e+02
3.300000e-07	-5.317862e-06	-1.781425e-09	-3.687481e+01	-1.149416e+02
3.400000e-07	-5.304316e-06	-1.733149e-09	-3.678088e+01	-1.148084e+02
3.500000e-07	-5.290252e-06	-1.723585e-09	-3.668336e+01	-1.146680e+02
3.600000e-07	-5.275721e-06	-1.772622e-09	-3.658260e+01	-1.145202e+02
3.700000e-07	-5.260804e-06	-1.788261e-09	-3.647916e+01	-1.143649e+02
3.800000e-07	-5.245229e-06	-1.708233e-09	-3.637116e+01	-1.142019e+02
3.900000e-07	-5.229126e-06	-1.725158e-09	-3.625950e+01	-1.140313e+02
4.000000e-07	-5.212707e-06	-1.781407e-09	-3.614565e+01	-1.138529e+02
4.100000e-07	-5.195955e-06	-1.717685e-09	-3.602949e+01	-1.136670e+02
4.200000e-07	-5.178837e-06	-1.673350e-09	-3.591079e+01	-1.134735e+02
4.300000e-07	-5.161371e-06	-1.775323e-09	-3.578968e+01	-1.132729e+02
4.400000e-07	-5.143616e-06	-1.777411e-09	-3.566657e+01	-1.130652e+02
4.500000e-07	-5.125393e-06	-1.660954e-09	-3.554020e+01	-1.128508e+02
4.600000e-07	-5.106699e-06	-1.707046e-09	-3.541058e+01	-1.126301e+02
4.700000e-07	-5.087783e-06	-1.780801e-09	-3.527941e+01	-1.124034e+02
4.800000e-07	-5.068549e-06	-1.692737e-09	-3.514604e+01	-1.121713e+02
4.900000e-07	-5.048937e-06	-1.663672e-09	-3.501005e+01	-1.119341e+02
5.000000e-07	-5.029129e-06	-1.756591e-09	-3.487270e+01	-1.116924e+02
5.100000e-07	-5.009079e-06	-1.697690e-09	-3.473366e+01	-1.114466e+02
5.200000e-07	-4.988654e-06	-1.639896e-09	-3.459203e+01	-1.111973e+02
5.300000e-07	-4.967894e-06	-1.733246e-09	-3.444808e+01	-1.109449e+02
5.400000e-07	-4.946829e-06	-1.736994e-09	-3.430201e+01	-1.106900e+02
5.500000e-07	-4.925345e-06	-1.622248e-09	-3.415304e+01	-1.104330e+02
5.600000e-07	-4.903517e-06	-1.682945e-09	-3.400168e+01	-1.101743e+02
5.700000e-07	-4.881436e-06	-1.747052e-09	-3.384857e+01	-1.099144e+02
5.800000e-07	-4.859030e-06	-1.658383e-09	-3.369320e+01	-1.096536e+02
5.900000e-07	-4.836189e-06	-1.638435e-09	-3.353482e+01	-1.093922e+02
6.000000e-07	-4.812979e-06	-1.713661e-09	-3.337388e+01	-1.091305e+02
6.100000e-07	-4.789503e-06	-1.654622e-09	-3.321110e+01	-1.088687e+02
6.200000e-07	-4.765831e-06	-1.609801e-09	-3.304695e+01	-1.086068e+02
6.300000e-07	-4.742003e-06	-1.671059e-09	-3.288172e+01	-1.083451e+02
6.400000e-07	-4.717857e-06	-1.672241e-09	-3.271429e+01	-1.080834e+02
6.500000e-07	-4.693340e-06	-1.622606e-09	-3.254429e+01	-1.078217e+02
6.600000e-07	-4.668423e-06	-1.660682e-09	-3.237151e+01	-1.075599e+02
6.700000e-07	-4.642920e-06	-1.665815e-09	-3.219466e+01	-1.072979e+02
6.800000e-07	-4.616773e-06	-1.612749e-09	-3.201336e+01	-1.070353e+02
6.900000e-07	-4.590156e-06	-1.618556e-09	-3.182879e+01	-1.067718e+02
7.000000e-07	-4.563205e-06	-1.638192e-09	-3.164191e+01	-1.065071e+02
7.100000e-07	-4.535932e-06	-1.606120e-09	-3.145279e+01	-1.062408e+02
7.200000e-07	-4.508387e-06	-1.609228e-09	-3.126180e+01	-1.059725e+02
7.300000e-07	-4.480662e-06	-1.638798e-09	-3.106955e+01	-1.057017e+02
7.400000e-07	-4.452758e-06	-1.618066e-09	-3.087606e+01	-1.054279e+02
7.500000e-07	-4.424598e-06	-1.595500e-09	-3.068079e+01	-1.051507e+02
7.600000e-07	-4.396142e-06	-1.602759e-09	-3.048347e+01	-1.048694e+02
7.700000e-07	-4.367321e-06	-1.590110e-09	-3.028362e+01	-1.045836e+02
7.800000e-07	-4.338169e-06	-1.570700e-09	-3.008148e+01	-1.042928e+02
7.900000e-07	-4.308770e-06	-1.586074e-09	-2.987762e+01	-1.039966e+02
8.000000e-07	-4.279084e-06	-1.586438e-09	-2.967177e+01	-1.036944e+02
8.100000e-07	-4.249101e-06	-1.570066e-09	-2.946387e+01	-1.033859e+02
8.200000e-07	-4.218849e-06	-1.570186e-09	-2.925410e+01	-1.030707e+02
8.300000e-07	-4.188299e-06	-1.572239e-09	-2.904226e+01	-1.027484e+02
8.400000e-07	-4.157357e-06	-1.546347e-09	-2.882770e+01	-1.024188e+02
8.500000e-07	-4.126091e-06	-1.543379e-09	-2.861090e+01	-1.020816e+02
8.600000e-07	-4.094648e-06	-1.554602e-09	-2.839287e+01	-1.017367e+02
8.700000e-07	-4.063041e-06	-1.545000e-09	-2.817371e+01	-1.013839e+02
8.800000e-07	-4.031280e-06	-1.530186e-09	-2.795347e+01	-1.010231e+02
8.900000e-07	-3.999299e-06	-1.535433e-09	-2.773171e+01	-1.006545e+02
9.000000e-07	-3.967001e-06	-1.521724e-09	-2.750775e+01	-1.002780e+02
9.100000e-07	-3.934380e-06	-1.501415e-09	-2.728155e+01	-9.989378e+01
9.200000e-07	-3.901480e-06	-1.499182e-09	-2.705342e+01	-9.950197e+01
9.300000e-07	-3.868203e-06	-1.497331e-09	-2.682267e+01	-9.910280e+01
9.400000e-07	-3.834357e-06	-1.475326e-09	-2.658797e+01	-9.869653e+01
9.500000e-07	-3.799929e-06	-1.470839e-09	-2.634925e+01	-9.828346e+01
9.600000e-07	-3.765074e-06	-1.475162e-09	-2.610755e+01	-9.786393e+01
9.700000e-07	-3.729983e-06	-1.462616e-09	-2.586423e+01	-9.743829e+01
9.800000e-07	-3.694645e-06	-1.452007e-09	-2.561920e+01	-9.700691e+01
9.900000e-07	-3.659060e-06	-1.456303e-09	-2.537244e+01	-9.657019e+01
1.000000e-06	-3.623366e-06	-1.446492e-09	-2.512494e+01	-9.612853e+01
1.010000e-06	-3.587575e-06	-1.425507e-09	-2.487676e+01	-9.568230e+01
1.020000e-06	-3.551659e-06	-1.418558e-09	-2.462771e+01	-9.523188e+01
1.030000e-06	-3.515547e-06	-1.411437e-09	-2.437730e+01	-9.477765e+01
1.040000e-06	-3.479223e-06	-1.398085e-09	-2.412543e+01	-9.431994e+01
1.050000e-06	-3.442640e-06	-1.396909e-09	-2.387175e+01	-9.385904e+01
1.060000e-06	-3.405717e-06	-1.401869e-09	-2.361572e+01	-9.339524e+01
1.070000e-06	-3.368459e-06	-1.391040e-09	-2.335737e+01	-9.292876e+01
1.080000e-06	-3.330989e-06	-1.377638e-09	-2.309755e+01	-9.245977e+01
1.090000e-06	-3.293345e-06	-1.367110e-09	-2.283652e+01	-9.198840e+01
1.100000e-06	-3.255416e-06	-1.350126e-09	-2.257352e+01	-9.151472e+01
1.110000e-06	-3.217280e-06	-1.330302e-09	-2.230908e+01	-9.103874e+01
1.120000e-06	-3.178951e-06	-1.324093e-09	-2.204330e+01	-9.056042e+01
1.130000e-06	-3.140363e-06	-1.319911e-09	-2.177572e+01	-9.007965e+01
1.140000e-06	-3.101519e-06	-1.311985e-09	-2.150637e+01	-8.959626e+01
1.150000e-06	-3.062491e-06	-1.308563e-09	-2.123574e+01	-8.911003e+01
1.160000e-06	-3.023372e-06	-1.306877e-09	-2.096449e+01	-8.862067e+01
1.170000e-06	-2.984139e-06	-1.294242e-09	-2.069245e+01	-8.812784e+01
1.180000e-06	-2.944739e-06	-1.282767e-09	-2.041924e+01	-8.763114e+01
1.190000e-06	-2.905146e-06	-1.274734e-09	-2.014470e+01	-8.713013e+01
1.200000e-06	-2.865301e-06	-1.263582e-09	-1.986840e+01	-8.662433e+01
1.210000e-06	-2.825300e-06	-1.249003e-09	-1.959103e+01	-8.611321e+01
1.220000e-06	-2.785289e-06	-1.240238e-09	-1.931359e+01	-8.559622e+01
1.230000e-06	-2.745113e-06	-1.232697e-09	-1.903501e+01	-8.507276e+01
1.240000e-06	-2.704656e-06	-1.224263e-09	-1.875447e+01	-8.454223e+01
1.250000e-06	-2.663985e-06	-1.218724e-09	-1.847245e+01	-8.400402e+01
1.260000e-06	-2.623087e-06	-1.214129e-09	-1.818885e+01	-8.345750e+01
1.270000e-06	-2.581964e-06	-1.203578e-09	-1.790370e+01	-8.290205e+01
1.280000e-06	-2.540550e-06	-1.189338e-09	-1.761654e+01	-8.233704e+01
1.290000e-06	-2.498745e-06	-1.175852e-09	-1.732665e+01	-8.176188e+01
1.300000e-06	-2.456652e-06	-1.161420e-09	-1.703477e+01	-8.117599e+01
1.310000e-06	-2.414294e-06	-1.146283e-09	-1.674106e+01	-8.057881e+01
1.320000e-06	-2.371637e-06	-1.134959e-09	-1.644527e+01	-7.996983e+01
1.330000e-06	-2.328691e-06	-1.126455e-09	-1.614747e+01	-7.934856e+01
1.340000e-06	-2.285517e-06	-1.118667e-09	-1.584810e+01	-7.871457e+01
1.350000e-06	-2.242208e-06	-1.110610e-09	-1.554779e+01	-7.806747e+01
1.360000e-06	-2.198775e-06	-1.101275e-09	-1.524662e+01	-7.740694e+01
1.370000e-06	-2.155187e-06	-1.090412e-09	-1.494437e+01	-7.673268e+01
1.380000e-06	-2.111473e-06	-1.077331e-09	-1.464126e+01	-7.604448e+01
1.390000e-06	-2.067740e-06	-1.062561e-09	-1.433801e+01	-7.534218e+01
1.400000e-06	-2.023967e-06	-1.046287e-09	-1.403447e+01	-7.462565e+01
1.410000e-06	-1.980078e-06	-1.031120e-09	-1.373014e+01	-7.389485e+01
1.420000e-06	-1.936121e-06	-1.016735e-09	-1.342534e+01	-7.314978e+01
1.430000e-06	-1.892111e-06	-1.005042e-09	-1.312017e+01	-7.239048e+01
1.440000e-06	-1.847963e-06	-9.947785e-10	-1.281404e+01	-7.161704e+01
1.450000e-06	-1.803675e-06	-9.852321e-10	-1.250694e+01	-7.082960e+01
1.460000e-06	-1.759196e-06	-9.748389e-10	-1.219852e+01	-7.002831e+01
1.470000e-06	-1.714575e-06	-9.620863e-10	-1.188911e+01	-6.921337e+01
1.480000e-06	-1.669923e-06	-9.473382e-10	-1.157948e+01	-6.838498e+01
1.490000e-06	-1.625131e-06	-9.326028e-10	-1.126889e+01	-6.754335e+01
1.500000e-06	-1.580114e-06	-9.147837e-10	-1.095674e+01	-6.668869e+01
1.510000e-06	-1.534963e-06	-8.957256e-10	-1.064365e+01	-6.582119e+01
1.520000e-06	-1.489752e-06	-8.792488e-10	-1.033015e+01	-6.494102e+01
1.530000e-06	-1.444386e-06	-8.667025e-10	-1.001558e+01	-6.404831e+01
1.540000e-06	-1.398831e-06	-8.546775e-10	-9.699694e+00	-6.314315e+01
1.550000e-06	-1.353207e-06	-8.422989e-10	-9.383331e+00	-6.222557e+01
1.560000e-06	-1.307561e-06	-8.287032e-10	-9.066810e+00	-6.129553e+01
1.570000e-06	-1.261862e-06	-8.108564e-10	-8.749934e+00	-6.035291e+01
1.580000e-06	-1.216092e-06	-7.917758e-10	-8.432552e+00	-5.939751e+01
1.590000e-06	-1.170234e-06	-7.744016e-10	-8.114571e+00	-5.842902e+01
1.600000e-06	-1.124299e-06	-7.560109e-10	-7.796049e+00	-5.744703e+01
1.610000e-06	-1.078293e-06	-7.380431e-10	-7.477033e+00	-5.645102e+01
1.620000e-06	-1.032202e-06	-7.213391e-10	-7.157433e+00	-5.544036e+01
1.630000e-06	-9.859527e-07	-7.055809e-10	-6.836736e+00	-5.441429e+01
1.640000e-06	-9.395822e-07	-6.910463e-10	-6.515196e+00	-5.337195e+01
1.650000e-06	-8.932243e-07	-6.766105e-10	-6.193744e+00	-5.231234e+01
1.660000e-06	-8.468520e-07	-6.619710e-10	-5.872192e+00	-5.123434e+01
1.670000e-06	-8.003973e-07	-6.452182e-10	-5.550068e+00	-5.013674e+01
1.680000e-06	-7.539319e-07	-6.271789e-10	-5.227871e+00	-4.901821e+01
1.690000e-06	-7.074312e-07	-6.078088e-10	-4.905429e+00	-4.787732e+01
1.700000e-06	-6.608418e-07	-5.850672e-10	-4.582371e+00	-4.671256e+01
1.710000e-06	-6.141776e-07	-5.623015e-10	-4.258794e+00	-4.552234e+01
1.720000e-06	-5.674207e-07	-5.417149e-10	-3.934576e+00	-4.430502e+01
1.730000e-06	-5.205920e-07	-5.224481e-10	-3.609859e+00	-4.305892e+01
1.740000e-06	-4.737628e-07	-5.058855e-10	-3.285139e+00	-4.178233e+01
1.750000e-06	-4.269333e-07	-4.890132e-10	-2.960416e+00	-4.047353e+01
1.760000e-06	-3.800252e-07	-4.694516e-10	-2.635149e+00	-3.913084e+01
1.770000e-06	-3.331135e-07	-4.465057e-10	-2.309856e+00	-3.775261e+01
1.780000e-06	-2.862261e-07	-4.227081e-10	-1.984733e+00	-3.633724e+01
1.790000e-06	-2.393490e-07	-4.010437e-10	-1.659680e+00	-3.488324e+01
1.800000e-06	-1.923858e-07	-3.809034e-10	-1.334031e+00	-3.338921e+01
1.810000e-06	-1.453641e-07	-3.604345e-10	-1.007975e+00	-3.185389e+01
1.820000e-06	-9.838423e-08	-3.379506e-10	-6.822102e-01	-3.027620e+01
1.830000e-06	-5.138559e-08	-3.143764e-10	-3.563150e-01	-2.865521e+01
1.840000e-06	-4.370850e-09	-2.905537e-10	-3.030809e-02	-2.699020e+01
1.850000e-06	4.258327e-08	-2.681652e-10	2.952784e-01	-2.528066e+01
1.860000e-06	8.948811e-08	-2.475880e-10	6.205232e-01	-2.352634e+01
1.870000e-06	1.364532e-07	-2.256421e-10	9.461858e-01	-2.172721e+01
1.880000e-06	1.833988e-07	-2.015478e-10	1.271714e+00	-1.988353e+01
1.890000e-06	2.303238e-07	-1.761330e-10	1.597098e+00	-1.799582e+01
1.900000e-06	2.772583e-07	-1.490070e-10	1.922548e+00	-1.606489e+01
1.910000e-06	3.240674e-07	-1.209363e-10	2.247130e+00	-1.409183e+01
1.920000e-06	3.708343e-07	-9.327429e-11	2.571418e+00	-1.207801e+01
1.930000e-06	4.176521e-07	-6.718712e-11	2.896059e+00	-1.002509e+01
1.940000e-06	4.644726e-07	-4.145240e-11	3.220719e+00	-7.935013e+00
1.950000e-06	5.112424e-07	-1.464594e-11	3.545028e+00	-5.809985e+00
1.960000e-06	5.579178e-07	1.291498e-11	3.868681e+00	-3.652467e+00
1.970000e-06	6.045638e-07	4.133332e-11	4.192131e+00	-1.465167e+00
1.980000e-06	6.511676e-07	7.092791e-11	4.515289e+00	7.489878e-01
1.990000e-06	6.977108e-07	1.020610e-10	4.838026e+00	2.986867e+00
2.000000e-06	7.442631e-07	1.340822e-10	5.160826e+00	5.245159e+00
2.010000e-06	7.907626e-07	1.645715e-10	5.483260e+00	7.520403e+00
2.020000e-06	8.371245e-07	1.961197e-10	5.804740e+00	9.809009e+00
2.030000e-06	8.833897e-07	2.305583e-10	6.125550e+00	1.210729e+01
2.040000e-06	9.296429e-07	2.644719e-10	6.446276e+00	1.441149e+01
2.050000e-06	9.758346e-07	2.963652e-10	6.766575e+00	1.671783e+01
2.060000e-06	1.021910e-06	3.265382e-10	7.086072e+00	1.902250e+01
2.070000e-06	1.067879e-06	3.551067e-10	7.404825e+00	2.132174e+01
2.080000e-06	1.113773e-06	3.824920e-10	7.723057e+00	2.361184e+01
2.090000e-06	1.159693e-06	4.110784e-10	8.041477e+00	2.588916e+01
2.100000e-06	1.205531e-06	4.422752e-10	8.359325e+00	2.815020e+01
2.110000e-06	1.251238e-06	4.757362e-10	8.676260e+00	3.039157e+01
2.120000e-06	1.296885e-06	5.101899e-10	8.992784e+00	3.261008e+01
2.130000e-06	1.342437e-06	5.453413e-10	9.308652e+00	3.480269e+01
2.140000e-06	1.387868e-06	5.781840e-10	9.623672e+00	3.696659e+01
2.150000e-06	1.433192e-06	6.048141e-10	9.937960e+00	3.909919e+01
2.160000e-06	1.478507e-06	6.251417e-10	1.025218e+01	4.119812e+01
2.170000e-06	1.523756e-06	6.435211e-10	1.056594e+01	4.326129e+01
2.180000e-06	1.568795e-06	6.657313e-10	1.087825e+01	4.528682e+01
2.190000e-06	1.613658e-06	6.933690e-10	1.118933e+01	4.727314e+01
2.200000e-06	1.658403e-06	7.264952e-10	1.149960e+01	4.921890e+01
2.210000e-06	1.702946e-06	7.620042e-10	1.180847e+01	5.112303e+01
2.220000e-06	1.747359e-06	7.938873e-10	1.211643e+01	5.298470e+01
2.230000e-06	1.791692e-06	8.191593e-10	1.242385e+01	5.480334e+01
2.240000e-06	1.835867e-06	8.374324e-10	1.273016e+01	5.657860e+01
2.250000e-06	1.879970e-06	8.498231e-10	1.303598e+01	5.831037e+01
2.260000e-06	1.924042e-06	8.635770e-10	1.334158e+01	5.999874e+01
2.270000e-06	1.967997e-06	8.835711e-10	1.364637e+01	6.164399e+01
2.280000e-06	2.011817e-06	9.078172e-10	1.395023e+01	6.324658e+01
2.290000e-06	2.055593e-06	9.343541e-10	1.425377e+01	6.480710e+01
2.300000e-06	2.099348e-06	9.620402e-10	1.455718e+01	6.632633e+01
2.310000e-06	2.143013e-06	9.874594e-10	1.485996e+01	6.780510e+01
2.320000e-06	2.186604e-06	1.007167e-09	1.516222e+01	6.924438e+01
2.330000e-06	2.230122e-06	1.021727e-09	1.546398e+01	7.064520e+01
2.340000e-06	2.273572e-06	1.033445e-09	1.576527e+01	7.200864e+01
2.350000e-06	2.316883e-06	1.046315e-09	1.606559e+01	7.333583e+01
2.360000e-06	2.359895e-06	1.062594e-09	1.636384e+01	7.462790e+01
2.370000e-06	2.402695e-06	1.082332e-09	1.666063e+01	7.588601e+01
2.380000e-06	2.445250e-06	1.103962e-09	1.695571e+01	7.711129e+01
2.390000e-06	2.487501e-06	1.125230e-09	1.724869e+01	7.830484e+01
2.400000e-06	2.529466e-06	1.143101e-09	1.753967e+01	7.946773e+01
2.410000e-06	2.571037e-06	1.156977e-09	1.782793e+01	8.060100e+01
2.420000e-06	2.612248e-06	1.168829e-09	1.811370e+01	8.170562e+01
2.430000e-06	2.653072e-06	1.181126e-09	1.839677e+01	8.278251e+01
2.440000e-06	2.693575e-06	1.196159e-09	1.867763e+01	8.383252e+01
2.450000e-06	2.733930e-06	1.213641e-09	1.895746e+01	8.485644e+01
2.460000e-06	2.774132e-06	1.231909e-09	1.923623e+01	8.585500e+01
2.470000e-06	2.814175e-06	1.247012e-09	1.951389e+01	8.682887e+01
2.480000e-06	2.854106e-06	1.259251e-09	1.979078e+01	8.777865e+01
2.490000e-06	2.893946e-06	1.269912e-09	2.006703e+01	8.870490e+01
2.500000e-06	2.933631e-06	1.277958e-09	2.034221e+01	8.960811e+01
2.510000e-06	2.973197e-06	1.288993e-09	2.061657e+01	9.048874e+01
2.520000e-06	3.012631e-06	1.299729e-09	2.089001e+01	9.134721e+01
2.530000e-06	3.051813e-06	1.310551e-09	2.116171e+01	9.218389e+01
2.540000e-06	3.090738e-06	1.323640e-09	2.143162e+01	9.299916e+01
2.550000e-06	3.129446e-06	1.335294e-09	2.170002e+01	9.379335e+01
2.560000e-06	3.167924e-06	1.343549e-09	2.196683e+01	9.456679e+01
2.570000e-06	3.206164e-06	1.349219e-09	2.223199e+01	9.531981e+01
2.580000e-06	3.244186e-06	1.357827e-09	2.249565e+01	9.605273e+01
2.590000e-06	3.282002e-06	1.368552e-09	2.275787e+01	9.676588e+01
2.600000e-06	3.319594e-06	1.381188e-09	2.301854e+01	9.745961e+01
2.610000e-06	3.356993e-06	1.394711e-09	2.327787e+01	9.813426e+01
2.620000e-06	3.394156e-06	1.408361e-09	2.353556e+01	9.879021e+01
2.630000e-06	3.431056e-06	1.418860e-09	2.379143e+01	9.942783e+01
2.640000e-06	3.467712e-06	1.426220e-09	2.404560e+01	1.000475e+02
2.650000e-06	3.504063e-06	1.432396e-09	2.429767e+01	1.006497e+02
2.660000e-06	3.540160e-06	1.437440e-09	2.454797e+01	1.012349e+02
2.670000e-06	3.576106e-06	1.443272e-09	2.479722e+01	1.018034e+02
2.680000e-06	3.611926e-06	1.450694e-09	2.504561e+01	1.023558e+02
2.690000e-06	3.647587e-06	1.459435e-09	2.529289e+01	1.028925e+02
2.700000e-06	3.683112e-06	1.469050e-09	2.553922e+01	1.034139e+02
2.710000e-06	3.718485e-06	1.476986e-09	2.578450e+01	1.039206e+02
2.720000e-06	3.753654e-06	1.483659e-09	2.602837e+01	1.044130e+02
2.730000e-06	3.788582e-06	1.488044e-09	2.627056e+01	1.048916e+02
2.740000e-06	3.823052e-06	1.492480e-09	2.650959e+01	1.053568e+02
2.750000e-06	3.856938e-06	1.498714e-09	2.674456e+01	1.058090e+02
2.760000e-06	3.890384e-06	1.505376e-09	2.697648e+01	1.062487e+02
2.770000e-06	3.923430e-06	1.514076e-09	2.720562e+01	1.066762e+02
2.780000e-06	3.956053e-06	1.521901e-09	2.743183e+01	1.070919e+02
2.790000e-06	3.988394e-06	1.528147e-09	2.765609e+01	1.074961e+02
2.800000e-06	4.020507e-06	1.534731e-09	2.787877e+01	1.078891e+02
2.810000e-06	4.052386e-06	1.541962e-09	2.809982e+01	1.082712e+02
2.820000e-06	4.084054e-06	1.549614e-09	2.831941e+01	1.086425e+02
2.830000e-06	4.115537e-06	1.557667e-09	2.853772e+01	1.090034e+02
2.840000e-06	4.146793e-06	1.565317e-09	2.875445e+01	1.093539e+02
2.850000e-06	4.177764e-06	1.572590e-09	2.896921e+01	1.096943e+02
2.860000e-06	4.208443e-06	1.581438e-09	2.918194e+01	1.100247e+02
2.870000e-06	4.238756e-06	1.590535e-09	2.939214e+01	1.103451e+02
2.880000e-06	4.268762e-06	1.595364e-09	2.960020e+01	1.106556e+02
2.890000e-06	4.298559e-06	1.597184e-09	2.980682e+01	1.109564e+02
2.900000e-06	4.328151e-06	1.600541e-09	3.001201e+01	1.112475e+02
