# Temperatura_=_-5.31
# Concentracion g/m^3_=_1620.0
# C_Vs_to_Am_M_A/Vsm_=_65563218390.804596
# pendiente_HvsI_1/m_=_3716.3
# ordenada_HvsI_A/m_=_1297.0
# frecuencia_Hz_=_135111.22743293783

Tiempo_(s)	Campo_(V.s)	Magnetizacion_(V.s)	Campo_(kA/m)	Magnetizacion_(A/m)
0.000000e+00	-5.511386e-06	-1.353240e-09	-3.837020e+01	-8.897949e+01
1.000000e-08	-5.511552e-06	-1.351661e-09	-3.837136e+01	-8.889073e+01
2.000000e-08	-5.511460e-06	-1.352647e-09	-3.837072e+01	-8.880110e+01
3.000000e-08	-5.510954e-06	-1.353440e-09	-3.836720e+01	-8.871117e+01
4.000000e-08	-5.509929e-06	-1.351462e-09	-3.836006e+01	-8.862153e+01
5.000000e-08	-5.508354e-06	-1.345399e-09	-3.834909e+01	-8.853272e+01
6.000000e-08	-5.506185e-06	-1.338160e-09	-3.833399e+01	-8.844529e+01
7.000000e-08	-5.503460e-06	-1.345034e-09	-3.831502e+01	-8.835971e+01
8.000000e-08	-5.500247e-06	-1.370816e-09	-3.829265e+01	-8.827641e+01
9.000000e-08	-5.496579e-06	-1.363532e-09	-3.826711e+01	-8.819575e+01
1.000000e-07	-5.492501e-06	-1.324993e-09	-3.823872e+01	-8.811802e+01
1.100000e-07	-5.488123e-06	-1.318861e-09	-3.820825e+01	-8.804343e+01
1.200000e-07	-5.483543e-06	-1.362198e-09	-3.817636e+01	-8.797209e+01
1.300000e-07	-5.478595e-06	-1.312225e-09	-3.814191e+01	-8.790403e+01
1.400000e-07	-5.473207e-06	-1.311606e-09	-3.810440e+01	-8.783917e+01
1.500000e-07	-5.467436e-06	-1.330192e-09	-3.806422e+01	-8.777735e+01
1.600000e-07	-5.461361e-06	-1.403545e-09	-3.802193e+01	-8.771831e+01
1.700000e-07	-5.454889e-06	-1.347637e-09	-3.797687e+01	-8.766170e+01
1.800000e-07	-5.448035e-06	-1.291529e-09	-3.792915e+01	-8.760710e+01
1.900000e-07	-5.440927e-06	-1.314350e-09	-3.787967e+01	-8.755399e+01
2.000000e-07	-5.433477e-06	-1.340150e-09	-3.782780e+01	-8.750180e+01
2.100000e-07	-5.425720e-06	-1.334869e-09	-3.777379e+01	-8.744993e+01
2.200000e-07	-5.417704e-06	-1.309841e-09	-3.771799e+01	-8.739770e+01
2.300000e-07	-5.409408e-06	-1.359196e-09	-3.766023e+01	-8.734443e+01
2.400000e-07	-5.400506e-06	-1.371461e-09	-3.759825e+01	-8.728942e+01
2.500000e-07	-5.390965e-06	-1.373369e-09	-3.753183e+01	-8.723197e+01
2.600000e-07	-5.380892e-06	-1.320021e-09	-3.746170e+01	-8.717141e+01
2.700000e-07	-5.370133e-06	-1.343729e-09	-3.738680e+01	-8.710708e+01
2.800000e-07	-5.358865e-06	-1.340888e-09	-3.730835e+01	-8.703840e+01
2.900000e-07	-5.347305e-06	-1.359055e-09	-3.722787e+01	-8.696481e+01
3.000000e-07	-5.335356e-06	-1.329566e-09	-3.714468e+01	-8.688585e+01
3.100000e-07	-5.322954e-06	-1.346960e-09	-3.705834e+01	-8.680113e+01
3.200000e-07	-5.310135e-06	-1.349665e-09	-3.696909e+01	-8.671036e+01
3.300000e-07	-5.296962e-06	-1.361651e-09	-3.687739e+01	-8.661334e+01
3.400000e-07	-5.283454e-06	-1.326846e-09	-3.678334e+01	-8.650996e+01
3.500000e-07	-5.269522e-06	-1.337540e-09	-3.668634e+01	-8.640023e+01
3.600000e-07	-5.255036e-06	-1.364012e-09	-3.658549e+01	-8.628426e+01
3.700000e-07	-5.239957e-06	-1.358550e-09	-3.648052e+01	-8.616226e+01
3.800000e-07	-5.224329e-06	-1.323595e-09	-3.637171e+01	-8.603453e+01
3.900000e-07	-5.208335e-06	-1.347659e-09	-3.626036e+01	-8.590147e+01
4.000000e-07	-5.192044e-06	-1.351763e-09	-3.614695e+01	-8.576354e+01
4.100000e-07	-5.175370e-06	-1.294838e-09	-3.603086e+01	-8.562131e+01
4.200000e-07	-5.158327e-06	-1.315541e-09	-3.591221e+01	-8.547537e+01
4.300000e-07	-5.140980e-06	-1.375589e-09	-3.579144e+01	-8.532637e+01
4.400000e-07	-5.123330e-06	-1.341861e-09	-3.566856e+01	-8.517500e+01
4.500000e-07	-5.105219e-06	-1.284341e-09	-3.554247e+01	-8.502194e+01
4.600000e-07	-5.086668e-06	-1.353510e-09	-3.541332e+01	-8.486789e+01
4.700000e-07	-5.067765e-06	-1.342954e-09	-3.528172e+01	-8.471354e+01
4.800000e-07	-5.048522e-06	-1.268840e-09	-3.514775e+01	-8.455953e+01
4.900000e-07	-5.029041e-06	-1.290673e-09	-3.501212e+01	-8.440648e+01
5.000000e-07	-5.009356e-06	-1.349874e-09	-3.487507e+01	-8.425491e+01
5.100000e-07	-4.989416e-06	-1.267903e-09	-3.473625e+01	-8.410533e+01
5.200000e-07	-4.969158e-06	-1.267398e-09	-3.459522e+01	-8.395811e+01
5.300000e-07	-4.948540e-06	-1.338153e-09	-3.445167e+01	-8.381358e+01
5.400000e-07	-4.927552e-06	-1.307633e-09	-3.430556e+01	-8.367193e+01
5.500000e-07	-4.906172e-06	-1.245674e-09	-3.415671e+01	-8.353329e+01
5.600000e-07	-4.884501e-06	-1.321117e-09	-3.400584e+01	-8.339766e+01
5.700000e-07	-4.862586e-06	-1.315624e-09	-3.385326e+01	-8.326494e+01
5.800000e-07	-4.840349e-06	-1.240611e-09	-3.369845e+01	-8.313494e+01
5.900000e-07	-4.817720e-06	-1.261929e-09	-3.354091e+01	-8.300737e+01
6.000000e-07	-4.794757e-06	-1.299240e-09	-3.338104e+01	-8.288183e+01
6.100000e-07	-4.771473e-06	-1.229427e-09	-3.321894e+01	-8.275787e+01
6.200000e-07	-4.747909e-06	-1.233628e-09	-3.305489e+01	-8.263494e+01
6.300000e-07	-4.724104e-06	-1.288672e-09	-3.288915e+01	-8.251243e+01
6.400000e-07	-4.699975e-06	-1.262716e-09	-3.272117e+01	-8.238971e+01
6.500000e-07	-4.675484e-06	-1.239479e-09	-3.255066e+01	-8.226607e+01
6.600000e-07	-4.650606e-06	-1.279123e-09	-3.237746e+01	-8.214081e+01
6.700000e-07	-4.625272e-06	-1.260732e-09	-3.220108e+01	-8.201321e+01
6.800000e-07	-4.599367e-06	-1.218740e-09	-3.202073e+01	-8.188256e+01
6.900000e-07	-4.572934e-06	-1.240024e-09	-3.183671e+01	-8.174816e+01
7.000000e-07	-4.545987e-06	-1.242801e-09	-3.164911e+01	-8.160937e+01
7.100000e-07	-4.518642e-06	-1.215729e-09	-3.145873e+01	-8.146557e+01
7.200000e-07	-4.491137e-06	-1.231045e-09	-3.126724e+01	-8.131621e+01
7.300000e-07	-4.463480e-06	-1.254830e-09	-3.107469e+01	-8.116079e+01
7.400000e-07	-4.435578e-06	-1.229857e-09	-3.088044e+01	-8.099891e+01
7.500000e-07	-4.407473e-06	-1.224623e-09	-3.068477e+01	-8.083025e+01
7.600000e-07	-4.379130e-06	-1.229752e-09	-3.048745e+01	-8.065454e+01
7.700000e-07	-4.350378e-06	-1.215267e-09	-3.028728e+01	-8.047166e+01
7.800000e-07	-4.321314e-06	-1.198057e-09	-3.008493e+01	-8.028152e+01
7.900000e-07	-4.292025e-06	-1.211415e-09	-2.988103e+01	-8.008415e+01
8.000000e-07	-4.262421e-06	-1.201611e-09	-2.967492e+01	-7.987968e+01
8.100000e-07	-4.232536e-06	-1.191319e-09	-2.946687e+01	-7.966828e+01
8.200000e-07	-4.202439e-06	-1.195548e-09	-2.925733e+01	-7.945025e+01
8.300000e-07	-4.172034e-06	-1.200647e-09	-2.904565e+01	-7.922590e+01
8.400000e-07	-4.141295e-06	-1.184137e-09	-2.883165e+01	-7.899565e+01
8.500000e-07	-4.110337e-06	-1.190790e-09	-2.861612e+01	-7.875994e+01
8.600000e-07	-4.079136e-06	-1.195650e-09	-2.839889e+01	-7.851926e+01
8.700000e-07	-4.047684e-06	-1.182793e-09	-2.817993e+01	-7.827414e+01
8.800000e-07	-4.016052e-06	-1.169162e-09	-2.795971e+01	-7.802511e+01
8.900000e-07	-3.984285e-06	-1.170690e-09	-2.773854e+01	-7.777271e+01
9.000000e-07	-3.952284e-06	-1.156554e-09	-2.751576e+01	-7.751751e+01
9.100000e-07	-3.919876e-06	-1.146671e-09	-2.729013e+01	-7.726002e+01
9.200000e-07	-3.887093e-06	-1.151728e-09	-2.706190e+01	-7.700076e+01
9.300000e-07	-3.853927e-06	-1.152848e-09	-2.683099e+01	-7.674021e+01
9.400000e-07	-3.820219e-06	-1.143470e-09	-2.659632e+01	-7.647882e+01
9.500000e-07	-3.786069e-06	-1.146681e-09	-2.635857e+01	-7.621698e+01
9.600000e-07	-3.751523e-06	-1.145662e-09	-2.611806e+01	-7.595505e+01
9.700000e-07	-3.716555e-06	-1.128659e-09	-2.587461e+01	-7.569333e+01
9.800000e-07	-3.681322e-06	-1.119720e-09	-2.562932e+01	-7.543207e+01
9.900000e-07	-3.645903e-06	-1.120315e-09	-2.538273e+01	-7.517146e+01
1.000000e-06	-3.610344e-06	-1.115996e-09	-2.513517e+01	-7.491163e+01
1.010000e-06	-3.574698e-06	-1.108153e-09	-2.488700e+01	-7.465266e+01
1.020000e-06	-3.538909e-06	-1.113528e-09	-2.463784e+01	-7.439459e+01
1.030000e-06	-3.502915e-06	-1.111985e-09	-2.438725e+01	-7.413739e+01
1.040000e-06	-3.466695e-06	-1.107206e-09	-2.413509e+01	-7.388100e+01
1.050000e-06	-3.430235e-06	-1.105838e-09	-2.388125e+01	-7.362531e+01
1.060000e-06	-3.393402e-06	-1.103283e-09	-2.362482e+01	-7.337018e+01
1.070000e-06	-3.356224e-06	-1.086885e-09	-2.336599e+01	-7.311543e+01
1.080000e-06	-3.318845e-06	-1.077955e-09	-2.310576e+01	-7.286085e+01
1.090000e-06	-3.281266e-06	-1.073040e-09	-2.284413e+01	-7.260622e+01
1.100000e-06	-3.243532e-06	-1.065176e-09	-2.258143e+01	-7.235131e+01
1.110000e-06	-3.205628e-06	-1.055972e-09	-2.231754e+01	-7.209583e+01
1.120000e-06	-3.167522e-06	-1.056010e-09	-2.205225e+01	-7.183953e+01
1.130000e-06	-3.129206e-06	-1.051046e-09	-2.178549e+01	-7.158212e+01
1.140000e-06	-3.090575e-06	-1.047061e-09	-2.151655e+01	-7.132333e+01
1.150000e-06	-3.051717e-06	-1.047153e-09	-2.124601e+01	-7.106284e+01
1.160000e-06	-3.012742e-06	-1.047421e-09	-2.097467e+01	-7.080038e+01
1.170000e-06	-2.973514e-06	-1.036487e-09	-2.070157e+01	-7.053563e+01
1.180000e-06	-2.934061e-06	-1.026784e-09	-2.042689e+01	-7.026830e+01
1.190000e-06	-2.894511e-06	-1.019611e-09	-2.015155e+01	-6.999806e+01
1.200000e-06	-2.854829e-06	-1.009636e-09	-1.987528e+01	-6.972461e+01
1.210000e-06	-2.815001e-06	-9.998068e-10	-1.959801e+01	-6.944760e+01
1.220000e-06	-2.775020e-06	-9.957747e-10	-1.931965e+01	-6.916669e+01
1.230000e-06	-2.734849e-06	-9.917030e-10	-1.903998e+01	-6.888154e+01
1.240000e-06	-2.694621e-06	-9.849519e-10	-1.875992e+01	-6.859177e+01
1.250000e-06	-2.654318e-06	-9.800941e-10	-1.847933e+01	-6.829698e+01
1.260000e-06	-2.613685e-06	-9.764220e-10	-1.819645e+01	-6.799678e+01
1.270000e-06	-2.572626e-06	-9.697725e-10	-1.791059e+01	-6.769074e+01
1.280000e-06	-2.531255e-06	-9.589075e-10	-1.762256e+01	-6.737841e+01
1.290000e-06	-2.489620e-06	-9.498671e-10	-1.733270e+01	-6.705934e+01
1.300000e-06	-2.447678e-06	-9.397787e-10	-1.704070e+01	-6.673302e+01
1.310000e-06	-2.405377e-06	-9.309520e-10	-1.674621e+01	-6.639899e+01
1.320000e-06	-2.362827e-06	-9.244877e-10	-1.644997e+01	-6.605672e+01
1.330000e-06	-2.320132e-06	-9.210782e-10	-1.615273e+01	-6.570571e+01
1.340000e-06	-2.277280e-06	-9.163769e-10	-1.585439e+01	-6.534544e+01
1.350000e-06	-2.234155e-06	-9.143951e-10	-1.555416e+01	-6.497539e+01
1.360000e-06	-2.190773e-06	-9.116862e-10	-1.525213e+01	-6.459506e+01
1.370000e-06	-2.147310e-06	-9.063215e-10	-1.494954e+01	-6.420397e+01
1.380000e-06	-2.103796e-06	-8.962309e-10	-1.464660e+01	-6.380163e+01
1.390000e-06	-2.060187e-06	-8.840104e-10	-1.434299e+01	-6.338763e+01
1.400000e-06	-2.016495e-06	-8.707481e-10	-1.403881e+01	-6.296155e+01
1.410000e-06	-1.972751e-06	-8.597066e-10	-1.373427e+01	-6.252302e+01
1.420000e-06	-1.928893e-06	-8.506362e-10	-1.342893e+01	-6.207174e+01
1.430000e-06	-1.884961e-06	-8.451676e-10	-1.312308e+01	-6.160743e+01
1.440000e-06	-1.840948e-06	-8.403117e-10	-1.281666e+01	-6.112990e+01
1.450000e-06	-1.796774e-06	-8.357042e-10	-1.250912e+01	-6.063897e+01
1.460000e-06	-1.752442e-06	-8.302857e-10	-1.220048e+01	-6.013457e+01
1.470000e-06	-1.707939e-06	-8.220269e-10	-1.189065e+01	-5.961666e+01
1.480000e-06	-1.663249e-06	-8.102702e-10	-1.157952e+01	-5.908525e+01
1.490000e-06	-1.618458e-06	-7.974138e-10	-1.126768e+01	-5.854043e+01
1.500000e-06	-1.573603e-06	-7.825253e-10	-1.095541e+01	-5.798231e+01
1.510000e-06	-1.528644e-06	-7.676054e-10	-1.064240e+01	-5.741107e+01
1.520000e-06	-1.483569e-06	-7.575052e-10	-1.032859e+01	-5.682688e+01
1.530000e-06	-1.438387e-06	-7.506973e-10	-1.001403e+01	-5.622997e+01
1.540000e-06	-1.393100e-06	-7.442011e-10	-9.698747e+00	-5.562056e+01
1.550000e-06	-1.347703e-06	-7.376072e-10	-9.382694e+00	-5.499889e+01
1.560000e-06	-1.302215e-06	-7.272046e-10	-9.066005e+00	-5.436514e+01
1.570000e-06	-1.256710e-06	-7.133108e-10	-8.749197e+00	-5.371950e+01
1.580000e-06	-1.211181e-06	-7.001720e-10	-8.432225e+00	-5.306209e+01
1.590000e-06	-1.165547e-06	-6.875351e-10	-8.114524e+00	-5.239298e+01
1.600000e-06	-1.119799e-06	-6.735186e-10	-7.796030e+00	-5.171216e+01
1.610000e-06	-1.073930e-06	-6.618921e-10	-7.476690e+00	-5.101953e+01
1.620000e-06	-1.028019e-06	-6.546399e-10	-7.157053e+00	-5.031489e+01
1.630000e-06	-9.819960e-07	-6.479446e-10	-6.836644e+00	-4.959790e+01
1.640000e-06	-9.358701e-07	-6.430114e-10	-6.515516e+00	-4.886813e+01
1.650000e-06	-8.897290e-07	-6.365674e-10	-6.194282e+00	-4.812498e+01
1.660000e-06	-8.435446e-07	-6.278784e-10	-5.872747e+00	-4.736775e+01
1.670000e-06	-7.973188e-07	-6.138367e-10	-5.550924e+00	-4.659555e+01
1.680000e-06	-7.510709e-07	-5.973719e-10	-5.228947e+00	-4.580739e+01
1.690000e-06	-7.047831e-07	-5.801298e-10	-4.906691e+00	-4.500209e+01
1.700000e-06	-6.584154e-07	-5.614368e-10	-4.583880e+00	-4.417836e+01
1.710000e-06	-6.120244e-07	-5.448773e-10	-4.260906e+00	-4.333478e+01
1.720000e-06	-5.655798e-07	-5.315686e-10	-3.937560e+00	-4.246981e+01
1.730000e-06	-5.190529e-07	-5.187602e-10	-3.613640e+00	-4.158178e+01
1.740000e-06	-4.724827e-07	-5.079883e-10	-3.289418e+00	-4.066897e+01
1.750000e-06	-4.258352e-07	-4.962154e-10	-2.964659e+00	-3.972955e+01
1.760000e-06	-3.792018e-07	-4.813965e-10	-2.639998e+00	-3.876168e+01
1.770000e-06	-3.325667e-07	-4.635680e-10	-2.315325e+00	-3.776347e+01
1.780000e-06	-2.858401e-07	-4.464630e-10	-1.990015e+00	-3.673305e+01
1.790000e-06	-2.390912e-07	-4.318488e-10	-1.664550e+00	-3.566856e+01
1.800000e-06	-1.923282e-07	-4.180746e-10	-1.338987e+00	-3.456820e+01
1.810000e-06	-1.455009e-07	-4.018940e-10	-1.012975e+00	-3.343027e+01
1.820000e-06	-9.864669e-08	-3.842305e-10	-6.867770e-01	-3.225316e+01
1.830000e-06	-5.192698e-08	-3.671051e-10	-3.615150e-01	-3.103543e+01
1.840000e-06	-5.304509e-09	-3.500242e-10	-3.692992e-02	-2.977578e+01
1.850000e-06	4.136624e-08	-3.341907e-10	2.879912e-01	-2.847310e+01
1.860000e-06	8.803887e-08	-3.189545e-10	6.129255e-01	-2.712652e+01
1.870000e-06	1.347618e-07	-3.014650e-10	9.382099e-01	-2.573538e+01
1.880000e-06	1.815264e-07	-2.800350e-10	1.263785e+00	-2.429930e+01
1.890000e-06	2.283402e-07	-2.556169e-10	1.589701e+00	-2.281815e+01
1.900000e-06	2.751419e-07	-2.302925e-10	1.915535e+00	-2.129208e+01
1.910000e-06	3.217972e-07	-2.065463e-10	2.240348e+00	-1.972155e+01
1.920000e-06	3.683976e-07	-1.846139e-10	2.564780e+00	-1.810729e+01
1.930000e-06	4.150216e-07	-1.636994e-10	2.889376e+00	-1.645035e+01
1.940000e-06	4.616897e-07	-1.446695e-10	3.214278e+00	-1.475206e+01
1.950000e-06	5.083118e-07	-1.270020e-10	3.538861e+00	-1.301403e+01
1.960000e-06	5.548763e-07	-1.066147e-10	3.863042e+00	-1.123816e+01
1.970000e-06	6.014337e-07	-8.271034e-11	4.187174e+00	-9.426605e+00
1.980000e-06	6.479215e-07	-5.456225e-11	4.510821e+00	-7.581769e+00
1.990000e-06	6.943273e-07	-2.298447e-11	4.833898e+00	-5.706280e+00
2.000000e-06	7.406413e-07	9.357887e-12	5.156336e+00	-3.802970e+00
2.010000e-06	7.868256e-07	3.738408e-11	5.477870e+00	-1.874847e+00
2.020000e-06	8.329566e-07	6.337981e-11	5.799034e+00	7.492401e-02
2.030000e-06	8.790576e-07	9.012697e-11	6.119988e+00	2.043059e+00
2.040000e-06	9.251019e-07	1.166791e-10	6.440548e+00	4.026175e+00
2.050000e-06	9.710966e-07	1.405088e-10	6.760762e+00	6.020827e+00
2.060000e-06	1.017088e-06	1.640594e-10	7.080954e+00	8.023532e+00
2.070000e-06	1.063060e-06	1.895469e-10	7.401010e+00	1.003080e+01
2.080000e-06	1.108948e-06	2.170813e-10	7.720480e+00	1.203917e+01
2.090000e-06	1.154718e-06	2.455821e-10	8.039133e+00	1.404521e+01
2.100000e-06	1.200340e-06	2.751292e-10	8.356752e+00	1.604558e+01
2.110000e-06	1.245884e-06	3.051872e-10	8.673826e+00	1.803704e+01
2.120000e-06	1.291274e-06	3.348923e-10	8.989832e+00	2.001645e+01
2.130000e-06	1.336507e-06	3.644233e-10	9.304743e+00	2.198083e+01
2.140000e-06	1.381713e-06	3.918454e-10	9.619465e+00	2.392734e+01
2.150000e-06	1.426911e-06	4.152896e-10	9.934139e+00	2.585333e+01
2.160000e-06	1.472046e-06	4.363133e-10	1.024837e+01	2.775629e+01
2.170000e-06	1.517040e-06	4.579939e-10	1.056161e+01	2.963394e+01
2.180000e-06	1.561927e-06	4.835777e-10	1.087412e+01	3.148417e+01
2.190000e-06	1.606680e-06	5.115049e-10	1.118569e+01	3.330509e+01
2.200000e-06	1.651301e-06	5.402188e-10	1.149634e+01	3.509497e+01
2.210000e-06	1.695815e-06	5.697674e-10	1.180624e+01	3.685231e+01
2.220000e-06	1.740177e-06	5.956905e-10	1.211509e+01	3.857579e+01
2.230000e-06	1.784359e-06	6.176977e-10	1.242269e+01	4.026428e+01
2.240000e-06	1.828391e-06	6.352486e-10	1.272923e+01	4.191683e+01
2.250000e-06	1.872301e-06	6.502866e-10	1.303494e+01	4.353265e+01
2.260000e-06	1.916109e-06	6.667840e-10	1.333993e+01	4.511112e+01
2.270000e-06	1.959904e-06	6.866130e-10	1.364483e+01	4.665178e+01
2.280000e-06	2.003658e-06	7.098113e-10	1.394944e+01	4.815430e+01
2.290000e-06	2.047363e-06	7.343858e-10	1.425372e+01	4.961847e+01
2.300000e-06	2.091042e-06	7.590731e-10	1.455781e+01	5.104422e+01
2.310000e-06	2.134645e-06	7.819121e-10	1.486138e+01	5.243158e+01
2.320000e-06	2.178162e-06	7.996757e-10	1.516434e+01	5.378066e+01
2.330000e-06	2.221561e-06	8.118967e-10	1.546648e+01	5.509168e+01
2.340000e-06	2.264759e-06	8.211810e-10	1.576722e+01	5.636493e+01
2.350000e-06	2.307767e-06	8.327033e-10	1.606664e+01	5.760076e+01
2.360000e-06	2.350609e-06	8.467288e-10	1.636491e+01	5.879961e+01
2.370000e-06	2.393148e-06	8.623430e-10	1.666107e+01	5.996194e+01
2.380000e-06	2.435259e-06	8.797965e-10	1.695424e+01	6.108829e+01
2.390000e-06	2.477138e-06	8.973521e-10	1.724581e+01	6.217922e+01
2.400000e-06	2.518873e-06	9.123076e-10	1.753636e+01	6.323536e+01
2.410000e-06	2.560255e-06	9.246354e-10	1.782447e+01	6.425736e+01
2.420000e-06	2.601206e-06	9.359464e-10	1.810956e+01	6.524590e+01
2.430000e-06	2.641856e-06	9.484806e-10	1.839257e+01	6.620171e+01
2.440000e-06	2.682333e-06	9.622207e-10	1.867437e+01	6.712554e+01
2.450000e-06	2.722623e-06	9.765116e-10	1.895487e+01	6.801817e+01
2.460000e-06	2.762684e-06	9.899458e-10	1.923377e+01	6.888040e+01
2.470000e-06	2.802533e-06	1.000099e-09	1.951120e+01	6.971308e+01
2.480000e-06	2.842253e-06	1.009520e-09	1.978773e+01	7.051706e+01
2.490000e-06	2.881863e-06	1.018748e-09	2.006349e+01	7.129321e+01
2.500000e-06	2.921422e-06	1.028200e-09	2.033890e+01	7.204243e+01
2.510000e-06	2.960895e-06	1.043390e-09	2.061372e+01	7.276564e+01
2.520000e-06	3.000146e-06	1.059423e-09	2.088698e+01	7.346376e+01
2.530000e-06	3.039121e-06	1.074326e-09	2.115833e+01	7.413771e+01
2.540000e-06	3.077878e-06	1.088326e-09	2.142815e+01	7.478843e+01
2.550000e-06	3.116401e-06	1.094540e-09	2.169634e+01	7.541686e+01
2.560000e-06	3.154690e-06	1.095366e-09	2.196291e+01	7.602391e+01
2.570000e-06	3.192802e-06	1.096787e-09	2.222825e+01	7.661051e+01
2.580000e-06	3.230743e-06	1.102403e-09	2.249239e+01	7.717754e+01
2.590000e-06	3.268466e-06	1.110784e-09	2.275502e+01	7.772589e+01
2.600000e-06	3.305977e-06	1.124051e-09	2.301617e+01	7.825638e+01
2.610000e-06	3.343244e-06	1.140066e-09	2.327563e+01	7.876982e+01
2.620000e-06	3.380222e-06	1.155992e-09	2.353306e+01	7.926699e+01
2.630000e-06	3.417025e-06	1.166158e-09	2.378929e+01	7.974860e+01
2.640000e-06	3.453631e-06	1.168374e-09	2.404414e+01	8.021531e+01
2.650000e-06	3.489955e-06	1.167501e-09	2.429702e+01	8.066775e+01
2.660000e-06	3.526015e-06	1.166826e-09	2.454807e+01	8.110648e+01
2.670000e-06	3.561832e-06	1.168313e-09	2.479743e+01	8.153199e+01
2.680000e-06	3.597518e-06	1.173839e-09	2.504587e+01	8.194474e+01
2.690000e-06	3.633126e-06	1.184522e-09	2.529378e+01	8.234511e+01
2.700000e-06	3.668651e-06	1.197173e-09	2.554110e+01	8.273343e+01
2.710000e-06	3.704113e-06	1.205527e-09	2.578799e+01	8.310997e+01
2.720000e-06	3.739312e-06	1.208525e-09	2.603305e+01	8.347494e+01
2.730000e-06	3.774124e-06	1.209247e-09	2.627540e+01	8.382854e+01
2.740000e-06	3.808482e-06	1.208313e-09	2.651461e+01	8.417087e+01
2.750000e-06	3.842253e-06	1.207965e-09	2.674972e+01	8.450205e+01
2.760000e-06	3.875439e-06	1.209609e-09	2.698076e+01	8.482212e+01
2.770000e-06	3.908152e-06	1.215732e-09	2.720850e+01	8.513114e+01
2.780000e-06	3.940551e-06	1.224203e-09	2.743407e+01	8.542911e+01
2.790000e-06	3.972699e-06	1.233437e-09	2.765788e+01	8.571606e+01
2.800000e-06	4.004574e-06	1.242355e-09	2.787980e+01	8.599200e+01
2.810000e-06	4.036259e-06	1.247500e-09	2.810039e+01	8.625693e+01
2.820000e-06	4.067787e-06	1.250111e-09	2.831988e+01	8.651089e+01
2.830000e-06	4.099107e-06	1.252186e-09	2.853793e+01	8.675393e+01
2.840000e-06	4.130230e-06	1.253532e-09	2.875461e+01	8.698611e+01
2.850000e-06	4.161074e-06	1.256227e-09	2.896935e+01	8.720753e+01
2.860000e-06	4.191642e-06	1.260097e-09	2.918216e+01	8.741833e+01
2.870000e-06	4.221923e-06	1.264558e-09	2.939297e+01	8.761866e+01
2.880000e-06	4.251853e-06	1.267064e-09	2.960135e+01	8.780872e+01
2.890000e-06	4.281518e-06	1.268814e-09	2.980788e+01	8.798877e+01
2.900000e-06	4.310963e-06	1.271870e-09	3.001287e+01	8.815907e+01
