# Temperatura_=_7.84
# Concentracion g/m^3_=_1620.0
# C_Vs_to_Am_M_A/Vsm_=_65563218390.804596
# pendiente_HvsI_1/m_=_3716.3
# ordenada_HvsI_A/m_=_1297.0
# frecuencia_Hz_=_135109.26132232035

Tiempo_(s)	Campo_(V.s)	Magnetizacion_(V.s)	Campo_(kA/m)	Magnetizacion_(A/m)
0.000000e+00	-5.508056e-06	-1.654412e-09	-3.836915e+01	-1.075801e+02
1.000000e-08	-5.508140e-06	-1.652624e-09	-3.836973e+01	-1.075300e+02
2.000000e-08	-5.507967e-06	-1.650409e-09	-3.836853e+01	-1.074802e+02
3.000000e-08	-5.507248e-06	-1.649224e-09	-3.836352e+01	-1.074303e+02
4.000000e-08	-5.505881e-06	-1.646481e-09	-3.835400e+01	-1.073802e+02
5.000000e-08	-5.504021e-06	-1.636823e-09	-3.834104e+01	-1.073295e+02
6.000000e-08	-5.501626e-06	-1.625957e-09	-3.832436e+01	-1.072778e+02
7.000000e-08	-5.498712e-06	-1.644376e-09	-3.830405e+01	-1.072246e+02
8.000000e-08	-5.495378e-06	-1.698079e-09	-3.828083e+01	-1.071697e+02
9.000000e-08	-5.491590e-06	-1.706169e-09	-3.825444e+01	-1.071124e+02
1.000000e-07	-5.487422e-06	-1.634073e-09	-3.822541e+01	-1.070524e+02
1.100000e-07	-5.483067e-06	-1.582573e-09	-3.819507e+01	-1.069892e+02
1.200000e-07	-5.478455e-06	-1.621127e-09	-3.816295e+01	-1.069224e+02
1.300000e-07	-5.473492e-06	-1.666917e-09	-3.812837e+01	-1.068515e+02
1.400000e-07	-5.468071e-06	-1.637235e-09	-3.809061e+01	-1.067762e+02
1.500000e-07	-5.462240e-06	-1.593966e-09	-3.804999e+01	-1.066961e+02
1.600000e-07	-5.456152e-06	-1.643218e-09	-3.800758e+01	-1.066110e+02
1.700000e-07	-5.449677e-06	-1.666257e-09	-3.796248e+01	-1.065205e+02
1.800000e-07	-5.442774e-06	-1.626433e-09	-3.791439e+01	-1.064245e+02
1.900000e-07	-5.435575e-06	-1.573928e-09	-3.786424e+01	-1.063229e+02
2.000000e-07	-5.428118e-06	-1.607525e-09	-3.781230e+01	-1.062156e+02
2.100000e-07	-5.420363e-06	-1.653270e-09	-3.775827e+01	-1.061025e+02
2.200000e-07	-5.412259e-06	-1.639301e-09	-3.770183e+01	-1.059838e+02
2.300000e-07	-5.403826e-06	-1.608757e-09	-3.764308e+01	-1.058595e+02
2.400000e-07	-5.394815e-06	-1.603588e-09	-3.758031e+01	-1.057299e+02
2.500000e-07	-5.384914e-06	-1.619574e-09	-3.751133e+01	-1.055951e+02
2.600000e-07	-5.374332e-06	-1.603633e-09	-3.743762e+01	-1.054555e+02
2.700000e-07	-5.363390e-06	-1.589581e-09	-3.736140e+01	-1.053113e+02
2.800000e-07	-5.352057e-06	-1.588472e-09	-3.728246e+01	-1.051629e+02
2.900000e-07	-5.340335e-06	-1.605213e-09	-3.720080e+01	-1.050107e+02
3.000000e-07	-5.328252e-06	-1.589761e-09	-3.711663e+01	-1.048551e+02
3.100000e-07	-5.315715e-06	-1.574400e-09	-3.702930e+01	-1.046966e+02
3.200000e-07	-5.302746e-06	-1.567995e-09	-3.693896e+01	-1.045355e+02
3.300000e-07	-5.289475e-06	-1.580563e-09	-3.684651e+01	-1.043722e+02
3.400000e-07	-5.275893e-06	-1.563214e-09	-3.675190e+01	-1.042072e+02
3.500000e-07	-5.261722e-06	-1.553230e-09	-3.665318e+01	-1.040408e+02
3.600000e-07	-5.246953e-06	-1.563921e-09	-3.655030e+01	-1.038735e+02
3.700000e-07	-5.231843e-06	-1.571757e-09	-3.644504e+01	-1.037054e+02
3.800000e-07	-5.216250e-06	-1.547525e-09	-3.633643e+01	-1.035368e+02
3.900000e-07	-5.200087e-06	-1.548617e-09	-3.622383e+01	-1.033681e+02
4.000000e-07	-5.183582e-06	-1.564099e-09	-3.610886e+01	-1.031992e+02
4.100000e-07	-5.166838e-06	-1.544148e-09	-3.599222e+01	-1.030305e+02
4.200000e-07	-5.149719e-06	-1.524445e-09	-3.587297e+01	-1.028618e+02
4.300000e-07	-5.132216e-06	-1.557716e-09	-3.575105e+01	-1.026933e+02
4.400000e-07	-5.114443e-06	-1.568411e-09	-3.562724e+01	-1.025248e+02
4.500000e-07	-5.096250e-06	-1.526162e-09	-3.550050e+01	-1.023564e+02
4.600000e-07	-5.077621e-06	-1.525814e-09	-3.537073e+01	-1.021877e+02
4.700000e-07	-5.058657e-06	-1.555863e-09	-3.523863e+01	-1.020186e+02
4.800000e-07	-5.039368e-06	-1.542738e-09	-3.510426e+01	-1.018489e+02
4.900000e-07	-5.019822e-06	-1.520174e-09	-3.496811e+01	-1.016784e+02
5.000000e-07	-5.000086e-06	-1.539968e-09	-3.483062e+01	-1.015066e+02
5.100000e-07	-4.980149e-06	-1.532206e-09	-3.469175e+01	-1.013334e+02
5.200000e-07	-4.959819e-06	-1.513331e-09	-3.455013e+01	-1.011583e+02
5.300000e-07	-4.939018e-06	-1.533447e-09	-3.440523e+01	-1.009811e+02
5.400000e-07	-4.917916e-06	-1.545827e-09	-3.425823e+01	-1.008014e+02
5.500000e-07	-4.896599e-06	-1.511258e-09	-3.410973e+01	-1.006189e+02
5.600000e-07	-4.874945e-06	-1.513236e-09	-3.395889e+01	-1.004334e+02
5.700000e-07	-4.852935e-06	-1.534797e-09	-3.380557e+01	-1.002444e+02
5.800000e-07	-4.830568e-06	-1.518542e-09	-3.364976e+01	-1.000518e+02
5.900000e-07	-4.807771e-06	-1.498627e-09	-3.349096e+01	-9.985542e+01
6.000000e-07	-4.784680e-06	-1.514160e-09	-3.333010e+01	-9.965500e+01
6.100000e-07	-4.761361e-06	-1.505127e-09	-3.316766e+01	-9.945044e+01
6.200000e-07	-4.737783e-06	-1.484214e-09	-3.300342e+01	-9.924164e+01
6.300000e-07	-4.714004e-06	-1.490912e-09	-3.283777e+01	-9.902855e+01
6.400000e-07	-4.689935e-06	-1.498653e-09	-3.267011e+01	-9.881116e+01
6.500000e-07	-4.665444e-06	-1.485084e-09	-3.249951e+01	-9.858949e+01
6.600000e-07	-4.640552e-06	-1.485726e-09	-3.232611e+01	-9.836360e+01
6.700000e-07	-4.615164e-06	-1.487964e-09	-3.214926e+01	-9.813361e+01
6.800000e-07	-4.589193e-06	-1.473041e-09	-3.196834e+01	-9.789962e+01
6.900000e-07	-4.562643e-06	-1.464034e-09	-3.178339e+01	-9.766180e+01
7.000000e-07	-4.535570e-06	-1.468111e-09	-3.159480e+01	-9.742031e+01
7.100000e-07	-4.508282e-06	-1.462481e-09	-3.140472e+01	-9.717531e+01
7.200000e-07	-4.480876e-06	-1.457605e-09	-3.121380e+01	-9.692700e+01
7.300000e-07	-4.453266e-06	-1.464396e-09	-3.102147e+01	-9.667555e+01
7.400000e-07	-4.425407e-06	-1.460775e-09	-3.082741e+01	-9.642113e+01
7.500000e-07	-4.397244e-06	-1.449655e-09	-3.063122e+01	-9.616389e+01
7.600000e-07	-4.368752e-06	-1.446784e-09	-3.043275e+01	-9.590396e+01
7.700000e-07	-4.339896e-06	-1.442157e-09	-3.023174e+01	-9.564143e+01
7.800000e-07	-4.310752e-06	-1.430677e-09	-3.002872e+01	-9.537639e+01
7.900000e-07	-4.281416e-06	-1.430506e-09	-2.982437e+01	-9.510887e+01
8.000000e-07	-4.251844e-06	-1.429294e-09	-2.961837e+01	-9.483885e+01
8.100000e-07	-4.221907e-06	-1.419689e-09	-2.940982e+01	-9.456629e+01
8.200000e-07	-4.191667e-06	-1.412865e-09	-2.919917e+01	-9.429111e+01
8.300000e-07	-4.161192e-06	-1.413380e-09	-2.898688e+01	-9.401317e+01
8.400000e-07	-4.130425e-06	-1.405219e-09	-2.877256e+01	-9.373230e+01
8.500000e-07	-4.099406e-06	-1.400909e-09	-2.855648e+01	-9.344830e+01
8.600000e-07	-4.068176e-06	-1.401357e-09	-2.833893e+01	-9.316093e+01
8.700000e-07	-4.036757e-06	-1.394400e-09	-2.812007e+01	-9.286991e+01
8.800000e-07	-4.005199e-06	-1.381896e-09	-2.790024e+01	-9.257495e+01
8.900000e-07	-3.973434e-06	-1.379170e-09	-2.767896e+01	-9.227574e+01
9.000000e-07	-3.941351e-06	-1.375509e-09	-2.745547e+01	-9.197196e+01
9.100000e-07	-3.908860e-06	-1.366436e-09	-2.722914e+01	-9.166328e+01
9.200000e-07	-3.875946e-06	-1.361960e-09	-2.699986e+01	-9.134939e+01
9.300000e-07	-3.842597e-06	-1.360929e-09	-2.676755e+01	-9.102997e+01
9.400000e-07	-3.808825e-06	-1.351258e-09	-2.653229e+01	-9.070474e+01
9.500000e-07	-3.774732e-06	-1.342762e-09	-2.629480e+01	-9.037343e+01
9.600000e-07	-3.740227e-06	-1.338503e-09	-2.605444e+01	-9.003582e+01
9.700000e-07	-3.705348e-06	-1.329837e-09	-2.581147e+01	-8.969171e+01
9.800000e-07	-3.670184e-06	-1.320259e-09	-2.556652e+01	-8.934097e+01
9.900000e-07	-3.634810e-06	-1.319612e-09	-2.532010e+01	-8.898349e+01
1.000000e-06	-3.599312e-06	-1.317809e-09	-2.507282e+01	-8.861924e+01
1.010000e-06	-3.563579e-06	-1.309423e-09	-2.482391e+01	-8.824822e+01
1.020000e-06	-3.527651e-06	-1.303922e-09	-2.457363e+01	-8.787050e+01
1.030000e-06	-3.491597e-06	-1.298719e-09	-2.432248e+01	-8.748620e+01
1.040000e-06	-3.455306e-06	-1.288811e-09	-2.406968e+01	-8.709550e+01
1.050000e-06	-3.418689e-06	-1.278865e-09	-2.381461e+01	-8.669861e+01
1.060000e-06	-3.381820e-06	-1.272376e-09	-2.355777e+01	-8.629581e+01
1.070000e-06	-3.344813e-06	-1.262031e-09	-2.329999e+01	-8.588739e+01
1.080000e-06	-3.307538e-06	-1.252719e-09	-2.304033e+01	-8.547370e+01
1.090000e-06	-3.269926e-06	-1.247149e-09	-2.277832e+01	-8.505509e+01
1.100000e-06	-3.232140e-06	-1.241118e-09	-2.251510e+01	-8.463195e+01
1.110000e-06	-3.194235e-06	-1.231648e-09	-2.225105e+01	-8.420465e+01
1.120000e-06	-3.156128e-06	-1.221164e-09	-2.198561e+01	-8.377359e+01
1.130000e-06	-3.117770e-06	-1.211097e-09	-2.171840e+01	-8.333912e+01
1.140000e-06	-3.079161e-06	-1.202934e-09	-2.144945e+01	-8.290160e+01
1.150000e-06	-3.040254e-06	-1.198123e-09	-2.117843e+01	-8.246133e+01
1.160000e-06	-3.001166e-06	-1.197791e-09	-2.090614e+01	-8.201860e+01
1.170000e-06	-2.961944e-06	-1.194306e-09	-2.063292e+01	-8.157361e+01
1.180000e-06	-2.922498e-06	-1.189944e-09	-2.035814e+01	-8.112654e+01
1.190000e-06	-2.882942e-06	-1.183761e-09	-2.008259e+01	-8.067749e+01
1.200000e-06	-2.843362e-06	-1.172037e-09	-1.980687e+01	-8.022649e+01
1.210000e-06	-2.803651e-06	-1.159093e-09	-1.953024e+01	-7.977348e+01
1.220000e-06	-2.763740e-06	-1.148985e-09	-1.925223e+01	-7.931836e+01
1.230000e-06	-2.723620e-06	-1.142321e-09	-1.897275e+01	-7.886091e+01
1.240000e-06	-2.683283e-06	-1.135977e-09	-1.869176e+01	-7.840087e+01
1.250000e-06	-2.642730e-06	-1.130768e-09	-1.840927e+01	-7.793788e+01
1.260000e-06	-2.601943e-06	-1.127152e-09	-1.812515e+01	-7.747152e+01
1.270000e-06	-2.560932e-06	-1.119964e-09	-1.783946e+01	-7.700128e+01
1.280000e-06	-2.519687e-06	-1.108165e-09	-1.755215e+01	-7.652661e+01
1.290000e-06	-2.478122e-06	-1.095759e-09	-1.726261e+01	-7.604691e+01
1.300000e-06	-2.436211e-06	-1.084831e-09	-1.697066e+01	-7.556151e+01
1.310000e-06	-2.393956e-06	-1.074690e-09	-1.667631e+01	-7.506972e+01
1.320000e-06	-2.351351e-06	-1.066727e-09	-1.637952e+01	-7.457083e+01
1.330000e-06	-2.308512e-06	-1.058885e-09	-1.608111e+01	-7.406410e+01
1.340000e-06	-2.265493e-06	-1.050319e-09	-1.578143e+01	-7.354879e+01
1.350000e-06	-2.222301e-06	-1.042848e-09	-1.548056e+01	-7.302418e+01
1.360000e-06	-2.178970e-06	-1.036341e-09	-1.517872e+01	-7.248956e+01
1.370000e-06	-2.135537e-06	-1.029935e-09	-1.487616e+01	-7.194424e+01
1.380000e-06	-2.091986e-06	-1.020510e-09	-1.457279e+01	-7.138757e+01
1.390000e-06	-2.048321e-06	-1.008390e-09	-1.426861e+01	-7.081897e+01
1.400000e-06	-2.004647e-06	-9.942370e-10	-1.396438e+01	-7.023788e+01
1.410000e-06	-1.960941e-06	-9.774456e-10	-1.365992e+01	-6.964383e+01
1.420000e-06	-1.917067e-06	-9.631487e-10	-1.335430e+01	-6.903640e+01
1.430000e-06	-1.873068e-06	-9.522900e-10	-1.304780e+01	-6.841524e+01
1.440000e-06	-1.829005e-06	-9.435818e-10	-1.274086e+01	-6.778007e+01
1.450000e-06	-1.784856e-06	-9.363628e-10	-1.243332e+01	-6.713068e+01
1.460000e-06	-1.740629e-06	-9.282142e-10	-1.212523e+01	-6.646693e+01
1.470000e-06	-1.696193e-06	-9.151445e-10	-1.181569e+01	-6.578874e+01
1.480000e-06	-1.651511e-06	-9.007859e-10	-1.150443e+01	-6.509608e+01
1.490000e-06	-1.606727e-06	-8.884622e-10	-1.119247e+01	-6.438897e+01
1.500000e-06	-1.561897e-06	-8.738077e-10	-1.088018e+01	-6.366747e+01
1.510000e-06	-1.516958e-06	-8.597870e-10	-1.056714e+01	-6.293167e+01
1.520000e-06	-1.471886e-06	-8.492161e-10	-1.025316e+01	-6.218168e+01
1.530000e-06	-1.426761e-06	-8.406333e-10	-9.938824e+00	-6.141759e+01
1.540000e-06	-1.381515e-06	-8.299401e-10	-9.623644e+00	-6.063951e+01
1.550000e-06	-1.336188e-06	-8.180476e-10	-9.307894e+00	-5.984749e+01
1.560000e-06	-1.290892e-06	-8.030128e-10	-8.992359e+00	-5.904157e+01
1.570000e-06	-1.245447e-06	-7.876622e-10	-8.675790e+00	-5.822172e+01
1.580000e-06	-1.199872e-06	-7.742550e-10	-8.358312e+00	-5.738784e+01
1.590000e-06	-1.154253e-06	-7.624008e-10	-8.040533e+00	-5.653976e+01
1.600000e-06	-1.108513e-06	-7.489728e-10	-7.721908e+00	-5.567721e+01
1.610000e-06	-1.062647e-06	-7.347936e-10	-7.402402e+00	-5.479982e+01
1.620000e-06	-1.016740e-06	-7.190450e-10	-7.082618e+00	-5.390711e+01
1.630000e-06	-9.707606e-07	-7.018908e-10	-6.762324e+00	-5.299846e+01
1.640000e-06	-9.246454e-07	-6.880104e-10	-6.441084e+00	-5.207317e+01
1.650000e-06	-8.785289e-07	-6.786409e-10	-6.119837e+00	-5.113037e+01
1.660000e-06	-8.324210e-07	-6.696047e-10	-5.798649e+00	-5.016909e+01
1.670000e-06	-7.862164e-07	-6.575676e-10	-5.476787e+00	-4.918823e+01
1.680000e-06	-7.399509e-07	-6.420803e-10	-5.154502e+00	-4.818658e+01
1.690000e-06	-6.936541e-07	-6.233199e-10	-4.831998e+00	-4.716280e+01
1.700000e-06	-6.473106e-07	-6.016256e-10	-4.509169e+00	-4.611548e+01
1.710000e-06	-6.008900e-07	-5.783432e-10	-4.185803e+00	-4.504310e+01
1.720000e-06	-5.544321e-07	-5.574798e-10	-3.862177e+00	-4.394407e+01
1.730000e-06	-5.079649e-07	-5.412159e-10	-3.538486e+00	-4.281676e+01
1.740000e-06	-4.614376e-07	-5.292298e-10	-3.214377e+00	-4.165949e+01
1.750000e-06	-4.148995e-07	-5.142422e-10	-2.890192e+00	-4.047060e+01
1.760000e-06	-3.683040e-07	-4.950345e-10	-2.565607e+00	-3.924838e+01
1.770000e-06	-3.215882e-07	-4.728747e-10	-2.240185e+00	-3.799122e+01
1.780000e-06	-2.748454e-07	-4.522709e-10	-1.914575e+00	-3.669752e+01
1.790000e-06	-2.280787e-07	-4.351431e-10	-1.588797e+00	-3.536578e+01
1.800000e-06	-1.812630e-07	-4.191898e-10	-1.262679e+00	-3.399460e+01
1.810000e-06	-1.344692e-07	-4.013551e-10	-9.367134e-01	-3.258272e+01
1.820000e-06	-8.772176e-08	-3.818966e-10	-6.110703e-01	-3.112904e+01
1.830000e-06	-4.096249e-08	-3.612335e-10	-2.853449e-01	-2.963262e+01
1.840000e-06	5.760770e-09	-3.398750e-10	4.012955e-02	-2.809272e+01
1.850000e-06	5.243462e-08	-3.191285e-10	3.652598e-01	-2.650883e+01
1.860000e-06	9.912898e-08	-2.991613e-10	6.905329e-01	-2.488068e+01
1.870000e-06	1.458496e-07	-2.775363e-10	1.015989e+00	-2.320822e+01
1.880000e-06	1.925036e-07	-2.538258e-10	1.340981e+00	-2.149168e+01
1.890000e-06	2.391776e-07	-2.283552e-10	1.666112e+00	-1.973158e+01
1.900000e-06	2.859852e-07	-1.992967e-10	1.992175e+00	-1.792866e+01
1.910000e-06	3.327619e-07	-1.703187e-10	2.318021e+00	-1.608400e+01
1.920000e-06	3.794211e-07	-1.423327e-10	2.643049e+00	-1.419892e+01
1.930000e-06	4.259853e-07	-1.174347e-10	2.967415e+00	-1.227502e+01
1.940000e-06	4.725004e-07	-9.644683e-11	3.291440e+00	-1.031417e+01
1.950000e-06	5.189583e-07	-7.373047e-11	3.615066e+00	-8.318499e+00
1.960000e-06	5.653746e-07	-4.762482e-11	3.938402e+00	-6.290377e+00
1.970000e-06	6.118262e-07	-1.869427e-11	4.261985e+00	-4.232399e+00
1.980000e-06	6.582993e-07	9.952937e-12	4.585716e+00	-2.147368e+00
1.990000e-06	7.046034e-07	3.931342e-11	4.908271e+00	-3.827619e-02
2.000000e-06	7.507499e-07	6.937202e-11	5.229728e+00	2.091724e+00
2.010000e-06	7.969094e-07	9.872253e-11	5.551275e+00	4.239342e+00
2.020000e-06	8.430457e-07	1.290422e-10	5.872660e+00	6.401175e+00
2.030000e-06	8.891177e-07	1.603573e-10	6.193598e+00	8.573736e+00
2.040000e-06	9.350988e-07	1.914562e-10	6.513903e+00	1.075349e+01
2.050000e-06	9.809129e-07	2.240640e-10	6.833044e+00	1.293686e+01
2.060000e-06	1.026626e-06	2.564353e-10	7.151485e+00	1.512029e+01
2.070000e-06	1.072353e-06	2.860810e-10	7.470019e+00	1.730025e+01
2.080000e-06	1.118036e-06	3.145933e-10	7.788247e+00	1.947326e+01
2.090000e-06	1.163631e-06	3.443665e-10	8.105857e+00	2.163594e+01
2.100000e-06	1.209209e-06	3.754811e-10	8.423353e+00	2.378501e+01
2.110000e-06	1.254715e-06	4.067562e-10	8.740352e+00	2.591732e+01
2.120000e-06	1.300100e-06	4.391513e-10	9.056501e+00	2.802990e+01
2.130000e-06	1.345416e-06	4.693835e-10	9.372174e+00	3.011991e+01
2.140000e-06	1.390675e-06	4.955332e-10	9.687449e+00	3.218475e+01
2.150000e-06	1.435840e-06	5.203190e-10	1.000207e+01	3.422199e+01
2.160000e-06	1.480835e-06	5.439098e-10	1.031550e+01	3.622942e+01
2.170000e-06	1.525755e-06	5.669217e-10	1.062842e+01	3.820507e+01
2.180000e-06	1.570638e-06	5.942590e-10	1.094107e+01	4.014718e+01
2.190000e-06	1.615336e-06	6.239918e-10	1.125244e+01	4.205423e+01
2.200000e-06	1.659869e-06	6.535831e-10	1.156265e+01	4.392495e+01
2.210000e-06	1.704276e-06	6.813904e-10	1.187199e+01	4.575825e+01
2.220000e-06	1.748546e-06	7.064658e-10	1.218038e+01	4.755332e+01
2.230000e-06	1.792658e-06	7.293759e-10	1.248767e+01	4.930952e+01
2.240000e-06	1.836643e-06	7.504504e-10	1.279406e+01	5.102645e+01
2.250000e-06	1.880546e-06	7.692335e-10	1.309989e+01	5.270388e+01
2.260000e-06	1.924369e-06	7.887468e-10	1.340517e+01	5.434177e+01
2.270000e-06	1.968116e-06	8.104391e-10	1.370991e+01	5.594025e+01
2.280000e-06	2.011813e-06	8.341832e-10	1.401430e+01	5.749959e+01
2.290000e-06	2.055468e-06	8.570347e-10	1.431840e+01	5.902021e+01
2.300000e-06	2.099066e-06	8.788891e-10	1.462210e+01	6.050261e+01
2.310000e-06	2.142636e-06	9.000819e-10	1.492561e+01	6.194744e+01
2.320000e-06	2.186111e-06	9.182567e-10	1.522846e+01	6.335539e+01
2.330000e-06	2.229400e-06	9.346382e-10	1.553001e+01	6.472722e+01
2.340000e-06	2.272505e-06	9.506585e-10	1.583028e+01	6.606376e+01
2.350000e-06	2.315477e-06	9.671325e-10	1.612962e+01	6.736584e+01
2.360000e-06	2.358298e-06	9.855060e-10	1.642791e+01	6.863432e+01
2.370000e-06	2.400822e-06	1.003568e-09	1.672414e+01	6.987008e+01
2.380000e-06	2.443063e-06	1.020665e-09	1.701839e+01	7.107396e+01
2.390000e-06	2.485024e-06	1.036219e-09	1.731069e+01	7.224681e+01
2.400000e-06	2.526543e-06	1.049691e-09	1.759991e+01	7.338941e+01
2.410000e-06	2.567675e-06	1.062792e-09	1.788643e+01	7.450256e+01
2.420000e-06	2.608484e-06	1.075210e-09	1.817071e+01	7.558697e+01
2.430000e-06	2.649007e-06	1.090585e-09	1.845299e+01	7.664332e+01
2.440000e-06	2.689329e-06	1.108096e-09	1.873388e+01	7.767226e+01
2.450000e-06	2.729494e-06	1.126097e-09	1.901367e+01	7.867436e+01
2.460000e-06	2.769488e-06	1.141539e-09	1.929226e+01	7.965015e+01
2.470000e-06	2.809270e-06	1.154222e-09	1.956939e+01	8.060014e+01
2.480000e-06	2.848916e-06	1.164962e-09	1.984556e+01	8.152476e+01
2.490000e-06	2.888507e-06	1.174676e-09	2.012135e+01	8.242442e+01
2.500000e-06	2.927990e-06	1.184599e-09	2.039639e+01	8.329951e+01
2.510000e-06	2.967319e-06	1.197712e-09	2.067036e+01	8.415035e+01
2.520000e-06	3.006483e-06	1.210896e-09	2.094318e+01	8.497729e+01
2.530000e-06	3.045492e-06	1.226091e-09	2.121491e+01	8.578063e+01
2.540000e-06	3.084282e-06	1.242283e-09	2.148513e+01	8.656068e+01
2.550000e-06	3.122731e-06	1.253422e-09	2.175296e+01	8.731775e+01
2.560000e-06	3.160894e-06	1.259035e-09	2.201881e+01	8.805214e+01
2.570000e-06	3.198837e-06	1.262543e-09	2.228311e+01	8.876418e+01
2.580000e-06	3.236593e-06	1.266821e-09	2.254612e+01	8.945422e+01
2.590000e-06	3.274186e-06	1.274648e-09	2.280800e+01	9.012262e+01
2.600000e-06	3.311615e-06	1.288396e-09	2.306873e+01	9.076978e+01
2.610000e-06	3.348866e-06	1.304772e-09	2.332822e+01	9.139611e+01
2.620000e-06	3.385840e-06	1.320092e-09	2.358578e+01	9.200209e+01
2.630000e-06	3.422490e-06	1.330634e-09	2.384109e+01	9.258820e+01
2.640000e-06	3.458882e-06	1.337558e-09	2.409459e+01	9.315497e+01
2.650000e-06	3.495006e-06	1.341628e-09	2.434623e+01	9.370297e+01
2.660000e-06	3.530884e-06	1.345449e-09	2.459616e+01	9.423277e+01
2.670000e-06	3.566642e-06	1.350294e-09	2.484525e+01	9.474501e+01
2.680000e-06	3.602300e-06	1.357645e-09	2.509364e+01	9.524033e+01
2.690000e-06	3.637806e-06	1.367196e-09	2.534097e+01	9.571940e+01
2.700000e-06	3.673147e-06	1.376304e-09	2.558716e+01	9.618289e+01
2.710000e-06	3.708351e-06	1.382278e-09	2.583239e+01	9.663150e+01
2.720000e-06	3.743290e-06	1.386259e-09	2.607577e+01	9.706591e+01
2.730000e-06	3.777818e-06	1.388908e-09	2.631630e+01	9.748682e+01
2.740000e-06	3.811923e-06	1.391825e-09	2.655387e+01	9.789490e+01
2.750000e-06	3.845537e-06	1.395499e-09	2.678803e+01	9.829080e+01
2.760000e-06	3.878661e-06	1.401914e-09	2.701877e+01	9.867516e+01
2.770000e-06	3.911440e-06	1.410310e-09	2.724711e+01	9.904859e+01
2.780000e-06	3.943904e-06	1.418319e-09	2.747326e+01	9.941165e+01
2.790000e-06	3.976041e-06	1.425260e-09	2.769712e+01	9.976486e+01
2.800000e-06	4.007883e-06	1.430869e-09	2.791893e+01	1.001087e+02
2.810000e-06	4.039509e-06	1.435629e-09	2.813924e+01	1.004436e+02
2.820000e-06	4.071048e-06	1.440240e-09	2.835894e+01	1.007699e+02
2.830000e-06	4.102433e-06	1.446018e-09	2.857757e+01	1.010881e+02
2.840000e-06	4.133561e-06	1.453165e-09	2.879440e+01	1.013982e+02
2.850000e-06	4.164422e-06	1.460508e-09	2.900939e+01	1.017006e+02
2.860000e-06	4.194939e-06	1.468144e-09	2.922197e+01	1.019954e+02
2.870000e-06	4.225082e-06	1.475904e-09	2.943195e+01	1.022827e+02
2.880000e-06	4.254925e-06	1.480311e-09	2.963983e+01	1.025625e+02
2.890000e-06	4.284509e-06	1.482628e-09	2.984591e+01	1.028350e+02
2.900000e-06	4.313844e-06	1.486201e-09	3.005026e+01	1.031001e+02
