# Temperatura_=_-7.2
# Concentracion g/m^3_=_1620.0
# C_Vs_to_Am_M_A/Vsm_=_65563218390.804596
# pendiente_HvsI_1/m_=_3716.3
# ordenada_HvsI_A/m_=_1297.0
# frecuencia_Hz_=_135109.3234208782

Tiempo_(s)	Campo_(V.s)	Magnetizacion_(V.s)	Campo_(kA/m)	Magnetizacion_(A/m)
0.000000e+00	-5.519677e-06	-1.469733e-09	-3.836949e+01	-9.558857e+01
1.000000e-08	-5.519767e-06	-1.468664e-09	-3.837011e+01	-9.548722e+01
2.000000e-08	-5.519540e-06	-1.467013e-09	-3.836853e+01	-9.538799e+01
3.000000e-08	-5.518840e-06	-1.461604e-09	-3.836367e+01	-9.529087e+01
4.000000e-08	-5.517612e-06	-1.454020e-09	-3.835514e+01	-9.519580e+01
5.000000e-08	-5.515983e-06	-1.448900e-09	-3.834381e+01	-9.510265e+01
6.000000e-08	-5.513952e-06	-1.449314e-09	-3.832969e+01	-9.501121e+01
7.000000e-08	-5.511295e-06	-1.456515e-09	-3.831123e+01	-9.492122e+01
8.000000e-08	-5.507987e-06	-1.450778e-09	-3.828822e+01	-9.483237e+01
9.000000e-08	-5.504232e-06	-1.431317e-09	-3.826212e+01	-9.474430e+01
1.000000e-07	-5.500142e-06	-1.436522e-09	-3.823369e+01	-9.465663e+01
1.100000e-07	-5.495731e-06	-1.467210e-09	-3.820303e+01	-9.456891e+01
1.200000e-07	-5.491067e-06	-1.426545e-09	-3.817061e+01	-9.448072e+01
1.300000e-07	-5.486184e-06	-1.389673e-09	-3.813667e+01	-9.439159e+01
1.400000e-07	-5.480938e-06	-1.413359e-09	-3.810020e+01	-9.430107e+01
1.500000e-07	-5.475220e-06	-1.465349e-09	-3.806045e+01	-9.420869e+01
1.600000e-07	-5.469149e-06	-1.473407e-09	-3.801825e+01	-9.411404e+01
1.700000e-07	-5.462740e-06	-1.411233e-09	-3.797370e+01	-9.401668e+01
1.800000e-07	-5.455849e-06	-1.412586e-09	-3.792580e+01	-9.391624e+01
1.900000e-07	-5.448516e-06	-1.438109e-09	-3.787482e+01	-9.381237e+01
2.000000e-07	-5.440903e-06	-1.438916e-09	-3.782190e+01	-9.370474e+01
2.100000e-07	-5.433083e-06	-1.411971e-09	-3.776754e+01	-9.359310e+01
2.200000e-07	-5.424994e-06	-1.399933e-09	-3.771131e+01	-9.347722e+01
2.300000e-07	-5.416568e-06	-1.419024e-09	-3.765273e+01	-9.335694e+01
2.400000e-07	-5.407641e-06	-1.418306e-09	-3.759069e+01	-9.323214e+01
2.500000e-07	-5.398033e-06	-1.403403e-09	-3.752389e+01	-9.310275e+01
2.600000e-07	-5.387735e-06	-1.394233e-09	-3.745231e+01	-9.296874e+01
2.700000e-07	-5.376884e-06	-1.404242e-09	-3.737688e+01	-9.283014e+01
2.800000e-07	-5.365642e-06	-1.400109e-09	-3.729873e+01	-9.268702e+01
2.900000e-07	-5.353945e-06	-1.394700e-09	-3.721742e+01	-9.253949e+01
3.000000e-07	-5.341775e-06	-1.388051e-09	-3.713282e+01	-9.238769e+01
3.100000e-07	-5.329285e-06	-1.393909e-09	-3.704600e+01	-9.223179e+01
3.200000e-07	-5.316412e-06	-1.395355e-09	-3.695651e+01	-9.207200e+01
3.300000e-07	-5.303074e-06	-1.381987e-09	-3.686380e+01	-9.190853e+01
3.400000e-07	-5.289391e-06	-1.372919e-09	-3.676868e+01	-9.174161e+01
3.500000e-07	-5.275312e-06	-1.385035e-09	-3.667081e+01	-9.157149e+01
3.600000e-07	-5.260779e-06	-1.392417e-09	-3.656978e+01	-9.139841e+01
3.700000e-07	-5.245763e-06	-1.380075e-09	-3.646540e+01	-9.122261e+01
3.800000e-07	-5.230286e-06	-1.387481e-09	-3.635782e+01	-9.104433e+01
3.900000e-07	-5.214353e-06	-1.392071e-09	-3.624706e+01	-9.086380e+01
4.000000e-07	-5.197935e-06	-1.359022e-09	-3.613293e+01	-9.068123e+01
4.100000e-07	-5.181159e-06	-1.349690e-09	-3.601632e+01	-9.049684e+01
4.200000e-07	-5.164033e-06	-1.386165e-09	-3.589726e+01	-9.031079e+01
4.300000e-07	-5.146549e-06	-1.375662e-09	-3.577573e+01	-9.012327e+01
4.400000e-07	-5.128768e-06	-1.339804e-09	-3.565212e+01	-8.993443e+01
4.500000e-07	-5.110645e-06	-1.373253e-09	-3.552615e+01	-8.974439e+01
4.600000e-07	-5.092055e-06	-1.396040e-09	-3.539692e+01	-8.955327e+01
4.700000e-07	-5.073115e-06	-1.339656e-09	-3.526526e+01	-8.936117e+01
4.800000e-07	-5.053921e-06	-1.338204e-09	-3.513183e+01	-8.916819e+01
4.900000e-07	-5.034409e-06	-1.378526e-09	-3.499620e+01	-8.897439e+01
5.000000e-07	-5.014619e-06	-1.340743e-09	-3.485863e+01	-8.877985e+01
5.100000e-07	-4.994609e-06	-1.308960e-09	-3.471953e+01	-8.858463e+01
5.200000e-07	-4.974295e-06	-1.368545e-09	-3.457832e+01	-8.838878e+01
5.300000e-07	-4.953597e-06	-1.368266e-09	-3.443444e+01	-8.819235e+01
5.400000e-07	-4.932580e-06	-1.313150e-09	-3.428834e+01	-8.799542e+01
5.500000e-07	-4.911205e-06	-1.334040e-09	-3.413976e+01	-8.779802e+01
5.600000e-07	-4.889441e-06	-1.358952e-09	-3.398847e+01	-8.760024e+01
5.700000e-07	-4.867388e-06	-1.307708e-09	-3.383517e+01	-8.740212e+01
5.800000e-07	-4.845064e-06	-1.306747e-09	-3.367998e+01	-8.720375e+01
5.900000e-07	-4.822344e-06	-1.345250e-09	-3.352205e+01	-8.700520e+01
6.000000e-07	-4.799281e-06	-1.313660e-09	-3.336173e+01	-8.680654e+01
6.100000e-07	-4.776005e-06	-1.286314e-09	-3.319992e+01	-8.660787e+01
6.200000e-07	-4.752408e-06	-1.319756e-09	-3.303589e+01	-8.640926e+01
6.300000e-07	-4.728463e-06	-1.313771e-09	-3.286944e+01	-8.621079e+01
6.400000e-07	-4.704275e-06	-1.285267e-09	-3.270130e+01	-8.601254e+01
6.500000e-07	-4.679833e-06	-1.304667e-09	-3.253140e+01	-8.581457e+01
6.600000e-07	-4.655000e-06	-1.311171e-09	-3.235877e+01	-8.561693e+01
6.700000e-07	-4.629572e-06	-1.281747e-09	-3.218201e+01	-8.541967e+01
6.800000e-07	-4.603659e-06	-1.282731e-09	-3.200188e+01	-8.522278e+01
6.900000e-07	-4.577311e-06	-1.294416e-09	-3.181872e+01	-8.502628e+01
7.000000e-07	-4.550449e-06	-1.275126e-09	-3.163199e+01	-8.483011e+01
7.100000e-07	-4.523179e-06	-1.269461e-09	-3.144243e+01	-8.463421e+01
7.200000e-07	-4.495655e-06	-1.283766e-09	-3.125110e+01	-8.443849e+01
7.300000e-07	-4.467950e-06	-1.281383e-09	-3.105851e+01	-8.424279e+01
7.400000e-07	-4.440025e-06	-1.269032e-09	-3.086440e+01	-8.404694e+01
7.500000e-07	-4.411845e-06	-1.269687e-09	-3.066850e+01	-8.385073e+01
7.600000e-07	-4.383395e-06	-1.266138e-09	-3.047074e+01	-8.365390e+01
7.700000e-07	-4.354642e-06	-1.256873e-09	-3.027086e+01	-8.345616e+01
7.800000e-07	-4.325492e-06	-1.253685e-09	-3.006823e+01	-8.325718e+01
7.900000e-07	-4.296070e-06	-1.253868e-09	-2.986371e+01	-8.305660e+01
8.000000e-07	-4.266409e-06	-1.247138e-09	-2.965752e+01	-8.285403e+01
8.100000e-07	-4.236491e-06	-1.242620e-09	-2.944955e+01	-8.264905e+01
8.200000e-07	-4.206311e-06	-1.237727e-09	-2.923975e+01	-8.244124e+01
8.300000e-07	-4.175801e-06	-1.230795e-09	-2.902767e+01	-8.223016e+01
8.400000e-07	-4.145008e-06	-1.226010e-09	-2.881361e+01	-8.201534e+01
8.500000e-07	-4.113978e-06	-1.228962e-09	-2.859791e+01	-8.179635e+01
8.600000e-07	-4.082765e-06	-1.227900e-09	-2.838094e+01	-8.157275e+01
8.700000e-07	-4.051291e-06	-1.222738e-09	-2.816215e+01	-8.134412e+01
8.800000e-07	-4.019573e-06	-1.219441e-09	-2.794167e+01	-8.111008e+01
8.900000e-07	-3.987720e-06	-1.213954e-09	-2.772024e+01	-8.087027e+01
9.000000e-07	-3.955658e-06	-1.205996e-09	-2.749737e+01	-8.062438e+01
9.100000e-07	-3.923239e-06	-1.202035e-09	-2.727201e+01	-8.037215e+01
9.200000e-07	-3.890371e-06	-1.197506e-09	-2.704353e+01	-8.011337e+01
9.300000e-07	-3.857006e-06	-1.189227e-09	-2.681160e+01	-7.984790e+01
9.400000e-07	-3.823190e-06	-1.184107e-09	-2.657653e+01	-7.957566e+01
9.500000e-07	-3.788977e-06	-1.181575e-09	-2.633870e+01	-7.929664e+01
9.600000e-07	-3.754360e-06	-1.173112e-09	-2.609806e+01	-7.901091e+01
9.700000e-07	-3.719461e-06	-1.164230e-09	-2.585546e+01	-7.871861e+01
9.800000e-07	-3.684355e-06	-1.161060e-09	-2.561143e+01	-7.841993e+01
9.900000e-07	-3.648988e-06	-1.155342e-09	-2.536558e+01	-7.811515e+01
1.000000e-06	-3.613397e-06	-1.147905e-09	-2.511817e+01	-7.780463e+01
1.010000e-06	-3.577666e-06	-1.143090e-09	-2.486980e+01	-7.748874e+01
1.020000e-06	-3.541775e-06	-1.139548e-09	-2.462030e+01	-7.716797e+01
1.030000e-06	-3.505658e-06	-1.133761e-09	-2.436923e+01	-7.684279e+01
1.040000e-06	-3.469273e-06	-1.131290e-09	-2.411631e+01	-7.651375e+01
1.050000e-06	-3.432646e-06	-1.129965e-09	-2.386170e+01	-7.618141e+01
1.060000e-06	-3.395740e-06	-1.120903e-09	-2.360515e+01	-7.584635e+01
1.070000e-06	-3.358540e-06	-1.106370e-09	-2.334656e+01	-7.550916e+01
1.080000e-06	-3.321147e-06	-1.097967e-09	-2.308662e+01	-7.517041e+01
1.090000e-06	-3.283544e-06	-1.092077e-09	-2.282523e+01	-7.483066e+01
1.100000e-06	-3.245683e-06	-1.085830e-09	-2.256205e+01	-7.449044e+01
1.110000e-06	-3.207561e-06	-1.082896e-09	-2.229704e+01	-7.415023e+01
1.120000e-06	-3.169177e-06	-1.080753e-09	-2.203022e+01	-7.381046e+01
1.130000e-06	-3.130598e-06	-1.072811e-09	-2.176204e+01	-7.347150e+01
1.140000e-06	-3.091884e-06	-1.064526e-09	-2.149293e+01	-7.313364e+01
1.150000e-06	-3.052928e-06	-1.058813e-09	-2.122212e+01	-7.279709e+01
1.160000e-06	-3.013731e-06	-1.050862e-09	-2.094965e+01	-7.246198e+01
1.170000e-06	-2.974458e-06	-1.042094e-09	-2.067665e+01	-7.212834e+01
1.180000e-06	-2.935078e-06	-1.037492e-09	-2.040290e+01	-7.179610e+01
1.190000e-06	-2.895516e-06	-1.036873e-09	-2.012789e+01	-7.146509e+01
1.200000e-06	-2.855800e-06	-1.032343e-09	-1.985181e+01	-7.113506e+01
1.210000e-06	-2.815979e-06	-1.026308e-09	-1.957500e+01	-7.080564e+01
1.220000e-06	-2.776013e-06	-1.020104e-09	-1.929718e+01	-7.047637e+01
1.230000e-06	-2.735876e-06	-1.009750e-09	-1.901817e+01	-7.014671e+01
1.240000e-06	-2.695566e-06	-9.989093e-10	-1.873796e+01	-6.981605e+01
1.250000e-06	-2.655058e-06	-9.912298e-10	-1.845637e+01	-6.948367e+01
1.260000e-06	-2.614235e-06	-9.862556e-10	-1.817260e+01	-6.914882e+01
1.270000e-06	-2.573155e-06	-9.819767e-10	-1.788703e+01	-6.881069e+01
1.280000e-06	-2.531877e-06	-9.776136e-10	-1.760009e+01	-6.846842e+01
1.290000e-06	-2.490208e-06	-9.729400e-10	-1.731043e+01	-6.812113e+01
1.300000e-06	-2.448180e-06	-9.649364e-10	-1.701828e+01	-6.776792e+01
1.310000e-06	-2.405904e-06	-9.560030e-10	-1.672441e+01	-6.740789e+01
1.320000e-06	-2.363311e-06	-9.478556e-10	-1.642832e+01	-6.704017e+01
1.330000e-06	-2.320371e-06	-9.389120e-10	-1.612983e+01	-6.666388e+01
1.340000e-06	-2.277253e-06	-9.317851e-10	-1.583010e+01	-6.627821e+01
1.350000e-06	-2.234036e-06	-9.282452e-10	-1.552968e+01	-6.588238e+01
1.360000e-06	-2.190613e-06	-9.247110e-10	-1.522783e+01	-6.547568e+01
1.370000e-06	-2.147016e-06	-9.194413e-10	-1.492477e+01	-6.505746e+01
1.380000e-06	-2.103351e-06	-9.126082e-10	-1.462123e+01	-6.462716e+01
1.390000e-06	-2.059619e-06	-9.003625e-10	-1.431724e+01	-6.418429e+01
1.400000e-06	-2.015859e-06	-8.857501e-10	-1.401304e+01	-6.372845e+01
1.410000e-06	-1.972035e-06	-8.734166e-10	-1.370841e+01	-6.325934e+01
1.420000e-06	-1.928056e-06	-8.644964e-10	-1.340269e+01	-6.277674e+01
1.430000e-06	-1.884025e-06	-8.570105e-10	-1.309661e+01	-6.228052e+01
1.440000e-06	-1.839972e-06	-8.510958e-10	-1.279038e+01	-6.177065e+01
1.450000e-06	-1.795742e-06	-8.460810e-10	-1.248292e+01	-6.124714e+01
1.460000e-06	-1.751311e-06	-8.376326e-10	-1.217407e+01	-6.071013e+01
1.470000e-06	-1.706777e-06	-8.262494e-10	-1.186449e+01	-6.015977e+01
1.480000e-06	-1.662115e-06	-8.149548e-10	-1.155403e+01	-5.959629e+01
1.490000e-06	-1.617341e-06	-8.035961e-10	-1.124279e+01	-5.901997e+01
1.500000e-06	-1.572458e-06	-7.911894e-10	-1.093078e+01	-5.843110e+01
1.510000e-06	-1.527406e-06	-7.791325e-10	-1.061761e+01	-5.782998e+01
1.520000e-06	-1.482245e-06	-7.696509e-10	-1.030368e+01	-5.721692e+01
1.530000e-06	-1.436983e-06	-7.603658e-10	-9.989046e+00	-5.659222e+01
1.540000e-06	-1.391623e-06	-7.501190e-10	-9.673726e+00	-5.595613e+01
1.550000e-06	-1.346182e-06	-7.376886e-10	-9.357854e+00	-5.530887e+01
1.560000e-06	-1.300710e-06	-7.229637e-10	-9.041760e+00	-5.465059e+01
1.570000e-06	-1.255166e-06	-7.086687e-10	-8.725161e+00	-5.398135e+01
1.580000e-06	-1.209502e-06	-6.966835e-10	-8.407736e+00	-5.330117e+01
1.590000e-06	-1.163765e-06	-6.855947e-10	-8.089795e+00	-5.260990e+01
1.600000e-06	-1.118007e-06	-6.730925e-10	-7.771716e+00	-5.190735e+01
1.610000e-06	-1.072167e-06	-6.614089e-10	-7.453063e+00	-5.119315e+01
1.620000e-06	-1.026149e-06	-6.515247e-10	-7.133173e+00	-5.046685e+01
1.630000e-06	-9.800003e-07	-6.435824e-10	-6.812376e+00	-4.972784e+01
1.640000e-06	-9.337987e-07	-6.364935e-10	-6.491210e+00	-4.897539e+01
1.650000e-06	-8.874881e-07	-6.290823e-10	-6.169286e+00	-4.820864e+01
1.660000e-06	-8.410823e-07	-6.190746e-10	-5.846701e+00	-4.742658e+01
1.670000e-06	-7.946269e-07	-6.052725e-10	-5.523771e+00	-4.662811e+01
1.680000e-06	-7.481460e-07	-5.886275e-10	-5.200663e+00	-4.581197e+01
1.690000e-06	-7.017100e-07	-5.729264e-10	-4.877867e+00	-4.497681e+01
1.700000e-06	-6.552569e-07	-5.566754e-10	-4.554953e+00	-4.412117e+01
1.710000e-06	-6.087199e-07	-5.401509e-10	-4.231456e+00	-4.324351e+01
1.720000e-06	-5.620860e-07	-5.246567e-10	-3.907285e+00	-4.234222e+01
1.730000e-06	-5.154183e-07	-5.116203e-10	-3.582879e+00	-4.141562e+01
1.740000e-06	-4.687782e-07	-5.008615e-10	-3.258665e+00	-4.046200e+01
1.750000e-06	-4.221386e-07	-4.872186e-10	-2.934455e+00	-3.947964e+01
1.760000e-06	-3.754609e-07	-4.698520e-10	-2.609979e+00	-3.846680e+01
1.770000e-06	-3.287062e-07	-4.513050e-10	-2.284969e+00	-3.742178e+01
1.780000e-06	-2.818304e-07	-4.338597e-10	-1.959116e+00	-3.634293e+01
1.790000e-06	-2.348912e-07	-4.178651e-10	-1.632823e+00	-3.522863e+01
1.800000e-06	-1.880078e-07	-4.038107e-10	-1.306918e+00	-3.407738e+01
1.810000e-06	-1.412738e-07	-3.906365e-10	-9.820510e-01	-3.288778e+01
1.820000e-06	-9.454634e-08	-3.764310e-10	-6.572295e-01	-3.165854e+01
1.830000e-06	-4.769361e-08	-3.589765e-10	-3.315374e-01	-3.038854e+01
1.840000e-06	-7.954040e-10	-3.377760e-10	-5.529172e-03	-2.907680e+01
1.850000e-06	4.606759e-08	-3.155777e-10	3.202343e-01	-2.772255e+01
1.860000e-06	9.286347e-08	-2.955321e-10	6.455313e-01	-2.632520e+01
1.870000e-06	1.396819e-07	-2.770809e-10	9.709851e-01	-2.488436e+01
1.880000e-06	1.865214e-07	-2.589773e-10	1.296585e+00	-2.339988e+01
1.890000e-06	2.333297e-07	-2.396722e-10	1.621968e+00	-2.187183e+01
1.900000e-06	2.800951e-07	-2.181663e-10	1.947053e+00	-2.030053e+01
1.910000e-06	3.267790e-07	-1.947227e-10	2.271572e+00	-1.868652e+01
1.920000e-06	3.734176e-07	-1.693132e-10	2.595775e+00	-1.703060e+01
1.930000e-06	4.200447e-07	-1.441054e-10	2.919899e+00	-1.533381e+01
1.940000e-06	4.666565e-07	-1.209194e-10	3.243917e+00	-1.359743e+01
1.950000e-06	5.132098e-07	-9.859683e-11	3.567527e+00	-1.182297e+01
1.960000e-06	5.596846e-07	-7.598294e-11	3.890592e+00	-1.001219e+01
1.970000e-06	6.061770e-07	-5.392515e-11	4.213780e+00	-8.167034e+00
1.980000e-06	6.526952e-07	-3.132732e-11	4.537146e+00	-6.289687e+00
1.990000e-06	6.991316e-07	-4.577702e-12	4.859944e+00	-4.382509e+00
2.000000e-06	7.454967e-07	2.573824e-11	5.182247e+00	-2.448043e+00
2.010000e-06	7.918039e-07	5.528083e-11	5.504146e+00	-4.889915e-01
2.020000e-06	8.380284e-07	8.392605e-11	5.825472e+00	1.491801e+00
2.030000e-06	8.842299e-07	1.123418e-10	6.146637e+00	3.491368e+00
2.040000e-06	9.304292e-07	1.385649e-10	6.467787e+00	5.506642e+00
2.050000e-06	9.765270e-07	1.641322e-10	6.788231e+00	7.534476e+00
2.060000e-06	1.022507e-06	1.902033e-10	7.107855e+00	9.571669e+00
2.070000e-06	1.068417e-06	2.160635e-10	7.426998e+00	1.161498e+01
2.080000e-06	1.114268e-06	2.420883e-10	7.745723e+00	1.366117e+01
2.090000e-06	1.160067e-06	2.695199e-10	8.064089e+00	1.570699e+01
2.100000e-06	1.205832e-06	2.986909e-10	8.382220e+00	1.774925e+01
2.110000e-06	1.251458e-06	3.274027e-10	8.699384e+00	1.978479e+01
2.120000e-06	1.296920e-06	3.554991e-10	9.015412e+00	2.181056e+01
2.130000e-06	1.342353e-06	3.834122e-10	9.331236e+00	2.382356e+01
2.140000e-06	1.387719e-06	4.088670e-10	9.646594e+00	2.582095e+01
2.150000e-06	1.432958e-06	4.315903e-10	9.961065e+00	2.780000e+01
2.160000e-06	1.478087e-06	4.540459e-10	1.027477e+01	2.975811e+01
2.170000e-06	1.523146e-06	4.786886e-10	1.058800e+01	3.169287e+01
2.180000e-06	1.568068e-06	5.065740e-10	1.090027e+01	3.360203e+01
2.190000e-06	1.612825e-06	5.358415e-10	1.121139e+01	3.548353e+01
2.200000e-06	1.657474e-06	5.644721e-10	1.152177e+01	3.733547e+01
2.210000e-06	1.701973e-06	5.919356e-10	1.183110e+01	3.915618e+01
2.220000e-06	1.746303e-06	6.182677e-10	1.213926e+01	4.094418e+01
2.230000e-06	1.790563e-06	6.425956e-10	1.244692e+01	4.269817e+01
2.240000e-06	1.834717e-06	6.629177e-10	1.275385e+01	4.441707e+01
2.250000e-06	1.878725e-06	6.804206e-10	1.305977e+01	4.610000e+01
2.260000e-06	1.922676e-06	6.987009e-10	1.336529e+01	4.774626e+01
2.270000e-06	1.966605e-06	7.194261e-10	1.367066e+01	4.935533e+01
2.280000e-06	2.010482e-06	7.421938e-10	1.397567e+01	5.092688e+01
2.290000e-06	2.054234e-06	7.657828e-10	1.427980e+01	5.246076e+01
2.300000e-06	2.097864e-06	7.890611e-10	1.458310e+01	5.395695e+01
2.310000e-06	2.141416e-06	8.099272e-10	1.488584e+01	5.541560e+01
2.320000e-06	2.184912e-06	8.275103e-10	1.518820e+01	5.683697e+01
2.330000e-06	2.228362e-06	8.431478e-10	1.549024e+01	5.822146e+01
2.340000e-06	2.271708e-06	8.588566e-10	1.579155e+01	5.956957e+01
2.350000e-06	2.314845e-06	8.756724e-10	1.609142e+01	6.088187e+01
2.360000e-06	2.357718e-06	8.932114e-10	1.638944e+01	6.215903e+01
2.370000e-06	2.400311e-06	9.128437e-10	1.668552e+01	6.340178e+01
2.380000e-06	2.442666e-06	9.327419e-10	1.697995e+01	6.461087e+01
2.390000e-06	2.484779e-06	9.494799e-10	1.727269e+01	6.578710e+01
2.400000e-06	2.526485e-06	9.638689e-10	1.756261e+01	6.693130e+01
2.410000e-06	2.567750e-06	9.773646e-10	1.784946e+01	6.804430e+01
2.420000e-06	2.608784e-06	9.903595e-10	1.813470e+01	6.912690e+01
2.430000e-06	2.649639e-06	1.003285e-09	1.841870e+01	7.017992e+01
2.440000e-06	2.690209e-06	1.018004e-09	1.870072e+01	7.120414e+01
2.450000e-06	2.730428e-06	1.034417e-09	1.898030e+01	7.220032e+01
2.460000e-06	2.770447e-06	1.050276e-09	1.925849e+01	7.316917e+01
2.470000e-06	2.810366e-06	1.063764e-09	1.953598e+01	7.411136e+01
2.480000e-06	2.850122e-06	1.076243e-09	1.981234e+01	7.502752e+01
2.490000e-06	2.889832e-06	1.088060e-09	2.008838e+01	7.591824e+01
2.500000e-06	2.929438e-06	1.098233e-09	2.036370e+01	7.678406e+01
2.510000e-06	2.968856e-06	1.110074e-09	2.063771e+01	7.762546e+01
2.520000e-06	3.008140e-06	1.121072e-09	2.091078e+01	7.844289e+01
2.530000e-06	3.047189e-06	1.133539e-09	2.118223e+01	7.923676e+01
2.540000e-06	3.086021e-06	1.147675e-09	2.145217e+01	8.000743e+01
2.550000e-06	3.124613e-06	1.158894e-09	2.172044e+01	8.075526e+01
2.560000e-06	3.162963e-06	1.166092e-09	2.198702e+01	8.148055e+01
2.570000e-06	3.201134e-06	1.171186e-09	2.225236e+01	8.218359e+01
2.580000e-06	3.239113e-06	1.176762e-09	2.251637e+01	8.286467e+01
2.590000e-06	3.276904e-06	1.182876e-09	2.277907e+01	8.352406e+01
2.600000e-06	3.314491e-06	1.193585e-09	2.304036e+01	8.416203e+01
2.610000e-06	3.351833e-06	1.208657e-09	2.329993e+01	8.477887e+01
2.620000e-06	3.388890e-06	1.223935e-09	2.355753e+01	8.537486e+01
2.630000e-06	3.425720e-06	1.233410e-09	2.381355e+01	8.595030e+01
2.640000e-06	3.462278e-06	1.239511e-09	2.406768e+01	8.650554e+01
2.650000e-06	3.498515e-06	1.244779e-09	2.431958e+01	8.704092e+01
2.660000e-06	3.534557e-06	1.247375e-09	2.457013e+01	8.755683e+01
2.670000e-06	3.570491e-06	1.250212e-09	2.481992e+01	8.805367e+01
2.680000e-06	3.606276e-06	1.255944e-09	2.506867e+01	8.853188e+01
2.690000e-06	3.641906e-06	1.265232e-09	2.531635e+01	8.899195e+01
2.700000e-06	3.677375e-06	1.275705e-09	2.556291e+01	8.943436e+01
2.710000e-06	3.712617e-06	1.282707e-09	2.580789e+01	8.985966e+01
2.720000e-06	3.747597e-06	1.286254e-09	2.605105e+01	9.026838e+01
2.730000e-06	3.782264e-06	1.287444e-09	2.629203e+01	9.066111e+01
2.740000e-06	3.816497e-06	1.288897e-09	2.653000e+01	9.103843e+01
2.750000e-06	3.850320e-06	1.291792e-09	2.676512e+01	9.140094e+01
2.760000e-06	3.883718e-06	1.296760e-09	2.699728e+01	9.174925e+01
2.770000e-06	3.916634e-06	1.304173e-09	2.722609e+01	9.208394e+01
2.780000e-06	3.949145e-06	1.313186e-09	2.745209e+01	9.240563e+01
2.790000e-06	3.981327e-06	1.320599e-09	2.767580e+01	9.271489e+01
2.800000e-06	4.013257e-06	1.326001e-09	2.789776e+01	9.301227e+01
2.810000e-06	4.044978e-06	1.330150e-09	2.811826e+01	9.329831e+01
2.820000e-06	4.076562e-06	1.332273e-09	2.833781e+01	9.357352e+01
2.830000e-06	4.107997e-06	1.335067e-09	2.855633e+01	9.383835e+01
2.840000e-06	4.139166e-06	1.338978e-09	2.877300e+01	9.409323e+01
2.850000e-06	4.170034e-06	1.343817e-09	2.898758e+01	9.433854e+01
2.860000e-06	4.200653e-06	1.350630e-09	2.920042e+01	9.457462e+01
2.870000e-06	4.230951e-06	1.359120e-09	2.941104e+01	9.480176e+01
2.880000e-06	4.260868e-06	1.364757e-09	2.961901e+01	9.502020e+01
2.890000e-06	4.290557e-06	1.368329e-09	2.982538e+01	9.523014e+01
2.900000e-06	4.319971e-06	1.371482e-09	3.002985e+01	9.543172e+01
