# Temperatura_=_-20.07
# Concentracion g/m^3_=_1620.0
# C_Vs_to_Am_M_A/Vsm_=_65563218390.804596
# pendiente_HvsI_1/m_=_3716.3
# ordenada_HvsI_A/m_=_1297.0
# frecuencia_Hz_=_135094.87830109967

Tiempo_(s)	Campo_(V.s)	Magnetizacion_(V.s)	Campo_(kA/m)	Magnetizacion_(A/m)
0.000000e+00	-5.517868e-06	-1.144869e-09	-3.837839e+01	-7.391361e+01
1.000000e-08	-5.518061e-06	-1.144470e-09	-3.837974e+01	-7.388342e+01
2.000000e-08	-5.518028e-06	-1.144185e-09	-3.837951e+01	-7.385569e+01
3.000000e-08	-5.517616e-06	-1.145160e-09	-3.837665e+01	-7.383102e+01
4.000000e-08	-5.516751e-06	-1.148964e-09	-3.837063e+01	-7.381001e+01
5.000000e-08	-5.515320e-06	-1.150613e-09	-3.836068e+01	-7.379320e+01
6.000000e-08	-5.513292e-06	-1.143748e-09	-3.834657e+01	-7.378109e+01
7.000000e-08	-5.510810e-06	-1.132687e-09	-3.832931e+01	-7.377414e+01
8.000000e-08	-5.507783e-06	-1.144909e-09	-3.830825e+01	-7.377274e+01
9.000000e-08	-5.504148e-06	-1.175546e-09	-3.828297e+01	-7.377722e+01
1.000000e-07	-5.500023e-06	-1.208513e-09	-3.825428e+01	-7.378781e+01
1.100000e-07	-5.495562e-06	-1.154047e-09	-3.822325e+01	-7.380468e+01
1.200000e-07	-5.490947e-06	-1.103159e-09	-3.819115e+01	-7.382791e+01
1.300000e-07	-5.486139e-06	-1.096928e-09	-3.815771e+01	-7.385749e+01
1.400000e-07	-5.480890e-06	-1.172465e-09	-3.812121e+01	-7.389332e+01
1.500000e-07	-5.475150e-06	-1.168011e-09	-3.808128e+01	-7.393523e+01
1.600000e-07	-5.469132e-06	-1.135772e-09	-3.803942e+01	-7.398292e+01
1.700000e-07	-5.462807e-06	-1.116597e-09	-3.799543e+01	-7.403606e+01
1.800000e-07	-5.456000e-06	-1.144580e-09	-3.794809e+01	-7.409422e+01
1.900000e-07	-5.448776e-06	-1.185085e-09	-3.789784e+01	-7.415689e+01
2.000000e-07	-5.441245e-06	-1.154769e-09	-3.784546e+01	-7.422351e+01
2.100000e-07	-5.433441e-06	-1.134517e-09	-3.779118e+01	-7.429348e+01
2.200000e-07	-5.425372e-06	-1.125316e-09	-3.773506e+01	-7.436613e+01
2.300000e-07	-5.417052e-06	-1.176554e-09	-3.767719e+01	-7.444079e+01
2.400000e-07	-5.408412e-06	-1.163087e-09	-3.761710e+01	-7.451674e+01
2.500000e-07	-5.399252e-06	-1.149676e-09	-3.755339e+01	-7.459329e+01
2.600000e-07	-5.389299e-06	-1.132424e-09	-3.748416e+01	-7.466971e+01
2.700000e-07	-5.378626e-06	-1.175009e-09	-3.740993e+01	-7.474531e+01
2.800000e-07	-5.367476e-06	-1.163423e-09	-3.733237e+01	-7.481942e+01
2.900000e-07	-5.355827e-06	-1.174246e-09	-3.725136e+01	-7.489141e+01
3.000000e-07	-5.343789e-06	-1.170998e-09	-3.716762e+01	-7.496070e+01
3.100000e-07	-5.331401e-06	-1.184592e-09	-3.708146e+01	-7.502674e+01
3.200000e-07	-5.318552e-06	-1.151629e-09	-3.699210e+01	-7.508907e+01
3.300000e-07	-5.305266e-06	-1.136054e-09	-3.689969e+01	-7.514728e+01
3.400000e-07	-5.291643e-06	-1.144665e-09	-3.680493e+01	-7.520103e+01
3.500000e-07	-5.277598e-06	-1.159979e-09	-3.670725e+01	-7.525007e+01
3.600000e-07	-5.263095e-06	-1.163813e-09	-3.660638e+01	-7.529420e+01
3.700000e-07	-5.248340e-06	-1.173375e-09	-3.650375e+01	-7.533333e+01
3.800000e-07	-5.233166e-06	-1.182894e-09	-3.639821e+01	-7.536740e+01
3.900000e-07	-5.217186e-06	-1.160700e-09	-3.628707e+01	-7.539646e+01
4.000000e-07	-5.200588e-06	-1.154804e-09	-3.617162e+01	-7.542060e+01
4.100000e-07	-5.183784e-06	-1.157851e-09	-3.605474e+01	-7.543999e+01
4.200000e-07	-5.166740e-06	-1.158103e-09	-3.593620e+01	-7.545483e+01
4.300000e-07	-5.149293e-06	-1.139724e-09	-3.581485e+01	-7.546539e+01
4.400000e-07	-5.131536e-06	-1.166344e-09	-3.569134e+01	-7.547197e+01
4.500000e-07	-5.113409e-06	-1.171075e-09	-3.556526e+01	-7.547488e+01
4.600000e-07	-5.094773e-06	-1.165154e-09	-3.543565e+01	-7.547449e+01
4.700000e-07	-5.075727e-06	-1.154447e-09	-3.530317e+01	-7.547114e+01
4.800000e-07	-5.056411e-06	-1.174777e-09	-3.516883e+01	-7.546521e+01
4.900000e-07	-5.036832e-06	-1.156528e-09	-3.503265e+01	-7.545705e+01
5.000000e-07	-5.016992e-06	-1.151820e-09	-3.489465e+01	-7.544699e+01
5.100000e-07	-4.996950e-06	-1.149864e-09	-3.475526e+01	-7.543538e+01
5.200000e-07	-4.976716e-06	-1.155318e-09	-3.461452e+01	-7.542249e+01
5.300000e-07	-4.956148e-06	-1.138884e-09	-3.447147e+01	-7.540861e+01
5.400000e-07	-4.935143e-06	-1.152421e-09	-3.432537e+01	-7.539395e+01
5.500000e-07	-4.913793e-06	-1.156900e-09	-3.417688e+01	-7.537870e+01
5.600000e-07	-4.892080e-06	-1.154886e-09	-3.402586e+01	-7.536302e+01
5.700000e-07	-4.870113e-06	-1.147470e-09	-3.387307e+01	-7.534701e+01
5.800000e-07	-4.847891e-06	-1.158348e-09	-3.371851e+01	-7.533074e+01
5.900000e-07	-4.825176e-06	-1.152581e-09	-3.356052e+01	-7.531422e+01
6.000000e-07	-4.802101e-06	-1.146207e-09	-3.340003e+01	-7.529745e+01
6.100000e-07	-4.778711e-06	-1.141914e-09	-3.323735e+01	-7.528038e+01
6.200000e-07	-4.755003e-06	-1.144767e-09	-3.307245e+01	-7.526292e+01
6.300000e-07	-4.731157e-06	-1.143623e-09	-3.290659e+01	-7.524499e+01
6.400000e-07	-4.707124e-06	-1.146832e-09	-3.273943e+01	-7.522645e+01
6.500000e-07	-4.682745e-06	-1.156634e-09	-3.256987e+01	-7.520717e+01
6.600000e-07	-4.657959e-06	-1.158008e-09	-3.239748e+01	-7.518700e+01
6.700000e-07	-4.632757e-06	-1.154982e-09	-3.222219e+01	-7.516579e+01
6.800000e-07	-4.607084e-06	-1.153802e-09	-3.204363e+01	-7.514340e+01
6.900000e-07	-4.580872e-06	-1.154134e-09	-3.186132e+01	-7.511969e+01
7.000000e-07	-4.554029e-06	-1.141961e-09	-3.167461e+01	-7.509452e+01
7.100000e-07	-4.526652e-06	-1.143512e-09	-3.148420e+01	-7.506780e+01
7.200000e-07	-4.498978e-06	-1.148977e-09	-3.129172e+01	-7.503942e+01
7.300000e-07	-4.471144e-06	-1.151662e-09	-3.109812e+01	-7.500932e+01
7.400000e-07	-4.443207e-06	-1.143843e-09	-3.090381e+01	-7.497745e+01
7.500000e-07	-4.415087e-06	-1.149701e-09	-3.070823e+01	-7.494379e+01
7.600000e-07	-4.386686e-06	-1.146668e-09	-3.051069e+01	-7.490835e+01
7.700000e-07	-4.357989e-06	-1.146111e-09	-3.031110e+01	-7.487114e+01
7.800000e-07	-4.329012e-06	-1.142956e-09	-3.010955e+01	-7.483222e+01
7.900000e-07	-4.299677e-06	-1.147853e-09	-2.990552e+01	-7.479165e+01
8.000000e-07	-4.269964e-06	-1.142950e-09	-2.969886e+01	-7.474951e+01
8.100000e-07	-4.239981e-06	-1.143850e-09	-2.949031e+01	-7.470589e+01
8.200000e-07	-4.209739e-06	-1.139123e-09	-2.927997e+01	-7.466090e+01
8.300000e-07	-4.179290e-06	-1.137773e-09	-2.906820e+01	-7.461464e+01
8.400000e-07	-4.148569e-06	-1.135327e-09	-2.885452e+01	-7.456721e+01
8.500000e-07	-4.117454e-06	-1.142858e-09	-2.863811e+01	-7.451870e+01
8.600000e-07	-4.086128e-06	-1.147255e-09	-2.842022e+01	-7.446920e+01
8.700000e-07	-4.054670e-06	-1.150581e-09	-2.820143e+01	-7.441877e+01
8.800000e-07	-4.023022e-06	-1.147552e-09	-2.798130e+01	-7.436747e+01
8.900000e-07	-3.991213e-06	-1.142493e-09	-2.776006e+01	-7.431532e+01
9.000000e-07	-3.959122e-06	-1.133641e-09	-2.753686e+01	-7.426232e+01
9.100000e-07	-3.926707e-06	-1.128387e-09	-2.731141e+01	-7.420844e+01
9.200000e-07	-3.894060e-06	-1.125758e-09	-2.708434e+01	-7.415363e+01
9.300000e-07	-3.861025e-06	-1.127437e-09	-2.685456e+01	-7.409781e+01
9.400000e-07	-3.827542e-06	-1.129790e-09	-2.662168e+01	-7.404087e+01
9.500000e-07	-3.793575e-06	-1.127312e-09	-2.638543e+01	-7.398265e+01
9.600000e-07	-3.759099e-06	-1.122768e-09	-2.614564e+01	-7.392301e+01
9.700000e-07	-3.724254e-06	-1.117027e-09	-2.590328e+01	-7.386176e+01
9.800000e-07	-3.689075e-06	-1.114233e-09	-2.565860e+01	-7.379869e+01
9.900000e-07	-3.653635e-06	-1.110866e-09	-2.541211e+01	-7.373357e+01
1.000000e-06	-3.617992e-06	-1.110982e-09	-2.516420e+01	-7.366619e+01
1.010000e-06	-3.582177e-06	-1.107104e-09	-2.491510e+01	-7.359629e+01
1.020000e-06	-3.546222e-06	-1.104887e-09	-2.466502e+01	-7.352366e+01
1.030000e-06	-3.510175e-06	-1.098664e-09	-2.441430e+01	-7.344804e+01
1.040000e-06	-3.473983e-06	-1.096805e-09	-2.416257e+01	-7.336922e+01
1.050000e-06	-3.437581e-06	-1.093595e-09	-2.390939e+01	-7.328697e+01
1.060000e-06	-3.400896e-06	-1.093316e-09	-2.365423e+01	-7.320112e+01
1.070000e-06	-3.363897e-06	-1.089722e-09	-2.339690e+01	-7.311147e+01
1.080000e-06	-3.326622e-06	-1.087997e-09	-2.313763e+01	-7.301788e+01
1.090000e-06	-3.289099e-06	-1.083116e-09	-2.287665e+01	-7.292021e+01
1.100000e-06	-3.251353e-06	-1.080999e-09	-2.261412e+01	-7.281837e+01
1.110000e-06	-3.213418e-06	-1.075838e-09	-2.235027e+01	-7.271228e+01
1.120000e-06	-3.175234e-06	-1.070099e-09	-2.208469e+01	-7.260188e+01
1.130000e-06	-3.136786e-06	-1.063026e-09	-2.181727e+01	-7.248715e+01
1.140000e-06	-3.098169e-06	-1.062928e-09	-2.154868e+01	-7.236809e+01
1.150000e-06	-3.059243e-06	-1.066874e-09	-2.127794e+01	-7.224471e+01
1.160000e-06	-3.020077e-06	-1.071126e-09	-2.100552e+01	-7.211705e+01
1.170000e-06	-2.980859e-06	-1.072421e-09	-2.073275e+01	-7.198513e+01
1.180000e-06	-2.941502e-06	-1.071527e-09	-2.045902e+01	-7.184902e+01
1.190000e-06	-2.901927e-06	-1.067156e-09	-2.018376e+01	-7.170876e+01
1.200000e-06	-2.862144e-06	-1.060415e-09	-1.990705e+01	-7.156438e+01
1.210000e-06	-2.822213e-06	-1.052452e-09	-1.962932e+01	-7.141594e+01
1.220000e-06	-2.782226e-06	-1.046213e-09	-1.935120e+01	-7.126343e+01
1.230000e-06	-2.742118e-06	-1.042252e-09	-1.907224e+01	-7.110687e+01
1.240000e-06	-2.701772e-06	-1.039047e-09	-1.879162e+01	-7.094621e+01
1.250000e-06	-2.661268e-06	-1.037176e-09	-1.850990e+01	-7.078141e+01
1.260000e-06	-2.620608e-06	-1.036572e-09	-1.822710e+01	-7.061237e+01
1.270000e-06	-2.579713e-06	-1.037990e-09	-1.794267e+01	-7.043896e+01
1.280000e-06	-2.538459e-06	-1.033354e-09	-1.765573e+01	-7.026103e+01
1.290000e-06	-2.497002e-06	-1.026957e-09	-1.736738e+01	-7.007837e+01
1.300000e-06	-2.455445e-06	-1.019913e-09	-1.707834e+01	-6.989075e+01
1.310000e-06	-2.413470e-06	-1.014342e-09	-1.678639e+01	-6.969789e+01
1.320000e-06	-2.371062e-06	-1.006085e-09	-1.649144e+01	-6.949949e+01
1.330000e-06	-2.328324e-06	-9.999103e-10	-1.619418e+01	-6.929521e+01
1.340000e-06	-2.285365e-06	-9.975769e-10	-1.589539e+01	-6.908471e+01
1.350000e-06	-2.242175e-06	-9.992944e-10	-1.559498e+01	-6.886758e+01
1.360000e-06	-2.198710e-06	-1.003189e-09	-1.529268e+01	-6.864345e+01
1.370000e-06	-2.155141e-06	-1.006095e-09	-1.498964e+01	-6.841192e+01
1.380000e-06	-2.111503e-06	-1.002032e-09	-1.468613e+01	-6.817258e+01
1.390000e-06	-2.067729e-06	-9.936409e-10	-1.438166e+01	-6.792503e+01
1.400000e-06	-2.023850e-06	-9.833153e-10	-1.407647e+01	-6.766891e+01
1.410000e-06	-1.979910e-06	-9.761474e-10	-1.377086e+01	-6.740383e+01
1.420000e-06	-1.935911e-06	-9.704198e-10	-1.346483e+01	-6.712948e+01
1.430000e-06	-1.891853e-06	-9.688626e-10	-1.315839e+01	-6.684553e+01
1.440000e-06	-1.847654e-06	-9.688891e-10	-1.285098e+01	-6.655172e+01
1.450000e-06	-1.803357e-06	-9.655078e-10	-1.254288e+01	-6.624782e+01
1.460000e-06	-1.758976e-06	-9.584886e-10	-1.223420e+01	-6.593362e+01
1.470000e-06	-1.714510e-06	-9.523397e-10	-1.192492e+01	-6.560898e+01
1.480000e-06	-1.669982e-06	-9.492039e-10	-1.161522e+01	-6.527379e+01
1.490000e-06	-1.625234e-06	-9.463468e-10	-1.130398e+01	-6.492796e+01
1.500000e-06	-1.580367e-06	-9.396784e-10	-1.099192e+01	-6.457147e+01
1.510000e-06	-1.535503e-06	-9.293335e-10	-1.067988e+01	-6.420429e+01
1.520000e-06	-1.490477e-06	-9.186108e-10	-1.036671e+01	-6.382643e+01
1.530000e-06	-1.445310e-06	-9.103989e-10	-1.005255e+01	-6.343793e+01
1.540000e-06	-1.400003e-06	-9.038562e-10	-9.737434e+00	-6.303879e+01
1.550000e-06	-1.354528e-06	-8.978095e-10	-9.421140e+00	-6.262906e+01
1.560000e-06	-1.309009e-06	-8.909474e-10	-9.104543e+00	-6.220873e+01
1.570000e-06	-1.263484e-06	-8.819648e-10	-8.787901e+00	-6.177776e+01
1.580000e-06	-1.217852e-06	-8.716482e-10	-8.470517e+00	-6.133611e+01
1.590000e-06	-1.172192e-06	-8.596978e-10	-8.152941e+00	-6.088363e+01
1.600000e-06	-1.126485e-06	-8.474285e-10	-7.835038e+00	-6.042014e+01
1.610000e-06	-1.080605e-06	-8.345349e-10	-7.515925e+00	-5.994536e+01
1.620000e-06	-1.034647e-06	-8.242315e-10	-7.196273e+00	-5.945894e+01
1.630000e-06	-9.886021e-07	-8.159972e-10	-6.876019e+00	-5.896042e+01
1.640000e-06	-9.424478e-07	-8.102268e-10	-6.555002e+00	-5.844922e+01
1.650000e-06	-8.962063e-07	-8.032809e-10	-6.233379e+00	-5.792466e+01
1.660000e-06	-8.498199e-07	-7.967376e-10	-5.910748e+00	-5.738592e+01
1.670000e-06	-8.034752e-07	-7.898320e-10	-5.588407e+00	-5.683208e+01
1.680000e-06	-7.572256e-07	-7.807632e-10	-5.266727e+00	-5.626208e+01
1.690000e-06	-7.109224e-07	-7.705338e-10	-4.944675e+00	-5.567474e+01
1.700000e-06	-6.646649e-07	-7.595085e-10	-4.622940e+00	-5.506875e+01
1.710000e-06	-6.182743e-07	-7.446058e-10	-4.300280e+00	-5.444272e+01
1.720000e-06	-5.716580e-07	-7.287267e-10	-3.976049e+00	-5.379511e+01
1.730000e-06	-5.250598e-07	-7.151125e-10	-3.651946e+00	-5.312432e+01
1.740000e-06	-4.784652e-07	-7.049182e-10	-3.327867e+00	-5.242867e+01
1.750000e-06	-4.317479e-07	-6.973432e-10	-3.002934e+00	-5.170641e+01
1.760000e-06	-3.850443e-07	-6.890669e-10	-2.678096e+00	-5.095576e+01
1.770000e-06	-3.383498e-07	-6.776691e-10	-2.353322e+00	-5.017490e+01
1.780000e-06	-2.916102e-07	-6.653078e-10	-2.028235e+00	-4.936202e+01
1.790000e-06	-2.447666e-07	-6.535485e-10	-1.702424e+00	-4.851533e+01
1.800000e-06	-1.978488e-07	-6.395554e-10	-1.376096e+00	-4.763309e+01
1.810000e-06	-1.509764e-07	-6.239146e-10	-1.050085e+00	-4.671362e+01
1.820000e-06	-1.041770e-07	-6.087445e-10	-7.245818e-01	-4.575534e+01
1.830000e-06	-5.739630e-08	-5.940079e-10	-3.992082e-01	-4.475679e+01
1.840000e-06	-1.057001e-08	-5.789584e-10	-7.351753e-02	-4.371665e+01
1.850000e-06	3.621870e-08	-5.648818e-10	2.519117e-01	-4.263376e+01
1.860000e-06	8.298533e-08	-5.516458e-10	5.771874e-01	-4.150714e+01
1.870000e-06	1.297208e-07	-5.384727e-10	9.022467e-01	-4.033602e+01
1.880000e-06	1.764763e-07	-5.252442e-10	1.227444e+00	-3.911985e+01
1.890000e-06	2.232257e-07	-5.082764e-10	1.552600e+00	-3.785830e+01
1.900000e-06	2.699159e-07	-4.863084e-10	1.877344e+00	-3.655131e+01
1.910000e-06	3.166331e-07	-4.627863e-10	2.202276e+00	-3.519905e+01
1.920000e-06	3.633550e-07	-4.389800e-10	2.527241e+00	-3.380196e+01
1.930000e-06	4.100378e-07	-4.177492e-10	2.851934e+00	-3.236074e+01
1.940000e-06	4.567106e-07	-3.995082e-10	3.176556e+00	-3.087637e+01
1.950000e-06	5.034195e-07	-3.833322e-10	3.501431e+00	-2.935006e+01
1.960000e-06	5.500819e-07	-3.664653e-10	3.825982e+00	-2.778331e+01
1.970000e-06	5.966381e-07	-3.470100e-10	4.149793e+00	-2.617782e+01
1.980000e-06	6.430923e-07	-3.245433e-10	4.472896e+00	-2.453556e+01
1.990000e-06	6.894456e-07	-2.994752e-10	4.795297e+00	-2.285871e+01
2.000000e-06	7.357708e-07	-2.746355e-10	5.117503e+00	-2.114963e+01
2.010000e-06	7.820876e-07	-2.500979e-10	5.439650e+00	-1.941089e+01
2.020000e-06	8.283084e-07	-2.247565e-10	5.761129e+00	-1.764520e+01
2.030000e-06	8.745190e-07	-2.002068e-10	6.082537e+00	-1.585542e+01
2.040000e-06	9.207521e-07	-1.769119e-10	6.404102e+00	-1.404452e+01
2.050000e-06	9.668404e-07	-1.546481e-10	6.724660e+00	-1.221556e+01
2.060000e-06	1.012757e-06	-1.312249e-10	7.044024e+00	-1.037167e+01
2.070000e-06	1.058599e-06	-1.061750e-10	7.362866e+00	-8.516031e+00
2.080000e-06	1.104431e-06	-8.169521e-11	7.681646e+00	-6.651826e+00
2.090000e-06	1.150253e-06	-5.757312e-11	8.000350e+00	-4.782241e+00
2.100000e-06	1.196009e-06	-3.080255e-11	8.318597e+00	-2.910429e+00
2.110000e-06	1.241667e-06	-2.685844e-12	8.636158e+00	-1.039497e+00
2.120000e-06	1.287178e-06	2.407686e-11	8.952704e+00	8.275230e-01
2.130000e-06	1.332591e-06	5.269764e-11	9.268566e+00	2.687687e+00
2.140000e-06	1.377946e-06	8.058181e-11	9.584020e+00	4.538159e+00
2.150000e-06	1.423264e-06	1.038309e-10	9.899218e+00	6.376225e+00
2.160000e-06	1.468522e-06	1.249554e-10	1.021401e+01	8.199305e+00
2.170000e-06	1.513638e-06	1.445173e-10	1.052780e+01	1.000497e+01
2.180000e-06	1.558605e-06	1.655436e-10	1.084056e+01	1.179094e+01
2.190000e-06	1.603331e-06	1.913639e-10	1.115164e+01	1.355510e+01
2.200000e-06	1.647903e-06	2.212673e-10	1.146165e+01	1.529551e+01
2.210000e-06	1.692410e-06	2.518527e-10	1.177121e+01	1.701039e+01
2.220000e-06	1.736848e-06	2.799345e-10	1.208029e+01	1.869814e+01
2.230000e-06	1.781177e-06	3.033035e-10	1.238861e+01	2.035733e+01
2.240000e-06	1.825381e-06	3.205719e-10	1.269606e+01	2.198671e+01
2.250000e-06	1.869484e-06	3.336902e-10	1.300281e+01	2.358517e+01
2.260000e-06	1.913450e-06	3.479356e-10	1.330861e+01	2.515180e+01
2.270000e-06	1.957334e-06	3.674168e-10	1.361384e+01	2.668581e+01
2.280000e-06	2.001157e-06	3.910963e-10	1.391863e+01	2.818659e+01
2.290000e-06	2.044932e-06	4.168917e-10	1.422310e+01	2.965367e+01
2.300000e-06	2.088702e-06	4.416423e-10	1.452754e+01	3.108669e+01
2.310000e-06	2.132441e-06	4.634509e-10	1.483175e+01	3.248544e+01
2.320000e-06	2.176102e-06	4.811243e-10	1.513543e+01	3.384984e+01
2.330000e-06	2.219617e-06	4.961666e-10	1.543809e+01	3.517990e+01
2.340000e-06	2.262953e-06	5.103483e-10	1.573950e+01	3.647574e+01
2.350000e-06	2.306092e-06	5.268612e-10	1.603955e+01	3.773758e+01
2.360000e-06	2.348918e-06	5.459154e-10	1.633742e+01	3.896572e+01
2.370000e-06	2.391512e-06	5.641086e-10	1.663367e+01	4.016053e+01
2.380000e-06	2.433773e-06	5.821414e-10	1.692761e+01	4.132248e+01
2.390000e-06	2.475610e-06	5.989819e-10	1.721860e+01	4.245206e+01
2.400000e-06	2.517146e-06	6.124330e-10	1.750749e+01	4.354986e+01
2.410000e-06	2.558421e-06	6.254383e-10	1.779457e+01	4.461649e+01
2.420000e-06	2.599375e-06	6.391928e-10	1.807942e+01	4.565261e+01
2.430000e-06	2.639955e-06	6.551042e-10	1.836166e+01	4.665892e+01
2.440000e-06	2.680358e-06	6.728933e-10	1.864268e+01	4.763613e+01
2.450000e-06	2.720605e-06	6.884457e-10	1.892261e+01	4.858500e+01
2.460000e-06	2.760708e-06	7.021468e-10	1.920154e+01	4.950630e+01
2.470000e-06	2.800738e-06	7.142237e-10	1.947996e+01	5.040078e+01
2.480000e-06	2.840645e-06	7.258097e-10	1.975752e+01	5.126925e+01
2.490000e-06	2.880448e-06	7.370742e-10	2.003437e+01	5.211248e+01
2.500000e-06	2.920161e-06	7.469279e-10	2.031058e+01	5.293124e+01
2.510000e-06	2.959717e-06	7.600862e-10	2.058570e+01	5.372631e+01
2.520000e-06	2.999068e-06	7.731370e-10	2.085940e+01	5.449843e+01
2.530000e-06	3.038167e-06	7.860005e-10	2.113135e+01	5.524833e+01
2.540000e-06	3.076994e-06	8.011769e-10	2.140140e+01	5.597672e+01
2.550000e-06	3.115594e-06	8.123600e-10	2.166987e+01	5.668428e+01
2.560000e-06	3.153999e-06	8.190624e-10	2.193700e+01	5.737164e+01
2.570000e-06	3.192164e-06	8.226824e-10	2.220244e+01	5.803942e+01
2.580000e-06	3.230113e-06	8.256499e-10	2.246638e+01	5.868817e+01
2.590000e-06	3.267908e-06	8.313849e-10	2.272927e+01	5.931841e+01
2.600000e-06	3.305471e-06	8.420530e-10	2.299052e+01	5.993063e+01
2.610000e-06	3.342789e-06	8.554141e-10	2.325008e+01	6.052524e+01
2.620000e-06	3.379900e-06	8.704985e-10	2.350820e+01	6.110263e+01
2.630000e-06	3.416770e-06	8.823464e-10	2.376464e+01	6.166313e+01
2.640000e-06	3.453326e-06	8.899441e-10	2.401890e+01	6.220702e+01
2.650000e-06	3.489579e-06	8.959474e-10	2.427105e+01	6.273454e+01
2.660000e-06	3.525649e-06	8.995663e-10	2.452193e+01	6.324588e+01
2.670000e-06	3.561596e-06	9.027510e-10	2.477195e+01	6.374119e+01
2.680000e-06	3.597475e-06	9.065800e-10	2.502150e+01	6.422058e+01
2.690000e-06	3.633268e-06	9.134477e-10	2.527045e+01	6.468414e+01
2.700000e-06	3.668866e-06	9.227234e-10	2.551804e+01	6.513191e+01
2.710000e-06	3.704149e-06	9.298813e-10	2.576345e+01	6.556392e+01
2.720000e-06	3.739155e-06	9.354170e-10	2.600692e+01	6.598019e+01
2.730000e-06	3.773870e-06	9.404036e-10	2.624838e+01	6.638071e+01
2.740000e-06	3.808120e-06	9.451298e-10	2.648660e+01	6.676549e+01
2.750000e-06	3.841825e-06	9.485649e-10	2.672103e+01	6.713452e+01
2.760000e-06	3.875029e-06	9.519405e-10	2.695197e+01	6.748783e+01
2.770000e-06	3.907888e-06	9.563712e-10	2.718051e+01	6.782544e+01
2.780000e-06	3.940347e-06	9.605011e-10	2.740627e+01	6.814741e+01
2.790000e-06	3.972484e-06	9.667446e-10	2.762979e+01	6.845382e+01
2.800000e-06	4.004511e-06	9.739452e-10	2.785256e+01	6.874481e+01
2.810000e-06	4.036436e-06	9.792983e-10	2.807460e+01	6.902053e+01
2.820000e-06	4.068247e-06	9.818769e-10	2.829586e+01	6.928119e+01
2.830000e-06	4.099827e-06	9.862729e-10	2.851550e+01	6.952707e+01
2.840000e-06	4.131026e-06	9.921179e-10	2.873250e+01	6.975846e+01
2.850000e-06	4.161919e-06	9.956804e-10	2.894737e+01	6.997573e+01
2.860000e-06	4.192544e-06	1.000498e-09	2.916038e+01	7.017930e+01
2.870000e-06	4.222787e-06	1.006577e-09	2.937072e+01	7.036964e+01
2.880000e-06	4.252756e-06	1.009075e-09	2.957917e+01	7.054727e+01
2.890000e-06	4.282471e-06	1.009367e-09	2.978584e+01	7.071276e+01
2.900000e-06	4.311948e-06	1.012315e-09	2.999087e+01	7.086672e+01
