# Temperatura_=_-7.67
# Concentracion g/m^3_=_1620.0
# C_Vs_to_Am_M_A/Vsm_=_65563218390.804596
# pendiente_HvsI_1/m_=_3716.3
# ordenada_HvsI_A/m_=_1297.0
# frecuencia_Hz_=_135107.84870867923

Tiempo_(s)	Campo_(V.s)	Magnetizacion_(V.s)	Campo_(kA/m)	Magnetizacion_(A/m)
0.000000e+00	-5.515389e-06	-1.432627e-09	-3.837829e+01	-9.374962e+01
1.000000e-08	-5.515673e-06	-1.427495e-09	-3.838026e+01	-9.368964e+01
2.000000e-08	-5.515701e-06	-1.424804e-09	-3.838046e+01	-9.363321e+01
3.000000e-08	-5.515418e-06	-1.425745e-09	-3.837849e+01	-9.358007e+01
4.000000e-08	-5.514689e-06	-1.428291e-09	-3.837342e+01	-9.352981e+01
5.000000e-08	-5.513361e-06	-1.429302e-09	-3.836418e+01	-9.348194e+01
6.000000e-08	-5.511489e-06	-1.427439e-09	-3.835115e+01	-9.343590e+01
7.000000e-08	-5.509079e-06	-1.430644e-09	-3.833438e+01	-9.339099e+01
8.000000e-08	-5.506058e-06	-1.441100e-09	-3.831336e+01	-9.334650e+01
9.000000e-08	-5.502533e-06	-1.425843e-09	-3.828883e+01	-9.330160e+01
1.000000e-07	-5.498584e-06	-1.403746e-09	-3.826135e+01	-9.325547e+01
1.100000e-07	-5.494232e-06	-1.440755e-09	-3.823107e+01	-9.320722e+01
1.200000e-07	-5.489637e-06	-1.484323e-09	-3.819910e+01	-9.315596e+01
1.300000e-07	-5.484880e-06	-1.423789e-09	-3.816600e+01	-9.310081e+01
1.400000e-07	-5.479891e-06	-1.354411e-09	-3.813128e+01	-9.304091e+01
1.500000e-07	-5.474509e-06	-1.395031e-09	-3.809383e+01	-9.297544e+01
1.600000e-07	-5.468671e-06	-1.470622e-09	-3.805320e+01	-9.290363e+01
1.700000e-07	-5.462395e-06	-1.440856e-09	-3.800953e+01	-9.282479e+01
1.800000e-07	-5.455720e-06	-1.350651e-09	-3.796309e+01	-9.273830e+01
1.900000e-07	-5.448697e-06	-1.405014e-09	-3.791422e+01	-9.264365e+01
2.000000e-07	-5.441338e-06	-1.488114e-09	-3.786301e+01	-9.254046e+01
2.100000e-07	-5.433680e-06	-1.471218e-09	-3.780972e+01	-9.242842e+01
2.200000e-07	-5.425736e-06	-1.375403e-09	-3.775445e+01	-9.230740e+01
2.300000e-07	-5.417466e-06	-1.384930e-09	-3.769690e+01	-9.217736e+01
2.400000e-07	-5.408735e-06	-1.445365e-09	-3.763615e+01	-9.203841e+01
2.500000e-07	-5.399424e-06	-1.444830e-09	-3.757136e+01	-9.189080e+01
2.600000e-07	-5.389510e-06	-1.389867e-09	-3.750237e+01	-9.173487e+01
2.700000e-07	-5.379044e-06	-1.388793e-09	-3.742954e+01	-9.157112e+01
2.800000e-07	-5.368010e-06	-1.414335e-09	-3.735277e+01	-9.140016e+01
2.900000e-07	-5.356506e-06	-1.398284e-09	-3.727272e+01	-9.122267e+01
3.000000e-07	-5.344653e-06	-1.369154e-09	-3.719024e+01	-9.103945e+01
3.100000e-07	-5.332404e-06	-1.367051e-09	-3.710501e+01	-9.085136e+01
3.200000e-07	-5.319855e-06	-1.387679e-09	-3.701768e+01	-9.065933e+01
3.300000e-07	-5.306986e-06	-1.370882e-09	-3.692813e+01	-9.046432e+01
3.400000e-07	-5.293634e-06	-1.346408e-09	-3.683523e+01	-9.026731e+01
3.500000e-07	-5.279791e-06	-1.343916e-09	-3.673890e+01	-9.006930e+01
3.600000e-07	-5.265498e-06	-1.377125e-09	-3.663945e+01	-8.987126e+01
3.700000e-07	-5.250696e-06	-1.358070e-09	-3.653645e+01	-8.967414e+01
3.800000e-07	-5.235428e-06	-1.335184e-09	-3.643021e+01	-8.947883e+01
3.900000e-07	-5.219716e-06	-1.360186e-09	-3.632087e+01	-8.928617e+01
4.000000e-07	-5.203538e-06	-1.382303e-09	-3.620830e+01	-8.909690e+01
4.100000e-07	-5.186945e-06	-1.322692e-09	-3.609284e+01	-8.891169e+01
4.200000e-07	-5.170013e-06	-1.320524e-09	-3.597503e+01	-8.873106e+01
4.300000e-07	-5.152762e-06	-1.377416e-09	-3.585499e+01	-8.855547e+01
4.400000e-07	-5.135172e-06	-1.352084e-09	-3.573258e+01	-8.838523e+01
4.500000e-07	-5.117214e-06	-1.291935e-09	-3.560763e+01	-8.822053e+01
4.600000e-07	-5.098827e-06	-1.357352e-09	-3.547968e+01	-8.806142e+01
4.700000e-07	-5.080077e-06	-1.389139e-09	-3.534921e+01	-8.790785e+01
4.800000e-07	-5.060981e-06	-1.313413e-09	-3.521634e+01	-8.775963e+01
4.900000e-07	-5.041559e-06	-1.312311e-09	-3.508119e+01	-8.761647e+01
5.000000e-07	-5.021959e-06	-1.371486e-09	-3.494480e+01	-8.747794e+01
5.100000e-07	-5.002169e-06	-1.313525e-09	-3.480710e+01	-8.734356e+01
5.200000e-07	-4.982061e-06	-1.276316e-09	-3.466718e+01	-8.721272e+01
5.300000e-07	-4.961622e-06	-1.346706e-09	-3.452495e+01	-8.708476e+01
5.400000e-07	-4.940836e-06	-1.339880e-09	-3.438032e+01	-8.695896e+01
5.500000e-07	-4.919678e-06	-1.283676e-09	-3.423309e+01	-8.683457e+01
5.600000e-07	-4.898173e-06	-1.339557e-09	-3.408345e+01	-8.671078e+01
5.700000e-07	-4.876352e-06	-1.369170e-09	-3.393161e+01	-8.658682e+01
5.800000e-07	-4.854153e-06	-1.293232e-09	-3.377715e+01	-8.646189e+01
5.900000e-07	-4.831609e-06	-1.298519e-09	-3.362027e+01	-8.633523e+01
6.000000e-07	-4.808716e-06	-1.348901e-09	-3.346097e+01	-8.620610e+01
6.100000e-07	-4.785484e-06	-1.303701e-09	-3.329932e+01	-8.607384e+01
6.200000e-07	-4.762033e-06	-1.271863e-09	-3.313614e+01	-8.593783e+01
6.300000e-07	-4.738371e-06	-1.317712e-09	-3.297149e+01	-8.579754e+01
6.400000e-07	-4.714476e-06	-1.306522e-09	-3.280521e+01	-8.565249e+01
6.500000e-07	-4.690271e-06	-1.274053e-09	-3.263679e+01	-8.550233e+01
6.600000e-07	-4.665610e-06	-1.299488e-09	-3.246518e+01	-8.534677e+01
6.700000e-07	-4.640401e-06	-1.309560e-09	-3.228977e+01	-8.518562e+01
6.800000e-07	-4.614689e-06	-1.272669e-09	-3.211085e+01	-8.501880e+01
6.900000e-07	-4.588529e-06	-1.276376e-09	-3.192882e+01	-8.484630e+01
7.000000e-07	-4.561843e-06	-1.286208e-09	-3.174313e+01	-8.466820e+01
7.100000e-07	-4.534683e-06	-1.266018e-09	-3.155414e+01	-8.448466e+01
7.200000e-07	-4.507287e-06	-1.259567e-09	-3.136351e+01	-8.429593e+01
7.300000e-07	-4.479707e-06	-1.275953e-09	-3.117160e+01	-8.410229e+01
7.400000e-07	-4.451951e-06	-1.267053e-09	-3.097846e+01	-8.390408e+01
7.500000e-07	-4.424011e-06	-1.259340e-09	-3.078404e+01	-8.370169e+01
7.600000e-07	-4.395813e-06	-1.266686e-09	-3.058783e+01	-8.349553e+01
7.700000e-07	-4.367331e-06	-1.265045e-09	-3.038964e+01	-8.328602e+01
7.800000e-07	-4.338545e-06	-1.251806e-09	-3.018933e+01	-8.307359e+01
7.900000e-07	-4.309417e-06	-1.250652e-09	-2.998665e+01	-8.285865e+01
8.000000e-07	-4.279957e-06	-1.245899e-09	-2.978166e+01	-8.264158e+01
8.100000e-07	-4.250168e-06	-1.235927e-09	-2.957438e+01	-8.242276e+01
8.200000e-07	-4.220127e-06	-1.232197e-09	-2.936533e+01	-8.220249e+01
8.300000e-07	-4.189834e-06	-1.231816e-09	-2.915454e+01	-8.198105e+01
8.400000e-07	-4.159182e-06	-1.226475e-09	-2.894126e+01	-8.175863e+01
8.500000e-07	-4.128253e-06	-1.228531e-09	-2.872604e+01	-8.153541e+01
8.600000e-07	-4.097083e-06	-1.235707e-09	-2.850915e+01	-8.131145e+01
8.700000e-07	-4.065649e-06	-1.227456e-09	-2.829041e+01	-8.108678e+01
8.800000e-07	-4.034059e-06	-1.214768e-09	-2.807060e+01	-8.086137e+01
8.900000e-07	-4.002339e-06	-1.210459e-09	-2.784988e+01	-8.063511e+01
9.000000e-07	-3.970441e-06	-1.205429e-09	-2.762792e+01	-8.040784e+01
9.100000e-07	-3.938324e-06	-1.196212e-09	-2.740444e+01	-8.017936e+01
9.200000e-07	-3.905861e-06	-1.196509e-09	-2.717854e+01	-7.994943e+01
9.300000e-07	-3.872920e-06	-1.192791e-09	-2.694933e+01	-7.971775e+01
9.400000e-07	-3.839505e-06	-1.183808e-09	-2.671681e+01	-7.948401e+01
9.500000e-07	-3.805608e-06	-1.180558e-09	-2.648095e+01	-7.924791e+01
9.600000e-07	-3.771205e-06	-1.180630e-09	-2.624156e+01	-7.900910e+01
9.700000e-07	-3.736370e-06	-1.168475e-09	-2.599916e+01	-7.876727e+01
9.800000e-07	-3.701236e-06	-1.161369e-09	-2.575468e+01	-7.852211e+01
9.900000e-07	-3.665874e-06	-1.161352e-09	-2.550862e+01	-7.827334e+01
1.000000e-06	-3.630323e-06	-1.159537e-09	-2.526125e+01	-7.802071e+01
1.010000e-06	-3.594682e-06	-1.148663e-09	-2.501324e+01	-7.776400e+01
1.020000e-06	-3.558908e-06	-1.141272e-09	-2.476431e+01	-7.750306e+01
1.030000e-06	-3.522953e-06	-1.133187e-09	-2.451412e+01	-7.723778e+01
1.040000e-06	-3.486902e-06	-1.125609e-09	-2.426326e+01	-7.696809e+01
1.050000e-06	-3.450601e-06	-1.126905e-09	-2.401066e+01	-7.669400e+01
1.060000e-06	-3.413927e-06	-1.132967e-09	-2.375547e+01	-7.641557e+01
1.070000e-06	-3.376965e-06	-1.128354e-09	-2.349827e+01	-7.613289e+01
1.080000e-06	-3.339802e-06	-1.118443e-09	-2.323968e+01	-7.584613e+01
1.090000e-06	-3.302457e-06	-1.109470e-09	-2.297982e+01	-7.555548e+01
1.100000e-06	-3.264844e-06	-1.097901e-09	-2.271810e+01	-7.526118e+01
1.110000e-06	-3.226970e-06	-1.086620e-09	-2.245455e+01	-7.496348e+01
1.120000e-06	-3.188810e-06	-1.081482e-09	-2.218902e+01	-7.466267e+01
1.130000e-06	-3.150386e-06	-1.078185e-09	-2.192165e+01	-7.435903e+01
1.140000e-06	-3.111738e-06	-1.072572e-09	-2.165272e+01	-7.405285e+01
1.150000e-06	-3.072912e-06	-1.072601e-09	-2.138256e+01	-7.374440e+01
1.160000e-06	-3.033925e-06	-1.073308e-09	-2.111127e+01	-7.343390e+01
1.170000e-06	-2.994704e-06	-1.068194e-09	-2.083835e+01	-7.312157e+01
1.180000e-06	-2.955369e-06	-1.061247e-09	-2.056465e+01	-7.280756e+01
1.190000e-06	-2.915951e-06	-1.057332e-09	-2.029036e+01	-7.249196e+01
1.200000e-06	-2.876378e-06	-1.052004e-09	-2.001499e+01	-7.217480e+01
1.210000e-06	-2.836677e-06	-1.043276e-09	-1.973873e+01	-7.185603e+01
1.220000e-06	-2.796837e-06	-1.033496e-09	-1.946151e+01	-7.153552e+01
1.230000e-06	-2.756836e-06	-1.025218e-09	-1.918317e+01	-7.121306e+01
1.240000e-06	-2.716615e-06	-1.016948e-09	-1.890330e+01	-7.088835e+01
1.250000e-06	-2.676186e-06	-1.014548e-09	-1.862198e+01	-7.056102e+01
1.260000e-06	-2.635590e-06	-1.015851e-09	-1.833949e+01	-7.023058e+01
1.270000e-06	-2.594806e-06	-1.015086e-09	-1.805570e+01	-6.989650e+01
1.280000e-06	-2.553757e-06	-1.007785e-09	-1.777007e+01	-6.955816e+01
1.290000e-06	-2.512299e-06	-9.986288e-10	-1.748158e+01	-6.921486e+01
1.300000e-06	-2.470435e-06	-9.874422e-10	-1.719028e+01	-6.886586e+01
1.310000e-06	-2.428262e-06	-9.752699e-10	-1.689682e+01	-6.851038e+01
1.320000e-06	-2.385826e-06	-9.647785e-10	-1.660153e+01	-6.814759e+01
1.330000e-06	-2.343206e-06	-9.590780e-10	-1.630497e+01	-6.777665e+01
1.340000e-06	-2.300363e-06	-9.558281e-10	-1.600685e+01	-6.739671e+01
1.350000e-06	-2.257252e-06	-9.532101e-10	-1.570686e+01	-6.700694e+01
1.360000e-06	-2.213945e-06	-9.511118e-10	-1.540551e+01	-6.660652e+01
1.370000e-06	-2.170484e-06	-9.477299e-10	-1.510309e+01	-6.619466e+01
1.380000e-06	-2.126937e-06	-9.400725e-10	-1.480008e+01	-6.577064e+01
1.390000e-06	-2.083294e-06	-9.288742e-10	-1.449640e+01	-6.533380e+01
1.400000e-06	-2.039551e-06	-9.160335e-10	-1.419201e+01	-6.488352e+01
1.410000e-06	-1.995735e-06	-9.034458e-10	-1.388712e+01	-6.441931e+01
1.420000e-06	-1.951849e-06	-8.916844e-10	-1.358175e+01	-6.394072e+01
1.430000e-06	-1.907881e-06	-8.827232e-10	-1.327580e+01	-6.344744e+01
1.440000e-06	-1.863757e-06	-8.771746e-10	-1.296877e+01	-6.293922e+01
1.450000e-06	-1.819531e-06	-8.715899e-10	-1.266102e+01	-6.241592e+01
1.460000e-06	-1.775310e-06	-8.654916e-10	-1.235332e+01	-6.187751e+01
1.470000e-06	-1.730963e-06	-8.580264e-10	-1.204473e+01	-6.132403e+01
1.480000e-06	-1.686378e-06	-8.480144e-10	-1.173450e+01	-6.075562e+01
1.490000e-06	-1.641671e-06	-8.368742e-10	-1.142340e+01	-6.017248e+01
1.500000e-06	-1.596850e-06	-8.256848e-10	-1.111153e+01	-5.957489e+01
1.510000e-06	-1.551844e-06	-8.116642e-10	-1.079835e+01	-5.896317e+01
1.520000e-06	-1.506751e-06	-7.980883e-10	-1.048458e+01	-5.833768e+01
1.530000e-06	-1.461593e-06	-7.859201e-10	-1.017035e+01	-5.769880e+01
1.540000e-06	-1.416364e-06	-7.745617e-10	-9.855628e+00	-5.704693e+01
1.550000e-06	-1.371055e-06	-7.672156e-10	-9.540349e+00	-5.638242e+01
1.560000e-06	-1.325694e-06	-7.623651e-10	-9.224713e+00	-5.570562e+01
1.570000e-06	-1.280237e-06	-7.536472e-10	-8.908405e+00	-5.501680e+01
1.580000e-06	-1.234612e-06	-7.416099e-10	-8.590928e+00	-5.431619e+01
1.590000e-06	-1.188920e-06	-7.270967e-10	-8.272981e+00	-5.360391e+01
1.600000e-06	-1.143196e-06	-7.111709e-10	-7.954815e+00	-5.288000e+01
1.610000e-06	-1.097349e-06	-6.959406e-10	-7.635795e+00	-5.214437e+01
1.620000e-06	-1.051362e-06	-6.831792e-10	-7.315800e+00	-5.139680e+01
1.630000e-06	-1.005321e-06	-6.713142e-10	-6.995429e+00	-5.063695e+01
1.640000e-06	-9.592189e-07	-6.594136e-10	-6.674630e+00	-4.986430e+01
1.650000e-06	-9.130416e-07	-6.481206e-10	-6.353310e+00	-4.907823e+01
1.660000e-06	-8.667960e-07	-6.379838e-10	-6.031514e+00	-4.827793e+01
1.670000e-06	-8.205127e-07	-6.276853e-10	-5.709457e+00	-4.746245e+01
1.680000e-06	-7.742052e-07	-6.154793e-10	-5.387230e+00	-4.663071e+01
1.690000e-06	-7.278761e-07	-6.013763e-10	-5.064853e+00	-4.578145e+01
1.700000e-06	-6.815056e-07	-5.868344e-10	-4.742189e+00	-4.491333e+01
1.710000e-06	-6.351059e-07	-5.696227e-10	-4.419321e+00	-4.402486e+01
1.720000e-06	-5.886231e-07	-5.505070e-10	-4.095876e+00	-4.311445e+01
1.730000e-06	-5.420897e-07	-5.328304e-10	-3.772077e+00	-4.218045e+01
1.740000e-06	-4.955724e-07	-5.187090e-10	-3.448391e+00	-4.122113e+01
1.750000e-06	-4.490146e-07	-5.078293e-10	-3.124424e+00	-4.023470e+01
1.760000e-06	-4.023838e-07	-4.958911e-10	-2.799948e+00	-3.921939e+01
1.770000e-06	-3.557230e-07	-4.820960e-10	-2.475263e+00	-3.817340e+01
1.780000e-06	-3.090897e-07	-4.654860e-10	-2.150770e+00	-3.709498e+01
1.790000e-06	-2.624484e-07	-4.484499e-10	-1.826221e+00	-3.598243e+01
1.800000e-06	-2.157163e-07	-4.316471e-10	-1.501041e+00	-3.483413e+01
1.810000e-06	-1.689316e-07	-4.128182e-10	-1.175494e+00	-3.364856e+01
1.820000e-06	-1.221695e-07	-3.934444e-10	-8.501041e-01	-3.242435e+01
1.830000e-06	-7.534364e-08	-3.755325e-10	-5.242713e-01	-3.116025e+01
1.840000e-06	-2.845587e-08	-3.585485e-10	-1.980073e-01	-2.985521e+01
1.850000e-06	1.835947e-08	-3.419804e-10	1.277526e-01	-2.850835e+01
1.860000e-06	6.512866e-08	-3.264852e-10	4.531913e-01	-2.711902e+01
1.870000e-06	1.118698e-07	-3.116478e-10	7.784346e-01	-2.568676e+01
1.880000e-06	1.585546e-07	-2.941174e-10	1.103286e+00	-2.421138e+01
1.890000e-06	2.052476e-07	-2.727588e-10	1.428195e+00	-2.269292e+01
1.900000e-06	2.519007e-07	-2.493588e-10	1.752826e+00	-2.113166e+01
1.910000e-06	2.985363e-07	-2.248548e-10	2.077335e+00	-1.952813e+01
1.920000e-06	3.452059e-07	-2.003777e-10	2.402081e+00	-1.788314e+01
1.930000e-06	3.918399e-07	-1.775431e-10	2.726579e+00	-1.619773e+01
1.940000e-06	4.384686e-07	-1.555714e-10	3.051040e+00	-1.447317e+01
1.950000e-06	4.850059e-07	-1.346755e-10	3.374865e+00	-1.271099e+01
1.960000e-06	5.314439e-07	-1.135339e-10	3.698000e+00	-1.091295e+01
1.970000e-06	5.778681e-07	-9.165869e-11	4.021038e+00	-9.080991e+00
1.980000e-06	6.242074e-07	-6.970907e-11	4.343485e+00	-7.217288e+00
1.990000e-06	6.705653e-07	-4.559327e-11	4.666062e+00	-5.324177e+00
2.000000e-06	7.169351e-07	-1.708425e-11	4.988722e+00	-3.404159e+00
2.010000e-06	7.632456e-07	1.420438e-11	5.310969e+00	-1.459883e+00
2.020000e-06	8.094966e-07	4.474408e-11	5.632802e+00	5.058818e-01
2.030000e-06	8.556741e-07	7.386332e-11	5.954124e+00	2.490265e+00
2.040000e-06	9.018014e-07	1.011621e-10	6.275096e+00	4.490314e+00
2.050000e-06	9.479004e-07	1.265295e-10	6.595871e+00	6.503019e+00
2.060000e-06	9.939685e-07	1.495972e-10	6.916432e+00	8.525332e+00
2.070000e-06	1.039956e-06	1.737550e-10	7.236432e+00	1.055419e+01
2.080000e-06	1.085880e-06	2.005685e-10	7.555986e+00	1.258653e+01
2.090000e-06	1.131726e-06	2.288271e-10	7.875004e+00	1.461932e+01
2.100000e-06	1.177486e-06	2.590062e-10	8.193421e+00	1.664957e+01
2.110000e-06	1.223119e-06	2.887428e-10	8.510954e+00	1.867433e+01
2.120000e-06	1.268643e-06	3.153891e-10	8.827730e+00	2.069075e+01
2.130000e-06	1.314148e-06	3.416597e-10	9.144369e+00	2.269605e+01
2.140000e-06	1.359518e-06	3.688417e-10	9.460073e+00	2.468758e+01
2.150000e-06	1.404750e-06	3.936541e-10	9.774814e+00	2.666277e+01
2.160000e-06	1.449870e-06	4.168191e-10	1.008877e+01	2.861920e+01
2.170000e-06	1.494866e-06	4.402874e-10	1.040187e+01	3.055456e+01
2.180000e-06	1.539877e-06	4.636563e-10	1.071508e+01	3.246669e+01
2.190000e-06	1.584804e-06	4.884543e-10	1.102770e+01	3.435359e+01
2.200000e-06	1.629431e-06	5.162299e-10	1.133823e+01	3.621339e+01
2.210000e-06	1.673874e-06	5.462453e-10	1.164749e+01	3.804436e+01
2.220000e-06	1.718270e-06	5.755917e-10	1.195641e+01	3.984496e+01
2.230000e-06	1.762560e-06	6.018391e-10	1.226460e+01	4.161376e+01
2.240000e-06	1.806755e-06	6.245074e-10	1.257212e+01	4.334952e+01
2.250000e-06	1.850808e-06	6.430641e-10	1.287867e+01	4.505113e+01
2.260000e-06	1.894737e-06	6.601963e-10	1.318434e+01	4.671762e+01
2.270000e-06	1.938614e-06	6.807489e-10	1.348965e+01	4.834818e+01
2.280000e-06	1.982432e-06	7.030083e-10	1.379456e+01	4.994214e+01
2.290000e-06	2.026189e-06	7.246802e-10	1.409903e+01	5.149896e+01
2.300000e-06	2.069897e-06	7.477016e-10	1.440317e+01	5.301824e+01
2.310000e-06	2.113543e-06	7.719012e-10	1.470688e+01	5.449969e+01
2.320000e-06	2.157047e-06	7.940600e-10	1.500960e+01	5.594314e+01
2.330000e-06	2.200420e-06	8.117723e-10	1.531141e+01	5.734856e+01
2.340000e-06	2.243726e-06	8.278359e-10	1.561275e+01	5.871600e+01
2.350000e-06	2.286893e-06	8.442924e-10	1.591312e+01	6.004562e+01
2.360000e-06	2.329859e-06	8.606406e-10	1.621209e+01	6.133767e+01
2.370000e-06	2.372568e-06	8.766348e-10	1.650928e+01	6.259250e+01
2.380000e-06	2.415037e-06	8.928509e-10	1.680480e+01	6.381052e+01
2.390000e-06	2.457190e-06	9.095154e-10	1.709811e+01	6.499223e+01
2.400000e-06	2.498926e-06	9.254321e-10	1.738853e+01	6.613820e+01
2.410000e-06	2.540303e-06	9.429239e-10	1.767645e+01	6.724904e+01
2.420000e-06	2.581391e-06	9.598292e-10	1.796235e+01	6.832544e+01
2.430000e-06	2.622234e-06	9.750798e-10	1.824655e+01	6.936811e+01
2.440000e-06	2.662844e-06	9.895363e-10	1.852913e+01	7.037782e+01
2.450000e-06	2.703247e-06	1.001656e-09	1.881027e+01	7.135537e+01
2.460000e-06	2.743412e-06	1.012992e-09	1.908976e+01	7.230157e+01
2.470000e-06	2.783418e-06	1.024820e-09	1.936814e+01	7.321727e+01
2.480000e-06	2.823268e-06	1.036248e-09	1.964543e+01	7.410332e+01
2.490000e-06	2.862977e-06	1.049578e-09	1.992174e+01	7.496061e+01
2.500000e-06	2.902584e-06	1.060686e-09	2.019734e+01	7.578999e+01
2.510000e-06	2.942073e-06	1.071318e-09	2.047213e+01	7.659235e+01
2.520000e-06	2.981361e-06	1.082626e-09	2.074550e+01	7.736853e+01
2.530000e-06	3.020440e-06	1.093840e-09	2.101743e+01	7.811940e+01
2.540000e-06	3.059336e-06	1.107382e-09	2.128809e+01	7.884580e+01
2.550000e-06	3.097931e-06	1.120167e-09	2.155665e+01	7.954854e+01
2.560000e-06	3.136259e-06	1.130898e-09	2.182335e+01	8.022843e+01
2.570000e-06	3.174404e-06	1.136588e-09	2.208878e+01	8.088623e+01
2.580000e-06	3.212376e-06	1.140177e-09	2.235300e+01	8.152270e+01
2.590000e-06	3.250185e-06	1.143772e-09	2.261609e+01	8.213856e+01
2.600000e-06	3.287760e-06	1.150924e-09	2.287755e+01	8.273449e+01
2.610000e-06	3.325110e-06	1.162766e-09	2.313745e+01	8.331116e+01
2.620000e-06	3.362272e-06	1.178801e-09	2.339604e+01	8.386919e+01
2.630000e-06	3.399201e-06	1.195141e-09	2.365301e+01	8.440918e+01
2.640000e-06	3.435877e-06	1.206739e-09	2.390821e+01	8.493170e+01
2.650000e-06	3.472260e-06	1.213931e-09	2.416138e+01	8.543729e+01
2.660000e-06	3.508374e-06	1.216693e-09	2.441268e+01	8.592645e+01
2.670000e-06	3.544306e-06	1.216065e-09	2.466270e+01	8.639967e+01
2.680000e-06	3.580118e-06	1.216907e-09	2.491189e+01	8.685738e+01
2.690000e-06	3.615799e-06	1.222165e-09	2.516018e+01	8.730003e+01
2.700000e-06	3.651308e-06	1.233146e-09	2.540726e+01	8.772802e+01
2.710000e-06	3.686675e-06	1.244360e-09	2.565336e+01	8.814173e+01
2.720000e-06	3.721848e-06	1.252800e-09	2.589811e+01	8.854152e+01
2.730000e-06	3.756688e-06	1.258125e-09	2.614054e+01	8.892774e+01
2.740000e-06	3.791169e-06	1.260717e-09	2.638048e+01	8.930071e+01
2.750000e-06	3.825184e-06	1.261829e-09	2.661716e+01	8.966074e+01
2.760000e-06	3.858657e-06	1.263078e-09	2.685008e+01	9.000812e+01
2.770000e-06	3.891675e-06	1.267059e-09	2.707983e+01	9.034315e+01
2.780000e-06	3.924362e-06	1.273669e-09	2.730729e+01	9.066609e+01
2.790000e-06	3.956750e-06	1.283097e-09	2.753266e+01	9.097719e+01
2.800000e-06	3.988825e-06	1.292905e-09	2.775585e+01	9.127671e+01
2.810000e-06	4.020660e-06	1.300273e-09	2.797737e+01	9.156488e+01
2.820000e-06	4.052286e-06	1.304745e-09	2.819743e+01	9.184192e+01
2.830000e-06	4.083725e-06	1.308144e-09	2.841620e+01	9.210804e+01
2.840000e-06	4.114954e-06	1.310971e-09	2.863350e+01	9.236346e+01
2.850000e-06	4.145941e-06	1.313027e-09	2.884912e+01	9.260837e+01
2.860000e-06	4.176759e-06	1.316297e-09	2.906356e+01	9.284295e+01
2.870000e-06	4.207317e-06	1.323299e-09	2.927620e+01	9.306738e+01
2.880000e-06	4.237542e-06	1.329654e-09	2.948651e+01	9.328182e+01
2.890000e-06	4.267429e-06	1.332572e-09	2.969448e+01	9.348643e+01
2.900000e-06	4.296953e-06	1.333316e-09	2.989992e+01	9.368136e+01
