# Temperatura_=_14.29
# Concentracion g/m^3_=_1620.0
# C_Vs_to_Am_M_A/Vsm_=_65563218390.804596
# pendiente_HvsI_1/m_=_3716.3
# ordenada_HvsI_A/m_=_1297.0
# frecuencia_Hz_=_135104.83205722278

Tiempo_(s)	Campo_(V.s)	Magnetizacion_(V.s)	Campo_(kA/m)	Magnetizacion_(A/m)
0.000000e+00	-5.533633e-06	-1.885477e-09	-3.837650e+01	-1.223630e+02
1.000000e-08	-5.533886e-06	-1.886498e-09	-3.837826e+01	-1.223314e+02
2.000000e-08	-5.533879e-06	-1.889222e-09	-3.837821e+01	-1.222992e+02
3.000000e-08	-5.533391e-06	-1.890381e-09	-3.837483e+01	-1.222662e+02
4.000000e-08	-5.532443e-06	-1.889969e-09	-3.836825e+01	-1.222324e+02
5.000000e-08	-5.531021e-06	-1.884211e-09	-3.835839e+01	-1.221978e+02
6.000000e-08	-5.528987e-06	-1.865096e-09	-3.834428e+01	-1.221622e+02
7.000000e-08	-5.526281e-06	-1.853462e-09	-3.832551e+01	-1.221253e+02
8.000000e-08	-5.523022e-06	-1.870384e-09	-3.830291e+01	-1.220872e+02
9.000000e-08	-5.519358e-06	-1.930381e-09	-3.827750e+01	-1.220474e+02
1.000000e-07	-5.515306e-06	-1.977919e-09	-3.824940e+01	-1.220058e+02
1.100000e-07	-5.510936e-06	-1.928222e-09	-3.821910e+01	-1.219621e+02
1.200000e-07	-5.506380e-06	-1.793175e-09	-3.818750e+01	-1.219159e+02
1.300000e-07	-5.501650e-06	-1.814263e-09	-3.815470e+01	-1.218671e+02
1.400000e-07	-5.496432e-06	-1.893143e-09	-3.811851e+01	-1.218151e+02
1.500000e-07	-5.490730e-06	-1.939500e-09	-3.807896e+01	-1.217598e+02
1.600000e-07	-5.484773e-06	-1.839158e-09	-3.803765e+01	-1.217006e+02
1.700000e-07	-5.478545e-06	-1.828624e-09	-3.799446e+01	-1.216372e+02
1.800000e-07	-5.471779e-06	-1.888590e-09	-3.794753e+01	-1.215692e+02
1.900000e-07	-5.464554e-06	-1.920647e-09	-3.789743e+01	-1.214963e+02
2.000000e-07	-5.457116e-06	-1.843639e-09	-3.784584e+01	-1.214181e+02
2.100000e-07	-5.449424e-06	-1.825844e-09	-3.779250e+01	-1.213342e+02
2.200000e-07	-5.441427e-06	-1.890090e-09	-3.773704e+01	-1.212442e+02
2.300000e-07	-5.433127e-06	-1.933590e-09	-3.767948e+01	-1.211479e+02
2.400000e-07	-5.424526e-06	-1.897954e-09	-3.761983e+01	-1.210450e+02
2.500000e-07	-5.415309e-06	-1.842218e-09	-3.755591e+01	-1.209352e+02
2.600000e-07	-5.405122e-06	-1.868136e-09	-3.748526e+01	-1.208183e+02
2.700000e-07	-5.394188e-06	-1.877952e-09	-3.740943e+01	-1.206941e+02
2.800000e-07	-5.382898e-06	-1.872099e-09	-3.733114e+01	-1.205624e+02
2.900000e-07	-5.371246e-06	-1.838281e-09	-3.725032e+01	-1.204233e+02
3.000000e-07	-5.359239e-06	-1.876122e-09	-3.716705e+01	-1.202765e+02
3.100000e-07	-5.346893e-06	-1.870468e-09	-3.708143e+01	-1.201222e+02
3.200000e-07	-5.334107e-06	-1.862909e-09	-3.699276e+01	-1.199604e+02
3.300000e-07	-5.320840e-06	-1.814726e-09	-3.690075e+01	-1.197911e+02
3.400000e-07	-5.307290e-06	-1.847555e-09	-3.680678e+01	-1.196146e+02
3.500000e-07	-5.293439e-06	-1.849172e-09	-3.671073e+01	-1.194309e+02
3.600000e-07	-5.279066e-06	-1.848376e-09	-3.661105e+01	-1.192403e+02
3.700000e-07	-5.264099e-06	-1.825812e-09	-3.650725e+01	-1.190431e+02
3.800000e-07	-5.248680e-06	-1.860844e-09	-3.640031e+01	-1.188395e+02
3.900000e-07	-5.232706e-06	-1.833033e-09	-3.628953e+01	-1.186298e+02
4.000000e-07	-5.216106e-06	-1.802303e-09	-3.617441e+01	-1.184144e+02
4.100000e-07	-5.199277e-06	-1.821363e-09	-3.605770e+01	-1.181935e+02
4.200000e-07	-5.182258e-06	-1.840941e-09	-3.593967e+01	-1.179675e+02
4.300000e-07	-5.164914e-06	-1.790041e-09	-3.581939e+01	-1.177368e+02
4.400000e-07	-5.147293e-06	-1.797328e-09	-3.569718e+01	-1.175017e+02
4.500000e-07	-5.129305e-06	-1.857234e-09	-3.557243e+01	-1.172624e+02
4.600000e-07	-5.110759e-06	-1.814713e-09	-3.544381e+01	-1.170194e+02
4.700000e-07	-5.091708e-06	-1.756339e-09	-3.531169e+01	-1.167728e+02
4.800000e-07	-5.072353e-06	-1.802331e-09	-3.517746e+01	-1.165230e+02
4.900000e-07	-5.052795e-06	-1.814865e-09	-3.504182e+01	-1.162702e+02
5.000000e-07	-5.033101e-06	-1.738398e-09	-3.490525e+01	-1.160145e+02
5.100000e-07	-5.013236e-06	-1.762324e-09	-3.476748e+01	-1.157561e+02
5.200000e-07	-4.993045e-06	-1.806397e-09	-3.462745e+01	-1.154952e+02
5.300000e-07	-4.972347e-06	-1.757783e-09	-3.448390e+01	-1.152318e+02
5.400000e-07	-4.951257e-06	-1.741264e-09	-3.433765e+01	-1.149660e+02
5.500000e-07	-4.929902e-06	-1.808106e-09	-3.418954e+01	-1.146978e+02
5.600000e-07	-4.908213e-06	-1.762716e-09	-3.403913e+01	-1.144273e+02
5.700000e-07	-4.886230e-06	-1.709656e-09	-3.388668e+01	-1.141544e+02
5.800000e-07	-4.863921e-06	-1.753658e-09	-3.373196e+01	-1.138790e+02
5.900000e-07	-4.841171e-06	-1.769337e-09	-3.357418e+01	-1.136010e+02
6.000000e-07	-4.817966e-06	-1.706554e-09	-3.341325e+01	-1.133205e+02
6.100000e-07	-4.794527e-06	-1.731476e-09	-3.325070e+01	-1.130371e+02
6.200000e-07	-4.770901e-06	-1.755549e-09	-3.308685e+01	-1.127510e+02
6.300000e-07	-4.747078e-06	-1.714931e-09	-3.292163e+01	-1.124618e+02
6.400000e-07	-4.723080e-06	-1.703783e-09	-3.275521e+01	-1.121696e+02
6.500000e-07	-4.698754e-06	-1.737168e-09	-3.258650e+01	-1.118742e+02
6.600000e-07	-4.673884e-06	-1.705320e-09	-3.241403e+01	-1.115755e+02
6.700000e-07	-4.648490e-06	-1.688069e-09	-3.223792e+01	-1.112734e+02
6.800000e-07	-4.622617e-06	-1.707173e-09	-3.205848e+01	-1.109679e+02
6.900000e-07	-4.596076e-06	-1.694421e-09	-3.187442e+01	-1.106588e+02
7.000000e-07	-4.568953e-06	-1.664833e-09	-3.168631e+01	-1.103462e+02
7.100000e-07	-4.541518e-06	-1.681764e-09	-3.149605e+01	-1.100300e+02
7.200000e-07	-4.513905e-06	-1.683441e-09	-3.130455e+01	-1.097102e+02
7.300000e-07	-4.486191e-06	-1.664383e-09	-3.111235e+01	-1.093868e+02
7.400000e-07	-4.458329e-06	-1.666226e-09	-3.091912e+01	-1.090599e+02
7.500000e-07	-4.430188e-06	-1.665391e-09	-3.072396e+01	-1.087294e+02
7.600000e-07	-4.401741e-06	-1.643778e-09	-3.052668e+01	-1.083954e+02
7.700000e-07	-4.373017e-06	-1.635234e-09	-3.032747e+01	-1.080580e+02
7.800000e-07	-4.343956e-06	-1.635409e-09	-3.012593e+01	-1.077171e+02
7.900000e-07	-4.314524e-06	-1.620595e-09	-2.992182e+01	-1.073728e+02
8.000000e-07	-4.284844e-06	-1.619348e-09	-2.971598e+01	-1.070252e+02
8.100000e-07	-4.254923e-06	-1.623048e-09	-2.950848e+01	-1.066741e+02
8.200000e-07	-4.224690e-06	-1.612039e-09	-2.929880e+01	-1.063197e+02
8.300000e-07	-4.194153e-06	-1.596535e-09	-2.908702e+01	-1.059619e+02
8.400000e-07	-4.163329e-06	-1.599815e-09	-2.887326e+01	-1.056005e+02
8.500000e-07	-4.132260e-06	-1.590805e-09	-2.865779e+01	-1.052356e+02
8.600000e-07	-4.101001e-06	-1.579861e-09	-2.844100e+01	-1.048671e+02
8.700000e-07	-4.069527e-06	-1.575153e-09	-2.822273e+01	-1.044946e+02
8.800000e-07	-4.037825e-06	-1.572610e-09	-2.800287e+01	-1.041182e+02
8.900000e-07	-4.005951e-06	-1.553120e-09	-2.778182e+01	-1.037376e+02
9.000000e-07	-3.973892e-06	-1.547682e-09	-2.755948e+01	-1.033525e+02
9.100000e-07	-3.941476e-06	-1.544684e-09	-2.733467e+01	-1.029627e+02
9.200000e-07	-3.908581e-06	-1.533754e-09	-2.710654e+01	-1.025679e+02
9.300000e-07	-3.875409e-06	-1.523087e-09	-2.687649e+01	-1.021679e+02
9.400000e-07	-3.841920e-06	-1.525415e-09	-2.664424e+01	-1.017623e+02
9.500000e-07	-3.807885e-06	-1.512702e-09	-2.640821e+01	-1.013508e+02
9.600000e-07	-3.773317e-06	-1.496835e-09	-2.616847e+01	-1.009332e+02
9.700000e-07	-3.738346e-06	-1.488687e-09	-2.592594e+01	-1.005091e+02
9.800000e-07	-3.703078e-06	-1.481741e-09	-2.568135e+01	-1.000782e+02
9.900000e-07	-3.667584e-06	-1.467741e-09	-2.543520e+01	-9.964044e+01
1.000000e-06	-3.631980e-06	-1.465328e-09	-2.518828e+01	-9.919546e+01
1.010000e-06	-3.596274e-06	-1.464532e-09	-2.494065e+01	-9.874313e+01
1.020000e-06	-3.560399e-06	-1.455859e-09	-2.469186e+01	-9.828331e+01
1.030000e-06	-3.524384e-06	-1.448655e-09	-2.444209e+01	-9.781592e+01
1.040000e-06	-3.488151e-06	-1.444033e-09	-2.419080e+01	-9.734094e+01
1.050000e-06	-3.451553e-06	-1.432385e-09	-2.393699e+01	-9.685840e+01
1.060000e-06	-3.414613e-06	-1.418871e-09	-2.368081e+01	-9.636837e+01
1.070000e-06	-3.377399e-06	-1.411630e-09	-2.342273e+01	-9.587101e+01
1.080000e-06	-3.340012e-06	-1.401127e-09	-2.316344e+01	-9.536651e+01
1.090000e-06	-3.302405e-06	-1.390049e-09	-2.290263e+01	-9.485512e+01
1.100000e-06	-3.264555e-06	-1.384446e-09	-2.264013e+01	-9.433715e+01
1.110000e-06	-3.226600e-06	-1.380272e-09	-2.237691e+01	-9.381293e+01
1.120000e-06	-3.188422e-06	-1.366052e-09	-2.211214e+01	-9.328285e+01
1.130000e-06	-3.149924e-06	-1.353938e-09	-2.184515e+01	-9.274729e+01
1.140000e-06	-3.111174e-06	-1.344086e-09	-2.157642e+01	-9.220670e+01
1.150000e-06	-3.072204e-06	-1.338307e-09	-2.130616e+01	-9.166148e+01
1.160000e-06	-3.033037e-06	-1.328290e-09	-2.103453e+01	-9.111207e+01
1.170000e-06	-2.993676e-06	-1.322183e-09	-2.076155e+01	-9.055887e+01
1.180000e-06	-2.954145e-06	-1.313992e-09	-2.048740e+01	-9.000225e+01
1.190000e-06	-2.914492e-06	-1.305542e-09	-2.021240e+01	-8.944255e+01
1.200000e-06	-2.874759e-06	-1.293442e-09	-1.993685e+01	-8.888005e+01
1.210000e-06	-2.834911e-06	-1.279671e-09	-1.966049e+01	-8.831499e+01
1.220000e-06	-2.794915e-06	-1.265768e-09	-1.938312e+01	-8.774750e+01
1.230000e-06	-2.754756e-06	-1.256823e-09	-1.910461e+01	-8.717765e+01
1.240000e-06	-2.714390e-06	-1.249042e-09	-1.882466e+01	-8.660544e+01
1.250000e-06	-2.673798e-06	-1.241861e-09	-1.854315e+01	-8.603073e+01
1.260000e-06	-2.632869e-06	-1.235652e-09	-1.825931e+01	-8.545334e+01
1.270000e-06	-2.591659e-06	-1.226647e-09	-1.797351e+01	-8.487294e+01
1.280000e-06	-2.550170e-06	-1.210047e-09	-1.768578e+01	-8.428912e+01
1.290000e-06	-2.508249e-06	-1.194689e-09	-1.739505e+01	-8.370140e+01
1.300000e-06	-2.466019e-06	-1.182114e-09	-1.710218e+01	-8.310916e+01
1.310000e-06	-2.423546e-06	-1.171498e-09	-1.680762e+01	-8.251174e+01
1.320000e-06	-2.380825e-06	-1.161939e-09	-1.651135e+01	-8.190837e+01
1.330000e-06	-2.337882e-06	-1.154146e-09	-1.621353e+01	-8.129823e+01
1.340000e-06	-2.294713e-06	-1.147905e-09	-1.591415e+01	-8.068045e+01
1.350000e-06	-2.251352e-06	-1.141140e-09	-1.561344e+01	-8.005410e+01
1.360000e-06	-2.207845e-06	-1.132246e-09	-1.531171e+01	-7.941824e+01
1.370000e-06	-2.164227e-06	-1.119468e-09	-1.500921e+01	-7.877191e+01
1.380000e-06	-2.120536e-06	-1.107793e-09	-1.470621e+01	-7.811417e+01
1.390000e-06	-2.076790e-06	-1.094375e-09	-1.440282e+01	-7.744407e+01
1.400000e-06	-2.033027e-06	-1.079118e-09	-1.409932e+01	-7.676072e+01
1.410000e-06	-1.989198e-06	-1.065518e-09	-1.379536e+01	-7.606327e+01
1.420000e-06	-1.945272e-06	-1.056592e-09	-1.349073e+01	-7.535093e+01
1.430000e-06	-1.901224e-06	-1.047112e-09	-1.318525e+01	-7.462298e+01
1.440000e-06	-1.857024e-06	-1.037248e-09	-1.287872e+01	-7.387881e+01
1.450000e-06	-1.812718e-06	-1.026058e-09	-1.257145e+01	-7.311788e+01
1.460000e-06	-1.768282e-06	-1.013358e-09	-1.226328e+01	-7.233975e+01
1.470000e-06	-1.723668e-06	-9.954811e-10	-1.195388e+01	-7.154409e+01
1.480000e-06	-1.678877e-06	-9.780657e-10	-1.164324e+01	-7.073067e+01
1.490000e-06	-1.633908e-06	-9.632920e-10	-1.133138e+01	-6.989937e+01
1.500000e-06	-1.588801e-06	-9.490642e-10	-1.101855e+01	-6.905016e+01
1.510000e-06	-1.543650e-06	-9.337762e-10	-1.070543e+01	-6.818309e+01
1.520000e-06	-1.498437e-06	-9.198585e-10	-1.039186e+01	-6.729831e+01
1.530000e-06	-1.453040e-06	-9.058332e-10	-1.007703e+01	-6.639602e+01
1.540000e-06	-1.407571e-06	-8.924189e-10	-9.761700e+00	-6.547649e+01
1.550000e-06	-1.362088e-06	-8.772339e-10	-9.446269e+00	-6.454000e+01
1.560000e-06	-1.316486e-06	-8.620123e-10	-9.130009e+00	-6.358687e+01
1.570000e-06	-1.270804e-06	-8.432233e-10	-8.813203e+00	-6.261740e+01
1.580000e-06	-1.225076e-06	-8.245785e-10	-8.496071e+00	-6.163188e+01
1.590000e-06	-1.179250e-06	-8.078615e-10	-8.178258e+00	-6.063056e+01
1.600000e-06	-1.133357e-06	-7.903215e-10	-7.859986e+00	-5.961360e+01
1.610000e-06	-1.087376e-06	-7.728592e-10	-7.541103e+00	-5.858110e+01
1.620000e-06	-1.041279e-06	-7.583792e-10	-7.221415e+00	-5.753304e+01
1.630000e-06	-9.951389e-07	-7.468792e-10	-6.901424e+00	-5.646930e+01
1.640000e-06	-9.488592e-07	-7.335887e-10	-6.580468e+00	-5.538960e+01
1.650000e-06	-9.025428e-07	-7.190214e-10	-6.259258e+00	-5.429353e+01
1.660000e-06	-8.562249e-07	-7.026720e-10	-5.938037e+00	-5.318050e+01
1.670000e-06	-8.098018e-07	-6.848068e-10	-5.616086e+00	-5.204977e+01
1.680000e-06	-7.632983e-07	-6.650445e-10	-5.293578e+00	-5.090043e+01
1.690000e-06	-7.167343e-07	-6.467310e-10	-4.970651e+00	-4.973140e+01
1.700000e-06	-6.701293e-07	-6.267691e-10	-4.647438e+00	-4.854144e+01
1.710000e-06	-6.234602e-07	-6.053725e-10	-4.323781e+00	-4.732915e+01
1.720000e-06	-5.768027e-07	-5.836036e-10	-4.000206e+00	-4.609300e+01
1.730000e-06	-5.301188e-07	-5.643061e-10	-3.676446e+00	-4.483130e+01
1.740000e-06	-4.833125e-07	-5.468594e-10	-3.351838e+00	-4.354231e+01
1.750000e-06	-4.364142e-07	-5.297916e-10	-3.026592e+00	-4.222415e+01
1.760000e-06	-3.894909e-07	-5.107334e-10	-2.701172e+00	-4.087492e+01
1.770000e-06	-3.425990e-07	-4.876021e-10	-2.375971e+00	-3.949270e+01
1.780000e-06	-2.957068e-07	-4.632102e-10	-2.050767e+00	-3.807553e+01
1.790000e-06	-2.487996e-07	-4.423271e-10	-1.725459e+00	-3.662154e+01
1.800000e-06	-2.018843e-07	-4.216267e-10	-1.400095e+00	-3.512889e+01
1.810000e-06	-1.549824e-07	-3.997627e-10	-1.074824e+00	-3.359588e+01
1.820000e-06	-1.081146e-07	-3.788518e-10	-7.497896e-01	-3.202092e+01
1.830000e-06	-6.117090e-08	-3.583387e-10	-4.242285e-01	-3.040263e+01
1.840000e-06	-1.414005e-08	-3.374093e-10	-9.806316e-02	-2.873980e+01
1.850000e-06	3.288505e-08	-3.156733e-10	2.280623e-01	-2.703149e+01
1.860000e-06	7.983271e-08	-2.925561e-10	5.536508e-01	-2.527700e+01
1.870000e-06	1.267150e-07	-2.679934e-10	8.787856e-01	-2.347595e+01
1.880000e-06	1.735934e-07	-2.422832e-10	1.203894e+00	-2.162823e+01
1.890000e-06	2.204960e-07	-2.148415e-10	1.529170e+00	-1.973411e+01
1.900000e-06	2.673854e-07	-1.854275e-10	1.854355e+00	-1.779415e+01
1.910000e-06	3.142981e-07	-1.562760e-10	2.179700e+00	-1.580932e+01
1.920000e-06	3.612051e-07	-1.287765e-10	2.505007e+00	-1.378088e+01
1.930000e-06	4.080019e-07	-1.024891e-10	2.829549e+00	-1.171049e+01
1.940000e-06	4.547832e-07	-7.685102e-11	3.153984e+00	-9.600138e+00
1.950000e-06	5.015229e-07	-5.056512e-11	3.478130e+00	-7.452143e+00
1.960000e-06	5.481512e-07	-2.309087e-11	3.801504e+00	-5.269147e+00
1.970000e-06	5.947125e-07	6.257610e-12	4.124412e+00	-3.054088e+00
1.980000e-06	6.412598e-07	3.676078e-11	4.447224e+00	-8.101736e-01
1.990000e-06	6.877892e-07	6.924905e-11	4.769912e+00	1.459144e+00
2.000000e-06	7.342261e-07	1.024092e-10	5.091958e+00	3.750205e+00
2.010000e-06	7.805990e-07	1.348948e-10	5.413561e+00	6.059172e+00
2.020000e-06	8.269494e-07	1.672415e-10	5.735007e+00	8.382072e+00
2.030000e-06	8.733074e-07	2.010051e-10	6.056506e+00	1.071483e+01
2.040000e-06	9.196238e-07	2.338979e-10	6.377717e+00	1.305333e+01
2.050000e-06	9.658796e-07	2.640094e-10	6.698507e+00	1.539340e+01
2.060000e-06	1.012038e-06	2.947280e-10	7.018624e+00	1.773094e+01
2.070000e-06	1.058112e-06	3.251083e-10	7.338150e+00	2.006188e+01
2.080000e-06	1.104136e-06	3.561167e-10	7.657337e+00	2.238226e+01
2.090000e-06	1.149986e-06	3.896733e-10	7.975313e+00	2.468825e+01
2.100000e-06	1.195687e-06	4.264309e-10	8.292250e+00	2.697619e+01
2.110000e-06	1.241350e-06	4.635112e-10	8.608932e+00	2.924264e+01
2.120000e-06	1.286954e-06	4.969111e-10	8.925205e+00	3.148435e+01
2.130000e-06	1.332489e-06	5.286544e-10	9.240993e+00	3.369835e+01
2.140000e-06	1.377966e-06	5.578423e-10	9.556379e+00	3.588192e+01
2.150000e-06	1.423341e-06	5.832654e-10	9.871067e+00	3.803263e+01
2.160000e-06	1.468700e-06	6.068865e-10	1.018564e+01	4.014834e+01
2.170000e-06	1.513986e-06	6.326674e-10	1.049970e+01	4.222720e+01
2.180000e-06	1.559079e-06	6.622842e-10	1.081243e+01	4.426768e+01
2.190000e-06	1.603991e-06	6.941571e-10	1.112390e+01	4.626851e+01
2.200000e-06	1.648722e-06	7.269657e-10	1.143411e+01	4.822874e+01
2.210000e-06	1.693410e-06	7.577840e-10	1.174403e+01	5.014769e+01
2.220000e-06	1.738027e-06	7.846028e-10	1.205346e+01	5.202493e+01
2.230000e-06	1.782489e-06	8.081143e-10	1.236180e+01	5.386031e+01
2.240000e-06	1.826835e-06	8.280393e-10	1.266935e+01	5.565387e+01
2.250000e-06	1.870984e-06	8.470305e-10	1.297553e+01	5.740587e+01
2.260000e-06	1.914973e-06	8.671534e-10	1.328060e+01	5.911677e+01
2.270000e-06	1.958922e-06	8.907255e-10	1.358539e+01	6.078715e+01
2.280000e-06	2.002793e-06	9.156206e-10	1.388964e+01	6.241777e+01
2.290000e-06	2.046526e-06	9.405095e-10	1.419294e+01	6.400946e+01
2.300000e-06	2.090211e-06	9.658478e-10	1.449590e+01	6.556316e+01
2.310000e-06	2.133894e-06	9.883509e-10	1.479885e+01	6.707984e+01
2.320000e-06	2.177520e-06	1.006829e-09	1.510140e+01	6.856053e+01
2.330000e-06	2.221067e-06	1.022503e-09	1.540340e+01	7.000628e+01
2.340000e-06	2.264459e-06	1.037000e-09	1.570433e+01	7.141812e+01
2.350000e-06	2.307627e-06	1.053786e-09	1.600371e+01	7.279706e+01
2.360000e-06	2.350634e-06	1.073724e-09	1.630197e+01	7.414409e+01
2.370000e-06	2.393554e-06	1.095531e-09	1.659963e+01	7.546013e+01
2.380000e-06	2.436340e-06	1.116561e-09	1.689635e+01	7.674607e+01
2.390000e-06	2.478771e-06	1.134457e-09	1.719062e+01	7.800272e+01
2.400000e-06	2.520794e-06	1.149336e-09	1.748205e+01	7.923081e+01
2.410000e-06	2.562451e-06	1.160873e-09	1.777095e+01	8.043102e+01
2.420000e-06	2.603747e-06	1.170598e-09	1.805734e+01	8.160394e+01
2.430000e-06	2.644690e-06	1.184136e-09	1.834128e+01	8.275012e+01
2.440000e-06	2.685347e-06	1.202420e-09	1.862325e+01	8.387001e+01
2.450000e-06	2.725839e-06	1.221765e-09	1.890407e+01	8.496403e+01
2.460000e-06	2.766121e-06	1.240238e-09	1.918343e+01	8.603254e+01
2.470000e-06	2.806179e-06	1.255275e-09	1.946123e+01	8.707585e+01
2.480000e-06	2.846071e-06	1.267518e-09	1.973789e+01	8.809424e+01
2.490000e-06	2.885803e-06	1.277687e-09	2.001344e+01	8.908798e+01
2.500000e-06	2.925429e-06	1.287664e-09	2.028825e+01	9.005730e+01
2.510000e-06	2.964894e-06	1.300761e-09	2.056194e+01	9.100246e+01
2.520000e-06	3.004195e-06	1.315435e-09	2.083450e+01	9.192369e+01
2.530000e-06	3.043403e-06	1.332123e-09	2.110641e+01	9.282124e+01
2.540000e-06	3.082411e-06	1.349318e-09	2.137694e+01	9.369541e+01
2.550000e-06	3.121173e-06	1.362034e-09	2.164576e+01	9.454648e+01
2.560000e-06	3.159676e-06	1.369960e-09	2.191278e+01	9.537480e+01
2.570000e-06	3.197895e-06	1.375764e-09	2.217784e+01	9.618074e+01
2.580000e-06	3.235878e-06	1.381965e-09	2.244126e+01	9.696471e+01
2.590000e-06	3.273682e-06	1.389799e-09	2.270343e+01	9.772716e+01
2.600000e-06	3.311340e-06	1.402430e-09	2.296460e+01	9.846857e+01
2.610000e-06	3.348775e-06	1.418851e-09	2.322421e+01	9.918948e+01
2.620000e-06	3.385950e-06	1.436796e-09	2.348202e+01	9.989044e+01
2.630000e-06	3.422928e-06	1.450846e-09	2.373848e+01	1.005720e+02
2.640000e-06	3.459674e-06	1.458369e-09	2.399331e+01	1.012349e+02
2.650000e-06	3.496057e-06	1.463803e-09	2.424564e+01	1.018797e+02
2.660000e-06	3.532189e-06	1.468587e-09	2.449621e+01	1.025070e+02
2.670000e-06	3.568195e-06	1.474492e-09	2.474592e+01	1.031175e+02
2.680000e-06	3.604050e-06	1.482187e-09	2.499458e+01	1.037119e+02
2.690000e-06	3.639791e-06	1.493832e-09	2.524245e+01	1.042908e+02
2.700000e-06	3.675442e-06	1.508338e-09	2.548970e+01	1.048549e+02
2.710000e-06	3.710976e-06	1.520106e-09	2.573613e+01	1.054047e+02
2.720000e-06	3.746230e-06	1.532292e-09	2.598062e+01	1.059409e+02
2.730000e-06	3.781192e-06	1.539727e-09	2.622308e+01	1.064640e+02
2.740000e-06	3.815857e-06	1.541457e-09	2.646349e+01	1.069745e+02
2.750000e-06	3.849957e-06	1.538854e-09	2.669998e+01	1.074729e+02
2.760000e-06	3.883507e-06	1.538058e-09	2.693265e+01	1.079597e+02
2.770000e-06	3.916640e-06	1.543414e-09	2.716243e+01	1.084352e+02
2.780000e-06	3.949317e-06	1.554908e-09	2.738905e+01	1.088998e+02
2.790000e-06	3.981579e-06	1.571614e-09	2.761279e+01	1.093537e+02
2.800000e-06	4.013578e-06	1.587469e-09	2.783471e+01	1.097974e+02
2.810000e-06	4.045437e-06	1.596380e-09	2.805566e+01	1.102309e+02
2.820000e-06	4.077122e-06	1.595767e-09	2.827540e+01	1.106544e+02
2.830000e-06	4.108605e-06	1.593647e-09	2.849374e+01	1.110682e+02
2.840000e-06	4.139880e-06	1.593683e-09	2.871064e+01	1.114722e+02
2.850000e-06	4.170958e-06	1.597066e-09	2.892617e+01	1.118667e+02
2.860000e-06	4.201763e-06	1.607168e-09	2.913980e+01	1.122518e+02
2.870000e-06	4.232181e-06	1.621585e-09	2.935075e+01	1.126273e+02
2.880000e-06	4.262284e-06	1.634410e-09	2.955952e+01	1.129935e+02
2.890000e-06	4.292102e-06	1.641769e-09	2.976631e+01	1.133504e+02
2.900000e-06	4.321628e-06	1.646616e-09	2.997108e+01	1.136981e+02
