# Temperatura_=_-24.0
# Concentracion g/m^3_=_1620.0
# C_Vs_to_Am_M_A/Vsm_=_65563218390.804596
# pendiente_HvsI_1/m_=_3716.3
# ordenada_HvsI_A/m_=_1297.0
# frecuencia_Hz_=_135091.11346023573

Tiempo_(s)	Campo_(V.s)	Magnetizacion_(V.s)	Campo_(kA/m)	Magnetizacion_(A/m)
0.000000e+00	-5.525558e-06	-1.173857e-09	-3.837308e+01	-7.509889e+01
1.000000e-08	-5.525640e-06	-1.173094e-09	-3.837365e+01	-7.514281e+01
2.000000e-08	-5.525506e-06	-1.175572e-09	-3.837271e+01	-7.518607e+01
3.000000e-08	-5.525107e-06	-1.175240e-09	-3.836995e+01	-7.522835e+01
4.000000e-08	-5.524206e-06	-1.172130e-09	-3.836368e+01	-7.526930e+01
5.000000e-08	-5.522739e-06	-1.168872e-09	-3.835350e+01	-7.530859e+01
6.000000e-08	-5.520726e-06	-1.169803e-09	-3.833952e+01	-7.534586e+01
7.000000e-08	-5.518134e-06	-1.195320e-09	-3.832152e+01	-7.538078e+01
8.000000e-08	-5.514971e-06	-1.172474e-09	-3.829955e+01	-7.541302e+01
9.000000e-08	-5.511272e-06	-1.084771e-09	-3.827387e+01	-7.544224e+01
1.000000e-07	-5.507173e-06	-1.103179e-09	-3.824540e+01	-7.546814e+01
1.100000e-07	-5.502820e-06	-1.237917e-09	-3.821517e+01	-7.549043e+01
1.200000e-07	-5.498156e-06	-1.251189e-09	-3.818277e+01	-7.550884e+01
1.300000e-07	-5.493204e-06	-1.108720e-09	-3.814839e+01	-7.552313e+01
1.400000e-07	-5.487930e-06	-1.050891e-09	-3.811176e+01	-7.553309e+01
1.500000e-07	-5.482235e-06	-1.204215e-09	-3.807221e+01	-7.553854e+01
1.600000e-07	-5.476043e-06	-1.239305e-09	-3.802921e+01	-7.553934e+01
1.700000e-07	-5.469529e-06	-1.148524e-09	-3.798397e+01	-7.553539e+01
1.800000e-07	-5.462717e-06	-1.061663e-09	-3.793667e+01	-7.552663e+01
1.900000e-07	-5.455520e-06	-1.196313e-09	-3.788668e+01	-7.551303e+01
2.000000e-07	-5.448014e-06	-1.204199e-09	-3.783456e+01	-7.549461e+01
2.100000e-07	-5.440203e-06	-1.133263e-09	-3.778031e+01	-7.547145e+01
2.200000e-07	-5.432144e-06	-1.046904e-09	-3.772435e+01	-7.544363e+01
2.300000e-07	-5.423696e-06	-1.141491e-09	-3.766568e+01	-7.541132e+01
2.400000e-07	-5.414809e-06	-1.203433e-09	-3.760396e+01	-7.537470e+01
2.500000e-07	-5.405429e-06	-1.167429e-09	-3.753882e+01	-7.533399e+01
2.600000e-07	-5.395374e-06	-1.101566e-09	-3.746899e+01	-7.528945e+01
2.700000e-07	-5.384681e-06	-1.128857e-09	-3.739473e+01	-7.524137e+01
2.800000e-07	-5.373442e-06	-1.164947e-09	-3.731668e+01	-7.519007e+01
2.900000e-07	-5.361785e-06	-1.124356e-09	-3.723573e+01	-7.513589e+01
3.000000e-07	-5.349785e-06	-1.104009e-09	-3.715239e+01	-7.507921e+01
3.100000e-07	-5.337360e-06	-1.119345e-09	-3.706611e+01	-7.502039e+01
3.200000e-07	-5.324476e-06	-1.187025e-09	-3.697663e+01	-7.495983e+01
3.300000e-07	-5.311204e-06	-1.118550e-09	-3.688446e+01	-7.489793e+01
3.400000e-07	-5.297579e-06	-1.099844e-09	-3.678984e+01	-7.483509e+01
3.500000e-07	-5.283563e-06	-1.112129e-09	-3.669250e+01	-7.477171e+01
3.600000e-07	-5.269228e-06	-1.152168e-09	-3.659295e+01	-7.470819e+01
3.700000e-07	-5.254299e-06	-1.073363e-09	-3.648928e+01	-7.464492e+01
3.800000e-07	-5.238711e-06	-1.126136e-09	-3.638102e+01	-7.458226e+01
3.900000e-07	-5.222610e-06	-1.179591e-09	-3.626921e+01	-7.452056e+01
4.000000e-07	-5.206086e-06	-1.129541e-09	-3.615445e+01	-7.446017e+01
4.100000e-07	-5.189174e-06	-1.060242e-09	-3.603700e+01	-7.440138e+01
4.200000e-07	-5.171982e-06	-1.173809e-09	-3.591762e+01	-7.434448e+01
4.300000e-07	-5.154498e-06	-1.168353e-09	-3.579619e+01	-7.428974e+01
4.400000e-07	-5.136668e-06	-1.069911e-09	-3.567237e+01	-7.423737e+01
4.500000e-07	-5.118540e-06	-1.109187e-09	-3.554647e+01	-7.418756e+01
4.600000e-07	-5.099982e-06	-1.216673e-09	-3.541760e+01	-7.414049e+01
4.700000e-07	-5.080982e-06	-1.113433e-09	-3.528565e+01	-7.409629e+01
4.800000e-07	-5.061627e-06	-1.082543e-09	-3.515123e+01	-7.405505e+01
4.900000e-07	-5.042059e-06	-1.175223e-09	-3.501534e+01	-7.401685e+01
5.000000e-07	-5.022289e-06	-1.142637e-09	-3.487805e+01	-7.398171e+01
5.100000e-07	-5.002267e-06	-1.055274e-09	-3.473900e+01	-7.394965e+01
5.200000e-07	-4.981943e-06	-1.150539e-09	-3.459786e+01	-7.392065e+01
5.300000e-07	-4.961277e-06	-1.176322e-09	-3.445434e+01	-7.389465e+01
5.400000e-07	-4.940298e-06	-1.075259e-09	-3.430865e+01	-7.387158e+01
5.500000e-07	-4.918954e-06	-1.117508e-09	-3.416042e+01	-7.385133e+01
5.600000e-07	-4.897262e-06	-1.195330e-09	-3.400978e+01	-7.383379e+01
5.700000e-07	-4.875239e-06	-1.115935e-09	-3.385684e+01	-7.381880e+01
5.800000e-07	-4.852871e-06	-1.085253e-09	-3.370150e+01	-7.380619e+01
5.900000e-07	-4.830092e-06	-1.170579e-09	-3.354330e+01	-7.379579e+01
6.000000e-07	-4.806959e-06	-1.136866e-09	-3.338265e+01	-7.378738e+01
6.100000e-07	-4.783579e-06	-1.087735e-09	-3.322029e+01	-7.378074e+01
6.200000e-07	-4.759935e-06	-1.135064e-09	-3.305609e+01	-7.377565e+01
6.300000e-07	-4.736029e-06	-1.151411e-09	-3.289007e+01	-7.377185e+01
6.400000e-07	-4.711878e-06	-1.095294e-09	-3.272235e+01	-7.376909e+01
6.500000e-07	-4.687559e-06	-1.131552e-09	-3.255347e+01	-7.376710e+01
6.600000e-07	-4.662869e-06	-1.148573e-09	-3.238200e+01	-7.376560e+01
6.700000e-07	-4.637629e-06	-1.112216e-09	-3.220672e+01	-7.376430e+01
6.800000e-07	-4.611733e-06	-1.101743e-09	-3.202688e+01	-7.376292e+01
6.900000e-07	-4.585261e-06	-1.133347e-09	-3.184304e+01	-7.376115e+01
7.000000e-07	-4.558467e-06	-1.097879e-09	-3.165697e+01	-7.375869e+01
7.100000e-07	-4.531313e-06	-1.094625e-09	-3.146839e+01	-7.375523e+01
7.200000e-07	-4.503820e-06	-1.117564e-09	-3.127746e+01	-7.375047e+01
7.300000e-07	-4.476087e-06	-1.123064e-09	-3.108486e+01	-7.374411e+01
7.400000e-07	-4.448143e-06	-1.105564e-09	-3.089080e+01	-7.373583e+01
7.500000e-07	-4.419963e-06	-1.125729e-09	-3.069510e+01	-7.372535e+01
7.600000e-07	-4.391450e-06	-1.117892e-09	-3.049709e+01	-7.371235e+01
7.700000e-07	-4.362580e-06	-1.102645e-09	-3.029660e+01	-7.369656e+01
7.800000e-07	-4.333450e-06	-1.103609e-09	-3.009430e+01	-7.367769e+01
7.900000e-07	-4.304066e-06	-1.108687e-09	-2.989024e+01	-7.365549e+01
8.000000e-07	-4.274296e-06	-1.093914e-09	-2.968350e+01	-7.362970e+01
8.100000e-07	-4.244235e-06	-1.100690e-09	-2.947473e+01	-7.360009e+01
8.200000e-07	-4.213983e-06	-1.109361e-09	-2.926465e+01	-7.356644e+01
8.300000e-07	-4.183456e-06	-1.093096e-09	-2.905264e+01	-7.352856e+01
8.400000e-07	-4.152669e-06	-1.087870e-09	-2.883884e+01	-7.348630e+01
8.500000e-07	-4.121689e-06	-1.104504e-09	-2.862370e+01	-7.343949e+01
8.600000e-07	-4.090474e-06	-1.107161e-09	-2.840692e+01	-7.338804e+01
8.700000e-07	-4.058968e-06	-1.096313e-09	-2.818812e+01	-7.333187e+01
8.800000e-07	-4.027267e-06	-1.103618e-09	-2.796796e+01	-7.327091e+01
8.900000e-07	-3.995385e-06	-1.096823e-09	-2.774656e+01	-7.320517e+01
9.000000e-07	-3.963219e-06	-1.082518e-09	-2.752318e+01	-7.313466e+01
9.100000e-07	-3.930795e-06	-1.080539e-09	-2.729800e+01	-7.305943e+01
9.200000e-07	-3.897954e-06	-1.088571e-09	-2.706993e+01	-7.297958e+01
9.300000e-07	-3.864608e-06	-1.075460e-09	-2.683835e+01	-7.289523e+01
9.400000e-07	-3.830854e-06	-1.079383e-09	-2.660395e+01	-7.280654e+01
9.500000e-07	-3.796708e-06	-1.087948e-09	-2.636681e+01	-7.271370e+01
9.600000e-07	-3.762210e-06	-1.087429e-09	-2.612724e+01	-7.261694e+01
9.700000e-07	-3.727295e-06	-1.076049e-09	-2.588477e+01	-7.251650e+01
9.800000e-07	-3.692077e-06	-1.082479e-09	-2.564019e+01	-7.241267e+01
9.900000e-07	-3.656677e-06	-1.076825e-09	-2.539435e+01	-7.230574e+01
1.000000e-06	-3.621102e-06	-1.068517e-09	-2.514729e+01	-7.219602e+01
1.010000e-06	-3.585420e-06	-1.064298e-09	-2.489949e+01	-7.208385e+01
1.020000e-06	-3.549540e-06	-1.070330e-09	-2.465032e+01	-7.196956e+01
1.030000e-06	-3.513372e-06	-1.063830e-09	-2.439914e+01	-7.185349e+01
1.040000e-06	-3.477001e-06	-1.067481e-09	-2.414656e+01	-7.173598e+01
1.050000e-06	-3.440384e-06	-1.076200e-09	-2.389227e+01	-7.161736e+01
1.060000e-06	-3.403367e-06	-1.077457e-09	-2.363520e+01	-7.149796e+01
1.070000e-06	-3.366048e-06	-1.068496e-09	-2.337603e+01	-7.137805e+01
1.080000e-06	-3.328572e-06	-1.065462e-09	-2.311577e+01	-7.125794e+01
1.090000e-06	-3.290874e-06	-1.059244e-09	-2.285398e+01	-7.113785e+01
1.100000e-06	-3.252901e-06	-1.052109e-09	-2.259027e+01	-7.101801e+01
1.110000e-06	-3.214714e-06	-1.051437e-09	-2.232507e+01	-7.089859e+01
1.120000e-06	-3.176352e-06	-1.051707e-09	-2.205866e+01	-7.077972e+01
1.130000e-06	-3.137838e-06	-1.046282e-09	-2.179119e+01	-7.066150e+01
1.140000e-06	-3.099100e-06	-1.043545e-09	-2.152217e+01	-7.054394e+01
1.150000e-06	-3.060109e-06	-1.049099e-09	-2.125139e+01	-7.042705e+01
1.160000e-06	-3.020892e-06	-1.049307e-09	-2.097904e+01	-7.031076e+01
1.170000e-06	-2.981537e-06	-1.046119e-09	-2.070574e+01	-7.019495e+01
1.180000e-06	-2.942092e-06	-1.042237e-09	-2.043180e+01	-7.007945e+01
1.190000e-06	-2.902505e-06	-1.040772e-09	-2.015688e+01	-6.996402e+01
1.200000e-06	-2.862796e-06	-1.033297e-09	-1.988112e+01	-6.984840e+01
1.210000e-06	-2.822917e-06	-1.030891e-09	-1.960417e+01	-6.973225e+01
1.220000e-06	-2.782851e-06	-1.031026e-09	-1.932593e+01	-6.961522e+01
1.230000e-06	-2.742604e-06	-1.032508e-09	-1.904643e+01	-6.949687e+01
1.240000e-06	-2.702197e-06	-1.028432e-09	-1.876582e+01	-6.937676e+01
1.250000e-06	-2.661662e-06	-1.030122e-09	-1.848432e+01	-6.925440e+01
1.260000e-06	-2.620907e-06	-1.028521e-09	-1.820128e+01	-6.912927e+01
1.270000e-06	-2.579820e-06	-1.024571e-09	-1.791595e+01	-6.900083e+01
1.280000e-06	-2.538483e-06	-1.018360e-09	-1.762888e+01	-6.886852e+01
1.290000e-06	-2.496781e-06	-1.016237e-09	-1.733927e+01	-6.873178e+01
1.300000e-06	-2.454670e-06	-1.009804e-09	-1.704683e+01	-6.859003e+01
1.310000e-06	-2.412331e-06	-1.003665e-09	-1.675279e+01	-6.844269e+01
1.320000e-06	-2.369830e-06	-9.958944e-10	-1.645765e+01	-6.828919e+01
1.330000e-06	-2.327123e-06	-9.910804e-10	-1.616106e+01	-6.812898e+01
1.340000e-06	-2.284104e-06	-9.876528e-10	-1.586231e+01	-6.796150e+01
1.350000e-06	-2.240865e-06	-9.887756e-10	-1.556203e+01	-6.778625e+01
1.360000e-06	-2.197485e-06	-9.903045e-10	-1.526077e+01	-6.760271e+01
1.370000e-06	-2.153930e-06	-9.877050e-10	-1.495829e+01	-6.741043e+01
1.380000e-06	-2.110220e-06	-9.817754e-10	-1.465475e+01	-6.720896e+01
1.390000e-06	-2.066428e-06	-9.726356e-10	-1.435062e+01	-6.699790e+01
1.400000e-06	-2.022579e-06	-9.609489e-10	-1.404611e+01	-6.677689e+01
1.410000e-06	-1.978699e-06	-9.520381e-10	-1.374137e+01	-6.654559e+01
1.420000e-06	-1.934721e-06	-9.480725e-10	-1.343596e+01	-6.630369e+01
1.430000e-06	-1.890610e-06	-9.457669e-10	-1.312963e+01	-6.605095e+01
1.440000e-06	-1.846392e-06	-9.437873e-10	-1.282255e+01	-6.578712e+01
1.450000e-06	-1.802095e-06	-9.411347e-10	-1.251492e+01	-6.551200e+01
1.460000e-06	-1.757700e-06	-9.364824e-10	-1.220662e+01	-6.522543e+01
1.470000e-06	-1.713175e-06	-9.259374e-10	-1.189740e+01	-6.492724e+01
1.480000e-06	-1.668506e-06	-9.159916e-10	-1.158719e+01	-6.461731e+01
1.490000e-06	-1.623640e-06	-9.071816e-10	-1.127562e+01	-6.429551e+01
1.500000e-06	-1.578682e-06	-8.992220e-10	-1.096339e+01	-6.396172e+01
1.510000e-06	-1.533576e-06	-8.916426e-10	-1.065015e+01	-6.361585e+01
1.520000e-06	-1.488384e-06	-8.857591e-10	-1.033631e+01	-6.325776e+01
1.530000e-06	-1.443195e-06	-8.790768e-10	-1.002249e+01	-6.288734e+01
1.540000e-06	-1.397838e-06	-8.733073e-10	-9.707497e+00	-6.250443e+01
1.550000e-06	-1.352333e-06	-8.655311e-10	-9.391481e+00	-6.210887e+01
1.560000e-06	-1.306777e-06	-8.560900e-10	-9.075113e+00	-6.170047e+01
1.570000e-06	-1.261176e-06	-8.437211e-10	-8.758427e+00	-6.127899e+01
1.580000e-06	-1.215504e-06	-8.339471e-10	-8.441250e+00	-6.084415e+01
1.590000e-06	-1.169751e-06	-8.254729e-10	-8.123515e+00	-6.039565e+01
1.600000e-06	-1.123962e-06	-8.165619e-10	-7.805521e+00	-5.993310e+01
1.610000e-06	-1.078096e-06	-8.063592e-10	-7.487003e+00	-5.945609e+01
1.620000e-06	-1.032109e-06	-7.989799e-10	-7.167635e+00	-5.896414e+01
1.630000e-06	-9.860038e-07	-7.922674e-10	-6.847453e+00	-5.845670e+01
1.640000e-06	-9.397722e-07	-7.851614e-10	-6.526391e+00	-5.793318e+01
1.650000e-06	-8.934415e-07	-7.778313e-10	-6.204640e+00	-5.739291e+01
1.660000e-06	-8.470481e-07	-7.720107e-10	-5.882454e+00	-5.683518e+01
1.670000e-06	-8.007018e-07	-7.646371e-10	-5.560595e+00	-5.625919e+01
1.680000e-06	-7.543400e-07	-7.557529e-10	-5.238628e+00	-5.566410e+01
1.690000e-06	-7.079505e-07	-7.458459e-10	-4.916470e+00	-5.504903e+01
1.700000e-06	-6.614551e-07	-7.346546e-10	-4.593575e+00	-5.441301e+01
1.710000e-06	-6.148352e-07	-7.201269e-10	-4.269816e+00	-5.375507e+01
1.720000e-06	-5.682126e-07	-7.061264e-10	-3.946038e+00	-5.307416e+01
1.730000e-06	-5.215151e-07	-6.946581e-10	-3.621740e+00	-5.236923e+01
1.740000e-06	-4.747596e-07	-6.844320e-10	-3.297040e+00	-5.163918e+01
1.750000e-06	-4.279826e-07	-6.764364e-10	-2.972190e+00	-5.088290e+01
1.760000e-06	-3.811726e-07	-6.671679e-10	-2.647111e+00	-5.009927e+01
1.770000e-06	-3.343380e-07	-6.555904e-10	-2.321861e+00	-4.928718e+01
1.780000e-06	-2.875291e-07	-6.410366e-10	-1.996790e+00	-4.844553e+01
1.790000e-06	-2.406646e-07	-6.276086e-10	-1.671332e+00	-4.757323e+01
1.800000e-06	-1.937579e-07	-6.137562e-10	-1.345581e+00	-4.666924e+01
1.810000e-06	-1.469382e-07	-6.001834e-10	-1.020435e+00	-4.573253e+01
1.820000e-06	-1.000912e-07	-5.863179e-10	-6.950986e-01	-4.476218e+01
1.830000e-06	-5.322019e-08	-5.749603e-10	-3.695956e-01	-4.375727e+01
1.840000e-06	-6.394352e-09	-5.646761e-10	-4.440655e-02	-4.271702e+01
1.850000e-06	4.041825e-08	-5.543318e-10	2.806906e-01	-4.164069e+01
1.860000e-06	8.720994e-08	-5.421424e-10	6.056426e-01	-4.052766e+01
1.870000e-06	1.340050e-07	-5.275780e-10	9.306178e-01	-3.937742e+01
1.880000e-06	1.807669e-07	-5.098705e-10	1.255363e+00	-3.818957e+01
1.890000e-06	2.275437e-07	-4.890058e-10	1.580211e+00	-3.696385e+01
1.900000e-06	2.744335e-07	-4.677424e-10	1.905845e+00	-3.570011e+01
1.910000e-06	3.212711e-07	-4.487627e-10	2.231116e+00	-3.439836e+01
1.920000e-06	3.679763e-07	-4.311127e-10	2.555467e+00	-3.305878e+01
1.930000e-06	4.146485e-07	-4.137723e-10	2.879589e+00	-3.168165e+01
1.940000e-06	4.613177e-07	-3.969683e-10	3.203691e+00	-3.026747e+01
1.950000e-06	5.079743e-07	-3.793146e-10	3.527705e+00	-2.881685e+01
1.960000e-06	5.545724e-07	-3.577079e-10	3.851312e+00	-2.733060e+01
1.970000e-06	6.011110e-07	-3.341647e-10	4.174507e+00	-2.580968e+01
1.980000e-06	6.475354e-07	-3.097770e-10	4.496908e+00	-2.425521e+01
1.990000e-06	6.938808e-07	-2.850368e-10	4.818760e+00	-2.266849e+01
2.000000e-06	7.401907e-07	-2.614738e-10	5.140366e+00	-2.105095e+01
2.010000e-06	7.864592e-07	-2.395576e-10	5.461685e+00	-1.940419e+01
2.020000e-06	8.327111e-07	-2.174271e-10	5.782888e+00	-1.772997e+01
2.030000e-06	8.789244e-07	-1.926681e-10	6.103824e+00	-1.603017e+01
2.040000e-06	9.251104e-07	-1.668040e-10	6.424570e+00	-1.430681e+01
2.050000e-06	9.711878e-07	-1.407781e-10	6.744561e+00	-1.256203e+01
2.060000e-06	1.017181e-06	-1.162346e-10	7.063968e+00	-1.079808e+01
2.070000e-06	1.063082e-06	-9.274866e-11	7.382732e+00	-9.017307e+00
2.080000e-06	1.108924e-06	-7.146921e-11	7.701088e+00	-7.222156e+00
2.090000e-06	1.154794e-06	-4.870417e-11	8.019644e+00	-5.415134e+00
2.100000e-06	1.200569e-06	-2.381329e-11	8.337533e+00	-3.598806e+00
2.110000e-06	1.246311e-06	2.764088e-12	8.655196e+00	-1.775783e+00
2.120000e-06	1.291958e-06	3.164715e-11	8.972197e+00	5.129665e-02
2.130000e-06	1.337449e-06	6.220675e-11	9.288116e+00	1.879783e+00
2.140000e-06	1.382898e-06	9.037998e-11	9.603748e+00	3.707031e+00
2.150000e-06	1.428245e-06	1.132098e-10	9.918664e+00	5.530411e+00
2.160000e-06	1.473391e-06	1.334290e-10	1.023219e+01	7.347332e+00
2.170000e-06	1.518364e-06	1.531370e-10	1.054451e+01	9.155250e+00
2.180000e-06	1.563295e-06	1.763808e-10	1.085654e+01	1.095169e+01
2.190000e-06	1.608125e-06	2.034414e-10	1.116787e+01	1.273424e+01
2.200000e-06	1.652848e-06	2.331501e-10	1.147845e+01	1.450059e+01
2.210000e-06	1.697480e-06	2.644169e-10	1.178841e+01	1.624854e+01
2.220000e-06	1.741887e-06	2.929416e-10	1.209680e+01	1.797599e+01
2.230000e-06	1.786154e-06	3.169604e-10	1.240422e+01	1.968097e+01
2.240000e-06	1.830340e-06	3.355348e-10	1.271108e+01	2.136163e+01
2.250000e-06	1.874483e-06	3.496013e-10	1.301763e+01	2.301628e+01
2.260000e-06	1.918592e-06	3.644742e-10	1.332395e+01	2.464334e+01
2.270000e-06	1.962610e-06	3.835788e-10	1.362964e+01	2.624141e+01
2.280000e-06	2.006556e-06	4.052330e-10	1.393483e+01	2.780923e+01
2.290000e-06	2.050434e-06	4.302425e-10	1.423955e+01	2.934568e+01
2.300000e-06	2.094229e-06	4.578370e-10	1.454369e+01	3.084980e+01
2.310000e-06	2.137940e-06	4.829330e-10	1.484725e+01	3.232079e+01
2.320000e-06	2.181591e-06	5.022174e-10	1.515039e+01	3.375797e+01
2.330000e-06	2.225149e-06	5.162068e-10	1.545288e+01	3.516083e+01
2.340000e-06	2.268510e-06	5.272972e-10	1.575401e+01	3.652897e+01
2.350000e-06	2.311711e-06	5.396838e-10	1.605403e+01	3.786214e+01
2.360000e-06	2.354596e-06	5.553497e-10	1.635185e+01	3.916020e+01
2.370000e-06	2.397129e-06	5.746384e-10	1.664723e+01	4.042313e+01
2.380000e-06	2.439437e-06	5.956315e-10	1.694104e+01	4.165101e+01
2.390000e-06	2.481383e-06	6.146248e-10	1.723234e+01	4.284403e+01
2.400000e-06	2.523011e-06	6.306550e-10	1.752144e+01	4.400245e+01
2.410000e-06	2.564265e-06	6.429207e-10	1.780793e+01	4.512662e+01
2.420000e-06	2.605235e-06	6.530552e-10	1.809245e+01	4.621694e+01
2.430000e-06	2.646026e-06	6.637856e-10	1.837573e+01	4.727388e+01
2.440000e-06	2.686569e-06	6.787226e-10	1.865729e+01	4.829795e+01
2.450000e-06	2.726940e-06	6.951419e-10	1.893765e+01	4.928972e+01
2.460000e-06	2.767131e-06	7.108929e-10	1.921676e+01	5.024976e+01
2.470000e-06	2.807151e-06	7.252264e-10	1.949468e+01	5.117868e+01
2.480000e-06	2.847046e-06	7.363544e-10	1.977174e+01	5.207712e+01
2.490000e-06	2.886840e-06	7.469007e-10	2.004810e+01	5.294570e+01
2.500000e-06	2.926534e-06	7.570529e-10	2.032376e+01	5.378507e+01
2.510000e-06	2.966107e-06	7.697830e-10	2.059858e+01	5.459586e+01
2.520000e-06	3.005525e-06	7.833198e-10	2.087233e+01	5.537871e+01
2.530000e-06	3.044732e-06	7.949643e-10	2.114460e+01	5.613426e+01
2.540000e-06	3.083622e-06	8.087796e-10	2.141468e+01	5.686314e+01
2.550000e-06	3.122182e-06	8.200542e-10	2.168247e+01	5.756595e+01
2.560000e-06	3.160488e-06	8.269633e-10	2.194849e+01	5.824330e+01
2.570000e-06	3.198656e-06	8.323367e-10	2.221355e+01	5.889581e+01
2.580000e-06	3.236642e-06	8.355023e-10	2.247735e+01	5.952406e+01
2.590000e-06	3.274372e-06	8.395999e-10	2.273938e+01	6.012864e+01
2.600000e-06	3.311946e-06	8.488502e-10	2.300031e+01	6.071015e+01
2.610000e-06	3.349402e-06	8.634194e-10	2.326043e+01	6.126917e+01
2.620000e-06	3.386595e-06	8.794217e-10	2.351872e+01	6.180629e+01
2.630000e-06	3.423458e-06	8.919513e-10	2.377472e+01	6.232210e+01
2.640000e-06	3.460113e-06	8.995105e-10	2.402928e+01	6.281721e+01
2.650000e-06	3.496489e-06	9.032811e-10	2.428190e+01	6.329223e+01
2.660000e-06	3.532645e-06	9.050544e-10	2.453299e+01	6.374779e+01
2.670000e-06	3.568713e-06	9.083323e-10	2.478347e+01	6.418452e+01
2.680000e-06	3.604611e-06	9.132908e-10	2.503277e+01	6.460307e+01
2.690000e-06	3.640335e-06	9.231114e-10	2.528086e+01	6.500413e+01
2.700000e-06	3.675935e-06	9.353147e-10	2.552809e+01	6.538836e+01
2.710000e-06	3.711388e-06	9.442575e-10	2.577430e+01	6.575646e+01
2.720000e-06	3.746609e-06	9.500081e-10	2.601889e+01	6.610916e+01
2.730000e-06	3.781464e-06	9.510463e-10	2.626095e+01	6.644718e+01
2.740000e-06	3.815787e-06	9.512303e-10	2.649931e+01	6.677125e+01
2.750000e-06	3.849523e-06	9.535152e-10	2.673360e+01	6.708211e+01
2.760000e-06	3.882728e-06	9.590939e-10	2.696419e+01	6.738052e+01
2.770000e-06	3.915525e-06	9.654471e-10	2.719195e+01	6.766721e+01
2.780000e-06	3.948003e-06	9.717915e-10	2.741750e+01	6.794293e+01
2.790000e-06	3.980218e-06	9.794158e-10	2.764122e+01	6.820840e+01
2.800000e-06	4.012257e-06	9.851205e-10	2.786373e+01	6.846434e+01
2.810000e-06	4.044141e-06	9.883173e-10	2.808515e+01	6.871145e+01
2.820000e-06	4.075895e-06	9.902937e-10	2.830567e+01	6.895039e+01
2.830000e-06	4.107433e-06	9.944382e-10	2.852469e+01	6.918180e+01
2.840000e-06	4.138689e-06	9.997638e-10	2.874175e+01	6.940628e+01
2.850000e-06	4.169714e-06	1.003989e-09	2.895721e+01	6.962441e+01
2.860000e-06	4.200465e-06	1.008888e-09	2.917076e+01	6.983669e+01
2.870000e-06	4.230794e-06	1.014096e-09	2.938139e+01	7.004361e+01
2.880000e-06	4.260762e-06	1.016493e-09	2.958951e+01	7.024557e+01
2.890000e-06	4.290522e-06	1.015388e-09	2.979618e+01	7.044295e+01
2.900000e-06	4.320059e-06	1.016752e-09	3.000130e+01	7.063606e+01
