# Temperatura_=_-10.39
# Concentracion g/m^3_=_1620.0
# C_Vs_to_Am_M_A/Vsm_=_65563218390.804596
# pendiente_HvsI_1/m_=_3716.3
# ordenada_HvsI_A/m_=_1297.0
# frecuencia_Hz_=_135105.20027791063

Tiempo_(s)	Campo_(V.s)	Magnetizacion_(V.s)	Campo_(kA/m)	Magnetizacion_(A/m)
0.000000e+00	-5.522676e-06	-1.363351e-09	-3.837186e+01	-8.702690e+01
1.000000e-08	-5.522920e-06	-1.362621e-09	-3.837356e+01	-8.695224e+01
2.000000e-08	-5.522851e-06	-1.363529e-09	-3.837308e+01	-8.687914e+01
3.000000e-08	-5.522397e-06	-1.361943e-09	-3.836993e+01	-8.680758e+01
4.000000e-08	-5.521531e-06	-1.356605e-09	-3.836391e+01	-8.673747e+01
5.000000e-08	-5.520136e-06	-1.348259e-09	-3.835421e+01	-8.666861e+01
6.000000e-08	-5.518076e-06	-1.334412e-09	-3.833991e+01	-8.660074e+01
7.000000e-08	-5.515475e-06	-1.338776e-09	-3.832183e+01	-8.653353e+01
8.000000e-08	-5.512419e-06	-1.383836e-09	-3.830060e+01	-8.646657e+01
9.000000e-08	-5.508837e-06	-1.389742e-09	-3.827571e+01	-8.639942e+01
1.000000e-07	-5.504851e-06	-1.330861e-09	-3.824801e+01	-8.633158e+01
1.100000e-07	-5.500635e-06	-1.322690e-09	-3.821872e+01	-8.626253e+01
1.200000e-07	-5.496107e-06	-1.331663e-09	-3.818726e+01	-8.619176e+01
1.300000e-07	-5.491193e-06	-1.317428e-09	-3.815312e+01	-8.611871e+01
1.400000e-07	-5.486017e-06	-1.308460e-09	-3.811716e+01	-8.604289e+01
1.500000e-07	-5.480574e-06	-1.327798e-09	-3.807934e+01	-8.596380e+01
1.600000e-07	-5.474683e-06	-1.381798e-09	-3.803841e+01	-8.588100e+01
1.700000e-07	-5.468299e-06	-1.333338e-09	-3.799405e+01	-8.579410e+01
1.800000e-07	-5.461563e-06	-1.307922e-09	-3.794725e+01	-8.570276e+01
1.900000e-07	-5.454439e-06	-1.302489e-09	-3.789775e+01	-8.560673e+01
2.000000e-07	-5.446959e-06	-1.337028e-09	-3.784578e+01	-8.550584e+01
2.100000e-07	-5.439223e-06	-1.325702e-09	-3.779203e+01	-8.540000e+01
2.200000e-07	-5.431230e-06	-1.336138e-09	-3.773649e+01	-8.528920e+01
2.300000e-07	-5.422962e-06	-1.336412e-09	-3.767905e+01	-8.517353e+01
2.400000e-07	-5.414245e-06	-1.334211e-09	-3.761848e+01	-8.505316e+01
2.500000e-07	-5.404883e-06	-1.302745e-09	-3.755343e+01	-8.492838e+01
2.600000e-07	-5.394922e-06	-1.282590e-09	-3.748423e+01	-8.479950e+01
2.700000e-07	-5.384330e-06	-1.297026e-09	-3.741063e+01	-8.466697e+01
2.800000e-07	-5.373188e-06	-1.315236e-09	-3.733321e+01	-8.453126e+01
2.900000e-07	-5.361681e-06	-1.318873e-09	-3.725326e+01	-8.439291e+01
3.000000e-07	-5.349824e-06	-1.287581e-09	-3.717088e+01	-8.425251e+01
3.100000e-07	-5.337562e-06	-1.282497e-09	-3.708568e+01	-8.411067e+01
3.200000e-07	-5.324789e-06	-1.277147e-09	-3.699694e+01	-8.396804e+01
3.300000e-07	-5.311606e-06	-1.285644e-09	-3.690534e+01	-8.382525e+01
3.400000e-07	-5.298105e-06	-1.250853e-09	-3.681153e+01	-8.368293e+01
3.500000e-07	-5.284233e-06	-1.266230e-09	-3.671515e+01	-8.354170e+01
3.600000e-07	-5.269982e-06	-1.288747e-09	-3.661613e+01	-8.340214e+01
3.700000e-07	-5.255211e-06	-1.284699e-09	-3.651350e+01	-8.326477e+01
3.800000e-07	-5.239825e-06	-1.246411e-09	-3.640660e+01	-8.313008e+01
3.900000e-07	-5.223925e-06	-1.287579e-09	-3.629612e+01	-8.299846e+01
4.000000e-07	-5.207603e-06	-1.284013e-09	-3.618272e+01	-8.287025e+01
4.100000e-07	-5.190969e-06	-1.232469e-09	-3.606714e+01	-8.274570e+01
4.200000e-07	-5.173979e-06	-1.247940e-09	-3.594910e+01	-8.262499e+01
4.300000e-07	-5.156631e-06	-1.319180e-09	-3.582856e+01	-8.250818e+01
4.400000e-07	-5.138998e-06	-1.263861e-09	-3.570605e+01	-8.239526e+01
4.500000e-07	-5.121009e-06	-1.229426e-09	-3.558106e+01	-8.228615e+01
4.600000e-07	-5.102546e-06	-1.300867e-09	-3.545277e+01	-8.218066e+01
4.700000e-07	-5.083616e-06	-1.289400e-09	-3.532125e+01	-8.207852e+01
4.800000e-07	-5.064382e-06	-1.205859e-09	-3.518761e+01	-8.197942e+01
4.900000e-07	-5.044910e-06	-1.266431e-09	-3.505232e+01	-8.188295e+01
5.000000e-07	-5.025189e-06	-1.307125e-09	-3.491530e+01	-8.178867e+01
5.100000e-07	-5.005253e-06	-1.210052e-09	-3.477678e+01	-8.169609e+01
5.200000e-07	-4.985046e-06	-1.220136e-09	-3.463638e+01	-8.160467e+01
5.300000e-07	-4.964507e-06	-1.314981e-09	-3.449367e+01	-8.151387e+01
5.400000e-07	-4.943520e-06	-1.251838e-09	-3.434785e+01	-8.142313e+01
5.500000e-07	-4.922193e-06	-1.195684e-09	-3.419967e+01	-8.133191e+01
5.600000e-07	-4.900679e-06	-1.282440e-09	-3.405019e+01	-8.123966e+01
5.700000e-07	-4.878804e-06	-1.267811e-09	-3.389821e+01	-8.114585e+01
5.800000e-07	-4.856556e-06	-1.193051e-09	-3.374362e+01	-8.105002e+01
5.900000e-07	-4.833943e-06	-1.252870e-09	-3.358651e+01	-8.095172e+01
6.000000e-07	-4.810975e-06	-1.286712e-09	-3.342693e+01	-8.085056e+01
6.100000e-07	-4.787724e-06	-1.198486e-09	-3.326538e+01	-8.074620e+01
6.200000e-07	-4.764176e-06	-1.213621e-09	-3.310176e+01	-8.063836e+01
6.300000e-07	-4.740393e-06	-1.263938e-09	-3.293652e+01	-8.052684e+01
6.400000e-07	-4.716325e-06	-1.211442e-09	-3.276929e+01	-8.041148e+01
6.500000e-07	-4.691926e-06	-1.193698e-09	-3.259977e+01	-8.029220e+01
6.600000e-07	-4.667141e-06	-1.253004e-09	-3.242756e+01	-8.016896e+01
6.700000e-07	-4.641853e-06	-1.221807e-09	-3.225186e+01	-8.004181e+01
6.800000e-07	-4.616049e-06	-1.187665e-09	-3.207257e+01	-7.991081e+01
6.900000e-07	-4.589727e-06	-1.223953e-09	-3.188968e+01	-7.977611e+01
7.000000e-07	-4.562886e-06	-1.223511e-09	-3.170319e+01	-7.963786e+01
7.100000e-07	-4.535663e-06	-1.181701e-09	-3.151404e+01	-7.949626e+01
7.200000e-07	-4.508182e-06	-1.209099e-09	-3.132310e+01	-7.935153e+01
7.300000e-07	-4.480468e-06	-1.225475e-09	-3.113054e+01	-7.920391e+01
7.400000e-07	-4.452581e-06	-1.196204e-09	-3.093678e+01	-7.905363e+01
7.500000e-07	-4.424490e-06	-1.194864e-09	-3.074161e+01	-7.890092e+01
7.600000e-07	-4.396142e-06	-1.211592e-09	-3.054464e+01	-7.874602e+01
7.700000e-07	-4.367478e-06	-1.189430e-09	-3.034548e+01	-7.858911e+01
7.800000e-07	-4.338528e-06	-1.185142e-09	-3.014434e+01	-7.843039e+01
7.900000e-07	-4.309281e-06	-1.202637e-09	-2.994113e+01	-7.826998e+01
8.000000e-07	-4.279730e-06	-1.189420e-09	-2.973581e+01	-7.810802e+01
8.100000e-07	-4.249931e-06	-1.173502e-09	-2.952876e+01	-7.794456e+01
8.200000e-07	-4.219810e-06	-1.186364e-09	-2.931948e+01	-7.777963e+01
8.300000e-07	-4.189338e-06	-1.184152e-09	-2.910775e+01	-7.761324e+01
8.400000e-07	-4.158547e-06	-1.169223e-09	-2.889382e+01	-7.744533e+01
8.500000e-07	-4.127463e-06	-1.182512e-09	-2.867785e+01	-7.727582e+01
8.600000e-07	-4.096168e-06	-1.190855e-09	-2.846041e+01	-7.710459e+01
8.700000e-07	-4.064683e-06	-1.175733e-09	-2.824165e+01	-7.693149e+01
8.800000e-07	-4.032999e-06	-1.170745e-09	-2.802151e+01	-7.675636e+01
8.900000e-07	-4.001143e-06	-1.176842e-09	-2.780017e+01	-7.657902e+01
9.000000e-07	-3.969101e-06	-1.161319e-09	-2.757754e+01	-7.639926e+01
9.100000e-07	-3.936828e-06	-1.153538e-09	-2.735330e+01	-7.621690e+01
9.200000e-07	-3.904234e-06	-1.160175e-09	-2.712684e+01	-7.603176e+01
9.300000e-07	-3.871160e-06	-1.155612e-09	-2.689704e+01	-7.584365e+01
9.400000e-07	-3.837639e-06	-1.140750e-09	-2.666413e+01	-7.565242e+01
9.500000e-07	-3.803742e-06	-1.144874e-09	-2.642861e+01	-7.545797e+01
9.600000e-07	-3.769373e-06	-1.140456e-09	-2.618981e+01	-7.526018e+01
9.700000e-07	-3.734572e-06	-1.124422e-09	-2.594802e+01	-7.505902e+01
9.800000e-07	-3.699438e-06	-1.122982e-09	-2.570390e+01	-7.485448e+01
9.900000e-07	-3.664019e-06	-1.132193e-09	-2.545781e+01	-7.464658e+01
1.000000e-06	-3.628367e-06	-1.124630e-09	-2.521010e+01	-7.443542e+01
1.010000e-06	-3.592599e-06	-1.117404e-09	-2.496158e+01	-7.422111e+01
1.020000e-06	-3.556744e-06	-1.116880e-09	-2.471246e+01	-7.400382e+01
1.030000e-06	-3.520709e-06	-1.110015e-09	-2.446208e+01	-7.378377e+01
1.040000e-06	-3.484445e-06	-1.098742e-09	-2.421012e+01	-7.356118e+01
1.050000e-06	-3.447938e-06	-1.100725e-09	-2.395647e+01	-7.333634e+01
1.060000e-06	-3.411184e-06	-1.098532e-09	-2.370110e+01	-7.310952e+01
1.070000e-06	-3.374174e-06	-1.086939e-09	-2.344395e+01	-7.288102e+01
1.080000e-06	-3.336916e-06	-1.081849e-09	-2.318508e+01	-7.265116e+01
1.090000e-06	-3.299405e-06	-1.081035e-09	-2.292445e+01	-7.242021e+01
1.100000e-06	-3.261665e-06	-1.072052e-09	-2.266223e+01	-7.218846e+01
1.110000e-06	-3.223761e-06	-1.065858e-09	-2.239888e+01	-7.195614e+01
1.120000e-06	-3.185677e-06	-1.062932e-09	-2.213426e+01	-7.172347e+01
1.130000e-06	-3.147381e-06	-1.053698e-09	-2.186818e+01	-7.149060e+01
1.140000e-06	-3.108789e-06	-1.045989e-09	-2.160004e+01	-7.125762e+01
1.150000e-06	-3.069957e-06	-1.045317e-09	-2.133023e+01	-7.102456e+01
1.160000e-06	-3.030898e-06	-1.043972e-09	-2.105885e+01	-7.079138e+01
1.170000e-06	-2.991600e-06	-1.036727e-09	-2.078580e+01	-7.055796e+01
1.180000e-06	-2.952171e-06	-1.035504e-09	-2.051185e+01	-7.032408e+01
1.190000e-06	-2.912589e-06	-1.034336e-09	-2.023683e+01	-7.008946e+01
1.200000e-06	-2.872867e-06	-1.027595e-09	-1.996084e+01	-6.985371e+01
1.210000e-06	-2.833032e-06	-1.017595e-09	-1.968407e+01	-6.961637e+01
1.220000e-06	-2.793042e-06	-1.010951e-09	-1.940621e+01	-6.937688e+01
1.230000e-06	-2.752944e-06	-1.002929e-09	-1.912761e+01	-6.913464e+01
1.240000e-06	-2.712725e-06	-9.963565e-10	-1.884816e+01	-6.888894e+01
1.250000e-06	-2.672208e-06	-9.915243e-10	-1.856665e+01	-6.863904e+01
1.260000e-06	-2.631390e-06	-9.882942e-10	-1.828305e+01	-6.838414e+01
1.270000e-06	-2.590346e-06	-9.826166e-10	-1.799787e+01	-6.812339e+01
1.280000e-06	-2.549127e-06	-9.762977e-10	-1.771148e+01	-6.785594e+01
1.290000e-06	-2.507727e-06	-9.696577e-10	-1.742383e+01	-6.758091e+01
1.300000e-06	-2.466032e-06	-9.629521e-10	-1.713413e+01	-6.729743e+01
1.310000e-06	-2.423994e-06	-9.566217e-10	-1.684204e+01	-6.700465e+01
1.320000e-06	-2.381578e-06	-9.527531e-10	-1.654734e+01	-6.670176e+01
1.330000e-06	-2.338843e-06	-9.478938e-10	-1.625041e+01	-6.638797e+01
1.340000e-06	-2.295832e-06	-9.414887e-10	-1.595157e+01	-6.606258e+01
1.350000e-06	-2.252580e-06	-9.380413e-10	-1.565105e+01	-6.572495e+01
1.360000e-06	-2.209249e-06	-9.374806e-10	-1.534999e+01	-6.537451e+01
1.370000e-06	-2.165809e-06	-9.346597e-10	-1.504816e+01	-6.501082e+01
1.380000e-06	-2.122147e-06	-9.272590e-10	-1.474479e+01	-6.463351e+01
1.390000e-06	-2.078363e-06	-9.161251e-10	-1.444059e+01	-6.424231e+01
1.400000e-06	-2.034513e-06	-9.035651e-10	-1.413591e+01	-6.383708e+01
1.410000e-06	-1.990582e-06	-8.925971e-10	-1.383068e+01	-6.341778e+01
1.420000e-06	-1.946592e-06	-8.843807e-10	-1.352503e+01	-6.298447e+01
1.430000e-06	-1.902597e-06	-8.785511e-10	-1.321935e+01	-6.253734e+01
1.440000e-06	-1.858567e-06	-8.739180e-10	-1.291343e+01	-6.207665e+01
1.450000e-06	-1.814366e-06	-8.699484e-10	-1.260632e+01	-6.160277e+01
1.460000e-06	-1.769985e-06	-8.656150e-10	-1.229795e+01	-6.111611e+01
1.470000e-06	-1.725437e-06	-8.601070e-10	-1.198843e+01	-6.061720e+01
1.480000e-06	-1.680772e-06	-8.518872e-10	-1.167810e+01	-6.010658e+01
1.490000e-06	-1.636062e-06	-8.438555e-10	-1.136745e+01	-5.958483e+01
1.500000e-06	-1.591257e-06	-8.340255e-10	-1.105614e+01	-5.905255e+01
1.510000e-06	-1.546238e-06	-8.226536e-10	-1.074335e+01	-5.851035e+01
1.520000e-06	-1.501032e-06	-8.126257e-10	-1.042925e+01	-5.795879e+01
1.530000e-06	-1.455780e-06	-8.040164e-10	-1.011484e+01	-5.739842e+01
1.540000e-06	-1.410455e-06	-7.953312e-10	-9.799920e+00	-5.682970e+01
1.550000e-06	-1.365016e-06	-7.868854e-10	-9.484211e+00	-5.625303e+01
1.560000e-06	-1.319469e-06	-7.762365e-10	-9.167746e+00	-5.566872e+01
1.570000e-06	-1.273911e-06	-7.625582e-10	-8.851205e+00	-5.507695e+01
1.580000e-06	-1.228251e-06	-7.480477e-10	-8.533955e+00	-5.447777e+01
1.590000e-06	-1.182418e-06	-7.352675e-10	-8.215506e+00	-5.387111e+01
1.600000e-06	-1.136497e-06	-7.236450e-10	-7.896446e+00	-5.325674e+01
1.610000e-06	-1.090540e-06	-7.128591e-10	-7.577130e+00	-5.263425e+01
1.620000e-06	-1.044579e-06	-7.030966e-10	-7.257795e+00	-5.200309e+01
1.630000e-06	-9.985090e-07	-6.942853e-10	-6.937697e+00	-5.136253e+01
1.640000e-06	-9.522758e-07	-6.837368e-10	-6.616466e+00	-5.071168e+01
1.650000e-06	-9.059101e-07	-6.729061e-10	-6.294314e+00	-5.004946e+01
1.660000e-06	-8.594758e-07	-6.648616e-10	-5.971686e+00	-4.937466e+01
1.670000e-06	-8.130646e-07	-6.572154e-10	-5.649219e+00	-4.868589e+01
1.680000e-06	-7.667493e-07	-6.460610e-10	-5.327418e+00	-4.798163e+01
1.690000e-06	-7.204605e-07	-6.332949e-10	-5.005800e+00	-4.726023e+01
1.700000e-06	-6.740107e-07	-6.188108e-10	-4.683064e+00	-4.651993e+01
1.710000e-06	-6.274259e-07	-6.033384e-10	-4.359391e+00	-4.575886e+01
1.720000e-06	-5.809370e-07	-5.895919e-10	-4.036383e+00	-4.497508e+01
1.730000e-06	-5.343327e-07	-5.771068e-10	-3.712573e+00	-4.416661e+01
1.740000e-06	-4.875397e-07	-5.662190e-10	-3.387453e+00	-4.333143e+01
1.750000e-06	-4.408214e-07	-5.554487e-10	-3.062852e+00	-4.246750e+01
1.760000e-06	-3.941590e-07	-5.410616e-10	-2.738639e+00	-4.157281e+01
1.770000e-06	-3.474905e-07	-5.236160e-10	-2.414383e+00	-4.064538e+01
1.780000e-06	-3.007372e-07	-5.065508e-10	-2.089539e+00	-3.968332e+01
1.790000e-06	-2.538752e-07	-4.925314e-10	-1.763939e+00	-3.868479e+01
1.800000e-06	-2.070170e-07	-4.810545e-10	-1.438366e+00	-3.764810e+01
1.810000e-06	-1.602198e-07	-4.681296e-10	-1.113216e+00	-3.657166e+01
1.820000e-06	-1.134841e-07	-4.529386e-10	-7.884937e-01	-3.545407e+01
1.830000e-06	-6.670810e-08	-4.359611e-10	-4.634916e-01	-3.429409e+01
1.840000e-06	-1.994106e-08	-4.187285e-10	-1.385516e-01	-3.309066e+01
1.850000e-06	2.684290e-08	-4.005402e-10	1.865060e-01	-3.184294e+01
1.860000e-06	7.373878e-08	-3.831026e-10	5.123412e-01	-3.055032e+01
1.870000e-06	1.205878e-07	-3.658829e-10	8.378510e-01	-2.921241e+01
1.880000e-06	1.674479e-07	-3.478650e-10	1.163437e+00	-2.782907e+01
1.890000e-06	2.143614e-07	-3.276005e-10	1.489395e+00	-2.640039e+01
1.900000e-06	2.612173e-07	-3.046703e-10	1.814953e+00	-2.492674e+01
1.910000e-06	3.081061e-07	-2.811260e-10	2.140738e+00	-2.340872e+01
1.920000e-06	3.550401e-07	-2.594122e-10	2.466839e+00	-2.184719e+01
1.930000e-06	4.019019e-07	-2.392602e-10	2.792437e+00	-2.024325e+01
1.940000e-06	4.486234e-07	-2.190336e-10	3.117060e+00	-1.859824e+01
1.950000e-06	4.952777e-07	-1.975194e-10	3.441218e+00	-1.691375e+01
1.960000e-06	5.419850e-07	-1.734265e-10	3.765743e+00	-1.519157e+01
1.970000e-06	5.886287e-07	-1.469864e-10	4.089826e+00	-1.343371e+01
1.980000e-06	6.351377e-07	-1.211235e-10	4.412973e+00	-1.164239e+01
1.990000e-06	6.816494e-07	-9.535597e-11	4.736139e+00	-9.819981e+00
2.000000e-06	7.280845e-07	-6.791865e-11	5.058772e+00	-7.969044e+00
2.010000e-06	7.743689e-07	-4.088274e-11	5.380359e+00	-6.092275e+00
2.020000e-06	8.206339e-07	-1.536901e-11	5.701811e+00	-4.192496e+00
2.030000e-06	8.668670e-07	1.055364e-11	6.023041e+00	-2.272641e+00
2.040000e-06	9.130426e-07	3.746200e-11	6.343872e+00	-3.357269e-01
2.050000e-06	9.591208e-07	6.393582e-11	6.664026e+00	1.615161e+00
2.060000e-06	1.005178e-06	8.971482e-11	6.984037e+00	3.576891e+00
2.070000e-06	1.051248e-06	1.149453e-10	7.304129e+00	5.546307e+00
2.080000e-06	1.097216e-06	1.397944e-10	7.623520e+00	7.520249e+00
2.090000e-06	1.143110e-06	1.655235e-10	7.942390e+00	9.495570e+00
2.100000e-06	1.188891e-06	1.942675e-10	8.260480e+00	1.146916e+01
2.110000e-06	1.234518e-06	2.236660e-10	8.577499e+00	1.343796e+01
2.120000e-06	1.280121e-06	2.514745e-10	8.894356e+00	1.539899e+01
2.130000e-06	1.325752e-06	2.791608e-10	9.211402e+00	1.734935e+01
2.140000e-06	1.371255e-06	3.070425e-10	9.527560e+00	1.928624e+01
2.150000e-06	1.416574e-06	3.332469e-10	9.842434e+00	2.120699e+01
2.160000e-06	1.461788e-06	3.562083e-10	1.015659e+01	2.310905e+01
2.170000e-06	1.506920e-06	3.779858e-10	1.047017e+01	2.499003e+01
2.180000e-06	1.551970e-06	4.041008e-10	1.078318e+01	2.684768e+01
2.190000e-06	1.596909e-06	4.315630e-10	1.109542e+01	2.867992e+01
2.200000e-06	1.641702e-06	4.601310e-10	1.140664e+01	3.048484e+01
2.210000e-06	1.686346e-06	4.887053e-10	1.171683e+01	3.226069e+01
2.220000e-06	1.730821e-06	5.139911e-10	1.202584e+01	3.400592e+01
2.230000e-06	1.775219e-06	5.359214e-10	1.233433e+01	3.571917e+01
2.240000e-06	1.819539e-06	5.552581e-10	1.264226e+01	3.739923e+01
2.250000e-06	1.863711e-06	5.718605e-10	1.294917e+01	3.904509e+01
2.260000e-06	1.907801e-06	5.886467e-10	1.325551e+01	4.065593e+01
2.270000e-06	1.951822e-06	6.089831e-10	1.356137e+01	4.223109e+01
2.280000e-06	1.995726e-06	6.303141e-10	1.386642e+01	4.377008e+01
2.290000e-06	2.039511e-06	6.534246e-10	1.417064e+01	4.527259e+01
2.300000e-06	2.083236e-06	6.779460e-10	1.447444e+01	4.673844e+01
2.310000e-06	2.126906e-06	7.016119e-10	1.477786e+01	4.816761e+01
2.320000e-06	2.170494e-06	7.218835e-10	1.508072e+01	4.956022e+01
2.330000e-06	2.214007e-06	7.371723e-10	1.538304e+01	5.091651e+01
2.340000e-06	2.257402e-06	7.496052e-10	1.568455e+01	5.223682e+01
2.350000e-06	2.300677e-06	7.626331e-10	1.598524e+01	5.352160e+01
2.360000e-06	2.343674e-06	7.782703e-10	1.628398e+01	5.477138e+01
2.370000e-06	2.386289e-06	7.974155e-10	1.658007e+01	5.598679e+01
2.380000e-06	2.428637e-06	8.195884e-10	1.687431e+01	5.716847e+01
2.390000e-06	2.470624e-06	8.421845e-10	1.716604e+01	5.831715e+01
2.400000e-06	2.512281e-06	8.599478e-10	1.745547e+01	5.943356e+01
2.410000e-06	2.553634e-06	8.716672e-10	1.774279e+01	6.051849e+01
2.420000e-06	2.594702e-06	8.796096e-10	1.802813e+01	6.157271e+01
2.430000e-06	2.635592e-06	8.891518e-10	1.831225e+01	6.259698e+01
2.440000e-06	2.676261e-06	9.030405e-10	1.859481e+01	6.359208e+01
2.450000e-06	2.716693e-06	9.209670e-10	1.887574e+01	6.455875e+01
2.460000e-06	2.756858e-06	9.414185e-10	1.915481e+01	6.549770e+01
2.470000e-06	2.796828e-06	9.586508e-10	1.943252e+01	6.640960e+01
2.480000e-06	2.836743e-06	9.697395e-10	1.970985e+01	6.729511e+01
2.490000e-06	2.876592e-06	9.771896e-10	1.998673e+01	6.815481e+01
2.500000e-06	2.916311e-06	9.845787e-10	2.026270e+01	6.898925e+01
2.510000e-06	2.955854e-06	9.961687e-10	2.053744e+01	6.979893e+01
2.520000e-06	2.995205e-06	1.010469e-09	2.081085e+01	7.058432e+01
2.530000e-06	3.034313e-06	1.024912e-09	2.108258e+01	7.134582e+01
2.540000e-06	3.073167e-06	1.038802e-09	2.135254e+01	7.208380e+01
2.550000e-06	3.111892e-06	1.050311e-09	2.162160e+01	7.279860e+01
2.560000e-06	3.150382e-06	1.057719e-09	2.188903e+01	7.349052e+01
2.570000e-06	3.188594e-06	1.062015e-09	2.215453e+01	7.415984e+01
2.580000e-06	3.226621e-06	1.066869e-09	2.241875e+01	7.480681e+01
2.590000e-06	3.264411e-06	1.072007e-09	2.268131e+01	7.543168e+01
2.600000e-06	3.301982e-06	1.080163e-09	2.294235e+01	7.603470e+01
2.610000e-06	3.339358e-06	1.093193e-09	2.320205e+01	7.661610e+01
2.620000e-06	3.376507e-06	1.108236e-09	2.346016e+01	7.717614e+01
2.630000e-06	3.413389e-06	1.121103e-09	2.371642e+01	7.771509e+01
2.640000e-06	3.449952e-06	1.130616e-09	2.397046e+01	7.823326e+01
2.650000e-06	3.486296e-06	1.137206e-09	2.422298e+01	7.873096e+01
2.660000e-06	3.522511e-06	1.141146e-09	2.447461e+01	7.920856e+01
2.670000e-06	3.558550e-06	1.143887e-09	2.472501e+01	7.966646e+01
2.680000e-06	3.594428e-06	1.146670e-09	2.497429e+01	8.010509e+01
2.690000e-06	3.630114e-06	1.152614e-09	2.522224e+01	8.052495e+01
2.700000e-06	3.665654e-06	1.162171e-09	2.546917e+01	8.092657e+01
2.710000e-06	3.701066e-06	1.170007e-09	2.571521e+01	8.131050e+01
2.720000e-06	3.736279e-06	1.174781e-09	2.595987e+01	8.167736e+01
2.730000e-06	3.771085e-06	1.177029e-09	2.620171e+01	8.202781e+01
2.740000e-06	3.805295e-06	1.177695e-09	2.643941e+01	8.236251e+01
2.750000e-06	3.839135e-06	1.178199e-09	2.667453e+01	8.268217e+01
2.760000e-06	3.872629e-06	1.180457e-09	2.690724e+01	8.298751e+01
2.770000e-06	3.905681e-06	1.185499e-09	2.713689e+01	8.327928e+01
2.780000e-06	3.938399e-06	1.192498e-09	2.736422e+01	8.355820e+01
2.790000e-06	3.970791e-06	1.199707e-09	2.758928e+01	8.382502e+01
2.800000e-06	4.002894e-06	1.205477e-09	2.781233e+01	8.408045e+01
2.810000e-06	4.034806e-06	1.207959e-09	2.803406e+01	8.432519e+01
2.820000e-06	4.066574e-06	1.207396e-09	2.825479e+01	8.455991e+01
2.830000e-06	4.098109e-06	1.206619e-09	2.847389e+01	8.478522e+01
2.840000e-06	4.129382e-06	1.207729e-09	2.869118e+01	8.500172e+01
2.850000e-06	4.160397e-06	1.211891e-09	2.890667e+01	8.520991e+01
2.860000e-06	4.191113e-06	1.218790e-09	2.912009e+01	8.541027e+01
2.870000e-06	4.221497e-06	1.227956e-09	2.933120e+01	8.560319e+01
2.880000e-06	4.251572e-06	1.234578e-09	2.954016e+01	8.578902e+01
2.890000e-06	4.281385e-06	1.235549e-09	2.974731e+01	8.596800e+01
2.900000e-06	4.310901e-06	1.234411e-09	2.995238e+01	8.614034e+01
