# Temperatura_=_6.27
# Concentracion g/m^3_=_1620.0
# C_Vs_to_Am_M_A/Vsm_=_65563218390.804596
# pendiente_HvsI_1/m_=_3716.3
# ordenada_HvsI_A/m_=_1297.0
# frecuencia_Hz_=_135109.74990493807

Tiempo_(s)	Campo_(V.s)	Magnetizacion_(V.s)	Campo_(kA/m)	Magnetizacion_(A/m)
0.000000e+00	-5.515237e-06	-1.568687e-09	-3.837051e+01	-1.017520e+02
1.000000e-08	-5.515410e-06	-1.564011e-09	-3.837172e+01	-1.016905e+02
2.000000e-08	-5.515349e-06	-1.564652e-09	-3.837129e+01	-1.016321e+02
3.000000e-08	-5.514929e-06	-1.569529e-09	-3.836837e+01	-1.015772e+02
4.000000e-08	-5.514030e-06	-1.575255e-09	-3.836212e+01	-1.015259e+02
5.000000e-08	-5.512618e-06	-1.573803e-09	-3.835229e+01	-1.014784e+02
6.000000e-08	-5.510637e-06	-1.560869e-09	-3.833851e+01	-1.014346e+02
7.000000e-08	-5.508025e-06	-1.553195e-09	-3.832034e+01	-1.013945e+02
8.000000e-08	-5.504884e-06	-1.561176e-09	-3.829848e+01	-1.013580e+02
9.000000e-08	-5.501274e-06	-1.601168e-09	-3.827337e+01	-1.013248e+02
1.000000e-07	-5.497197e-06	-1.660096e-09	-3.824500e+01	-1.012947e+02
1.100000e-07	-5.492791e-06	-1.634621e-09	-3.821435e+01	-1.012674e+02
1.200000e-07	-5.488172e-06	-1.509405e-09	-3.818222e+01	-1.012425e+02
1.300000e-07	-5.483369e-06	-1.497679e-09	-3.814880e+01	-1.012194e+02
1.400000e-07	-5.478234e-06	-1.564649e-09	-3.811307e+01	-1.011978e+02
1.500000e-07	-5.472609e-06	-1.622648e-09	-3.807394e+01	-1.011770e+02
1.600000e-07	-5.466562e-06	-1.538716e-09	-3.803187e+01	-1.011565e+02
1.700000e-07	-5.460252e-06	-1.529154e-09	-3.798797e+01	-1.011356e+02
1.800000e-07	-5.453545e-06	-1.598936e-09	-3.794131e+01	-1.011137e+02
1.900000e-07	-5.446356e-06	-1.628179e-09	-3.789129e+01	-1.010903e+02
2.000000e-07	-5.438852e-06	-1.538845e-09	-3.783908e+01	-1.010646e+02
2.100000e-07	-5.431115e-06	-1.501007e-09	-3.778526e+01	-1.010361e+02
2.200000e-07	-5.423218e-06	-1.571289e-09	-3.773032e+01	-1.010041e+02
2.300000e-07	-5.415039e-06	-1.622715e-09	-3.767342e+01	-1.009681e+02
2.400000e-07	-5.406373e-06	-1.589515e-09	-3.761313e+01	-1.009275e+02
2.500000e-07	-5.397036e-06	-1.542843e-09	-3.754817e+01	-1.008817e+02
2.600000e-07	-5.386931e-06	-1.562260e-09	-3.747786e+01	-1.008305e+02
2.700000e-07	-5.376291e-06	-1.559210e-09	-3.740384e+01	-1.007733e+02
2.800000e-07	-5.365222e-06	-1.545442e-09	-3.732683e+01	-1.007097e+02
2.900000e-07	-5.353644e-06	-1.525650e-09	-3.724628e+01	-1.006396e+02
3.000000e-07	-5.341673e-06	-1.554289e-09	-3.716299e+01	-1.005626e+02
3.100000e-07	-5.329368e-06	-1.541877e-09	-3.707739e+01	-1.004785e+02
3.200000e-07	-5.316641e-06	-1.531661e-09	-3.698884e+01	-1.003874e+02
3.300000e-07	-5.303434e-06	-1.497971e-09	-3.689696e+01	-1.002890e+02
3.400000e-07	-5.289892e-06	-1.521501e-09	-3.680275e+01	-1.001834e+02
3.500000e-07	-5.276077e-06	-1.525100e-09	-3.670663e+01	-1.000707e+02
3.600000e-07	-5.261783e-06	-1.518142e-09	-3.660719e+01	-9.995090e+01
3.700000e-07	-5.246907e-06	-1.500460e-09	-3.650369e+01	-9.982424e+01
3.800000e-07	-5.231633e-06	-1.540927e-09	-3.639743e+01	-9.969091e+01
3.900000e-07	-5.215760e-06	-1.524334e-09	-3.628699e+01	-9.955112e+01
4.000000e-07	-5.199250e-06	-1.478690e-09	-3.617214e+01	-9.940514e+01
4.100000e-07	-5.182489e-06	-1.492703e-09	-3.605552e+01	-9.925327e+01
4.200000e-07	-5.165495e-06	-1.536168e-09	-3.593729e+01	-9.909581e+01
4.300000e-07	-5.148144e-06	-1.486417e-09	-3.581658e+01	-9.893308e+01
4.400000e-07	-5.130420e-06	-1.467435e-09	-3.569327e+01	-9.876542e+01
4.500000e-07	-5.112326e-06	-1.541763e-09	-3.556738e+01	-9.859315e+01
4.600000e-07	-5.093793e-06	-1.528398e-09	-3.543845e+01	-9.841661e+01
4.700000e-07	-5.074800e-06	-1.449204e-09	-3.530631e+01	-9.823610e+01
4.800000e-07	-5.055497e-06	-1.486696e-09	-3.517202e+01	-9.805194e+01
4.900000e-07	-5.035974e-06	-1.537321e-09	-3.503619e+01	-9.786442e+01
5.000000e-07	-5.016164e-06	-1.461046e-09	-3.489837e+01	-9.767380e+01
5.100000e-07	-4.996117e-06	-1.446031e-09	-3.475890e+01	-9.748033e+01
5.200000e-07	-4.975843e-06	-1.501768e-09	-3.461785e+01	-9.728424e+01
5.300000e-07	-4.955247e-06	-1.474886e-09	-3.447456e+01	-9.708572e+01
5.400000e-07	-4.934264e-06	-1.439405e-09	-3.432858e+01	-9.688495e+01
5.500000e-07	-4.912901e-06	-1.504901e-09	-3.417995e+01	-9.668206e+01
5.600000e-07	-4.891247e-06	-1.490148e-09	-3.402930e+01	-9.647719e+01
5.700000e-07	-4.869291e-06	-1.425214e-09	-3.387655e+01	-9.627042e+01
5.800000e-07	-4.847036e-06	-1.454509e-09	-3.372172e+01	-9.606184e+01
5.900000e-07	-4.824446e-06	-1.490410e-09	-3.356455e+01	-9.585149e+01
6.000000e-07	-4.801414e-06	-1.430669e-09	-3.340431e+01	-9.563942e+01
6.100000e-07	-4.778008e-06	-1.429572e-09	-3.324147e+01	-9.542563e+01
6.200000e-07	-4.754341e-06	-1.462429e-09	-3.307682e+01	-9.521015e+01
6.300000e-07	-4.730500e-06	-1.433715e-09	-3.291095e+01	-9.499296e+01
6.400000e-07	-4.706480e-06	-1.408264e-09	-3.274384e+01	-9.477406e+01
6.500000e-07	-4.682209e-06	-1.444129e-09	-3.257498e+01	-9.455342e+01
6.600000e-07	-4.657468e-06	-1.438592e-09	-3.240286e+01	-9.433103e+01
6.700000e-07	-4.632218e-06	-1.418920e-09	-3.222719e+01	-9.410685e+01
6.800000e-07	-4.606408e-06	-1.432239e-09	-3.204762e+01	-9.388086e+01
6.900000e-07	-4.579817e-06	-1.436182e-09	-3.186262e+01	-9.365305e+01
7.000000e-07	-4.552664e-06	-1.407068e-09	-3.167372e+01	-9.342338e+01
7.100000e-07	-4.525226e-06	-1.401110e-09	-3.148282e+01	-9.319185e+01
7.200000e-07	-4.497580e-06	-1.403920e-09	-3.129048e+01	-9.295842e+01
7.300000e-07	-4.469809e-06	-1.398975e-09	-3.109727e+01	-9.272309e+01
7.400000e-07	-4.441938e-06	-1.402525e-09	-3.090337e+01	-9.248585e+01
7.500000e-07	-4.413914e-06	-1.407832e-09	-3.070841e+01	-9.224667e+01
7.600000e-07	-4.385652e-06	-1.400750e-09	-3.051178e+01	-9.200556e+01
7.700000e-07	-4.357137e-06	-1.391794e-09	-3.031340e+01	-9.176249e+01
7.800000e-07	-4.328242e-06	-1.386211e-09	-3.011237e+01	-9.151745e+01
7.900000e-07	-4.298897e-06	-1.376234e-09	-2.990821e+01	-9.127042e+01
8.000000e-07	-4.269215e-06	-1.374996e-09	-2.970171e+01	-9.102138e+01
8.100000e-07	-4.239257e-06	-1.374367e-09	-2.949329e+01	-9.077028e+01
8.200000e-07	-4.209002e-06	-1.368665e-09	-2.928280e+01	-9.051710e+01
8.300000e-07	-4.178483e-06	-1.362416e-09	-2.907047e+01	-9.026177e+01
8.400000e-07	-4.147724e-06	-1.365437e-09	-2.885647e+01	-9.000425e+01
8.500000e-07	-4.116652e-06	-1.359838e-09	-2.864030e+01	-8.974446e+01
8.600000e-07	-4.085296e-06	-1.354682e-09	-2.842215e+01	-8.948232e+01
8.700000e-07	-4.053720e-06	-1.351329e-09	-2.820247e+01	-8.921775e+01
8.800000e-07	-4.021986e-06	-1.350269e-09	-2.798169e+01	-8.895063e+01
8.900000e-07	-3.990091e-06	-1.338863e-09	-2.775980e+01	-8.868087e+01
9.000000e-07	-3.957955e-06	-1.334123e-09	-2.753622e+01	-8.840835e+01
9.100000e-07	-3.925548e-06	-1.326638e-09	-2.731076e+01	-8.813294e+01
9.200000e-07	-3.892888e-06	-1.316795e-09	-2.708353e+01	-8.785452e+01
9.300000e-07	-3.859854e-06	-1.308983e-09	-2.685371e+01	-8.757295e+01
9.400000e-07	-3.826392e-06	-1.312479e-09	-2.662091e+01	-8.728812e+01
9.500000e-07	-3.792539e-06	-1.307931e-09	-2.638539e+01	-8.699988e+01
9.600000e-07	-3.758233e-06	-1.299106e-09	-2.614671e+01	-8.670812e+01
9.700000e-07	-3.723413e-06	-1.293461e-09	-2.590446e+01	-8.641273e+01
9.800000e-07	-3.688165e-06	-1.290027e-09	-2.565924e+01	-8.611358e+01
9.900000e-07	-3.652623e-06	-1.278443e-09	-2.541197e+01	-8.581059e+01
1.000000e-06	-3.616909e-06	-1.270062e-09	-2.516349e+01	-8.550366e+01
1.010000e-06	-3.581122e-06	-1.263723e-09	-2.491452e+01	-8.519273e+01
1.020000e-06	-3.545231e-06	-1.256940e-09	-2.466482e+01	-8.487774e+01
1.030000e-06	-3.509197e-06	-1.252622e-09	-2.441412e+01	-8.455864e+01
1.040000e-06	-3.472973e-06	-1.252092e-09	-2.416211e+01	-8.423540e+01
1.050000e-06	-3.436487e-06	-1.250597e-09	-2.390827e+01	-8.390801e+01
1.060000e-06	-3.399756e-06	-1.241833e-09	-2.365272e+01	-8.357647e+01
1.070000e-06	-3.362780e-06	-1.232021e-09	-2.339547e+01	-8.324077e+01
1.080000e-06	-3.325490e-06	-1.223200e-09	-2.313604e+01	-8.290094e+01
1.090000e-06	-3.287949e-06	-1.213289e-09	-2.287486e+01	-8.255700e+01
1.100000e-06	-3.250199e-06	-1.203311e-09	-2.261223e+01	-8.220898e+01
1.110000e-06	-3.212248e-06	-1.197914e-09	-2.234820e+01	-8.185689e+01
1.120000e-06	-3.174098e-06	-1.189502e-09	-2.208278e+01	-8.150077e+01
1.130000e-06	-3.135766e-06	-1.183712e-09	-2.181610e+01	-8.114061e+01
1.140000e-06	-3.097213e-06	-1.179684e-09	-2.154788e+01	-8.077642e+01
1.150000e-06	-3.058424e-06	-1.180206e-09	-2.127801e+01	-8.040819e+01
1.160000e-06	-3.019481e-06	-1.175829e-09	-2.100708e+01	-8.003588e+01
1.170000e-06	-2.980288e-06	-1.169302e-09	-2.073441e+01	-7.965942e+01
1.180000e-06	-2.940799e-06	-1.162389e-09	-2.045967e+01	-7.927872e+01
1.190000e-06	-2.901137e-06	-1.157367e-09	-2.018374e+01	-7.889367e+01
1.200000e-06	-2.861407e-06	-1.145893e-09	-1.990733e+01	-7.850412e+01
1.210000e-06	-2.821544e-06	-1.134001e-09	-1.962999e+01	-7.810987e+01
1.220000e-06	-2.781574e-06	-1.124600e-09	-1.935192e+01	-7.771071e+01
1.230000e-06	-2.741518e-06	-1.116799e-09	-1.907325e+01	-7.730638e+01
1.240000e-06	-2.701287e-06	-1.108147e-09	-1.879334e+01	-7.689659e+01
1.250000e-06	-2.660845e-06	-1.100935e-09	-1.851198e+01	-7.648101e+01
1.260000e-06	-2.620116e-06	-1.096445e-09	-1.822863e+01	-7.605928e+01
1.270000e-06	-2.579100e-06	-1.091786e-09	-1.794327e+01	-7.563102e+01
1.280000e-06	-2.537790e-06	-1.085750e-09	-1.765587e+01	-7.519583e+01
1.290000e-06	-2.496222e-06	-1.078601e-09	-1.736668e+01	-7.475327e+01
1.300000e-06	-2.454395e-06	-1.067574e-09	-1.707568e+01	-7.430290e+01
1.310000e-06	-2.412280e-06	-1.056323e-09	-1.678267e+01	-7.384426e+01
1.320000e-06	-2.369893e-06	-1.045383e-09	-1.648778e+01	-7.337691e+01
1.330000e-06	-2.327202e-06	-1.036485e-09	-1.619077e+01	-7.290039e+01
1.340000e-06	-2.284242e-06	-1.030071e-09	-1.589189e+01	-7.241427e+01
1.350000e-06	-2.241067e-06	-1.026999e-09	-1.559151e+01	-7.191812e+01
1.360000e-06	-2.197668e-06	-1.024588e-09	-1.528958e+01	-7.141155e+01
1.370000e-06	-2.154113e-06	-1.018349e-09	-1.498656e+01	-7.089418e+01
1.380000e-06	-2.110469e-06	-1.010405e-09	-1.468292e+01	-7.036568e+01
1.390000e-06	-2.066763e-06	-9.968183e-10	-1.437885e+01	-6.982575e+01
1.400000e-06	-2.022954e-06	-9.805002e-10	-1.407406e+01	-6.927415e+01
1.410000e-06	-1.979027e-06	-9.656665e-10	-1.376845e+01	-6.871066e+01
1.420000e-06	-1.935066e-06	-9.541644e-10	-1.346261e+01	-6.813512e+01
1.430000e-06	-1.891077e-06	-9.464993e-10	-1.315657e+01	-6.754742e+01
1.440000e-06	-1.847044e-06	-9.416047e-10	-1.285022e+01	-6.694750e+01
1.450000e-06	-1.802853e-06	-9.380419e-10	-1.254278e+01	-6.633532e+01
1.460000e-06	-1.758496e-06	-9.318290e-10	-1.223418e+01	-6.571091e+01
1.470000e-06	-1.714117e-06	-9.212415e-10	-1.192543e+01	-6.507431e+01
1.480000e-06	-1.669654e-06	-9.099394e-10	-1.161609e+01	-6.442559e+01
1.490000e-06	-1.624954e-06	-8.973997e-10	-1.130510e+01	-6.376486e+01
1.500000e-06	-1.580100e-06	-8.809348e-10	-1.099304e+01	-6.309222e+01
1.510000e-06	-1.535128e-06	-8.623077e-10	-1.068017e+01	-6.240778e+01
1.520000e-06	-1.489988e-06	-8.493099e-10	-1.036612e+01	-6.171163e+01
1.530000e-06	-1.444702e-06	-8.378177e-10	-1.005106e+01	-6.100384e+01
1.540000e-06	-1.399323e-06	-8.294503e-10	-9.735343e+00	-6.028445e+01
1.550000e-06	-1.353867e-06	-8.215783e-10	-9.419100e+00	-5.955345e+01
1.560000e-06	-1.308283e-06	-8.120679e-10	-9.101961e+00	-5.881077e+01
1.570000e-06	-1.262692e-06	-7.964578e-10	-8.784780e+00	-5.805626e+01
1.580000e-06	-1.217116e-06	-7.796485e-10	-8.467701e+00	-5.728970e+01
1.590000e-06	-1.171417e-06	-7.630991e-10	-8.149765e+00	-5.651077e+01
1.600000e-06	-1.125554e-06	-7.445063e-10	-7.830685e+00	-5.571904e+01
1.610000e-06	-1.079590e-06	-7.274166e-10	-7.510903e+00	-5.491398e+01
1.620000e-06	-1.033635e-06	-7.129495e-10	-7.191187e+00	-5.409493e+01
1.630000e-06	-9.876519e-07	-7.013648e-10	-6.871275e+00	-5.326112e+01
1.640000e-06	-9.416085e-07	-6.897041e-10	-6.550942e+00	-5.241164e+01
1.650000e-06	-8.954835e-07	-6.778759e-10	-6.230043e+00	-5.154546e+01
1.660000e-06	-8.492805e-07	-6.660678e-10	-5.908600e+00	-5.066144e+01
1.670000e-06	-8.030893e-07	-6.518631e-10	-5.587239e+00	-4.975829e+01
1.680000e-06	-7.568892e-07	-6.352712e-10	-5.265816e+00	-4.883464e+01
1.690000e-06	-7.105921e-07	-6.192941e-10	-4.943719e+00	-4.788899e+01
1.700000e-06	-6.642360e-07	-6.019569e-10	-4.621211e+00	-4.691976e+01
1.710000e-06	-6.178271e-07	-5.809994e-10	-4.298336e+00	-4.592529e+01
1.720000e-06	-5.713091e-07	-5.585737e-10	-3.974702e+00	-4.490386e+01
1.730000e-06	-5.247524e-07	-5.400397e-10	-3.650798e+00	-4.385370e+01
1.740000e-06	-4.781782e-07	-5.260864e-10	-3.326773e+00	-4.277302e+01
1.750000e-06	-4.315331e-07	-5.139365e-10	-3.002255e+00	-4.166002e+01
1.760000e-06	-3.848291e-07	-4.997800e-10	-2.677327e+00	-4.051294e+01
1.770000e-06	-3.381289e-07	-4.820323e-10	-2.352424e+00	-3.933004e+01
1.780000e-06	-2.914320e-07	-4.609142e-10	-2.027546e+00	-3.810965e+01
1.790000e-06	-2.447174e-07	-4.418426e-10	-1.702544e+00	-3.685022e+01
1.800000e-06	-1.979876e-07	-4.237535e-10	-1.377436e+00	-3.555028e+01
1.810000e-06	-1.513149e-07	-4.045247e-10	-1.052726e+00	-3.420853e+01
1.820000e-06	-1.045588e-07	-3.853467e-10	-7.274343e-01	-3.282382e+01
1.830000e-06	-5.770744e-08	-3.659531e-10	-4.014812e-01	-3.139518e+01
1.840000e-06	-1.087207e-08	-3.457768e-10	-7.563897e-02	-2.992187e+01
1.850000e-06	3.596145e-08	-3.264672e-10	2.501904e-01	-2.840334e+01
1.860000e-06	8.276505e-08	-3.083441e-10	5.758116e-01	-2.683932e+01
1.870000e-06	1.295115e-07	-2.891555e-10	9.010354e-01	-2.522976e+01
1.880000e-06	1.762664e-07	-2.686303e-10	1.226318e+00	-2.357490e+01
1.890000e-06	2.230529e-07	-2.461684e-10	1.551820e+00	-2.187524e+01
1.900000e-06	2.698215e-07	-2.206471e-10	1.877198e+00	-2.013156e+01
1.910000e-06	3.165718e-07	-1.931908e-10	2.202448e+00	-1.834492e+01
1.920000e-06	3.632193e-07	-1.650342e-10	2.526983e+00	-1.651667e+01
1.930000e-06	4.098089e-07	-1.380792e-10	2.851116e+00	-1.464841e+01
1.940000e-06	4.563452e-07	-1.123005e-10	3.174877e+00	-1.274204e+01
1.950000e-06	5.028308e-07	-8.795089e-11	3.498286e+00	-1.079968e+01
1.960000e-06	5.493267e-07	-6.414967e-11	3.821767e+00	-8.823715e+00
1.970000e-06	5.958233e-07	-3.852252e-11	4.145252e+00	-6.816744e+00
1.980000e-06	6.422196e-07	-1.137716e-11	4.468039e+00	-4.781572e+00
1.990000e-06	6.884576e-07	1.818120e-11	4.789725e+00	-2.721191e+00
2.000000e-06	7.346202e-07	5.045958e-11	5.110887e+00	-6.387470e-01
2.010000e-06	7.808355e-07	8.156991e-11	5.432415e+00	1.462475e+00
2.020000e-06	8.271146e-07	1.115078e-10	5.754388e+00	3.579083e+00
2.030000e-06	8.732966e-07	1.425966e-10	6.075684e+00	5.707606e+00
2.040000e-06	9.193813e-07	1.723269e-10	6.396304e+00	7.844520e+00
2.050000e-06	9.654084e-07	1.997587e-10	6.716523e+00	9.986277e+00
2.060000e-06	1.011333e-06	2.253644e-10	7.036030e+00	1.212933e+01
2.070000e-06	1.057140e-06	2.501790e-10	7.354718e+00	1.427018e+01
2.080000e-06	1.102896e-06	2.756332e-10	7.673047e+00	1.640535e+01
2.090000e-06	1.148630e-06	3.042545e-10	7.991227e+00	1.853149e+01
2.100000e-06	1.194238e-06	3.353071e-10	8.308530e+00	2.064532e+01
2.110000e-06	1.239726e-06	3.669184e-10	8.625003e+00	2.274373e+01
2.120000e-06	1.285230e-06	3.972794e-10	8.941578e+00	2.482371e+01
2.130000e-06	1.330767e-06	4.268236e-10	9.258391e+00	2.688246e+01
2.140000e-06	1.376208e-06	4.550088e-10	9.574533e+00	2.891735e+01
2.150000e-06	1.421496e-06	4.800638e-10	9.889607e+00	3.092593e+01
2.160000e-06	1.466651e-06	5.032083e-10	1.020376e+01	3.290597e+01
2.170000e-06	1.511661e-06	5.257716e-10	1.051690e+01	3.485545e+01
2.180000e-06	1.556551e-06	5.495527e-10	1.082921e+01	3.677257e+01
2.190000e-06	1.601285e-06	5.765358e-10	1.114043e+01	3.865576e+01
2.200000e-06	1.645809e-06	6.056043e-10	1.145020e+01	4.050364e+01
2.210000e-06	1.690216e-06	6.356863e-10	1.175914e+01	4.231508e+01
2.220000e-06	1.734586e-06	6.639591e-10	1.206783e+01	4.408914e+01
2.230000e-06	1.778857e-06	6.898597e-10	1.237584e+01	4.582509e+01
2.240000e-06	1.823003e-06	7.119466e-10	1.268296e+01	4.752241e+01
2.250000e-06	1.867052e-06	7.284148e-10	1.298942e+01	4.918074e+01
2.260000e-06	1.911050e-06	7.441811e-10	1.329552e+01	5.079992e+01
2.270000e-06	1.955024e-06	7.624093e-10	1.360146e+01	5.237993e+01
2.280000e-06	1.998968e-06	7.831583e-10	1.390718e+01	5.392090e+01
2.290000e-06	2.042895e-06	8.073116e-10	1.421279e+01	5.542311e+01
2.300000e-06	2.086734e-06	8.355233e-10	1.451779e+01	5.688692e+01
2.310000e-06	2.130451e-06	8.628429e-10	1.482193e+01	5.831284e+01
2.320000e-06	2.174049e-06	8.837820e-10	1.512525e+01	5.970141e+01
2.330000e-06	2.217548e-06	8.979939e-10	1.542789e+01	6.105330e+01
2.340000e-06	2.260940e-06	9.095575e-10	1.572977e+01	6.236918e+01
2.350000e-06	2.304068e-06	9.223233e-10	1.602982e+01	6.364981e+01
2.360000e-06	2.346814e-06	9.373422e-10	1.632721e+01	6.489596e+01
2.370000e-06	2.389296e-06	9.553551e-10	1.662277e+01	6.610841e+01
2.380000e-06	2.431543e-06	9.764475e-10	1.691669e+01	6.728798e+01
2.390000e-06	2.473430e-06	9.968507e-10	1.720811e+01	6.843545e+01
2.400000e-06	2.514890e-06	1.014303e-09	1.749655e+01	6.955164e+01
2.410000e-06	2.556003e-06	1.029999e-09	1.778258e+01	7.063730e+01
2.420000e-06	2.596827e-06	1.041514e-09	1.806660e+01	7.169320e+01
2.430000e-06	2.637409e-06	1.051792e-09	1.834893e+01	7.272008e+01
2.440000e-06	2.677835e-06	1.065653e-09	1.863019e+01	7.371863e+01
2.450000e-06	2.718143e-06	1.081741e-09	1.891062e+01	7.468955e+01
2.460000e-06	2.758308e-06	1.098097e-09	1.919005e+01	7.563346e+01
2.470000e-06	2.798279e-06	1.111030e-09	1.946814e+01	7.655099e+01
2.480000e-06	2.838118e-06	1.121216e-09	1.974530e+01	7.744273e+01
2.490000e-06	2.877871e-06	1.131616e-09	2.002188e+01	7.830924e+01
2.500000e-06	2.917539e-06	1.141819e-09	2.029785e+01	7.915104e+01
2.510000e-06	2.957092e-06	1.154283e-09	2.057303e+01	7.996867e+01
2.520000e-06	2.996461e-06	1.166076e-09	2.084692e+01	8.076260e+01
2.530000e-06	3.035564e-06	1.177970e-09	2.111898e+01	8.153332e+01
2.540000e-06	3.074444e-06	1.191070e-09	2.138947e+01	8.228130e+01
2.550000e-06	3.113133e-06	1.201681e-09	2.165863e+01	8.300699e+01
2.560000e-06	3.151568e-06	1.208983e-09	2.192604e+01	8.371085e+01
2.570000e-06	3.189726e-06	1.214005e-09	2.219151e+01	8.439333e+01
2.580000e-06	3.227676e-06	1.220217e-09	2.245553e+01	8.505488e+01
2.590000e-06	3.265456e-06	1.227828e-09	2.271838e+01	8.569596e+01
2.600000e-06	3.303047e-06	1.238842e-09	2.297990e+01	8.631701e+01
2.610000e-06	3.340432e-06	1.252705e-09	2.324000e+01	8.691852e+01
2.620000e-06	3.377584e-06	1.267653e-09	2.349847e+01	8.750094e+01
2.630000e-06	3.414488e-06	1.278555e-09	2.375521e+01	8.806477e+01
2.640000e-06	3.451108e-06	1.284980e-09	2.400999e+01	8.861048e+01
2.650000e-06	3.487401e-06	1.288940e-09	2.426248e+01	8.913857e+01
2.660000e-06	3.523452e-06	1.290992e-09	2.451330e+01	8.964955e+01
2.670000e-06	3.559391e-06	1.293670e-09	2.476333e+01	9.014391e+01
2.680000e-06	3.595231e-06	1.298111e-09	2.501268e+01	9.062217e+01
2.690000e-06	3.630975e-06	1.305286e-09	2.526136e+01	9.108484e+01
2.700000e-06	3.666592e-06	1.314424e-09	2.550915e+01	9.153242e+01
2.710000e-06	3.702029e-06	1.322046e-09	2.575569e+01	9.196541e+01
2.720000e-06	3.737176e-06	1.328496e-09	2.600022e+01	9.238432e+01
2.730000e-06	3.771898e-06	1.332437e-09	2.624179e+01	9.278962e+01
2.740000e-06	3.806166e-06	1.333582e-09	2.648019e+01	9.318181e+01
2.750000e-06	3.839885e-06	1.335252e-09	2.671478e+01	9.356133e+01
2.760000e-06	3.873146e-06	1.339721e-09	2.694618e+01	9.392863e+01
2.770000e-06	3.905979e-06	1.348589e-09	2.717461e+01	9.428414e+01
2.780000e-06	3.938397e-06	1.357930e-09	2.740015e+01	9.462826e+01
2.790000e-06	3.970573e-06	1.366427e-09	2.762400e+01	9.496138e+01
2.800000e-06	4.002559e-06	1.372580e-09	2.784654e+01	9.528384e+01
2.810000e-06	4.034404e-06	1.373464e-09	2.806809e+01	9.559600e+01
2.820000e-06	4.066138e-06	1.372476e-09	2.828886e+01	9.589815e+01
2.830000e-06	4.097715e-06	1.375834e-09	2.850855e+01	9.619059e+01
2.840000e-06	4.129022e-06	1.383568e-09	2.872636e+01	9.647357e+01
2.850000e-06	4.159966e-06	1.391317e-09	2.894164e+01	9.674733e+01
2.860000e-06	4.190530e-06	1.398615e-09	2.915428e+01	9.701209e+01
2.870000e-06	4.220791e-06	1.405748e-09	2.936481e+01	9.726804e+01
2.880000e-06	4.250814e-06	1.409278e-09	2.957369e+01	9.751536e+01
2.890000e-06	4.280594e-06	1.410039e-09	2.978087e+01	9.775421e+01
2.900000e-06	4.310084e-06	1.411102e-09	2.998604e+01	9.798475e+01
