# Temperatura_=_-13.36
# Concentracion g/m^3_=_1620.0
# C_Vs_to_Am_M_A/Vsm_=_65563218390.804596
# pendiente_HvsI_1/m_=_3716.3
# ordenada_HvsI_A/m_=_1297.0
# frecuencia_Hz_=_135101.54478832913

Tiempo_(s)	Campo_(V.s)	Magnetizacion_(V.s)	Campo_(kA/m)	Magnetizacion_(A/m)
0.000000e+00	-5.518862e-06	-1.333048e-09	-3.837448e+01	-8.478709e+01
1.000000e-08	-5.518931e-06	-1.334386e-09	-3.837496e+01	-8.478927e+01
2.000000e-08	-5.518707e-06	-1.336462e-09	-3.837340e+01	-8.478598e+01
3.000000e-08	-5.518114e-06	-1.335084e-09	-3.836929e+01	-8.477656e+01
4.000000e-08	-5.517032e-06	-1.330505e-09	-3.836176e+01	-8.476044e+01
5.000000e-08	-5.515439e-06	-1.323638e-09	-3.835068e+01	-8.473716e+01
6.000000e-08	-5.513261e-06	-1.319717e-09	-3.833554e+01	-8.470635e+01
7.000000e-08	-5.510490e-06	-1.334649e-09	-3.831627e+01	-8.466775e+01
8.000000e-08	-5.507251e-06	-1.351993e-09	-3.829375e+01	-8.462122e+01
9.000000e-08	-5.503526e-06	-1.324829e-09	-3.826785e+01	-8.456675e+01
1.000000e-07	-5.499402e-06	-1.316206e-09	-3.823918e+01	-8.450447e+01
1.100000e-07	-5.495014e-06	-1.382442e-09	-3.820866e+01	-8.443462e+01
1.200000e-07	-5.490360e-06	-1.356240e-09	-3.817630e+01	-8.435758e+01
1.300000e-07	-5.485433e-06	-1.261301e-09	-3.814204e+01	-8.427384e+01
1.400000e-07	-5.480137e-06	-1.259500e-09	-3.810522e+01	-8.418401e+01
1.500000e-07	-5.474433e-06	-1.353046e-09	-3.806555e+01	-8.408880e+01
1.600000e-07	-5.468382e-06	-1.402628e-09	-3.802348e+01	-8.398900e+01
1.700000e-07	-5.461907e-06	-1.265496e-09	-3.797846e+01	-8.388548e+01
1.800000e-07	-5.455121e-06	-1.239330e-09	-3.793127e+01	-8.377916e+01
1.900000e-07	-5.448005e-06	-1.298575e-09	-3.788179e+01	-8.367103e+01
2.000000e-07	-5.440500e-06	-1.331440e-09	-3.782961e+01	-8.356206e+01
2.100000e-07	-5.432748e-06	-1.247266e-09	-3.777570e+01	-8.345325e+01
2.200000e-07	-5.424724e-06	-1.227922e-09	-3.771991e+01	-8.334558e+01
2.300000e-07	-5.416320e-06	-1.278882e-09	-3.766148e+01	-8.323999e+01
2.400000e-07	-5.407438e-06	-1.298123e-09	-3.759972e+01	-8.313738e+01
2.500000e-07	-5.397954e-06	-1.244151e-09	-3.753377e+01	-8.303856e+01
2.600000e-07	-5.387693e-06	-1.222375e-09	-3.746242e+01	-8.294428e+01
2.700000e-07	-5.376740e-06	-1.264941e-09	-3.738627e+01	-8.285516e+01
2.800000e-07	-5.365451e-06	-1.281907e-09	-3.730777e+01	-8.277176e+01
2.900000e-07	-5.353904e-06	-1.270722e-09	-3.722747e+01	-8.269446e+01
3.000000e-07	-5.341992e-06	-1.240849e-09	-3.714465e+01	-8.262357e+01
3.100000e-07	-5.329621e-06	-1.260486e-09	-3.705863e+01	-8.255924e+01
3.200000e-07	-5.316770e-06	-1.261459e-09	-3.696927e+01	-8.250149e+01
3.300000e-07	-5.303531e-06	-1.252717e-09	-3.687722e+01	-8.245021e+01
3.400000e-07	-5.289968e-06	-1.209861e-09	-3.678291e+01	-8.240517e+01
3.500000e-07	-5.275992e-06	-1.247728e-09	-3.668573e+01	-8.236602e+01
3.600000e-07	-5.261472e-06	-1.273821e-09	-3.658477e+01	-8.233229e+01
3.700000e-07	-5.246358e-06	-1.250575e-09	-3.647968e+01	-8.230341e+01
3.800000e-07	-5.230559e-06	-1.229704e-09	-3.636982e+01	-8.227873e+01
3.900000e-07	-5.214478e-06	-1.289549e-09	-3.625800e+01	-8.225751e+01
4.000000e-07	-5.198117e-06	-1.257125e-09	-3.614424e+01	-8.223897e+01
4.100000e-07	-5.181265e-06	-1.205188e-09	-3.602706e+01	-8.222228e+01
4.200000e-07	-5.164170e-06	-1.264293e-09	-3.590819e+01	-8.220657e+01
4.300000e-07	-5.146794e-06	-1.308577e-09	-3.578738e+01	-8.219099e+01
4.400000e-07	-5.129032e-06	-1.211414e-09	-3.566387e+01	-8.217469e+01
4.500000e-07	-5.110848e-06	-1.222536e-09	-3.553743e+01	-8.215684e+01
4.600000e-07	-5.092288e-06	-1.319618e-09	-3.540837e+01	-8.213666e+01
4.700000e-07	-5.073280e-06	-1.256446e-09	-3.527621e+01	-8.211342e+01
4.800000e-07	-5.053926e-06	-1.186519e-09	-3.514163e+01	-8.208647e+01
4.900000e-07	-5.034417e-06	-1.284605e-09	-3.500598e+01	-8.205525e+01
5.000000e-07	-5.014710e-06	-1.286494e-09	-3.486895e+01	-8.201927e+01
5.100000e-07	-4.994776e-06	-1.181031e-09	-3.473034e+01	-8.197816e+01
5.200000e-07	-4.974531e-06	-1.244732e-09	-3.458957e+01	-8.193165e+01
5.300000e-07	-4.953960e-06	-1.304998e-09	-3.444653e+01	-8.187956e+01
5.400000e-07	-4.932981e-06	-1.201167e-09	-3.430066e+01	-8.182184e+01
5.500000e-07	-4.911635e-06	-1.203079e-09	-3.415224e+01	-8.175854e+01
5.600000e-07	-4.889970e-06	-1.309056e-09	-3.400159e+01	-8.168981e+01
5.700000e-07	-4.867948e-06	-1.241263e-09	-3.384846e+01	-8.161588e+01
5.800000e-07	-4.845550e-06	-1.187330e-09	-3.369272e+01	-8.153708e+01
5.900000e-07	-4.822764e-06	-1.276113e-09	-3.353429e+01	-8.145383e+01
6.000000e-07	-4.799664e-06	-1.269134e-09	-3.337366e+01	-8.136658e+01
6.100000e-07	-4.776265e-06	-1.183259e-09	-3.321096e+01	-8.127585e+01
6.200000e-07	-4.752647e-06	-1.239137e-09	-3.304674e+01	-8.118221e+01
6.300000e-07	-4.728847e-06	-1.268103e-09	-3.288125e+01	-8.108622e+01
6.400000e-07	-4.704790e-06	-1.204614e-09	-3.271397e+01	-8.098847e+01
6.500000e-07	-4.680345e-06	-1.219415e-09	-3.254400e+01	-8.088955e+01
6.600000e-07	-4.655427e-06	-1.270489e-09	-3.237074e+01	-8.078999e+01
6.700000e-07	-4.629986e-06	-1.220362e-09	-3.219383e+01	-8.069033e+01
6.800000e-07	-4.603987e-06	-1.208300e-09	-3.201306e+01	-8.059103e+01
6.900000e-07	-4.577477e-06	-1.246862e-09	-3.182872e+01	-8.049251e+01
7.000000e-07	-4.550527e-06	-1.226178e-09	-3.164133e+01	-8.039511e+01
7.100000e-07	-4.523232e-06	-1.199087e-09	-3.145154e+01	-8.029910e+01
7.200000e-07	-4.495718e-06	-1.236993e-09	-3.126023e+01	-8.020466e+01
7.300000e-07	-4.468063e-06	-1.239617e-09	-3.106793e+01	-8.011189e+01
7.400000e-07	-4.440250e-06	-1.213085e-09	-3.087454e+01	-8.002078e+01
7.500000e-07	-4.412237e-06	-1.219386e-09	-3.067975e+01	-7.993125e+01
7.600000e-07	-4.383942e-06	-1.225647e-09	-3.048301e+01	-7.984313e+01
7.700000e-07	-4.355209e-06	-1.204546e-09	-3.028322e+01	-7.975616e+01
7.800000e-07	-4.326108e-06	-1.206872e-09	-3.008087e+01	-7.967000e+01
7.900000e-07	-4.296728e-06	-1.217117e-09	-2.987658e+01	-7.958423e+01
8.000000e-07	-4.267044e-06	-1.203148e-09	-2.967018e+01	-7.949838e+01
8.100000e-07	-4.237159e-06	-1.199023e-09	-2.946238e+01	-7.941194e+01
8.200000e-07	-4.207061e-06	-1.208293e-09	-2.925310e+01	-7.932432e+01
8.300000e-07	-4.176650e-06	-1.198390e-09	-2.904164e+01	-7.923493e+01
8.400000e-07	-4.145796e-06	-1.184431e-09	-2.882710e+01	-7.914316e+01
8.500000e-07	-4.114614e-06	-1.200150e-09	-2.861028e+01	-7.904838e+01
8.600000e-07	-4.083262e-06	-1.203440e-09	-2.839228e+01	-7.895000e+01
8.700000e-07	-4.051759e-06	-1.192189e-09	-2.817323e+01	-7.884741e+01
8.800000e-07	-4.020153e-06	-1.194188e-09	-2.795346e+01	-7.874007e+01
8.900000e-07	-3.988370e-06	-1.197957e-09	-2.773246e+01	-7.862745e+01
9.000000e-07	-3.956382e-06	-1.181674e-09	-2.751004e+01	-7.850911e+01
9.100000e-07	-3.924004e-06	-1.179479e-09	-2.728490e+01	-7.838465e+01
9.200000e-07	-3.891158e-06	-1.186194e-09	-2.705652e+01	-7.825374e+01
9.300000e-07	-3.857969e-06	-1.178886e-09	-2.682574e+01	-7.811614e+01
9.400000e-07	-3.824301e-06	-1.168243e-09	-2.659164e+01	-7.797167e+01
9.500000e-07	-3.790027e-06	-1.175184e-09	-2.635332e+01	-7.782025e+01
9.600000e-07	-3.755272e-06	-1.167553e-09	-2.611166e+01	-7.766188e+01
9.700000e-07	-3.720292e-06	-1.154507e-09	-2.586843e+01	-7.749662e+01
9.800000e-07	-3.685103e-06	-1.154929e-09	-2.562375e+01	-7.732464e+01
9.900000e-07	-3.649610e-06	-1.159392e-09	-2.537695e+01	-7.714616e+01
1.000000e-06	-3.613956e-06	-1.150783e-09	-2.512904e+01	-7.696148e+01
1.010000e-06	-3.578193e-06	-1.149198e-09	-2.488037e+01	-7.677095e+01
1.020000e-06	-3.542256e-06	-1.151860e-09	-2.463048e+01	-7.657500e+01
1.030000e-06	-3.506160e-06	-1.142639e-09	-2.437950e+01	-7.637406e+01
1.040000e-06	-3.469868e-06	-1.133970e-09	-2.412715e+01	-7.616862e+01
1.050000e-06	-3.433338e-06	-1.136183e-09	-2.387314e+01	-7.595919e+01
1.060000e-06	-3.396570e-06	-1.132037e-09	-2.361748e+01	-7.574628e+01
1.070000e-06	-3.359449e-06	-1.122639e-09	-2.335937e+01	-7.553041e+01
1.080000e-06	-3.322067e-06	-1.122743e-09	-2.309944e+01	-7.531206e+01
1.090000e-06	-3.284521e-06	-1.121617e-09	-2.283837e+01	-7.509173e+01
1.100000e-06	-3.246744e-06	-1.111507e-09	-2.257569e+01	-7.486984e+01
1.110000e-06	-3.208708e-06	-1.106157e-09	-2.231122e+01	-7.464681e+01
1.120000e-06	-3.170450e-06	-1.103275e-09	-2.204520e+01	-7.442297e+01
1.130000e-06	-3.131977e-06	-1.090506e-09	-2.177768e+01	-7.419862e+01
1.140000e-06	-3.093218e-06	-1.080772e-09	-2.150817e+01	-7.397398e+01
1.150000e-06	-3.054289e-06	-1.081722e-09	-2.123749e+01	-7.374919e+01
1.160000e-06	-3.015252e-06	-1.083377e-09	-2.096605e+01	-7.352434e+01
1.170000e-06	-2.976058e-06	-1.079250e-09	-2.069352e+01	-7.329942e+01
1.180000e-06	-2.936648e-06	-1.080057e-09	-2.041949e+01	-7.307436e+01
1.190000e-06	-2.897101e-06	-1.078760e-09	-2.014451e+01	-7.284899e+01
1.200000e-06	-2.857489e-06	-1.069765e-09	-1.986907e+01	-7.262310e+01
1.210000e-06	-2.817689e-06	-1.058855e-09	-1.959233e+01	-7.239638e+01
1.220000e-06	-2.777688e-06	-1.052494e-09	-1.931419e+01	-7.216846e+01
1.230000e-06	-2.737559e-06	-1.043168e-09	-1.903516e+01	-7.193892e+01
1.240000e-06	-2.697242e-06	-1.035993e-09	-1.875482e+01	-7.170728e+01
1.250000e-06	-2.656726e-06	-1.033141e-09	-1.847310e+01	-7.147299e+01
1.260000e-06	-2.615931e-06	-1.032225e-09	-1.818944e+01	-7.123550e+01
1.270000e-06	-2.574788e-06	-1.027415e-09	-1.790336e+01	-7.099420e+01
1.280000e-06	-2.533394e-06	-1.023014e-09	-1.761553e+01	-7.074848e+01
1.290000e-06	-2.491673e-06	-1.017847e-09	-1.732544e+01	-7.049770e+01
1.300000e-06	-2.449678e-06	-1.008730e-09	-1.703343e+01	-7.024123e+01
1.310000e-06	-2.407375e-06	-9.991915e-10	-1.673928e+01	-6.997844e+01
1.320000e-06	-2.364817e-06	-9.933915e-10	-1.644336e+01	-6.970871e+01
1.330000e-06	-2.322159e-06	-9.889191e-10	-1.614674e+01	-6.943144e+01
1.340000e-06	-2.279221e-06	-9.856205e-10	-1.584818e+01	-6.914608e+01
1.350000e-06	-2.236014e-06	-9.842978e-10	-1.554775e+01	-6.885210e+01
1.360000e-06	-2.192655e-06	-9.830277e-10	-1.524626e+01	-6.854900e+01
1.370000e-06	-2.149152e-06	-9.792675e-10	-1.494377e+01	-6.823635e+01
1.380000e-06	-2.105540e-06	-9.738591e-10	-1.464052e+01	-6.791375e+01
1.390000e-06	-2.061839e-06	-9.659139e-10	-1.433665e+01	-6.758086e+01
1.400000e-06	-2.018057e-06	-9.544483e-10	-1.403222e+01	-6.723740e+01
1.410000e-06	-1.974235e-06	-9.442737e-10	-1.372751e+01	-6.688313e+01
1.420000e-06	-1.930336e-06	-9.353544e-10	-1.342227e+01	-6.651786e+01
1.430000e-06	-1.886254e-06	-9.270703e-10	-1.311575e+01	-6.614146e+01
1.440000e-06	-1.842060e-06	-9.198039e-10	-1.280846e+01	-6.575383e+01
1.450000e-06	-1.797883e-06	-9.152100e-10	-1.250128e+01	-6.535494e+01
1.460000e-06	-1.753525e-06	-9.096806e-10	-1.219284e+01	-6.494475e+01
1.470000e-06	-1.708918e-06	-9.022375e-10	-1.188268e+01	-6.452330e+01
1.480000e-06	-1.664172e-06	-8.949286e-10	-1.157154e+01	-6.409060e+01
1.490000e-06	-1.619265e-06	-8.887006e-10	-1.125929e+01	-6.364671e+01
1.500000e-06	-1.574238e-06	-8.785695e-10	-1.094620e+01	-6.319167e+01
1.510000e-06	-1.529119e-06	-8.682038e-10	-1.063248e+01	-6.272555e+01
1.520000e-06	-1.483922e-06	-8.598564e-10	-1.031820e+01	-6.224836e+01
1.530000e-06	-1.438647e-06	-8.503829e-10	-1.000339e+01	-6.176012e+01
1.540000e-06	-1.393361e-06	-8.403338e-10	-9.688506e+00	-6.126080e+01
1.550000e-06	-1.348045e-06	-8.313863e-10	-9.373403e+00	-6.075035e+01
1.560000e-06	-1.302629e-06	-8.209229e-10	-9.057610e+00	-6.022863e+01
1.570000e-06	-1.257125e-06	-8.087184e-10	-8.741212e+00	-5.969549e+01
1.580000e-06	-1.211559e-06	-7.983292e-10	-8.424376e+00	-5.915067e+01
1.590000e-06	-1.165829e-06	-7.883763e-10	-8.106395e+00	-5.859385e+01
1.600000e-06	-1.119880e-06	-7.769755e-10	-7.786896e+00	-5.802465e+01
1.610000e-06	-1.073919e-06	-7.673355e-10	-7.467318e+00	-5.744256e+01
1.620000e-06	-1.027949e-06	-7.586887e-10	-7.147671e+00	-5.684702e+01
1.630000e-06	-9.818556e-07	-7.492355e-10	-6.827169e+00	-5.623736e+01
1.640000e-06	-9.356426e-07	-7.390998e-10	-6.505835e+00	-5.561281e+01
1.650000e-06	-8.893578e-07	-7.292925e-10	-6.184001e+00	-5.497252e+01
1.660000e-06	-8.431155e-07	-7.201311e-10	-5.862463e+00	-5.431553e+01
1.670000e-06	-7.968492e-07	-7.113797e-10	-5.540758e+00	-5.364081e+01
1.680000e-06	-7.504433e-07	-7.025232e-10	-5.218082e+00	-5.294721e+01
1.690000e-06	-7.039807e-07	-6.949333e-10	-4.895012e+00	-5.223354e+01
1.700000e-06	-6.574924e-07	-6.841751e-10	-4.571764e+00	-5.149851e+01
1.710000e-06	-6.109451e-07	-6.682092e-10	-4.248104e+00	-5.074077e+01
1.720000e-06	-5.644009e-07	-6.496724e-10	-3.924467e+00	-4.995892e+01
1.730000e-06	-5.177763e-07	-6.307774e-10	-3.600271e+00	-4.915152e+01
1.740000e-06	-4.710143e-07	-6.151845e-10	-3.275120e+00	-4.831708e+01
1.750000e-06	-4.242202e-07	-6.024002e-10	-2.949744e+00	-4.745413e+01
1.760000e-06	-3.774801e-07	-5.906453e-10	-2.624745e+00	-4.656116e+01
1.770000e-06	-3.307261e-07	-5.781648e-10	-2.299649e+00	-4.563671e+01
1.780000e-06	-2.839205e-07	-5.669160e-10	-1.974194e+00	-4.467933e+01
1.790000e-06	-2.370953e-07	-5.571008e-10	-1.648603e+00	-4.368763e+01
1.800000e-06	-1.902565e-07	-5.454441e-10	-1.322917e+00	-4.266027e+01
1.810000e-06	-1.435168e-07	-5.296942e-10	-9.979203e-01	-4.159602e+01
1.820000e-06	-9.678999e-08	-5.123741e-10	-6.730130e-01	-4.049374e+01
1.830000e-06	-5.000788e-08	-4.948107e-10	-3.477214e-01	-3.935239e+01
1.840000e-06	-3.155905e-09	-4.786128e-10	-2.194406e-02	-3.817110e+01
1.850000e-06	4.378587e-08	-4.653487e-10	3.044577e-01	-3.694911e+01
1.860000e-06	9.062692e-08	-4.534184e-10	6.301591e-01	-3.568585e+01
1.870000e-06	1.373865e-07	-4.387584e-10	9.552940e-01	-3.438094e+01
1.880000e-06	1.841877e-07	-4.208666e-10	1.280718e+00	-3.303415e+01
1.890000e-06	2.309869e-07	-3.998372e-10	1.606129e+00	-3.164549e+01
1.900000e-06	2.777143e-07	-3.762085e-10	1.931040e+00	-3.021515e+01
1.910000e-06	3.243945e-07	-3.540635e-10	2.255623e+00	-2.874354e+01
1.920000e-06	3.711359e-07	-3.325667e-10	2.580632e+00	-2.723131e+01
1.930000e-06	4.178528e-07	-3.110258e-10	2.905469e+00	-2.567930e+01
1.940000e-06	4.644915e-07	-2.910003e-10	3.229764e+00	-2.408858e+01
1.950000e-06	5.110393e-07	-2.714896e-10	3.553427e+00	-2.246044e+01
1.960000e-06	5.575317e-07	-2.522059e-10	3.876704e+00	-2.079638e+01
1.970000e-06	6.039945e-07	-2.310560e-10	4.199775e+00	-1.909811e+01
1.980000e-06	6.504385e-07	-2.090267e-10	4.522715e+00	-1.736753e+01
1.990000e-06	6.968909e-07	-1.833360e-10	4.845715e+00	-1.560672e+01
2.000000e-06	7.432385e-07	-1.560022e-10	5.167985e+00	-1.381793e+01
2.010000e-06	7.894976e-07	-1.275588e-10	5.489640e+00	-1.200356e+01
2.020000e-06	8.357493e-07	-9.704314e-11	5.811243e+00	-1.016616e+01
2.030000e-06	8.819433e-07	-6.861260e-11	6.132446e+00	-8.308386e+00
2.040000e-06	9.280235e-07	-4.393232e-11	6.452856e+00	-6.432992e+00
2.050000e-06	9.740405e-07	-2.096882e-11	6.772828e+00	-4.542811e+00
2.060000e-06	1.019984e-06	3.375528e-12	7.092289e+00	-2.640733e+00
2.070000e-06	1.065850e-06	2.950212e-11	7.411213e+00	-7.296774e-01
2.080000e-06	1.111641e-06	5.690485e-11	7.729611e+00	1.187421e+00
2.090000e-06	1.157366e-06	8.700769e-11	8.047549e+00	3.107640e+00
2.100000e-06	1.203033e-06	1.172445e-10	8.365088e+00	5.028086e+00
2.110000e-06	1.248626e-06	1.433814e-10	8.682110e+00	6.945918e+00
2.120000e-06	1.294110e-06	1.668794e-10	8.998376e+00	8.858365e+00
2.130000e-06	1.339464e-06	1.899387e-10	9.313736e+00	1.076274e+01
2.140000e-06	1.384779e-06	2.143649e-10	9.628826e+00	1.265648e+01
2.150000e-06	1.430015e-06	2.367781e-10	9.943371e+00	1.453710e+01
2.160000e-06	1.475166e-06	2.603592e-10	1.025732e+01	1.640229e+01
2.170000e-06	1.520262e-06	2.863922e-10	1.057089e+01	1.824985e+01
2.180000e-06	1.565217e-06	3.144781e-10	1.088348e+01	2.007775e+01
2.190000e-06	1.610037e-06	3.429014e-10	1.119513e+01	2.188411e+01
2.200000e-06	1.654689e-06	3.678134e-10	1.150560e+01	2.366721e+01
2.210000e-06	1.699146e-06	3.915776e-10	1.181473e+01	2.542548e+01
2.220000e-06	1.743550e-06	4.159509e-10	1.212348e+01	2.715753e+01
2.230000e-06	1.787879e-06	4.393491e-10	1.243172e+01	2.886212e+01
2.240000e-06	1.832013e-06	4.620483e-10	1.273860e+01	3.053817e+01
2.250000e-06	1.876024e-06	4.818967e-10	1.304462e+01	3.218475e+01
2.260000e-06	1.919970e-06	5.029388e-10	1.335019e+01	3.380106e+01
2.270000e-06	1.963830e-06	5.248127e-10	1.365516e+01	3.538644e+01
2.280000e-06	2.007624e-06	5.456617e-10	1.395968e+01	3.694036e+01
2.290000e-06	2.051360e-06	5.661385e-10	1.426379e+01	3.846239e+01
2.300000e-06	2.095032e-06	5.868266e-10	1.456746e+01	3.995223e+01
2.310000e-06	2.138632e-06	6.069174e-10	1.487062e+01	4.140964e+01
2.320000e-06	2.182160e-06	6.252066e-10	1.517329e+01	4.283447e+01
2.330000e-06	2.225587e-06	6.431744e-10	1.547524e+01	4.422665e+01
2.340000e-06	2.268876e-06	6.612361e-10	1.577625e+01	4.558616e+01
2.350000e-06	2.311986e-06	6.802879e-10	1.607601e+01	4.691303e+01
2.360000e-06	2.354919e-06	6.984282e-10	1.637454e+01	4.820733e+01
2.370000e-06	2.397663e-06	7.160078e-10	1.667175e+01	4.946915e+01
2.380000e-06	2.440034e-06	7.335312e-10	1.696637e+01	5.069864e+01
2.390000e-06	2.482053e-06	7.497105e-10	1.725854e+01	5.189593e+01
2.400000e-06	2.523745e-06	7.638670e-10	1.754844e+01	5.306120e+01
2.410000e-06	2.565058e-06	7.777465e-10	1.783570e+01	5.419462e+01
2.420000e-06	2.606178e-06	7.913826e-10	1.812162e+01	5.529638e+01
2.430000e-06	2.647091e-06	8.050975e-10	1.840611e+01	5.636669e+01
2.440000e-06	2.687689e-06	8.190568e-10	1.868839e+01	5.740575e+01
2.450000e-06	2.728049e-06	8.338036e-10	1.896903e+01	5.841379e+01
2.460000e-06	2.768159e-06	8.480178e-10	1.924793e+01	5.939106e+01
2.470000e-06	2.808050e-06	8.597979e-10	1.952531e+01	6.033783e+01
2.480000e-06	2.847834e-06	8.698902e-10	1.980194e+01	6.125438e+01
2.490000e-06	2.887534e-06	8.794915e-10	2.007799e+01	6.214104e+01
2.500000e-06	2.927115e-06	8.884130e-10	2.035321e+01	6.299815e+01
2.510000e-06	2.966548e-06	9.000853e-10	2.062740e+01	6.382611e+01
2.520000e-06	3.005828e-06	9.116335e-10	2.090052e+01	6.462536e+01
2.530000e-06	3.044935e-06	9.250009e-10	2.117245e+01	6.539636e+01
2.540000e-06	3.083815e-06	9.404082e-10	2.144279e+01	6.613966e+01
2.550000e-06	3.122472e-06	9.532414e-10	2.171159e+01	6.685583e+01
2.560000e-06	3.160820e-06	9.613270e-10	2.197824e+01	6.754549e+01
2.570000e-06	3.198893e-06	9.661562e-10	2.224297e+01	6.820935e+01
2.580000e-06	3.236824e-06	9.714496e-10	2.250672e+01	6.884812e+01
2.590000e-06	3.274611e-06	9.766895e-10	2.276946e+01	6.946260e+01
2.600000e-06	3.312179e-06	9.853362e-10	2.303068e+01	7.005361e+01
2.610000e-06	3.349541e-06	9.973861e-10	2.329048e+01	7.062203e+01
2.620000e-06	3.386681e-06	1.010881e-09	2.354872e+01	7.116875e+01
2.630000e-06	3.423442e-06	1.022307e-09	2.380433e+01	7.169472e+01
2.640000e-06	3.459870e-06	1.030939e-09	2.405763e+01	7.220088e+01
2.650000e-06	3.496087e-06	1.037066e-09	2.430946e+01	7.268820e+01
2.660000e-06	3.532171e-06	1.041236e-09	2.456036e+01	7.315763e+01
2.670000e-06	3.568129e-06	1.045368e-09	2.481039e+01	7.361014e+01
2.680000e-06	3.603919e-06	1.051139e-09	2.505925e+01	7.404667e+01
2.690000e-06	3.639545e-06	1.059536e-09	2.530697e+01	7.446811e+01
2.700000e-06	3.675006e-06	1.067919e-09	2.555354e+01	7.487534e+01
2.710000e-06	3.710304e-06	1.071579e-09	2.579898e+01	7.526919e+01
2.720000e-06	3.745339e-06	1.073595e-09	2.604259e+01	7.565043e+01
2.730000e-06	3.780011e-06	1.076131e-09	2.628368e+01	7.601975e+01
2.740000e-06	3.814309e-06	1.080221e-09	2.652216e+01	7.637779e+01
2.750000e-06	3.848057e-06	1.086261e-09	2.675682e+01	7.672512e+01
2.760000e-06	3.881264e-06	1.094486e-09	2.698772e+01	7.706222e+01
2.770000e-06	3.914112e-06	1.103582e-09	2.721612e+01	7.738949e+01
2.780000e-06	3.946550e-06	1.110228e-09	2.744168e+01	7.770726e+01
2.790000e-06	3.978687e-06	1.114091e-09	2.766513e+01	7.801576e+01
2.800000e-06	4.010692e-06	1.116892e-09	2.788768e+01	7.831517e+01
2.810000e-06	4.042551e-06	1.119599e-09	2.810920e+01	7.860559e+01
2.820000e-06	4.074205e-06	1.123668e-09	2.832931e+01	7.888704e+01
2.830000e-06	4.105591e-06	1.130496e-09	2.854754e+01	7.915950e+01
2.840000e-06	4.136698e-06	1.137524e-09	2.876384e+01	7.942290e+01
2.850000e-06	4.167507e-06	1.143512e-09	2.897806e+01	7.967711e+01
2.860000e-06	4.198034e-06	1.149806e-09	2.919033e+01	7.992201e+01
2.870000e-06	4.228226e-06	1.154195e-09	2.940026e+01	8.015742e+01
2.880000e-06	4.258096e-06	1.154893e-09	2.960796e+01	8.038320e+01
2.890000e-06	4.287779e-06	1.155665e-09	2.981435e+01	8.059917e+01
2.900000e-06	4.317210e-06	1.158239e-09	3.001900e+01	8.080521e+01
