# Temperatura_=_-12.09
# Concentracion g/m^3_=_1620.0
# C_Vs_to_Am_M_A/Vsm_=_65563218390.804596
# pendiente_HvsI_1/m_=_3716.3
# ordenada_HvsI_A/m_=_1297.0
# frecuencia_Hz_=_135104.8422944064

Tiempo_(s)	Campo_(V.s)	Magnetizacion_(V.s)	Campo_(kA/m)	Magnetizacion_(A/m)
0.000000e+00	-5.522139e-06	-1.331073e-09	-3.836975e+01	-8.494745e+01
1.000000e-08	-5.522415e-06	-1.330176e-09	-3.837166e+01	-8.492032e+01
2.000000e-08	-5.522444e-06	-1.330801e-09	-3.837187e+01	-8.489024e+01
3.000000e-08	-5.522038e-06	-1.332153e-09	-3.836904e+01	-8.485689e+01
4.000000e-08	-5.521195e-06	-1.332109e-09	-3.836319e+01	-8.481995e+01
5.000000e-08	-5.519909e-06	-1.328426e-09	-3.835425e+01	-8.477911e+01
6.000000e-08	-5.517980e-06	-1.314015e-09	-3.834085e+01	-8.473407e+01
7.000000e-08	-5.515401e-06	-1.290098e-09	-3.832293e+01	-8.468456e+01
8.000000e-08	-5.512318e-06	-1.309770e-09	-3.830151e+01	-8.463034e+01
9.000000e-08	-5.508790e-06	-1.381964e-09	-3.827699e+01	-8.457119e+01
1.000000e-07	-5.504810e-06	-1.400610e-09	-3.824934e+01	-8.450695e+01
1.100000e-07	-5.500425e-06	-1.307679e-09	-3.821887e+01	-8.443750e+01
1.200000e-07	-5.495856e-06	-1.266397e-09	-3.818712e+01	-8.436277e+01
1.300000e-07	-5.491089e-06	-1.271291e-09	-3.815400e+01	-8.428275e+01
1.400000e-07	-5.485960e-06	-1.324547e-09	-3.811836e+01	-8.419746e+01
1.500000e-07	-5.480485e-06	-1.292780e-09	-3.808032e+01	-8.410703e+01
1.600000e-07	-5.474666e-06	-1.296481e-09	-3.803989e+01	-8.401159e+01
1.700000e-07	-5.468495e-06	-1.340062e-09	-3.799701e+01	-8.391138e+01
1.800000e-07	-5.461891e-06	-1.340330e-09	-3.795112e+01	-8.380667e+01
1.900000e-07	-5.454815e-06	-1.315085e-09	-3.790195e+01	-8.369779e+01
2.000000e-07	-5.447408e-06	-1.265287e-09	-3.785049e+01	-8.358512e+01
2.100000e-07	-5.439656e-06	-1.288849e-09	-3.779663e+01	-8.346909e+01
2.200000e-07	-5.431625e-06	-1.298038e-09	-3.774082e+01	-8.335018e+01
2.300000e-07	-5.423448e-06	-1.325204e-09	-3.768401e+01	-8.322889e+01
2.400000e-07	-5.414918e-06	-1.302824e-09	-3.762474e+01	-8.310575e+01
2.500000e-07	-5.405703e-06	-1.298707e-09	-3.756071e+01	-8.298133e+01
2.600000e-07	-5.395628e-06	-1.268950e-09	-3.749071e+01	-8.285619e+01
2.700000e-07	-5.384909e-06	-1.271261e-09	-3.741622e+01	-8.273092e+01
2.800000e-07	-5.373761e-06	-1.256169e-09	-3.733876e+01	-8.260607e+01
2.900000e-07	-5.362238e-06	-1.277915e-09	-3.725869e+01	-8.248221e+01
3.000000e-07	-5.350460e-06	-1.281831e-09	-3.717686e+01	-8.235987e+01
3.100000e-07	-5.338346e-06	-1.280654e-09	-3.709269e+01	-8.223957e+01
3.200000e-07	-5.325701e-06	-1.257571e-09	-3.700483e+01	-8.212178e+01
3.300000e-07	-5.312623e-06	-1.260997e-09	-3.691395e+01	-8.200692e+01
3.400000e-07	-5.299234e-06	-1.264627e-09	-3.682092e+01	-8.189538e+01
3.500000e-07	-5.285437e-06	-1.242973e-09	-3.672506e+01	-8.178747e+01
3.600000e-07	-5.271080e-06	-1.250885e-09	-3.662530e+01	-8.168346e+01
3.700000e-07	-5.256275e-06	-1.286698e-09	-3.652243e+01	-8.158355e+01
3.800000e-07	-5.241125e-06	-1.281045e-09	-3.641716e+01	-8.148786e+01
3.900000e-07	-5.225334e-06	-1.245614e-09	-3.630744e+01	-8.139646e+01
4.000000e-07	-5.208957e-06	-1.271995e-09	-3.619365e+01	-8.130933e+01
4.100000e-07	-5.192380e-06	-1.266006e-09	-3.607846e+01	-8.122641e+01
4.200000e-07	-5.175442e-06	-1.219738e-09	-3.596078e+01	-8.114754e+01
4.300000e-07	-5.158132e-06	-1.232033e-09	-3.584050e+01	-8.107251e+01
4.400000e-07	-5.140651e-06	-1.298202e-09	-3.571903e+01	-8.100107e+01
4.500000e-07	-5.122811e-06	-1.260708e-09	-3.559508e+01	-8.093289e+01
4.600000e-07	-5.104378e-06	-1.238570e-09	-3.546699e+01	-8.086758e+01
4.700000e-07	-5.085445e-06	-1.269800e-09	-3.533545e+01	-8.080474e+01
4.800000e-07	-5.066262e-06	-1.257775e-09	-3.520215e+01	-8.074392e+01
4.900000e-07	-5.046828e-06	-1.197708e-09	-3.506712e+01	-8.068463e+01
5.000000e-07	-5.027206e-06	-1.236411e-09	-3.493078e+01	-8.062636e+01
5.100000e-07	-5.007442e-06	-1.244266e-09	-3.479345e+01	-8.056861e+01
5.200000e-07	-4.987408e-06	-1.195616e-09	-3.465425e+01	-8.051087e+01
5.300000e-07	-4.966952e-06	-1.215642e-09	-3.451211e+01	-8.045260e+01
5.400000e-07	-4.946165e-06	-1.275088e-09	-3.436768e+01	-8.039331e+01
5.500000e-07	-4.925018e-06	-1.222157e-09	-3.422074e+01	-8.033253e+01
5.600000e-07	-4.903365e-06	-1.195770e-09	-3.407029e+01	-8.026978e+01
5.700000e-07	-4.881375e-06	-1.235466e-09	-3.391749e+01	-8.020465e+01
5.800000e-07	-4.859164e-06	-1.221844e-09	-3.376316e+01	-8.013675e+01
5.900000e-07	-4.836510e-06	-1.183868e-09	-3.360576e+01	-8.006574e+01
6.000000e-07	-4.813468e-06	-1.220091e-09	-3.344565e+01	-7.999133e+01
6.100000e-07	-4.790217e-06	-1.220960e-09	-3.328409e+01	-7.991327e+01
6.200000e-07	-4.766737e-06	-1.177934e-09	-3.312095e+01	-7.983136e+01
6.300000e-07	-4.743081e-06	-1.192651e-09	-3.295658e+01	-7.974547e+01
6.400000e-07	-4.719226e-06	-1.215361e-09	-3.279083e+01	-7.965551e+01
6.500000e-07	-4.694999e-06	-1.190200e-09	-3.262249e+01	-7.956145e+01
6.600000e-07	-4.670272e-06	-1.190316e-09	-3.245067e+01	-7.946330e+01
6.700000e-07	-4.645085e-06	-1.213459e-09	-3.227567e+01	-7.936113e+01
6.800000e-07	-4.619409e-06	-1.190170e-09	-3.209726e+01	-7.925504e+01
6.900000e-07	-4.593158e-06	-1.176921e-09	-3.191486e+01	-7.914517e+01
7.000000e-07	-4.566287e-06	-1.192800e-09	-3.172815e+01	-7.903172e+01
7.100000e-07	-4.539011e-06	-1.189619e-09	-3.153863e+01	-7.891488e+01
7.200000e-07	-4.511587e-06	-1.172473e-09	-3.134808e+01	-7.879489e+01
7.300000e-07	-4.484001e-06	-1.189775e-09	-3.115640e+01	-7.867200e+01
7.400000e-07	-4.456200e-06	-1.193511e-09	-3.096323e+01	-7.854646e+01
7.500000e-07	-4.428134e-06	-1.180879e-09	-3.076822e+01	-7.841855e+01
7.600000e-07	-4.399778e-06	-1.176714e-09	-3.057119e+01	-7.828852e+01
7.700000e-07	-4.371165e-06	-1.182776e-09	-3.037238e+01	-7.815663e+01
7.800000e-07	-4.342268e-06	-1.166205e-09	-3.017159e+01	-7.802313e+01
7.900000e-07	-4.313022e-06	-1.164878e-09	-2.996838e+01	-7.788824e+01
8.000000e-07	-4.283511e-06	-1.171659e-09	-2.976333e+01	-7.775217e+01
8.100000e-07	-4.253748e-06	-1.168299e-09	-2.955652e+01	-7.761509e+01
8.200000e-07	-4.223654e-06	-1.157093e-09	-2.934742e+01	-7.747716e+01
8.300000e-07	-4.193270e-06	-1.164702e-09	-2.913630e+01	-7.733850e+01
8.400000e-07	-4.162570e-06	-1.163416e-09	-2.892299e+01	-7.719920e+01
8.500000e-07	-4.131519e-06	-1.160484e-09	-2.870723e+01	-7.705932e+01
8.600000e-07	-4.100184e-06	-1.169130e-09	-2.848951e+01	-7.691888e+01
8.700000e-07	-4.068697e-06	-1.175618e-09	-2.827073e+01	-7.677789e+01
8.800000e-07	-4.037146e-06	-1.162577e-09	-2.805150e+01	-7.663630e+01
8.900000e-07	-4.005468e-06	-1.159371e-09	-2.783139e+01	-7.649406e+01
9.000000e-07	-3.973570e-06	-1.161940e-09	-2.760975e+01	-7.635108e+01
9.100000e-07	-3.941382e-06	-1.152082e-09	-2.738609e+01	-7.620726e+01
9.200000e-07	-3.908834e-06	-1.144765e-09	-2.715994e+01	-7.606247e+01
9.300000e-07	-3.875850e-06	-1.150514e-09	-2.693076e+01	-7.591657e+01
9.400000e-07	-3.842335e-06	-1.149733e-09	-2.669788e+01	-7.576942e+01
9.500000e-07	-3.808297e-06	-1.144399e-09	-2.646137e+01	-7.562087e+01
9.600000e-07	-3.773781e-06	-1.149618e-09	-2.622154e+01	-7.547076e+01
9.700000e-07	-3.738861e-06	-1.145558e-09	-2.597891e+01	-7.531895e+01
9.800000e-07	-3.703668e-06	-1.132673e-09	-2.573438e+01	-7.516528e+01
9.900000e-07	-3.668265e-06	-1.128118e-09	-2.548838e+01	-7.500963e+01
1.000000e-06	-3.632686e-06	-1.129741e-09	-2.524117e+01	-7.485186e+01
1.010000e-06	-3.597017e-06	-1.119313e-09	-2.499332e+01	-7.469186e+01
1.020000e-06	-3.561230e-06	-1.115704e-09	-2.474467e+01	-7.452954e+01
1.030000e-06	-3.525308e-06	-1.118474e-09	-2.449507e+01	-7.436482e+01
1.040000e-06	-3.489174e-06	-1.116856e-09	-2.424400e+01	-7.419762e+01
1.050000e-06	-3.452697e-06	-1.111130e-09	-2.399054e+01	-7.402790e+01
1.060000e-06	-3.415958e-06	-1.114445e-09	-2.373527e+01	-7.385561e+01
1.070000e-06	-3.378955e-06	-1.109641e-09	-2.347816e+01	-7.368074e+01
1.080000e-06	-3.341680e-06	-1.100460e-09	-2.321915e+01	-7.350326e+01
1.090000e-06	-3.304256e-06	-1.094246e-09	-2.295912e+01	-7.332315e+01
1.100000e-06	-3.266620e-06	-1.090821e-09	-2.269762e+01	-7.314041e+01
1.110000e-06	-3.228715e-06	-1.079153e-09	-2.243424e+01	-7.295502e+01
1.120000e-06	-3.190545e-06	-1.070766e-09	-2.216902e+01	-7.276697e+01
1.130000e-06	-3.152184e-06	-1.066640e-09	-2.190247e+01	-7.257622e+01
1.140000e-06	-3.113610e-06	-1.062445e-09	-2.163445e+01	-7.238272e+01
1.150000e-06	-3.074763e-06	-1.061365e-09	-2.136453e+01	-7.218642e+01
1.160000e-06	-3.035763e-06	-1.067141e-09	-2.109354e+01	-7.198721e+01
1.170000e-06	-2.996591e-06	-1.066390e-09	-2.082136e+01	-7.178499e+01
1.180000e-06	-2.957279e-06	-1.060388e-09	-2.054820e+01	-7.157959e+01
1.190000e-06	-2.917844e-06	-1.055235e-09	-2.027420e+01	-7.137085e+01
1.200000e-06	-2.878253e-06	-1.048584e-09	-1.999910e+01	-7.115853e+01
1.210000e-06	-2.838551e-06	-1.037617e-09	-1.972324e+01	-7.094239e+01
1.220000e-06	-2.798686e-06	-1.031772e-09	-1.944625e+01	-7.072213e+01
1.230000e-06	-2.758626e-06	-1.031079e-09	-1.916790e+01	-7.049740e+01
1.240000e-06	-2.718407e-06	-1.025935e-09	-1.888844e+01	-7.026785e+01
1.250000e-06	-2.677957e-06	-1.018935e-09	-1.860738e+01	-7.003307e+01
1.260000e-06	-2.637238e-06	-1.013965e-09	-1.832445e+01	-6.979261e+01
1.270000e-06	-2.596201e-06	-1.010236e-09	-1.803931e+01	-6.954603e+01
1.280000e-06	-2.554857e-06	-1.000478e-09	-1.775204e+01	-6.929282e+01
1.290000e-06	-2.513323e-06	-9.918600e-10	-1.746344e+01	-6.903248e+01
1.300000e-06	-2.471515e-06	-9.815099e-10	-1.717295e+01	-6.876449e+01
1.310000e-06	-2.429354e-06	-9.712347e-10	-1.688000e+01	-6.848833e+01
1.320000e-06	-2.386870e-06	-9.638620e-10	-1.658480e+01	-6.820347e+01
1.330000e-06	-2.344080e-06	-9.611211e-10	-1.628749e+01	-6.790941e+01
1.340000e-06	-2.301048e-06	-9.566899e-10	-1.598848e+01	-6.760564e+01
1.350000e-06	-2.257829e-06	-9.535096e-10	-1.568818e+01	-6.729170e+01
1.360000e-06	-2.214426e-06	-9.524525e-10	-1.538660e+01	-6.696713e+01
1.370000e-06	-2.170872e-06	-9.516458e-10	-1.508398e+01	-6.663152e+01
1.380000e-06	-2.127272e-06	-9.468582e-10	-1.478103e+01	-6.628452e+01
1.390000e-06	-2.083647e-06	-9.392042e-10	-1.447790e+01	-6.592581e+01
1.400000e-06	-2.039943e-06	-9.261612e-10	-1.417423e+01	-6.555512e+01
1.410000e-06	-1.996193e-06	-9.127857e-10	-1.387025e+01	-6.517225e+01
1.420000e-06	-1.952337e-06	-9.043448e-10	-1.356552e+01	-6.477703e+01
1.430000e-06	-1.908311e-06	-8.999591e-10	-1.325961e+01	-6.436938e+01
1.440000e-06	-1.864188e-06	-8.977809e-10	-1.295303e+01	-6.394927e+01
1.450000e-06	-1.820010e-06	-8.953755e-10	-1.264606e+01	-6.351672e+01
1.460000e-06	-1.775722e-06	-8.897581e-10	-1.233833e+01	-6.307179e+01
1.470000e-06	-1.731317e-06	-8.816497e-10	-1.202979e+01	-6.261462e+01
1.480000e-06	-1.686772e-06	-8.712504e-10	-1.172028e+01	-6.214537e+01
1.490000e-06	-1.642104e-06	-8.604216e-10	-1.140991e+01	-6.166424e+01
1.500000e-06	-1.597320e-06	-8.503154e-10	-1.109873e+01	-6.117146e+01
1.510000e-06	-1.552375e-06	-8.402042e-10	-1.078644e+01	-6.066726e+01
1.520000e-06	-1.507245e-06	-8.322868e-10	-1.047286e+01	-6.015190e+01
1.530000e-06	-1.461993e-06	-8.258137e-10	-1.015844e+01	-5.962562e+01
1.540000e-06	-1.416722e-06	-8.207741e-10	-9.843880e+00	-5.908865e+01
1.550000e-06	-1.371380e-06	-8.154713e-10	-9.528827e+00	-5.854116e+01
1.560000e-06	-1.325914e-06	-8.060198e-10	-9.212914e+00	-5.798333e+01
1.570000e-06	-1.280336e-06	-7.914295e-10	-8.896222e+00	-5.741523e+01
1.580000e-06	-1.234691e-06	-7.766547e-10	-8.579065e+00	-5.683689e+01
1.590000e-06	-1.188968e-06	-7.644207e-10	-8.261361e+00	-5.624825e+01
1.600000e-06	-1.143203e-06	-7.520528e-10	-7.943372e+00	-5.564915e+01
1.610000e-06	-1.097352e-06	-7.394428e-10	-7.624786e+00	-5.503936e+01
1.620000e-06	-1.051377e-06	-7.287619e-10	-7.305335e+00	-5.441849e+01
1.630000e-06	-1.005251e-06	-7.188328e-10	-6.984831e+00	-5.378607e+01
1.640000e-06	-9.590218e-07	-7.118431e-10	-6.663618e+00	-5.314149e+01
1.650000e-06	-9.127735e-07	-7.041959e-10	-6.342268e+00	-5.248401e+01
1.660000e-06	-8.664845e-07	-6.955308e-10	-6.020636e+00	-5.181275e+01
1.670000e-06	-8.201939e-07	-6.835324e-10	-5.698993e+00	-5.112673e+01
1.680000e-06	-7.738774e-07	-6.719470e-10	-5.377170e+00	-5.042481e+01
1.690000e-06	-7.274558e-07	-6.608728e-10	-5.054616e+00	-4.970575e+01
1.700000e-06	-6.809074e-07	-6.495826e-10	-4.731182e+00	-4.896818e+01
1.710000e-06	-6.343290e-07	-6.345237e-10	-4.407539e+00	-4.821062e+01
1.720000e-06	-5.877547e-07	-6.162497e-10	-4.083924e+00	-4.743152e+01
1.730000e-06	-5.410946e-07	-5.992422e-10	-3.759714e+00	-4.662921e+01
1.740000e-06	-4.943861e-07	-5.857440e-10	-3.435167e+00	-4.580198e+01
1.750000e-06	-4.477167e-07	-5.744162e-10	-3.110891e+00	-4.494807e+01
1.760000e-06	-4.010338e-07	-5.624461e-10	-2.786523e+00	-4.406567e+01
1.770000e-06	-3.542425e-07	-5.472420e-10	-2.461400e+00	-4.315300e+01
1.780000e-06	-3.074471e-07	-5.287357e-10	-2.136249e+00	-4.220824e+01
1.790000e-06	-2.606548e-07	-5.124630e-10	-1.811121e+00	-4.122963e+01
1.800000e-06	-2.138228e-07	-4.983152e-10	-1.485715e+00	-4.021549e+01
1.810000e-06	-1.670006e-07	-4.824245e-10	-1.160378e+00	-3.916416e+01
1.820000e-06	-1.201024e-07	-4.652519e-10	-8.345130e-01	-3.807414e+01
1.830000e-06	-7.323947e-08	-4.503907e-10	-5.088934e-01	-3.694402e+01
1.840000e-06	-2.640949e-08	-4.366017e-10	-1.835023e-01	-3.577255e+01
1.850000e-06	2.050447e-08	-4.212901e-10	1.424722e-01	-3.455864e+01
1.860000e-06	6.733545e-08	-4.045860e-10	4.678702e-01	-3.330137e+01
1.870000e-06	1.140512e-07	-3.872078e-10	7.924677e-01	-3.200006e+01
1.880000e-06	1.607247e-07	-3.673525e-10	1.116771e+00	-3.065422e+01
1.890000e-06	2.074781e-07	-3.459010e-10	1.441630e+00	-2.926359e+01
1.900000e-06	2.543207e-07	-3.224869e-10	1.767109e+00	-2.782816e+01
1.910000e-06	3.011352e-07	-2.999041e-10	2.092392e+00	-2.634818e+01
1.920000e-06	3.479242e-07	-2.776417e-10	2.417499e+00	-2.482413e+01
1.930000e-06	3.946464e-07	-2.552175e-10	2.742141e+00	-2.325679e+01
1.940000e-06	4.412904e-07	-2.344100e-10	3.066239e+00	-2.164716e+01
1.950000e-06	4.878813e-07	-2.164293e-10	3.389969e+00	-1.999651e+01
1.960000e-06	5.344864e-07	-1.972089e-10	3.713798e+00	-1.830638e+01
1.970000e-06	5.811071e-07	-1.758780e-10	4.037735e+00	-1.657852e+01
1.980000e-06	6.276238e-07	-1.522286e-10	4.360949e+00	-1.481495e+01
1.990000e-06	6.740434e-07	-1.259536e-10	4.683488e+00	-1.301788e+01
2.000000e-06	7.203914e-07	-9.793574e-11	5.005531e+00	-1.118974e+01
2.010000e-06	7.666748e-07	-7.113473e-11	5.327123e+00	-9.333144e+00
2.020000e-06	8.128912e-07	-4.578548e-11	5.648251e+00	-7.450867e+00
2.030000e-06	8.590872e-07	-1.960302e-11	5.969237e+00	-5.545838e+00
2.040000e-06	9.052391e-07	6.266016e-12	6.289917e+00	-3.621108e+00
2.050000e-06	9.513019e-07	3.121145e-11	6.609977e+00	-1.679825e+00
2.060000e-06	9.973697e-07	5.574423e-11	6.930072e+00	2.747813e-01
2.070000e-06	1.043371e-06	8.043472e-11	7.249707e+00	2.239434e+00
2.080000e-06	1.089295e-06	1.070276e-10	7.568800e+00	4.210825e+00
2.090000e-06	1.135156e-06	1.348733e-10	7.887460e+00	6.185645e+00
2.100000e-06	1.180968e-06	1.634249e-10	8.205774e+00	8.160607e+00
2.110000e-06	1.226719e-06	1.930109e-10	8.523670e+00	1.013246e+01
2.120000e-06	1.272320e-06	2.207285e-10	8.840525e+00	1.209804e+01
2.130000e-06	1.317825e-06	2.475102e-10	9.156710e+00	1.405424e+01
2.140000e-06	1.363258e-06	2.727075e-10	9.472388e+00	1.599807e+01
2.150000e-06	1.408566e-06	2.939183e-10	9.787206e+00	1.792669e+01
2.160000e-06	1.453767e-06	3.132480e-10	1.010128e+01	1.983735e+01
2.170000e-06	1.498852e-06	3.342906e-10	1.041455e+01	2.172749e+01
2.180000e-06	1.543781e-06	3.588028e-10	1.072673e+01	2.359470e+01
2.190000e-06	1.588631e-06	3.867139e-10	1.103836e+01	2.543676e+01
2.200000e-06	1.633351e-06	4.160636e-10	1.134909e+01	2.725160e+01
2.210000e-06	1.677916e-06	4.445919e-10	1.165875e+01	2.903736e+01
2.220000e-06	1.722409e-06	4.697454e-10	1.196790e+01	3.079237e+01
2.230000e-06	1.766746e-06	4.912714e-10	1.227596e+01	3.251514e+01
2.240000e-06	1.810950e-06	5.098244e-10	1.258311e+01	3.420438e+01
2.250000e-06	1.855059e-06	5.261365e-10	1.288960e+01	3.585897e+01
2.260000e-06	1.899082e-06	5.427654e-10	1.319548e+01	3.747800e+01
2.270000e-06	1.943013e-06	5.627547e-10	1.350073e+01	3.906071e+01
2.280000e-06	1.986845e-06	5.846526e-10	1.380529e+01	4.060652e+01
2.290000e-06	2.030603e-06	6.071467e-10	1.410934e+01	4.211502e+01
2.300000e-06	2.074268e-06	6.286933e-10	1.441274e+01	4.358594e+01
2.310000e-06	2.117893e-06	6.488064e-10	1.471586e+01	4.501915e+01
2.320000e-06	2.161487e-06	6.674154e-10	1.501876e+01	4.641467e+01
2.330000e-06	2.204985e-06	6.848544e-10	1.532100e+01	4.777261e+01
2.340000e-06	2.248344e-06	7.017025e-10	1.562228e+01	4.909321e+01
2.350000e-06	2.291566e-06	7.174767e-10	1.592260e+01	5.037681e+01
2.360000e-06	2.334664e-06	7.332567e-10	1.622206e+01	5.162382e+01
2.370000e-06	2.377566e-06	7.494133e-10	1.652016e+01	5.283474e+01
2.380000e-06	2.420114e-06	7.664816e-10	1.681580e+01	5.401012e+01
2.390000e-06	2.462230e-06	7.838131e-10	1.710843e+01	5.515057e+01
2.400000e-06	2.504056e-06	8.007264e-10	1.739905e+01	5.625676e+01
2.410000e-06	2.545575e-06	8.174183e-10	1.768754e+01	5.732938e+01
2.420000e-06	2.586789e-06	8.328836e-10	1.797391e+01	5.836915e+01
2.430000e-06	2.627703e-06	8.478348e-10	1.825819e+01	5.937683e+01
2.440000e-06	2.668345e-06	8.637227e-10	1.854059e+01	6.035316e+01
2.450000e-06	2.708843e-06	8.797511e-10	1.882198e+01	6.129893e+01
2.460000e-06	2.749184e-06	8.947095e-10	1.910229e+01	6.221491e+01
2.470000e-06	2.789298e-06	9.077468e-10	1.938102e+01	6.310189e+01
2.480000e-06	2.829151e-06	9.190875e-10	1.965792e+01	6.396063e+01
2.490000e-06	2.868825e-06	9.301944e-10	1.993359e+01	6.479192e+01
2.500000e-06	2.908377e-06	9.411283e-10	2.020842e+01	6.559651e+01
2.510000e-06	2.947848e-06	9.527102e-10	2.048268e+01	6.637518e+01
2.520000e-06	2.987176e-06	9.661293e-10	2.075594e+01	6.712866e+01
2.530000e-06	3.026312e-06	9.793423e-10	2.102787e+01	6.785770e+01
2.540000e-06	3.065290e-06	9.922185e-10	2.129871e+01	6.856302e+01
2.550000e-06	3.104074e-06	1.003607e-09	2.156819e+01	6.924535e+01
2.560000e-06	3.142592e-06	1.010273e-09	2.183582e+01	6.990537e+01
2.570000e-06	3.180931e-06	1.013957e-09	2.210222e+01	7.054379e+01
2.580000e-06	3.219052e-06	1.016810e-09	2.236710e+01	7.116128e+01
2.590000e-06	3.256909e-06	1.022925e-09	2.263014e+01	7.175851e+01
2.600000e-06	3.294601e-06	1.032962e-09	2.289204e+01	7.233612e+01
2.610000e-06	3.332064e-06	1.045976e-09	2.315234e+01	7.289474e+01
2.620000e-06	3.369319e-06	1.059665e-09	2.341121e+01	7.343500e+01
2.630000e-06	3.406316e-06	1.070391e-09	2.366827e+01	7.395748e+01
2.640000e-06	3.442988e-06	1.076660e-09	2.392308e+01	7.446278e+01
2.650000e-06	3.479426e-06	1.081606e-09	2.417627e+01	7.495144e+01
2.660000e-06	3.515604e-06	1.086937e-09	2.442764e+01	7.542401e+01
2.670000e-06	3.551562e-06	1.089545e-09	2.467749e+01	7.588099e+01
2.680000e-06	3.587383e-06	1.090831e-09	2.492639e+01	7.632288e+01
2.690000e-06	3.623090e-06	1.096489e-09	2.517449e+01	7.675013e+01
2.700000e-06	3.658696e-06	1.106457e-09	2.542190e+01	7.716318e+01
2.710000e-06	3.694139e-06	1.115177e-09	2.566816e+01	7.756242e+01
2.720000e-06	3.729338e-06	1.122249e-09	2.591274e+01	7.794823e+01
2.730000e-06	3.764207e-06	1.127213e-09	2.615502e+01	7.832095e+01
2.740000e-06	3.798771e-06	1.128918e-09	2.639518e+01	7.868089e+01
2.750000e-06	3.832911e-06	1.127319e-09	2.663240e+01	7.902833e+01
2.760000e-06	3.866466e-06	1.125811e-09	2.686556e+01	7.936350e+01
2.770000e-06	3.899513e-06	1.128520e-09	2.709517e+01	7.968664e+01
2.780000e-06	3.932121e-06	1.135048e-09	2.732175e+01	7.999791e+01
2.790000e-06	3.964397e-06	1.143180e-09	2.754601e+01	8.029749e+01
2.800000e-06	3.996415e-06	1.151672e-09	2.776848e+01	8.058551e+01
2.810000e-06	4.028241e-06	1.157483e-09	2.798962e+01	8.086208e+01
2.820000e-06	4.059900e-06	1.159979e-09	2.820960e+01	8.112729e+01
2.830000e-06	4.091361e-06	1.160747e-09	2.842820e+01	8.138123e+01
2.840000e-06	4.122656e-06	1.160676e-09	2.864565e+01	8.162396e+01
2.850000e-06	4.153760e-06	1.159783e-09	2.886177e+01	8.185553e+01
2.860000e-06	4.184534e-06	1.161760e-09	2.907560e+01	8.207602e+01
2.870000e-06	4.214991e-06	1.168092e-09	2.928723e+01	8.228548e+01
2.880000e-06	4.245133e-06	1.175048e-09	2.949667e+01	8.248398e+01
2.890000e-06	4.274970e-06	1.178673e-09	2.970398e+01	8.267159e+01
2.900000e-06	4.304577e-06	1.180492e-09	2.990970e+01	8.284841e+01
