# Temperatura_=_-10.7
# Concentracion g/m^3_=_1620.0
# C_Vs_to_Am_M_A/Vsm_=_65563218390.804596
# pendiente_HvsI_1/m_=_3716.3
# ordenada_HvsI_A/m_=_1297.0
# frecuencia_Hz_=_135107.63048449144

Tiempo_(s)	Campo_(V.s)	Magnetizacion_(V.s)	Campo_(kA/m)	Magnetizacion_(A/m)
0.000000e+00	-5.518319e-06	-1.397366e-09	-3.837690e+01	-8.830495e+01
1.000000e-08	-5.518305e-06	-1.394166e-09	-3.837681e+01	-8.829272e+01
2.000000e-08	-5.517959e-06	-1.393263e-09	-3.837440e+01	-8.828103e+01
3.000000e-08	-5.517229e-06	-1.396215e-09	-3.836932e+01	-8.826920e+01
4.000000e-08	-5.516092e-06	-1.403365e-09	-3.836142e+01	-8.825651e+01
5.000000e-08	-5.514494e-06	-1.415401e-09	-3.835030e+01	-8.824221e+01
6.000000e-08	-5.512322e-06	-1.415745e-09	-3.833520e+01	-8.822556e+01
7.000000e-08	-5.509558e-06	-1.376424e-09	-3.831598e+01	-8.820577e+01
8.000000e-08	-5.506232e-06	-1.326038e-09	-3.829285e+01	-8.818210e+01
9.000000e-08	-5.502433e-06	-1.340298e-09	-3.826643e+01	-8.815381e+01
1.000000e-07	-5.498291e-06	-1.418021e-09	-3.823762e+01	-8.812020e+01
1.100000e-07	-5.493823e-06	-1.446304e-09	-3.820654e+01	-8.808062e+01
1.200000e-07	-5.489080e-06	-1.374380e-09	-3.817356e+01	-8.803448e+01
1.300000e-07	-5.484126e-06	-1.334496e-09	-3.813911e+01	-8.798124e+01
1.400000e-07	-5.478787e-06	-1.382750e-09	-3.810198e+01	-8.792048e+01
1.500000e-07	-5.472970e-06	-1.417547e-09	-3.806152e+01	-8.785182e+01
1.600000e-07	-5.466820e-06	-1.366229e-09	-3.801876e+01	-8.777503e+01
1.700000e-07	-5.460286e-06	-1.301731e-09	-3.797332e+01	-8.768993e+01
1.800000e-07	-5.453242e-06	-1.349715e-09	-3.792433e+01	-8.759648e+01
1.900000e-07	-5.445847e-06	-1.405607e-09	-3.787290e+01	-8.749472e+01
2.000000e-07	-5.438251e-06	-1.390454e-09	-3.782007e+01	-8.738483e+01
2.100000e-07	-5.430416e-06	-1.327659e-09	-3.776558e+01	-8.726705e+01
2.200000e-07	-5.422320e-06	-1.337352e-09	-3.770928e+01	-8.714176e+01
2.300000e-07	-5.413816e-06	-1.368151e-09	-3.765014e+01	-8.700942e+01
2.400000e-07	-5.404826e-06	-1.356843e-09	-3.758762e+01	-8.687056e+01
2.500000e-07	-5.395373e-06	-1.321908e-09	-3.752188e+01	-8.672582e+01
2.600000e-07	-5.385277e-06	-1.323884e-09	-3.745167e+01	-8.657588e+01
2.700000e-07	-5.374519e-06	-1.331525e-09	-3.737685e+01	-8.642150e+01
2.800000e-07	-5.363213e-06	-1.313497e-09	-3.729822e+01	-8.626345e+01
2.900000e-07	-5.351432e-06	-1.306345e-09	-3.721630e+01	-8.610255e+01
3.000000e-07	-5.339275e-06	-1.319106e-09	-3.713175e+01	-8.593965e+01
3.100000e-07	-5.326776e-06	-1.323689e-09	-3.704483e+01	-8.577556e+01
3.200000e-07	-5.313886e-06	-1.296644e-09	-3.695518e+01	-8.561111e+01
3.300000e-07	-5.300571e-06	-1.285250e-09	-3.686258e+01	-8.544709e+01
3.400000e-07	-5.286856e-06	-1.284856e-09	-3.676720e+01	-8.528426e+01
3.500000e-07	-5.272713e-06	-1.291508e-09	-3.666885e+01	-8.512330e+01
3.600000e-07	-5.258105e-06	-1.289341e-09	-3.656726e+01	-8.496484e+01
3.700000e-07	-5.242999e-06	-1.304879e-09	-3.646221e+01	-8.480945e+01
3.800000e-07	-5.227349e-06	-1.310363e-09	-3.635336e+01	-8.465760e+01
3.900000e-07	-5.211209e-06	-1.295992e-09	-3.624112e+01	-8.450967e+01
4.000000e-07	-5.194599e-06	-1.273724e-09	-3.612561e+01	-8.436595e+01
4.100000e-07	-5.177644e-06	-1.287573e-09	-3.600769e+01	-8.422662e+01
4.200000e-07	-5.160378e-06	-1.296087e-09	-3.588762e+01	-8.409178e+01
4.300000e-07	-5.142731e-06	-1.281161e-09	-3.576489e+01	-8.396141e+01
4.400000e-07	-5.124710e-06	-1.274602e-09	-3.563957e+01	-8.383541e+01
4.500000e-07	-5.106416e-06	-1.303344e-09	-3.551235e+01	-8.371358e+01
4.600000e-07	-5.087823e-06	-1.303325e-09	-3.538304e+01	-8.359564e+01
4.700000e-07	-5.068871e-06	-1.275059e-09	-3.525124e+01	-8.348122e+01
4.800000e-07	-5.049588e-06	-1.271008e-09	-3.511714e+01	-8.336990e+01
4.900000e-07	-5.029957e-06	-1.282417e-09	-3.498061e+01	-8.326119e+01
5.000000e-07	-5.010099e-06	-1.263760e-09	-3.484251e+01	-8.315455e+01
5.100000e-07	-4.990034e-06	-1.258457e-09	-3.470297e+01	-8.304941e+01
5.200000e-07	-4.969663e-06	-1.276899e-09	-3.456130e+01	-8.294519e+01
5.300000e-07	-4.948879e-06	-1.271277e-09	-3.441676e+01	-8.284128e+01
5.400000e-07	-4.927728e-06	-1.255955e-09	-3.426967e+01	-8.273708e+01
5.500000e-07	-4.906247e-06	-1.272010e-09	-3.412028e+01	-8.263202e+01
5.600000e-07	-4.884360e-06	-1.275121e-09	-3.396807e+01	-8.252552e+01
5.700000e-07	-4.862213e-06	-1.250517e-09	-3.381404e+01	-8.241708e+01
5.800000e-07	-4.839798e-06	-1.253297e-09	-3.365816e+01	-8.230622e+01
5.900000e-07	-4.817059e-06	-1.265794e-09	-3.350002e+01	-8.219251e+01
6.000000e-07	-4.793986e-06	-1.248563e-09	-3.333956e+01	-8.207561e+01
6.100000e-07	-4.770561e-06	-1.234501e-09	-3.317666e+01	-8.195521e+01
6.200000e-07	-4.746893e-06	-1.246507e-09	-3.301206e+01	-8.183109e+01
6.300000e-07	-4.722945e-06	-1.239977e-09	-3.284551e+01	-8.170311e+01
6.400000e-07	-4.698691e-06	-1.227465e-09	-3.267684e+01	-8.157116e+01
6.500000e-07	-4.674095e-06	-1.235196e-09	-3.250578e+01	-8.143525e+01
6.600000e-07	-4.649072e-06	-1.238571e-09	-3.233177e+01	-8.129542e+01
6.700000e-07	-4.623644e-06	-1.222923e-09	-3.215493e+01	-8.115178e+01
6.800000e-07	-4.597652e-06	-1.223301e-09	-3.197417e+01	-8.100449e+01
6.900000e-07	-4.571129e-06	-1.225020e-09	-3.178972e+01	-8.085378e+01
7.000000e-07	-4.544232e-06	-1.214693e-09	-3.160266e+01	-8.069987e+01
7.100000e-07	-4.516981e-06	-1.209893e-09	-3.141315e+01	-8.054306e+01
7.200000e-07	-4.489417e-06	-1.219307e-09	-3.122145e+01	-8.038364e+01
7.300000e-07	-4.461518e-06	-1.215483e-09	-3.102743e+01	-8.022191e+01
7.400000e-07	-4.433400e-06	-1.208257e-09	-3.083188e+01	-8.005817e+01
7.500000e-07	-4.405115e-06	-1.206810e-09	-3.063518e+01	-7.989272e+01
7.600000e-07	-4.376637e-06	-1.204909e-09	-3.043712e+01	-7.972584e+01
7.700000e-07	-4.347849e-06	-1.196158e-09	-3.023692e+01	-7.955776e+01
7.800000e-07	-4.318683e-06	-1.193167e-09	-3.003409e+01	-7.938870e+01
7.900000e-07	-4.289135e-06	-1.191722e-09	-2.982860e+01	-7.921883e+01
8.000000e-07	-4.259295e-06	-1.187387e-09	-2.962108e+01	-7.904826e+01
8.100000e-07	-4.229251e-06	-1.181344e-09	-2.941214e+01	-7.887706e+01
8.200000e-07	-4.199011e-06	-1.177796e-09	-2.920183e+01	-7.870527e+01
8.300000e-07	-4.168517e-06	-1.174608e-09	-2.898977e+01	-7.853283e+01
8.400000e-07	-4.137672e-06	-1.175237e-09	-2.877526e+01	-7.835968e+01
8.500000e-07	-4.106524e-06	-1.179362e-09	-2.855864e+01	-7.818567e+01
8.600000e-07	-4.075147e-06	-1.179569e-09	-2.834043e+01	-7.801063e+01
8.700000e-07	-4.043556e-06	-1.175284e-09	-2.812073e+01	-7.783433e+01
8.800000e-07	-4.011747e-06	-1.169429e-09	-2.789952e+01	-7.765654e+01
8.900000e-07	-3.979744e-06	-1.162006e-09	-2.767695e+01	-7.747698e+01
9.000000e-07	-3.947515e-06	-1.154077e-09	-2.745282e+01	-7.729535e+01
9.100000e-07	-3.914938e-06	-1.152295e-09	-2.722626e+01	-7.711137e+01
9.200000e-07	-3.881946e-06	-1.150747e-09	-2.699682e+01	-7.692473e+01
9.300000e-07	-3.848570e-06	-1.150883e-09	-2.676471e+01	-7.673516e+01
9.400000e-07	-3.814810e-06	-1.150835e-09	-2.652993e+01	-7.654238e+01
9.500000e-07	-3.780602e-06	-1.148870e-09	-2.629203e+01	-7.634617e+01
9.600000e-07	-3.746037e-06	-1.140153e-09	-2.605165e+01	-7.614633e+01
9.700000e-07	-3.711226e-06	-1.129483e-09	-2.580956e+01	-7.594271e+01
9.800000e-07	-3.676095e-06	-1.121664e-09	-2.556524e+01	-7.573521e+01
9.900000e-07	-3.640621e-06	-1.119586e-09	-2.531854e+01	-7.552377e+01
1.000000e-06	-3.604894e-06	-1.115920e-09	-2.507007e+01	-7.530841e+01
1.010000e-06	-3.568973e-06	-1.114275e-09	-2.482026e+01	-7.508920e+01
1.020000e-06	-3.532904e-06	-1.111410e-09	-2.456942e+01	-7.486626e+01
1.030000e-06	-3.496676e-06	-1.107937e-09	-2.431748e+01	-7.463979e+01
1.040000e-06	-3.460291e-06	-1.104461e-09	-2.406444e+01	-7.441001e+01
1.050000e-06	-3.423728e-06	-1.101690e-09	-2.381016e+01	-7.417720e+01
1.060000e-06	-3.386934e-06	-1.095666e-09	-2.355428e+01	-7.394170e+01
1.070000e-06	-3.349801e-06	-1.088586e-09	-2.329604e+01	-7.370386e+01
1.080000e-06	-3.312280e-06	-1.083303e-09	-2.303511e+01	-7.346406e+01
1.090000e-06	-3.274576e-06	-1.078708e-09	-2.277289e+01	-7.322268e+01
1.100000e-06	-3.236770e-06	-1.072826e-09	-2.250997e+01	-7.298012e+01
1.110000e-06	-3.198748e-06	-1.066726e-09	-2.224555e+01	-7.273675e+01
1.120000e-06	-3.160470e-06	-1.060185e-09	-2.197935e+01	-7.249292e+01
1.130000e-06	-3.121959e-06	-1.053953e-09	-2.171153e+01	-7.224896e+01
1.140000e-06	-3.083229e-06	-1.052194e-09	-2.144218e+01	-7.200512e+01
1.150000e-06	-3.044298e-06	-1.053782e-09	-2.117143e+01	-7.176162e+01
1.160000e-06	-3.005159e-06	-1.052435e-09	-2.089924e+01	-7.151860e+01
1.170000e-06	-2.965870e-06	-1.047547e-09	-2.062601e+01	-7.127611e+01
1.180000e-06	-2.926439e-06	-1.042830e-09	-2.035179e+01	-7.103413e+01
1.190000e-06	-2.886796e-06	-1.036206e-09	-2.007610e+01	-7.079254e+01
1.200000e-06	-2.846956e-06	-1.027125e-09	-1.979903e+01	-7.055112e+01
1.210000e-06	-2.806988e-06	-1.017959e-09	-1.952107e+01	-7.030956e+01
1.220000e-06	-2.766939e-06	-1.012626e-09	-1.924256e+01	-7.006745e+01
1.230000e-06	-2.726734e-06	-1.008009e-09	-1.896295e+01	-6.982428e+01
1.240000e-06	-2.686295e-06	-1.004486e-09	-1.868172e+01	-6.957945e+01
1.250000e-06	-2.645639e-06	-1.001798e-09	-1.839898e+01	-6.933228e+01
1.260000e-06	-2.604796e-06	-9.986383e-10	-1.811494e+01	-6.908200e+01
1.270000e-06	-2.563698e-06	-9.920719e-10	-1.782912e+01	-6.882780e+01
1.280000e-06	-2.522202e-06	-9.854753e-10	-1.754054e+01	-6.856879e+01
1.290000e-06	-2.480387e-06	-9.792102e-10	-1.724974e+01	-6.830405e+01
1.300000e-06	-2.438432e-06	-9.714985e-10	-1.695797e+01	-6.803263e+01
1.310000e-06	-2.396314e-06	-9.634895e-10	-1.666506e+01	-6.775357e+01
1.320000e-06	-2.353882e-06	-9.562364e-10	-1.636997e+01	-6.746593e+01
1.330000e-06	-2.311092e-06	-9.503826e-10	-1.607239e+01	-6.716876e+01
1.340000e-06	-2.268072e-06	-9.486463e-10	-1.577320e+01	-6.686118e+01
1.350000e-06	-2.224853e-06	-9.479811e-10	-1.547264e+01	-6.654234e+01
1.360000e-06	-2.181367e-06	-9.443363e-10	-1.517022e+01	-6.621146e+01
1.370000e-06	-2.137757e-06	-9.363519e-10	-1.486693e+01	-6.586785e+01
1.380000e-06	-2.094146e-06	-9.268397e-10	-1.456364e+01	-6.551091e+01
1.390000e-06	-2.050420e-06	-9.156841e-10	-1.425956e+01	-6.514012e+01
1.400000e-06	-2.006531e-06	-9.047913e-10	-1.395433e+01	-6.475509e+01
1.410000e-06	-1.962538e-06	-8.955127e-10	-1.364838e+01	-6.435555e+01
1.420000e-06	-1.918506e-06	-8.880251e-10	-1.334217e+01	-6.394131e+01
1.430000e-06	-1.874436e-06	-8.826802e-10	-1.303568e+01	-6.351233e+01
1.440000e-06	-1.830271e-06	-8.776591e-10	-1.272854e+01	-6.306868e+01
1.450000e-06	-1.785998e-06	-8.725691e-10	-1.242064e+01	-6.261051e+01
1.460000e-06	-1.741583e-06	-8.664073e-10	-1.211176e+01	-6.213811e+01
1.470000e-06	-1.696956e-06	-8.581408e-10	-1.180141e+01	-6.165182e+01
1.480000e-06	-1.652184e-06	-8.494767e-10	-1.149004e+01	-6.115209e+01
1.490000e-06	-1.607340e-06	-8.400913e-10	-1.117818e+01	-6.063941e+01
1.500000e-06	-1.562342e-06	-8.281386e-10	-1.086524e+01	-6.011431e+01
1.510000e-06	-1.517259e-06	-8.169181e-10	-1.055171e+01	-5.957737e+01
1.520000e-06	-1.472134e-06	-8.092883e-10	-1.023789e+01	-5.902916e+01
1.530000e-06	-1.426895e-06	-8.034287e-10	-9.923276e+00	-5.847024e+01
1.540000e-06	-1.381556e-06	-7.970342e-10	-9.607969e+00	-5.790112e+01
1.550000e-06	-1.336194e-06	-7.879616e-10	-9.292501e+00	-5.732228e+01
1.560000e-06	-1.290750e-06	-7.738687e-10	-8.976462e+00	-5.673410e+01
1.570000e-06	-1.245168e-06	-7.592603e-10	-8.659467e+00	-5.613689e+01
1.580000e-06	-1.199491e-06	-7.473041e-10	-8.341810e+00	-5.553082e+01
1.590000e-06	-1.153755e-06	-7.364889e-10	-8.023741e+00	-5.491593e+01
1.600000e-06	-1.107918e-06	-7.246518e-10	-7.704968e+00	-5.429214e+01
1.610000e-06	-1.061914e-06	-7.129764e-10	-7.385036e+00	-5.365919e+01
1.620000e-06	-1.015859e-06	-7.022241e-10	-7.064746e+00	-5.301666e+01
1.630000e-06	-9.697922e-07	-6.935709e-10	-6.744377e+00	-5.236394e+01
1.640000e-06	-9.236222e-07	-6.855775e-10	-6.423289e+00	-5.170027e+01
1.650000e-06	-8.773463e-07	-6.769366e-10	-6.101466e+00	-5.102469e+01
1.660000e-06	-8.310647e-07	-6.681946e-10	-5.779602e+00	-5.033607e+01
1.670000e-06	-7.847646e-07	-6.588006e-10	-5.457611e+00	-4.963313e+01
1.680000e-06	-7.383911e-07	-6.475876e-10	-5.135108e+00	-4.891438e+01
1.690000e-06	-6.919402e-07	-6.364803e-10	-4.812068e+00	-4.817825e+01
1.700000e-06	-6.454436e-07	-6.225896e-10	-4.488709e+00	-4.742298e+01
1.710000e-06	-5.989170e-07	-6.044318e-10	-4.165142e+00	-4.664672e+01
1.720000e-06	-5.523539e-07	-5.868791e-10	-3.841321e+00	-4.584754e+01
1.730000e-06	-5.057839e-07	-5.734334e-10	-3.517452e+00	-4.502342e+01
1.740000e-06	-4.591750e-07	-5.639703e-10	-3.193312e+00	-4.417230e+01
1.750000e-06	-4.125223e-07	-5.546727e-10	-2.868868e+00	-4.329211e+01
1.760000e-06	-3.658166e-07	-5.420066e-10	-2.544055e+00	-4.238078e+01
1.770000e-06	-3.190154e-07	-5.262574e-10	-2.218578e+00	-4.143628e+01
1.780000e-06	-2.722042e-07	-5.102803e-10	-1.893032e+00	-4.045664e+01
1.790000e-06	-2.254203e-07	-4.947577e-10	-1.567676e+00	-3.943998e+01
1.800000e-06	-1.785353e-07	-4.782375e-10	-1.241616e+00	-3.838456e+01
1.810000e-06	-1.315879e-07	-4.616833e-10	-9.151219e-01	-3.728875e+01
1.820000e-06	-8.471763e-08	-4.458928e-10	-5.891650e-01	-3.615112e+01
1.830000e-06	-3.787654e-08	-4.302437e-10	-2.634107e-01	-3.497042e+01
1.840000e-06	8.831656e-09	-4.141443e-10	6.141936e-02	-3.374559e+01
1.850000e-06	5.545879e-08	-3.971731e-10	3.856857e-01	-3.247584e+01
1.860000e-06	1.022108e-07	-3.801984e-10	7.108207e-01	-3.116059e+01
1.870000e-06	1.490383e-07	-3.612225e-10	1.036480e+00	-2.979953e+01
1.880000e-06	1.958728e-07	-3.406102e-10	1.362189e+00	-2.839261e+01
1.890000e-06	2.426930e-07	-3.184961e-10	1.687798e+00	-2.694004e+01
1.900000e-06	2.894581e-07	-2.958147e-10	2.013023e+00	-2.544232e+01
1.910000e-06	3.361330e-07	-2.741394e-10	2.337622e+00	-2.390020e+01
1.920000e-06	3.828040e-07	-2.531172e-10	2.662193e+00	-2.231472e+01
1.930000e-06	4.295425e-07	-2.323878e-10	2.987234e+00	-2.068716e+01
1.940000e-06	4.761676e-07	-2.117054e-10	3.311486e+00	-1.901905e+01
1.950000e-06	5.226724e-07	-1.898039e-10	3.634902e+00	-1.731217e+01
1.960000e-06	5.691817e-07	-1.657704e-10	3.958349e+00	-1.556851e+01
1.970000e-06	6.156576e-07	-1.403205e-10	4.281564e+00	-1.379027e+01
1.980000e-06	6.620565e-07	-1.151106e-10	4.604243e+00	-1.197982e+01
1.990000e-06	7.083723e-07	-8.931548e-11	4.926344e+00	-1.013972e+01
2.000000e-06	7.547031e-07	-6.201677e-11	5.248549e+00	-8.272666e+00
2.010000e-06	8.010618e-07	-3.352982e-11	5.570949e+00	-6.381461e+00
2.020000e-06	8.473587e-07	-6.366018e-12	5.892918e+00	-4.469019e+00
2.030000e-06	8.935448e-07	2.030614e-11	6.214118e+00	-2.538326e+00
2.040000e-06	9.395812e-07	4.699460e-11	6.534275e+00	-5.924209e-01
2.050000e-06	9.855555e-07	7.245951e-11	6.854002e+00	1.365629e+00
2.060000e-06	1.031552e-06	9.749132e-11	7.173882e+00	3.332748e+00
2.070000e-06	1.077502e-06	1.219094e-10	7.493437e+00	5.305875e+00
2.080000e-06	1.123338e-06	1.470932e-10	7.812207e+00	7.281978e+00
2.090000e-06	1.169057e-06	1.742698e-10	8.130157e+00	9.258080e+00
2.100000e-06	1.214700e-06	2.047565e-10	8.447577e+00	1.123127e+01
2.110000e-06	1.260280e-06	2.359522e-10	8.764563e+00	1.319872e+01
2.120000e-06	1.305796e-06	2.667825e-10	9.081100e+00	1.515770e+01
2.130000e-06	1.351240e-06	2.954766e-10	9.397138e+00	1.710558e+01
2.140000e-06	1.396601e-06	3.196746e-10	9.712600e+00	1.903986e+01
2.150000e-06	1.441873e-06	3.403843e-10	1.002744e+01	2.095816e+01
2.160000e-06	1.487068e-06	3.606414e-10	1.034175e+01	2.285824e+01
2.170000e-06	1.532096e-06	3.847994e-10	1.065489e+01	2.473797e+01
2.180000e-06	1.576832e-06	4.126406e-10	1.096601e+01	2.659540e+01
2.190000e-06	1.621416e-06	4.419227e-10	1.127606e+01	2.842870e+01
2.200000e-06	1.665946e-06	4.722841e-10	1.158575e+01	3.023617e+01
2.210000e-06	1.710331e-06	5.015111e-10	1.189442e+01	3.201629e+01
2.220000e-06	1.754602e-06	5.272691e-10	1.220230e+01	3.376764e+01
2.230000e-06	1.798788e-06	5.477421e-10	1.250959e+01	3.548897e+01
2.240000e-06	1.842871e-06	5.645887e-10	1.281617e+01	3.717914e+01
2.250000e-06	1.886902e-06	5.793067e-10	1.312238e+01	3.883715e+01
2.260000e-06	1.930872e-06	5.969231e-10	1.342816e+01	4.046213e+01
2.270000e-06	1.974787e-06	6.199947e-10	1.373357e+01	4.205333e+01
2.280000e-06	2.018666e-06	6.449119e-10	1.403872e+01	4.361012e+01
2.290000e-06	2.062465e-06	6.690366e-10	1.434332e+01	4.513197e+01
2.300000e-06	2.106204e-06	6.911732e-10	1.464750e+01	4.661846e+01
2.310000e-06	2.149895e-06	7.113331e-10	1.495135e+01	4.806928e+01
2.320000e-06	2.193481e-06	7.276948e-10	1.525446e+01	4.948423e+01
2.330000e-06	2.236866e-06	7.427807e-10	1.555619e+01	5.086316e+01
2.340000e-06	2.280098e-06	7.587205e-10	1.585684e+01	5.220605e+01
2.350000e-06	2.323109e-06	7.758710e-10	1.615595e+01	5.351295e+01
2.360000e-06	2.365805e-06	7.942161e-10	1.645288e+01	5.478398e+01
2.370000e-06	2.408241e-06	8.128847e-10	1.674800e+01	5.601935e+01
2.380000e-06	2.450345e-06	8.315389e-10	1.704082e+01	5.721934e+01
2.390000e-06	2.492172e-06	8.489956e-10	1.733170e+01	5.838430e+01
2.400000e-06	2.533697e-06	8.648039e-10	1.762048e+01	5.951463e+01
2.410000e-06	2.574794e-06	8.787969e-10	1.790629e+01	6.061081e+01
2.420000e-06	2.615578e-06	8.919746e-10	1.818992e+01	6.167337e+01
2.430000e-06	2.656183e-06	9.064922e-10	1.847230e+01	6.270290e+01
2.440000e-06	2.696617e-06	9.214284e-10	1.875350e+01	6.370002e+01
2.450000e-06	2.736871e-06	9.357905e-10	1.903345e+01	6.466543e+01
2.460000e-06	2.776924e-06	9.495200e-10	1.931199e+01	6.559984e+01
2.470000e-06	2.816830e-06	9.622249e-10	1.958952e+01	6.650400e+01
2.480000e-06	2.856657e-06	9.735149e-10	1.986649e+01	6.737873e+01
2.490000e-06	2.896359e-06	9.834827e-10	2.014260e+01	6.822483e+01
2.500000e-06	2.935938e-06	9.933600e-10	2.041785e+01	6.904315e+01
2.510000e-06	2.975442e-06	1.006274e-09	2.069258e+01	6.983455e+01
2.520000e-06	3.014702e-06	1.019567e-09	2.096561e+01	7.059991e+01
2.530000e-06	3.053600e-06	1.033800e-09	2.123612e+01	7.134010e+01
2.540000e-06	3.092311e-06	1.047678e-09	2.150534e+01	7.205601e+01
2.550000e-06	3.130825e-06	1.056853e-09	2.177319e+01	7.274851e+01
2.560000e-06	3.169037e-06	1.062073e-09	2.203893e+01	7.341848e+01
2.570000e-06	3.207069e-06	1.066322e-09	2.230342e+01	7.406676e+01
2.580000e-06	3.244981e-06	1.072518e-09	2.256708e+01	7.469419e+01
2.590000e-06	3.282683e-06	1.081662e-09	2.282927e+01	7.530157e+01
2.600000e-06	3.320226e-06	1.094377e-09	2.309037e+01	7.588969e+01
2.610000e-06	3.357534e-06	1.107867e-09	2.334982e+01	7.645928e+01
2.620000e-06	3.394476e-06	1.120971e-09	2.360673e+01	7.701105e+01
2.630000e-06	3.431110e-06	1.131024e-09	2.386150e+01	7.754567e+01
2.640000e-06	3.467524e-06	1.138746e-09	2.411474e+01	7.806375e+01
2.650000e-06	3.503773e-06	1.143174e-09	2.436684e+01	7.856588e+01
2.660000e-06	3.539869e-06	1.144815e-09	2.461786e+01	7.905258e+01
2.670000e-06	3.575849e-06	1.147470e-09	2.486808e+01	7.952433e+01
2.680000e-06	3.611654e-06	1.153072e-09	2.511709e+01	7.998158e+01
2.690000e-06	3.647275e-06	1.162904e-09	2.536481e+01	8.042470e+01
2.700000e-06	3.682723e-06	1.173354e-09	2.561134e+01	8.085403e+01
2.710000e-06	3.717959e-06	1.179943e-09	2.585638e+01	8.126989e+01
2.720000e-06	3.752929e-06	1.183725e-09	2.609958e+01	8.167251e+01
2.730000e-06	3.787496e-06	1.184660e-09	2.633997e+01	8.206213e+01
2.740000e-06	3.821546e-06	1.185528e-09	2.657677e+01	8.243893e+01
2.750000e-06	3.855070e-06	1.188577e-09	2.680992e+01	8.280305e+01
2.760000e-06	3.888174e-06	1.193691e-09	2.704013e+01	8.315464e+01
2.770000e-06	3.920865e-06	1.200893e-09	2.726748e+01	8.349379e+01
2.780000e-06	3.953225e-06	1.209501e-09	2.749253e+01	8.382059e+01
2.790000e-06	3.985393e-06	1.218252e-09	2.771624e+01	8.413513e+01
2.800000e-06	4.017363e-06	1.222894e-09	2.793857e+01	8.443747e+01
2.810000e-06	4.049169e-06	1.223447e-09	2.815977e+01	8.472769e+01
2.820000e-06	4.080800e-06	1.223136e-09	2.837974e+01	8.500586e+01
2.830000e-06	4.112219e-06	1.225694e-09	2.859824e+01	8.527206e+01
2.840000e-06	4.143388e-06	1.230878e-09	2.881501e+01	8.552638e+01
2.850000e-06	4.174262e-06	1.237553e-09	2.902972e+01	8.576893e+01
2.860000e-06	4.204772e-06	1.244419e-09	2.924190e+01	8.599985e+01
2.870000e-06	4.234923e-06	1.248527e-09	2.945158e+01	8.621928e+01
2.880000e-06	4.264830e-06	1.249981e-09	2.965957e+01	8.642741e+01
2.890000e-06	4.294578e-06	1.251712e-09	2.986645e+01	8.662444e+01
2.900000e-06	4.324060e-06	1.255104e-09	3.007149e+01	8.681061e+01
