# Temperatura_=_-9.1
# Concentracion g/m^3_=_1620.0
# C_Vs_to_Am_M_A/Vsm_=_65563218390.804596
# pendiente_HvsI_1/m_=_3716.3
# ordenada_HvsI_A/m_=_1297.0
# frecuencia_Hz_=_135110.8899447888

Tiempo_(s)	Campo_(V.s)	Magnetizacion_(V.s)	Campo_(kA/m)	Magnetizacion_(A/m)
0.000000e+00	-5.512092e-06	-1.353369e-09	-3.836872e+01	-8.905867e+01
1.000000e-08	-5.512192e-06	-1.352330e-09	-3.836942e+01	-8.900266e+01
2.000000e-08	-5.511998e-06	-1.354246e-09	-3.836806e+01	-8.894906e+01
3.000000e-08	-5.511438e-06	-1.355908e-09	-3.836417e+01	-8.889796e+01
4.000000e-08	-5.510431e-06	-1.353808e-09	-3.835716e+01	-8.884938e+01
5.000000e-08	-5.508889e-06	-1.346540e-09	-3.834643e+01	-8.880326e+01
6.000000e-08	-5.506832e-06	-1.337908e-09	-3.833211e+01	-8.875950e+01
7.000000e-08	-5.504202e-06	-1.361547e-09	-3.831380e+01	-8.871792e+01
8.000000e-08	-5.500968e-06	-1.404355e-09	-3.829129e+01	-8.867829e+01
9.000000e-08	-5.497178e-06	-1.376132e-09	-3.826491e+01	-8.864028e+01
1.000000e-07	-5.493014e-06	-1.295740e-09	-3.823592e+01	-8.860355e+01
1.100000e-07	-5.488619e-06	-1.328497e-09	-3.820533e+01	-8.856768e+01
1.200000e-07	-5.483968e-06	-1.382936e-09	-3.817295e+01	-8.853221e+01
1.300000e-07	-5.479016e-06	-1.359805e-09	-3.813849e+01	-8.849665e+01
1.400000e-07	-5.473753e-06	-1.265305e-09	-3.810185e+01	-8.846045e+01
1.500000e-07	-5.468158e-06	-1.310350e-09	-3.806290e+01	-8.842308e+01
1.600000e-07	-5.462174e-06	-1.420204e-09	-3.802125e+01	-8.838395e+01
1.700000e-07	-5.455747e-06	-1.392251e-09	-3.797651e+01	-8.834250e+01
1.800000e-07	-5.448855e-06	-1.261814e-09	-3.792854e+01	-8.829816e+01
1.900000e-07	-5.441572e-06	-1.280854e-09	-3.787785e+01	-8.825037e+01
2.000000e-07	-5.433926e-06	-1.379660e-09	-3.782462e+01	-8.819861e+01
2.100000e-07	-5.425979e-06	-1.394725e-09	-3.776931e+01	-8.814238e+01
2.200000e-07	-5.417871e-06	-1.317729e-09	-3.771286e+01	-8.808123e+01
2.300000e-07	-5.409467e-06	-1.321515e-09	-3.765437e+01	-8.801475e+01
2.400000e-07	-5.400489e-06	-1.376274e-09	-3.759187e+01	-8.794260e+01
2.500000e-07	-5.390910e-06	-1.369621e-09	-3.752519e+01	-8.786448e+01
2.600000e-07	-5.380734e-06	-1.324093e-09	-3.745436e+01	-8.778019e+01
2.700000e-07	-5.369916e-06	-1.319885e-09	-3.737906e+01	-8.768957e+01
2.800000e-07	-5.358598e-06	-1.367814e-09	-3.730027e+01	-8.759256e+01
2.900000e-07	-5.346980e-06	-1.367982e-09	-3.721941e+01	-8.748915e+01
3.000000e-07	-5.335037e-06	-1.332074e-09	-3.713627e+01	-8.737944e+01
3.100000e-07	-5.322628e-06	-1.300494e-09	-3.704990e+01	-8.726356e+01
3.200000e-07	-5.309810e-06	-1.339736e-09	-3.696067e+01	-8.714174e+01
3.300000e-07	-5.296638e-06	-1.334320e-09	-3.686898e+01	-8.701428e+01
3.400000e-07	-5.283083e-06	-1.303562e-09	-3.677463e+01	-8.688151e+01
3.500000e-07	-5.269126e-06	-1.297684e-09	-3.667748e+01	-8.674386e+01
3.600000e-07	-5.254751e-06	-1.367423e-09	-3.657741e+01	-8.660175e+01
3.700000e-07	-5.239828e-06	-1.337064e-09	-3.647354e+01	-8.645570e+01
3.800000e-07	-5.224176e-06	-1.299261e-09	-3.636459e+01	-8.630621e+01
3.900000e-07	-5.207961e-06	-1.332062e-09	-3.625172e+01	-8.615383e+01
4.000000e-07	-5.191443e-06	-1.346307e-09	-3.613674e+01	-8.599911e+01
4.100000e-07	-5.174570e-06	-1.261988e-09	-3.601929e+01	-8.584261e+01
4.200000e-07	-5.157415e-06	-1.292890e-09	-3.589988e+01	-8.568487e+01
4.300000e-07	-5.140078e-06	-1.380406e-09	-3.577920e+01	-8.552642e+01
4.400000e-07	-5.122405e-06	-1.313913e-09	-3.565618e+01	-8.536777e+01
4.500000e-07	-5.104286e-06	-1.248479e-09	-3.553005e+01	-8.520939e+01
4.600000e-07	-5.085760e-06	-1.347180e-09	-3.540109e+01	-8.505170e+01
4.700000e-07	-5.066814e-06	-1.352261e-09	-3.526922e+01	-8.489508e+01
4.800000e-07	-5.047505e-06	-1.251060e-09	-3.513481e+01	-8.473986e+01
4.900000e-07	-5.027912e-06	-1.299240e-09	-3.499843e+01	-8.458631e+01
5.000000e-07	-5.008065e-06	-1.353298e-09	-3.486028e+01	-8.443464e+01
5.100000e-07	-4.988036e-06	-1.251184e-09	-3.472086e+01	-8.428500e+01
5.200000e-07	-4.967747e-06	-1.248898e-09	-3.457963e+01	-8.413746e+01
5.300000e-07	-4.947122e-06	-1.355211e-09	-3.443606e+01	-8.399205e+01
5.400000e-07	-4.926048e-06	-1.295347e-09	-3.428937e+01	-8.384873e+01
5.500000e-07	-4.904577e-06	-1.231157e-09	-3.413991e+01	-8.370741e+01
5.600000e-07	-4.882908e-06	-1.321446e-09	-3.398908e+01	-8.356793e+01
5.700000e-07	-4.860954e-06	-1.328192e-09	-3.383626e+01	-8.343010e+01
5.800000e-07	-4.838580e-06	-1.231176e-09	-3.368052e+01	-8.329367e+01
5.900000e-07	-4.815752e-06	-1.272673e-09	-3.352162e+01	-8.315838e+01
6.000000e-07	-4.792640e-06	-1.311038e-09	-3.336074e+01	-8.302390e+01
6.100000e-07	-4.769245e-06	-1.235583e-09	-3.319789e+01	-8.288992e+01
6.200000e-07	-4.745570e-06	-1.227929e-09	-3.303310e+01	-8.275609e+01
6.300000e-07	-4.721735e-06	-1.289890e-09	-3.286718e+01	-8.262206e+01
6.400000e-07	-4.697640e-06	-1.252059e-09	-3.269946e+01	-8.248749e+01
6.500000e-07	-4.673189e-06	-1.229007e-09	-3.252927e+01	-8.235201e+01
6.600000e-07	-4.648302e-06	-1.271256e-09	-3.235603e+01	-8.221531e+01
6.700000e-07	-4.622972e-06	-1.262144e-09	-3.217971e+01	-8.207708e+01
6.800000e-07	-4.597090e-06	-1.221800e-09	-3.199955e+01	-8.193701e+01
6.900000e-07	-4.570543e-06	-1.247910e-09	-3.181476e+01	-8.179486e+01
7.000000e-07	-4.543527e-06	-1.252226e-09	-3.162671e+01	-8.165038e+01
7.100000e-07	-4.516188e-06	-1.222114e-09	-3.143641e+01	-8.150340e+01
7.200000e-07	-4.488581e-06	-1.226410e-09	-3.124424e+01	-8.135373e+01
7.300000e-07	-4.460851e-06	-1.243710e-09	-3.105121e+01	-8.120126e+01
7.400000e-07	-4.432955e-06	-1.222105e-09	-3.085704e+01	-8.104590e+01
7.500000e-07	-4.404808e-06	-1.215485e-09	-3.066111e+01	-8.088759e+01
7.600000e-07	-4.376394e-06	-1.228876e-09	-3.046333e+01	-8.072631e+01
7.700000e-07	-4.347735e-06	-1.223754e-09	-3.026383e+01	-8.056205e+01
7.800000e-07	-4.318745e-06	-1.216423e-09	-3.006204e+01	-8.039484e+01
7.900000e-07	-4.289384e-06	-1.223947e-09	-2.985766e+01	-8.022473e+01
8.000000e-07	-4.259698e-06	-1.214894e-09	-2.965102e+01	-8.005180e+01
8.100000e-07	-4.229645e-06	-1.195688e-09	-2.944183e+01	-7.987611e+01
8.200000e-07	-4.199298e-06	-1.198525e-09	-2.923059e+01	-7.969775e+01
8.300000e-07	-4.168706e-06	-1.197498e-09	-2.901764e+01	-7.951682e+01
8.400000e-07	-4.137863e-06	-1.188295e-09	-2.880295e+01	-7.933339e+01
8.500000e-07	-4.106773e-06	-1.196831e-09	-2.858654e+01	-7.914754e+01
8.600000e-07	-4.075434e-06	-1.209763e-09	-2.836839e+01	-7.895936e+01
8.700000e-07	-4.043916e-06	-1.196077e-09	-2.814900e+01	-7.876889e+01
8.800000e-07	-4.012281e-06	-1.187377e-09	-2.792879e+01	-7.857617e+01
8.900000e-07	-3.980481e-06	-1.184492e-09	-2.770744e+01	-7.838125e+01
9.000000e-07	-3.948382e-06	-1.169237e-09	-2.748400e+01	-7.818411e+01
9.100000e-07	-3.916011e-06	-1.154846e-09	-2.725868e+01	-7.798475e+01
9.200000e-07	-3.883414e-06	-1.162337e-09	-2.703178e+01	-7.778314e+01
9.300000e-07	-3.850401e-06	-1.159166e-09	-2.680197e+01	-7.757924e+01
9.400000e-07	-3.816812e-06	-1.149963e-09	-2.656817e+01	-7.737296e+01
9.500000e-07	-3.782818e-06	-1.154956e-09	-2.633154e+01	-7.716424e+01
9.600000e-07	-3.748455e-06	-1.159194e-09	-2.609235e+01	-7.695299e+01
9.700000e-07	-3.713628e-06	-1.142566e-09	-2.584993e+01	-7.673911e+01
9.800000e-07	-3.678435e-06	-1.136188e-09	-2.560495e+01	-7.652249e+01
9.900000e-07	-3.642965e-06	-1.139525e-09	-2.535805e+01	-7.630304e+01
1.000000e-06	-3.607300e-06	-1.132249e-09	-2.510980e+01	-7.608064e+01
1.010000e-06	-3.571538e-06	-1.121482e-09	-2.486086e+01	-7.585522e+01
1.020000e-06	-3.535663e-06	-1.126092e-09	-2.461114e+01	-7.562668e+01
1.030000e-06	-3.499615e-06	-1.123723e-09	-2.436022e+01	-7.539495e+01
1.040000e-06	-3.463366e-06	-1.113890e-09	-2.410789e+01	-7.515997e+01
1.050000e-06	-3.426847e-06	-1.114149e-09	-2.385369e+01	-7.492172e+01
1.060000e-06	-3.390028e-06	-1.114342e-09	-2.359740e+01	-7.468017e+01
1.070000e-06	-3.352914e-06	-1.102879e-09	-2.333906e+01	-7.443533e+01
1.080000e-06	-3.315569e-06	-1.095853e-09	-2.307910e+01	-7.418721e+01
1.090000e-06	-3.278045e-06	-1.094870e-09	-2.281791e+01	-7.393586e+01
1.100000e-06	-3.240310e-06	-1.084243e-09	-2.255524e+01	-7.368134e+01
1.110000e-06	-3.202359e-06	-1.074670e-09	-2.229107e+01	-7.342373e+01
1.120000e-06	-3.164205e-06	-1.071637e-09	-2.202548e+01	-7.316310e+01
1.130000e-06	-3.125768e-06	-1.066360e-09	-2.175793e+01	-7.289956e+01
1.140000e-06	-3.087152e-06	-1.059613e-09	-2.148913e+01	-7.263320e+01
1.150000e-06	-3.048350e-06	-1.063848e-09	-2.121904e+01	-7.236413e+01
1.160000e-06	-3.009225e-06	-1.067853e-09	-2.094670e+01	-7.209243e+01
1.170000e-06	-2.969862e-06	-1.064108e-09	-2.067270e+01	-7.181818e+01
1.180000e-06	-2.930384e-06	-1.057962e-09	-2.039790e+01	-7.154145e+01
1.190000e-06	-2.890802e-06	-1.053394e-09	-2.012238e+01	-7.126228e+01
1.200000e-06	-2.851072e-06	-1.039405e-09	-1.984582e+01	-7.098066e+01
1.210000e-06	-2.811216e-06	-1.025654e-09	-1.956839e+01	-7.069658e+01
1.220000e-06	-2.771235e-06	-1.020369e-09	-1.929009e+01	-7.040998e+01
1.230000e-06	-2.731098e-06	-1.019264e-09	-1.901070e+01	-7.012073e+01
1.240000e-06	-2.690834e-06	-1.015595e-09	-1.873043e+01	-6.982870e+01
1.250000e-06	-2.650377e-06	-1.013492e-09	-1.844882e+01	-6.953368e+01
1.260000e-06	-2.609694e-06	-1.010271e-09	-1.816563e+01	-6.923542e+01
1.270000e-06	-2.568827e-06	-1.003173e-09	-1.788116e+01	-6.893362e+01
1.280000e-06	-2.527673e-06	-9.923173e-10	-1.759470e+01	-6.862792e+01
1.290000e-06	-2.486225e-06	-9.832774e-10	-1.730618e+01	-6.831794e+01
1.300000e-06	-2.444490e-06	-9.728718e-10	-1.701567e+01	-6.800322e+01
1.310000e-06	-2.402380e-06	-9.623431e-10	-1.672255e+01	-6.768328e+01
1.320000e-06	-2.359939e-06	-9.571461e-10	-1.642713e+01	-6.735762e+01
1.330000e-06	-2.317223e-06	-9.542521e-10	-1.612979e+01	-6.702567e+01
1.340000e-06	-2.274221e-06	-9.493235e-10	-1.583046e+01	-6.668687e+01
1.350000e-06	-2.231045e-06	-9.446356e-10	-1.552992e+01	-6.634065e+01
1.360000e-06	-2.187704e-06	-9.406569e-10	-1.522823e+01	-6.598639e+01
1.370000e-06	-2.144184e-06	-9.322894e-10	-1.492530e+01	-6.562352e+01
1.380000e-06	-2.100530e-06	-9.218170e-10	-1.462143e+01	-6.525144e+01
1.390000e-06	-2.056745e-06	-9.125284e-10	-1.431664e+01	-6.486959e+01
1.400000e-06	-2.012888e-06	-9.019468e-10	-1.401137e+01	-6.447743e+01
1.410000e-06	-1.969035e-06	-8.898454e-10	-1.370611e+01	-6.407445e+01
1.420000e-06	-1.925180e-06	-8.815878e-10	-1.340084e+01	-6.366016e+01
1.430000e-06	-1.881220e-06	-8.753529e-10	-1.309485e+01	-6.323413e+01
1.440000e-06	-1.837131e-06	-8.691791e-10	-1.278795e+01	-6.279598e+01
1.450000e-06	-1.792899e-06	-8.639891e-10	-1.248006e+01	-6.234537e+01
1.460000e-06	-1.748568e-06	-8.612533e-10	-1.217148e+01	-6.188201e+01
1.470000e-06	-1.704181e-06	-8.561080e-10	-1.186251e+01	-6.140566e+01
1.480000e-06	-1.659666e-06	-8.483697e-10	-1.155265e+01	-6.091615e+01
1.490000e-06	-1.615018e-06	-8.392722e-10	-1.124186e+01	-6.041334e+01
1.500000e-06	-1.570158e-06	-8.287955e-10	-1.092960e+01	-5.989712e+01
1.510000e-06	-1.525138e-06	-8.157289e-10	-1.061622e+01	-5.936744e+01
1.520000e-06	-1.480032e-06	-8.034880e-10	-1.030225e+01	-5.882427e+01
1.530000e-06	-1.434829e-06	-7.916126e-10	-9.987599e+00	-5.826760e+01
1.540000e-06	-1.389531e-06	-7.824603e-10	-9.672287e+00	-5.769743e+01
1.550000e-06	-1.344118e-06	-7.756630e-10	-9.356173e+00	-5.711376e+01
1.560000e-06	-1.298640e-06	-7.676962e-10	-9.039606e+00	-5.651658e+01
1.570000e-06	-1.253076e-06	-7.587951e-10	-8.722445e+00	-5.590585e+01
1.580000e-06	-1.207385e-06	-7.519270e-10	-8.404400e+00	-5.528150e+01
1.590000e-06	-1.161591e-06	-7.425462e-10	-8.085638e+00	-5.464342e+01
1.600000e-06	-1.115738e-06	-7.274674e-10	-7.766457e+00	-5.399142e+01
1.610000e-06	-1.069752e-06	-7.113261e-10	-7.446361e+00	-5.332526e+01
1.620000e-06	-1.023592e-06	-6.950548e-10	-7.125048e+00	-5.264461e+01
1.630000e-06	-9.774230e-07	-6.799609e-10	-6.803673e+00	-5.194904e+01
1.640000e-06	-9.313461e-07	-6.705297e-10	-6.482940e+00	-5.123803e+01
1.650000e-06	-8.852167e-07	-6.668028e-10	-6.161841e+00	-5.051096e+01
1.660000e-06	-8.389902e-07	-6.633895e-10	-5.840066e+00	-4.976709e+01
1.670000e-06	-7.927769e-07	-6.569475e-10	-5.518383e+00	-4.900559e+01
1.680000e-06	-7.465225e-07	-6.435555e-10	-5.196415e+00	-4.822549e+01
1.690000e-06	-7.001688e-07	-6.274213e-10	-4.873754e+00	-4.742573e+01
1.700000e-06	-6.537460e-07	-6.081547e-10	-4.550613e+00	-4.660515e+01
1.710000e-06	-6.073193e-07	-5.860465e-10	-4.227445e+00	-4.576247e+01
1.720000e-06	-5.608463e-07	-5.644330e-10	-3.903954e+00	-4.489636e+01
1.730000e-06	-5.143279e-07	-5.499906e-10	-3.580148e+00	-4.400537e+01
1.740000e-06	-4.677245e-07	-5.445354e-10	-3.255749e+00	-4.308801e+01
1.750000e-06	-4.210214e-07	-5.403722e-10	-2.930657e+00	-4.214276e+01
1.760000e-06	-3.743307e-07	-5.319718e-10	-2.605651e+00	-4.116804e+01
1.770000e-06	-3.275592e-07	-5.181917e-10	-2.280083e+00	-4.016228e+01
1.780000e-06	-2.807462e-07	-4.987637e-10	-1.954226e+00	-3.912391e+01
1.790000e-06	-2.339687e-07	-4.764713e-10	-1.628616e+00	-3.805141e+01
1.800000e-06	-1.872424e-07	-4.551428e-10	-1.303362e+00	-3.694328e+01
1.810000e-06	-1.404646e-07	-4.381303e-10	-9.777502e-01	-3.579813e+01
1.820000e-06	-9.350956e-08	-4.242906e-10	-6.509039e-01	-3.461466e+01
1.830000e-06	-4.659637e-08	-4.112598e-10	-3.243493e-01	-3.339168e+01
1.840000e-06	1.588179e-10	-3.977486e-10	1.105504e-03	-3.212815e+01
1.850000e-06	4.690790e-08	-3.817825e-10	3.265178e-01	-3.082318e+01
1.860000e-06	9.364373e-08	-3.643318e-10	6.518378e-01	-2.947610e+01
1.870000e-06	1.403681e-07	-3.439972e-10	9.770784e-01	-2.808638e+01
1.880000e-06	1.870923e-07	-3.223583e-10	1.302317e+00	-2.665374e+01
1.890000e-06	2.338166e-07	-2.998867e-10	1.627557e+00	-2.517812e+01
1.900000e-06	2.805970e-07	-2.783107e-10	1.953187e+00	-2.365969e+01
1.910000e-06	3.273633e-07	-2.577430e-10	2.278719e+00	-2.209887e+01
1.920000e-06	3.740378e-07	-2.364148e-10	2.603613e+00	-2.049631e+01
1.930000e-06	4.206320e-07	-2.151129e-10	2.927947e+00	-1.885293e+01
1.940000e-06	4.671477e-07	-1.943312e-10	3.251735e+00	-1.716989e+01
1.950000e-06	5.136427e-07	-1.718597e-10	3.575378e+00	-1.544859e+01
1.960000e-06	5.601157e-07	-1.475367e-10	3.898869e+00	-1.369067e+01
1.970000e-06	6.065377e-07	-1.237067e-10	4.222004e+00	-1.189802e+01
1.980000e-06	6.529420e-07	-9.999818e-11	4.545017e+00	-1.007271e+01
1.990000e-06	6.993350e-07	-7.440837e-11	4.867950e+00	-8.217039e+00
2.000000e-06	7.456961e-07	-4.873231e-11	5.190662e+00	-6.333483e+00
2.010000e-06	7.919646e-07	-2.203296e-11	5.512729e+00	-4.424685e+00
2.020000e-06	8.381167e-07	9.909936e-12	5.833986e+00	-2.493436e+00
2.030000e-06	8.841906e-07	4.383352e-11	6.154698e+00	-5.426542e-01
2.040000e-06	9.302434e-07	7.579949e-11	6.475264e+00	1.424642e+00
2.050000e-06	9.763303e-07	1.026165e-10	6.796067e+00	3.405353e+00
2.060000e-06	1.022349e-06	1.255582e-10	7.116398e+00	5.396324e+00
2.070000e-06	1.068260e-06	1.463667e-10	7.435972e+00	7.394367e+00
2.080000e-06	1.114109e-06	1.680798e-10	7.755121e+00	9.396287e+00
2.090000e-06	1.159860e-06	1.928638e-10	8.073588e+00	1.139890e+01
2.100000e-06	1.205550e-06	2.237553e-10	8.391624e+00	1.339907e+01
2.110000e-06	1.251171e-06	2.599755e-10	8.709183e+00	1.539370e+01
2.120000e-06	1.296674e-06	2.938121e-10	9.025924e+00	1.737979e+01
2.130000e-06	1.342083e-06	3.230159e-10	9.342007e+00	1.935442e+01
2.140000e-06	1.387382e-06	3.487108e-10	9.657326e+00	2.131480e+01
2.150000e-06	1.432611e-06	3.700752e-10	9.972159e+00	2.325825e+01
2.160000e-06	1.477829e-06	3.875425e-10	1.028691e+01	2.518226e+01
2.170000e-06	1.522954e-06	4.073537e-10	1.060102e+01	2.708442e+01
2.180000e-06	1.567883e-06	4.340941e-10	1.091376e+01	2.896254e+01
2.190000e-06	1.612612e-06	4.657566e-10	1.122512e+01	3.081456e+01
2.200000e-06	1.657181e-06	4.986713e-10	1.153535e+01	3.263861e+01
2.210000e-06	1.701633e-06	5.311191e-10	1.184478e+01	3.443298e+01
2.220000e-06	1.745958e-06	5.577049e-10	1.215331e+01	3.619614e+01
2.230000e-06	1.790110e-06	5.781218e-10	1.246064e+01	3.792675e+01
2.240000e-06	1.834232e-06	5.926731e-10	1.276777e+01	3.962364e+01
2.250000e-06	1.878340e-06	6.059922e-10	1.307480e+01	4.128579e+01
2.260000e-06	1.922349e-06	6.215201e-10	1.338114e+01	4.291236e+01
2.270000e-06	1.966270e-06	6.424105e-10	1.368687e+01	4.450268e+01
2.280000e-06	2.010119e-06	6.679985e-10	1.399209e+01	4.605621e+01
2.290000e-06	2.053907e-06	6.947027e-10	1.429689e+01	4.757255e+01
2.300000e-06	2.097605e-06	7.206217e-10	1.460107e+01	4.905147e+01
2.310000e-06	2.141214e-06	7.432715e-10	1.490462e+01	5.049282e+01
2.320000e-06	2.184701e-06	7.616545e-10	1.520732e+01	5.189660e+01
2.330000e-06	2.228085e-06	7.762052e-10	1.550932e+01	5.326290e+01
2.340000e-06	2.271312e-06	7.886717e-10	1.581021e+01	5.459191e+01
2.350000e-06	2.314263e-06	8.022708e-10	1.610918e+01	5.588393e+01
2.360000e-06	2.356961e-06	8.180322e-10	1.640640e+01	5.713931e+01
2.370000e-06	2.399334e-06	8.353932e-10	1.670135e+01	5.835849e+01
2.380000e-06	2.441368e-06	8.537833e-10	1.699394e+01	5.954196e+01
2.390000e-06	2.483081e-06	8.720950e-10	1.728430e+01	6.069027e+01
2.400000e-06	2.524548e-06	8.887449e-10	1.757294e+01	6.180404e+01
2.410000e-06	2.565705e-06	9.015775e-10	1.785943e+01	6.288390e+01
2.420000e-06	2.606518e-06	9.120133e-10	1.814352e+01	6.393053e+01
2.430000e-06	2.647128e-06	9.226677e-10	1.842620e+01	6.494465e+01
2.440000e-06	2.687542e-06	9.355179e-10	1.870751e+01	6.592699e+01
2.450000e-06	2.727786e-06	9.501182e-10	1.898765e+01	6.687830e+01
2.460000e-06	2.767858e-06	9.660146e-10	1.926658e+01	6.779936e+01
2.470000e-06	2.807789e-06	9.797300e-10	1.954454e+01	6.869096e+01
2.480000e-06	2.847632e-06	9.926180e-10	1.982188e+01	6.955389e+01
2.490000e-06	2.887334e-06	1.003708e-09	2.009823e+01	7.038895e+01
2.500000e-06	2.926827e-06	1.013372e-09	2.037313e+01	7.119695e+01
2.510000e-06	2.966176e-06	1.025528e-09	2.064704e+01	7.197869e+01
2.520000e-06	3.005378e-06	1.037411e-09	2.091991e+01	7.273498e+01
2.530000e-06	3.044372e-06	1.049649e-09	2.119135e+01	7.346661e+01
2.540000e-06	3.083104e-06	1.063089e-09	2.146096e+01	7.417438e+01
2.550000e-06	3.121556e-06	1.075283e-09	2.172861e+01	7.485907e+01
2.560000e-06	3.159887e-06	1.084011e-09	2.199543e+01	7.552144e+01
2.570000e-06	3.198104e-06	1.089406e-09	2.226145e+01	7.616226e+01
2.580000e-06	3.236071e-06	1.093973e-09	2.252573e+01	7.678227e+01
2.590000e-06	3.273771e-06	1.098671e-09	2.278816e+01	7.738217e+01
2.600000e-06	3.311268e-06	1.107670e-09	2.304917e+01	7.796268e+01
2.610000e-06	3.348583e-06	1.120992e-09	2.330891e+01	7.852447e+01
2.620000e-06	3.385635e-06	1.136775e-09	2.356682e+01	7.906819e+01
2.630000e-06	3.422365e-06	1.149112e-09	2.382249e+01	7.959445e+01
2.640000e-06	3.458775e-06	1.156358e-09	2.407594e+01	8.010387e+01
2.650000e-06	3.495013e-06	1.160546e-09	2.432818e+01	8.059698e+01
2.660000e-06	3.531137e-06	1.161439e-09	2.457963e+01	8.107434e+01
2.670000e-06	3.567067e-06	1.162198e-09	2.482973e+01	8.153643e+01
2.680000e-06	3.602819e-06	1.165860e-09	2.507860e+01	8.198371e+01
2.690000e-06	3.638441e-06	1.174039e-09	2.532656e+01	8.241661e+01
2.700000e-06	3.673954e-06	1.183609e-09	2.557376e+01	8.283553e+01
2.710000e-06	3.709264e-06	1.191302e-09	2.581955e+01	8.324082e+01
2.720000e-06	3.744258e-06	1.197562e-09	2.606313e+01	8.363281e+01
2.730000e-06	3.778886e-06	1.201721e-09	2.630418e+01	8.401178e+01
2.740000e-06	3.813063e-06	1.204644e-09	2.654207e+01	8.437799e+01
2.750000e-06	3.846673e-06	1.208186e-09	2.677603e+01	8.473167e+01
2.760000e-06	3.879810e-06	1.213346e-09	2.700669e+01	8.507302e+01
2.770000e-06	3.912531e-06	1.219598e-09	2.723446e+01	8.540221e+01
2.780000e-06	3.944910e-06	1.224944e-09	2.745984e+01	8.571940e+01
2.790000e-06	3.977023e-06	1.229499e-09	2.768337e+01	8.602471e+01
2.800000e-06	4.008906e-06	1.233104e-09	2.790530e+01	8.631827e+01
2.810000e-06	4.040711e-06	1.236311e-09	2.812669e+01	8.660016e+01
2.820000e-06	4.072403e-06	1.240235e-09	2.834729e+01	8.687048e+01
2.830000e-06	4.103852e-06	1.246224e-09	2.856620e+01	8.712931e+01
2.840000e-06	4.134996e-06	1.252800e-09	2.878299e+01	8.737674e+01
2.850000e-06	4.165814e-06	1.258207e-09	2.899751e+01	8.761285e+01
2.860000e-06	4.196305e-06	1.262813e-09	2.920976e+01	8.783772e+01
2.870000e-06	4.226461e-06	1.266311e-09	2.941967e+01	8.805144e+01
2.880000e-06	4.256335e-06	1.267428e-09	2.962761e+01	8.825413e+01
2.890000e-06	4.285985e-06	1.268313e-09	2.983401e+01	8.844589e+01
2.900000e-06	4.315307e-06	1.271191e-09	3.003811e+01	8.862687e+01
