# Temperatura_=_4.49
# Concentracion g/m^3_=_1620.0
# C_Vs_to_Am_M_A/Vsm_=_65563218390.804596
# pendiente_HvsI_1/m_=_3716.3
# ordenada_HvsI_A/m_=_1297.0
# frecuencia_Hz_=_135111.55814474827

Tiempo_(s)	Campo_(V.s)	Magnetizacion_(V.s)	Campo_(kA/m)	Magnetizacion_(A/m)
0.000000e+00	-5.523905e-06	-1.493045e-09	-3.836730e+01	-9.878441e+01
1.000000e-08	-5.524125e-06	-1.492192e-09	-3.836883e+01	-9.870841e+01
2.000000e-08	-5.524166e-06	-1.494831e-09	-3.836911e+01	-9.863314e+01
3.000000e-08	-5.523919e-06	-1.500369e-09	-3.836739e+01	-9.855911e+01
4.000000e-08	-5.523210e-06	-1.502606e-09	-3.836247e+01	-9.848674e+01
5.000000e-08	-5.521906e-06	-1.497875e-09	-3.835341e+01	-9.841644e+01
6.000000e-08	-5.520032e-06	-1.481778e-09	-3.834040e+01	-9.834854e+01
7.000000e-08	-5.517564e-06	-1.459036e-09	-3.832326e+01	-9.828330e+01
8.000000e-08	-5.514459e-06	-1.477250e-09	-3.830169e+01	-9.822092e+01
9.000000e-08	-5.510861e-06	-1.549901e-09	-3.827670e+01	-9.816150e+01
1.000000e-07	-5.506814e-06	-1.570390e-09	-3.824859e+01	-9.810508e+01
1.100000e-07	-5.502386e-06	-1.486230e-09	-3.821784e+01	-9.805160e+01
1.200000e-07	-5.497790e-06	-1.432838e-09	-3.818591e+01	-9.800094e+01
1.300000e-07	-5.492991e-06	-1.440440e-09	-3.815258e+01	-9.795287e+01
1.400000e-07	-5.487838e-06	-1.508513e-09	-3.811679e+01	-9.790712e+01
1.500000e-07	-5.482308e-06	-1.488155e-09	-3.807838e+01	-9.786330e+01
1.600000e-07	-5.476463e-06	-1.470684e-09	-3.803778e+01	-9.782099e+01
1.700000e-07	-5.470284e-06	-1.503787e-09	-3.799487e+01	-9.777972e+01
1.800000e-07	-5.463667e-06	-1.505474e-09	-3.794891e+01	-9.773892e+01
1.900000e-07	-5.456654e-06	-1.507632e-09	-3.790019e+01	-9.769804e+01
2.000000e-07	-5.449306e-06	-1.454821e-09	-3.784916e+01	-9.765646e+01
2.100000e-07	-5.441674e-06	-1.476325e-09	-3.779615e+01	-9.761355e+01
2.200000e-07	-5.433847e-06	-1.491927e-09	-3.774178e+01	-9.756869e+01
2.300000e-07	-5.425783e-06	-1.540183e-09	-3.768578e+01	-9.752122e+01
2.400000e-07	-5.417260e-06	-1.531242e-09	-3.762658e+01	-9.747055e+01
2.500000e-07	-5.408121e-06	-1.531350e-09	-3.756310e+01	-9.741607e+01
2.600000e-07	-5.398272e-06	-1.508241e-09	-3.749469e+01	-9.735723e+01
2.700000e-07	-5.387743e-06	-1.511141e-09	-3.742156e+01	-9.729350e+01
2.800000e-07	-5.376632e-06	-1.492521e-09	-3.734439e+01	-9.722443e+01
2.900000e-07	-5.365060e-06	-1.506760e-09	-3.726401e+01	-9.714959e+01
3.000000e-07	-5.353153e-06	-1.516351e-09	-3.718131e+01	-9.706866e+01
3.100000e-07	-5.340907e-06	-1.503644e-09	-3.709626e+01	-9.698136e+01
3.200000e-07	-5.328261e-06	-1.488033e-09	-3.700842e+01	-9.688747e+01
3.300000e-07	-5.315170e-06	-1.489898e-09	-3.691749e+01	-9.678688e+01
3.400000e-07	-5.301751e-06	-1.501058e-09	-3.682428e+01	-9.667952e+01
3.500000e-07	-5.287968e-06	-1.472625e-09	-3.672855e+01	-9.656540e+01
3.600000e-07	-5.273649e-06	-1.485490e-09	-3.662910e+01	-9.644460e+01
3.700000e-07	-5.258937e-06	-1.504279e-09	-3.652691e+01	-9.631726e+01
3.800000e-07	-5.243741e-06	-1.494925e-09	-3.642137e+01	-9.618360e+01
3.900000e-07	-5.227913e-06	-1.459248e-09	-3.631143e+01	-9.604387e+01
4.000000e-07	-5.211556e-06	-1.489204e-09	-3.619782e+01	-9.589836e+01
4.100000e-07	-5.194797e-06	-1.478075e-09	-3.608142e+01	-9.574741e+01
4.200000e-07	-5.177774e-06	-1.444938e-09	-3.596318e+01	-9.559141e+01
4.300000e-07	-5.160455e-06	-1.455026e-09	-3.584289e+01	-9.543073e+01
4.400000e-07	-5.142844e-06	-1.509077e-09	-3.572057e+01	-9.526579e+01
4.500000e-07	-5.124925e-06	-1.470758e-09	-3.559611e+01	-9.509698e+01
4.600000e-07	-5.106567e-06	-1.453987e-09	-3.546860e+01	-9.492472e+01
4.700000e-07	-5.087782e-06	-1.474718e-09	-3.533813e+01	-9.474939e+01
4.800000e-07	-5.068649e-06	-1.462116e-09	-3.520523e+01	-9.457137e+01
4.900000e-07	-5.049191e-06	-1.415043e-09	-3.507008e+01	-9.439102e+01
5.000000e-07	-5.029519e-06	-1.449544e-09	-3.493345e+01	-9.420864e+01
5.100000e-07	-5.009698e-06	-1.449677e-09	-3.479578e+01	-9.402452e+01
5.200000e-07	-4.989589e-06	-1.407898e-09	-3.465611e+01	-9.383891e+01
5.300000e-07	-4.969053e-06	-1.421292e-09	-3.451348e+01	-9.365201e+01
5.400000e-07	-4.948196e-06	-1.465943e-09	-3.436861e+01	-9.346399e+01
5.500000e-07	-4.926987e-06	-1.425526e-09	-3.422130e+01	-9.327496e+01
5.600000e-07	-4.905381e-06	-1.403669e-09	-3.407123e+01	-9.308500e+01
5.700000e-07	-4.883519e-06	-1.429863e-09	-3.391938e+01	-9.289416e+01
5.800000e-07	-4.861398e-06	-1.415339e-09	-3.376574e+01	-9.270243e+01
5.900000e-07	-4.838927e-06	-1.391461e-09	-3.360966e+01	-9.250978e+01
6.000000e-07	-4.816044e-06	-1.416060e-09	-3.345072e+01	-9.231614e+01
6.100000e-07	-4.792773e-06	-1.413763e-09	-3.328909e+01	-9.212143e+01
6.200000e-07	-4.769270e-06	-1.382185e-09	-3.312584e+01	-9.192554e+01
6.300000e-07	-4.745557e-06	-1.391805e-09	-3.296114e+01	-9.172834e+01
6.400000e-07	-4.721605e-06	-1.397225e-09	-3.279478e+01	-9.152969e+01
6.500000e-07	-4.697467e-06	-1.382068e-09	-3.262712e+01	-9.132945e+01
6.600000e-07	-4.672976e-06	-1.384100e-09	-3.245702e+01	-9.112746e+01
6.700000e-07	-4.647925e-06	-1.394894e-09	-3.228302e+01	-9.092359e+01
6.800000e-07	-4.622244e-06	-1.374643e-09	-3.210464e+01	-9.071770e+01
6.900000e-07	-4.595913e-06	-1.370136e-09	-3.192176e+01	-9.050965e+01
7.000000e-07	-4.569117e-06	-1.367157e-09	-3.173564e+01	-9.029933e+01
7.100000e-07	-4.541938e-06	-1.358952e-09	-3.154687e+01	-9.008664e+01
7.200000e-07	-4.514423e-06	-1.353176e-09	-3.135575e+01	-8.987149e+01
7.300000e-07	-4.486752e-06	-1.368754e-09	-3.116356e+01	-8.965381e+01
7.400000e-07	-4.458958e-06	-1.365628e-09	-3.097051e+01	-8.943354e+01
7.500000e-07	-4.430969e-06	-1.364611e-09	-3.077611e+01	-8.921064e+01
7.600000e-07	-4.402719e-06	-1.360228e-09	-3.057990e+01	-8.898508e+01
7.700000e-07	-4.374172e-06	-1.353783e-09	-3.038161e+01	-8.875685e+01
7.800000e-07	-4.345237e-06	-1.338162e-09	-3.018065e+01	-8.852593e+01
7.900000e-07	-4.315919e-06	-1.337749e-09	-2.997701e+01	-8.829234e+01
8.000000e-07	-4.286315e-06	-1.334454e-09	-2.977139e+01	-8.805606e+01
8.100000e-07	-4.256488e-06	-1.329098e-09	-2.956422e+01	-8.781711e+01
8.200000e-07	-4.226443e-06	-1.322147e-09	-2.935554e+01	-8.757549e+01
8.300000e-07	-4.196135e-06	-1.322182e-09	-2.914503e+01	-8.733119e+01
8.400000e-07	-4.165440e-06	-1.315008e-09	-2.893183e+01	-8.708420e+01
8.500000e-07	-4.134394e-06	-1.312812e-09	-2.871619e+01	-8.683451e+01
8.600000e-07	-4.103057e-06	-1.315150e-09	-2.849854e+01	-8.658208e+01
8.700000e-07	-4.071468e-06	-1.311654e-09	-2.827913e+01	-8.632688e+01
8.800000e-07	-4.039797e-06	-1.300529e-09	-2.805915e+01	-8.606883e+01
8.900000e-07	-4.008045e-06	-1.294102e-09	-2.783861e+01	-8.580788e+01
9.000000e-07	-3.976080e-06	-1.288250e-09	-2.761660e+01	-8.554394e+01
9.100000e-07	-3.943856e-06	-1.275611e-09	-2.739278e+01	-8.527691e+01
9.200000e-07	-3.911315e-06	-1.270450e-09	-2.716676e+01	-8.500668e+01
9.300000e-07	-3.878326e-06	-1.271147e-09	-2.693763e+01	-8.473315e+01
9.400000e-07	-3.844879e-06	-1.268463e-09	-2.670531e+01	-8.445620e+01
9.500000e-07	-3.810983e-06	-1.262068e-09	-2.646989e+01	-8.417569e+01
9.600000e-07	-3.776566e-06	-1.261936e-09	-2.623083e+01	-8.389152e+01
9.700000e-07	-3.741734e-06	-1.251192e-09	-2.598890e+01	-8.360356e+01
9.800000e-07	-3.706559e-06	-1.239251e-09	-2.574459e+01	-8.331171e+01
9.900000e-07	-3.671160e-06	-1.232186e-09	-2.549871e+01	-8.301586e+01
1.000000e-06	-3.635621e-06	-1.231061e-09	-2.525187e+01	-8.271594e+01
1.010000e-06	-3.599885e-06	-1.221911e-09	-2.500366e+01	-8.241187e+01
1.020000e-06	-3.564013e-06	-1.217400e-09	-2.475451e+01	-8.210361e+01
1.030000e-06	-3.528019e-06	-1.214265e-09	-2.450451e+01	-8.179113e+01
1.040000e-06	-3.491822e-06	-1.210575e-09	-2.425310e+01	-8.147443e+01
1.050000e-06	-3.455307e-06	-1.204309e-09	-2.399947e+01	-8.115352e+01
1.060000e-06	-3.418501e-06	-1.204311e-09	-2.374383e+01	-8.082844e+01
1.070000e-06	-3.381444e-06	-1.196434e-09	-2.348644e+01	-8.049926e+01
1.080000e-06	-3.344160e-06	-1.185784e-09	-2.322748e+01	-8.016604e+01
1.090000e-06	-3.306646e-06	-1.176638e-09	-2.296692e+01	-7.982889e+01
1.100000e-06	-3.268890e-06	-1.171157e-09	-2.270468e+01	-7.948791e+01
1.110000e-06	-3.230923e-06	-1.161680e-09	-2.244097e+01	-7.914322e+01
1.120000e-06	-3.192737e-06	-1.153001e-09	-2.217574e+01	-7.879493e+01
1.130000e-06	-3.154340e-06	-1.146110e-09	-2.190905e+01	-7.844317e+01
1.140000e-06	-3.115822e-06	-1.140284e-09	-2.164151e+01	-7.808802e+01
1.150000e-06	-3.077072e-06	-1.136471e-09	-2.137237e+01	-7.772959e+01
1.160000e-06	-3.038029e-06	-1.136011e-09	-2.110119e+01	-7.736795e+01
1.170000e-06	-2.998840e-06	-1.131559e-09	-2.082899e+01	-7.700313e+01
1.180000e-06	-2.959436e-06	-1.121506e-09	-2.055530e+01	-7.663516e+01
1.190000e-06	-2.919878e-06	-1.112037e-09	-2.028055e+01	-7.626399e+01
1.200000e-06	-2.880251e-06	-1.103028e-09	-2.000531e+01	-7.588958e+01
1.210000e-06	-2.840467e-06	-1.095079e-09	-1.972899e+01	-7.551179e+01
1.220000e-06	-2.800526e-06	-1.089496e-09	-1.945157e+01	-7.513046e+01
1.230000e-06	-2.760510e-06	-1.086257e-09	-1.917363e+01	-7.474537e+01
1.240000e-06	-2.720375e-06	-1.078117e-09	-1.889486e+01	-7.435627e+01
1.250000e-06	-2.680046e-06	-1.069155e-09	-1.861475e+01	-7.396281e+01
1.260000e-06	-2.639542e-06	-1.062009e-09	-1.833342e+01	-7.356464e+01
1.270000e-06	-2.598778e-06	-1.059354e-09	-1.805029e+01	-7.316133e+01
1.280000e-06	-2.557688e-06	-1.053413e-09	-1.776490e+01	-7.275242e+01
1.290000e-06	-2.516218e-06	-1.044627e-09	-1.747686e+01	-7.233742e+01
1.300000e-06	-2.474344e-06	-1.033654e-09	-1.718601e+01	-7.191578e+01
1.310000e-06	-2.432197e-06	-1.023107e-09	-1.689327e+01	-7.148695e+01
1.320000e-06	-2.389765e-06	-1.011533e-09	-1.659855e+01	-7.105037e+01
1.330000e-06	-2.346998e-06	-1.003486e-09	-1.630151e+01	-7.060546e+01
1.340000e-06	-2.304028e-06	-9.993978e-10	-1.600305e+01	-7.015163e+01
1.350000e-06	-2.260882e-06	-9.974458e-10	-1.570337e+01	-6.968833e+01
1.360000e-06	-2.217518e-06	-9.934606e-10	-1.540218e+01	-6.921503e+01
1.370000e-06	-2.174009e-06	-9.875320e-10	-1.509998e+01	-6.873120e+01
1.380000e-06	-2.130381e-06	-9.772789e-10	-1.479696e+01	-6.823638e+01
1.390000e-06	-2.086636e-06	-9.666352e-10	-1.449312e+01	-6.773015e+01
1.400000e-06	-2.042829e-06	-9.529389e-10	-1.418885e+01	-6.721214e+01
1.410000e-06	-1.998983e-06	-9.383816e-10	-1.388430e+01	-6.668206e+01
1.420000e-06	-1.955071e-06	-9.254319e-10	-1.357931e+01	-6.613966e+01
1.430000e-06	-1.910996e-06	-9.156493e-10	-1.327317e+01	-6.558478e+01
1.440000e-06	-1.866800e-06	-9.080127e-10	-1.296620e+01	-6.501730e+01
1.450000e-06	-1.822581e-06	-9.011126e-10	-1.265907e+01	-6.443721e+01
1.460000e-06	-1.778255e-06	-8.935966e-10	-1.235120e+01	-6.384453e+01
1.470000e-06	-1.733757e-06	-8.842747e-10	-1.204213e+01	-6.323936e+01
1.480000e-06	-1.689091e-06	-8.722433e-10	-1.173189e+01	-6.262185e+01
1.490000e-06	-1.644290e-06	-8.595668e-10	-1.142072e+01	-6.199220e+01
1.500000e-06	-1.599424e-06	-8.462862e-10	-1.110909e+01	-6.135062e+01
1.510000e-06	-1.554470e-06	-8.308183e-10	-1.079685e+01	-6.069739e+01
1.520000e-06	-1.509285e-06	-8.188046e-10	-1.048302e+01	-6.003275e+01
1.530000e-06	-1.463869e-06	-8.110927e-10	-1.016757e+01	-5.935696e+01
1.540000e-06	-1.418410e-06	-8.057591e-10	-9.851827e+00	-5.867027e+01
1.550000e-06	-1.372947e-06	-7.995730e-10	-9.536057e+00	-5.797287e+01
1.560000e-06	-1.327412e-06	-7.900985e-10	-9.219786e+00	-5.726491e+01
1.570000e-06	-1.281826e-06	-7.745606e-10	-8.903159e+00	-5.654647e+01
1.580000e-06	-1.236190e-06	-7.570691e-10	-8.586188e+00	-5.581753e+01
1.590000e-06	-1.190423e-06	-7.401782e-10	-8.268303e+00	-5.507798e+01
1.600000e-06	-1.144586e-06	-7.232180e-10	-7.949934e+00	-5.432761e+01
1.610000e-06	-1.098661e-06	-7.082276e-10	-7.630952e+00	-5.356605e+01
1.620000e-06	-1.052587e-06	-6.973924e-10	-7.310939e+00	-5.279282e+01
1.630000e-06	-1.006445e-06	-6.861685e-10	-6.990446e+00	-5.200727e+01
1.640000e-06	-9.602169e-07	-6.753079e-10	-6.669364e+00	-5.120862e+01
1.650000e-06	-9.138988e-07	-6.644330e-10	-6.347653e+00	-5.039593e+01
1.660000e-06	-8.675477e-07	-6.529885e-10	-6.025712e+00	-4.956807e+01
1.670000e-06	-8.212205e-07	-6.397890e-10	-5.703938e+00	-4.872381e+01
1.680000e-06	-7.748877e-07	-6.266134e-10	-5.382125e+00	-4.786173e+01
1.690000e-06	-7.284285e-07	-6.135257e-10	-5.059435e+00	-4.698028e+01
1.700000e-06	-6.818344e-07	-5.993643e-10	-4.735807e+00	-4.607779e+01
1.710000e-06	-6.351963e-07	-5.814323e-10	-4.411873e+00	-4.515246e+01
1.720000e-06	-5.885662e-07	-5.611896e-10	-4.087995e+00	-4.420243e+01
1.730000e-06	-5.419789e-07	-5.408120e-10	-3.764414e+00	-4.322571e+01
1.740000e-06	-4.953921e-07	-5.239522e-10	-3.440837e+00	-4.222031e+01
1.750000e-06	-4.487128e-07	-5.118104e-10	-3.116617e+00	-4.118417e+01
1.760000e-06	-4.019836e-07	-4.991804e-10	-2.792051e+00	-4.011525e+01
1.770000e-06	-3.552698e-07	-4.832071e-10	-2.467592e+00	-3.901153e+01
1.780000e-06	-3.085185e-07	-4.650388e-10	-2.142872e+00	-3.787104e+01
1.790000e-06	-2.617468e-07	-4.474551e-10	-1.818011e+00	-3.669191e+01
1.800000e-06	-2.149347e-07	-4.309627e-10	-1.492868e+00	-3.547236e+01
1.810000e-06	-1.680900e-07	-4.145870e-10	-1.167500e+00	-3.421076e+01
1.820000e-06	-1.213085e-07	-3.964953e-10	-8.425704e-01	-3.290565e+01
1.830000e-06	-7.453753e-08	-3.775342e-10	-5.177141e-01	-3.155576e+01
1.840000e-06	-2.769666e-08	-3.594476e-10	-1.923723e-01	-3.016005e+01
1.850000e-06	1.919606e-08	-3.419197e-10	1.333298e-01	-2.871771e+01
1.860000e-06	6.612683e-08	-3.234217e-10	4.592961e-01	-2.722819e+01
1.870000e-06	1.130038e-07	-3.034352e-10	7.848884e-01	-2.569124e+01
1.880000e-06	1.598275e-07	-2.812459e-10	1.110111e+00	-2.410687e+01
1.890000e-06	2.066824e-07	-2.556479e-10	1.435551e+00	-2.247542e+01
1.900000e-06	2.535648e-07	-2.261414e-10	1.761181e+00	-2.079752e+01
1.910000e-06	3.004306e-07	-1.976532e-10	2.086696e+00	-1.907411e+01
1.920000e-06	3.472026e-07	-1.725410e-10	2.411560e+00	-1.730646e+01
1.930000e-06	3.938881e-07	-1.502015e-10	2.735822e+00	-1.549612e+01
1.940000e-06	4.404835e-07	-1.286685e-10	3.059460e+00	-1.364496e+01
1.950000e-06	4.870253e-07	-1.068477e-10	3.382724e+00	-1.175511e+01
1.960000e-06	5.335735e-07	-8.305053e-11	3.706033e+00	-9.828988e+00
1.970000e-06	5.801223e-07	-5.778901e-11	4.029346e+00	-7.869259e+00
1.980000e-06	6.266867e-07	-3.031150e-11	4.352768e+00	-5.878812e+00
1.990000e-06	6.731965e-07	-2.373692e-12	4.675810e+00	-3.860740e+00
2.000000e-06	7.195428e-07	2.495192e-11	4.997717e+00	-1.818319e+00
2.010000e-06	7.657962e-07	5.254348e-11	5.318978e+00	2.450301e-01
2.020000e-06	8.121122e-07	8.039300e-11	5.640675e+00	2.325763e+00
2.030000e-06	8.584305e-07	1.105132e-10	5.962387e+00	4.420246e+00
2.040000e-06	9.046531e-07	1.409011e-10	6.283435e+00	6.524789e+00
2.050000e-06	9.507763e-07	1.709702e-10	6.603792e+00	8.635671e+00
2.060000e-06	9.967828e-07	2.006367e-10	6.923339e+00	1.074918e+01
2.070000e-06	1.042740e-06	2.278841e-10	7.242542e+00	1.286162e+01
2.080000e-06	1.088690e-06	2.522586e-10	7.561695e+00	1.496939e+01
2.090000e-06	1.134487e-06	2.761323e-10	7.879786e+00	1.706895e+01
2.100000e-06	1.180168e-06	3.050486e-10	8.197073e+00	1.915688e+01
2.110000e-06	1.225842e-06	3.383758e-10	8.514313e+00	2.122992e+01
2.120000e-06	1.271469e-06	3.698727e-10	8.831223e+00	2.328494e+01
2.130000e-06	1.317094e-06	3.994213e-10	9.148120e+00	2.531900e+01
2.140000e-06	1.362672e-06	4.286534e-10	9.464689e+00	2.732938e+01
2.150000e-06	1.408123e-06	4.538346e-10	9.780374e+00	2.931353e+01
2.160000e-06	1.453436e-06	4.739293e-10	1.009511e+01	3.126915e+01
2.170000e-06	1.498620e-06	4.945015e-10	1.040894e+01	3.319414e+01
2.180000e-06	1.543748e-06	5.178769e-10	1.072239e+01	3.508665e+01
2.190000e-06	1.588742e-06	5.440719e-10	1.103490e+01	3.694505e+01
2.200000e-06	1.633510e-06	5.739796e-10	1.134585e+01	3.876796e+01
2.210000e-06	1.678077e-06	6.064861e-10	1.165540e+01	4.055422e+01
2.220000e-06	1.722529e-06	6.372933e-10	1.196415e+01	4.230288e+01
2.230000e-06	1.766911e-06	6.633718e-10	1.227241e+01	4.401323e+01
2.240000e-06	1.811181e-06	6.828482e-10	1.257989e+01	4.568475e+01
2.250000e-06	1.855318e-06	6.959368e-10	1.288645e+01	4.731712e+01
2.260000e-06	1.899346e-06	7.080398e-10	1.319225e+01	4.891020e+01
2.270000e-06	1.943265e-06	7.244582e-10	1.349731e+01	5.046404e+01
2.280000e-06	1.987068e-06	7.450183e-10	1.380154e+01	5.197882e+01
2.290000e-06	2.030853e-06	7.691461e-10	1.410566e+01	5.345487e+01
2.300000e-06	2.074634e-06	7.953982e-10	1.440975e+01	5.489264e+01
2.310000e-06	2.118354e-06	8.201008e-10	1.471342e+01	5.629271e+01
2.320000e-06	2.162015e-06	8.395306e-10	1.501668e+01	5.765573e+01
2.330000e-06	2.205601e-06	8.537992e-10	1.531941e+01	5.898243e+01
2.340000e-06	2.249051e-06	8.659620e-10	1.562120e+01	6.027362e+01
2.350000e-06	2.292339e-06	8.795779e-10	1.592186e+01	6.153015e+01
2.360000e-06	2.335484e-06	8.956917e-10	1.622153e+01	6.275292e+01
2.370000e-06	2.378351e-06	9.140353e-10	1.651928e+01	6.394283e+01
2.380000e-06	2.420781e-06	9.348183e-10	1.681398e+01	6.510082e+01
2.390000e-06	2.462812e-06	9.543902e-10	1.710591e+01	6.622781e+01
2.400000e-06	2.504570e-06	9.695028e-10	1.739595e+01	6.732473e+01
2.410000e-06	2.546046e-06	9.816807e-10	1.768403e+01	6.839249e+01
2.420000e-06	2.587296e-06	9.937903e-10	1.797054e+01	6.943198e+01
2.430000e-06	2.628304e-06	1.005895e-09	1.825537e+01	7.044406e+01
2.440000e-06	2.669023e-06	1.018983e-09	1.853819e+01	7.142957e+01
2.450000e-06	2.709519e-06	1.033774e-09	1.881946e+01	7.238929e+01
2.460000e-06	2.749779e-06	1.049041e-09	1.909909e+01	7.332398e+01
2.470000e-06	2.789859e-06	1.062410e-09	1.937748e+01	7.423434e+01
2.480000e-06	2.829763e-06	1.073050e-09	1.965464e+01	7.512106e+01
2.490000e-06	2.869540e-06	1.082945e-09	1.993092e+01	7.598475e+01
2.500000e-06	2.909238e-06	1.092985e-09	2.020665e+01	7.682600e+01
2.510000e-06	2.948821e-06	1.104648e-09	2.048158e+01	7.764534e+01
2.520000e-06	2.988176e-06	1.117937e-09	2.075493e+01	7.844328e+01
2.530000e-06	3.027337e-06	1.131328e-09	2.102693e+01	7.922027e+01
2.540000e-06	3.066369e-06	1.145071e-09	2.129803e+01	7.997673e+01
2.550000e-06	3.105090e-06	1.155607e-09	2.156697e+01	8.071305e+01
2.560000e-06	3.143519e-06	1.161101e-09	2.183389e+01	8.142959e+01
2.570000e-06	3.181841e-06	1.164221e-09	2.210006e+01	8.212666e+01
2.580000e-06	3.220006e-06	1.167577e-09	2.236514e+01	8.280456e+01
2.590000e-06	3.257924e-06	1.173542e-09	2.262851e+01	8.346358e+01
2.600000e-06	3.295609e-06	1.183278e-09	2.289026e+01	8.410395e+01
2.610000e-06	3.333118e-06	1.196303e-09	2.315078e+01	8.472593e+01
2.620000e-06	3.370428e-06	1.210984e-09	2.340993e+01	8.532974e+01
2.630000e-06	3.407435e-06	1.224355e-09	2.366697e+01	8.591559e+01
2.640000e-06	3.444081e-06	1.233411e-09	2.392150e+01	8.648369e+01
2.650000e-06	3.480359e-06	1.238533e-09	2.417347e+01	8.703426e+01
2.660000e-06	3.516436e-06	1.241823e-09	2.442406e+01	8.756750e+01
2.670000e-06	3.552478e-06	1.244101e-09	2.467439e+01	8.808362e+01
2.680000e-06	3.588444e-06	1.245915e-09	2.492420e+01	8.858284e+01
2.690000e-06	3.624274e-06	1.250609e-09	2.517307e+01	8.906538e+01
2.700000e-06	3.659940e-06	1.260176e-09	2.542079e+01	8.953150e+01
2.710000e-06	3.695376e-06	1.271041e-09	2.566691e+01	8.998142e+01
2.720000e-06	3.730529e-06	1.278724e-09	2.591108e+01	9.041543e+01
2.730000e-06	3.765479e-06	1.283500e-09	2.615382e+01	9.083381e+01
2.740000e-06	3.800132e-06	1.285855e-09	2.639452e+01	9.123685e+01
2.750000e-06	3.834263e-06	1.286219e-09	2.663158e+01	9.162489e+01
2.760000e-06	3.867846e-06	1.286632e-09	2.686484e+01	9.199825e+01
2.770000e-06	3.900964e-06	1.289995e-09	2.709487e+01	9.235730e+01
2.780000e-06	3.933626e-06	1.297295e-09	2.732173e+01	9.270242e+01
2.790000e-06	3.965911e-06	1.307079e-09	2.754597e+01	9.303399e+01
2.800000e-06	3.997974e-06	1.317072e-09	2.776866e+01	9.335244e+01
2.810000e-06	4.029903e-06	1.324302e-09	2.799043e+01	9.365818e+01
2.820000e-06	4.061679e-06	1.327787e-09	2.821114e+01	9.395165e+01
2.830000e-06	4.093303e-06	1.329489e-09	2.843079e+01	9.423330e+01
2.840000e-06	4.124804e-06	1.332065e-09	2.864959e+01	9.450359e+01
2.850000e-06	4.155954e-06	1.335988e-09	2.886594e+01	9.476297e+01
2.860000e-06	4.186673e-06	1.342858e-09	2.907931e+01	9.501190e+01
2.870000e-06	4.217079e-06	1.351098e-09	2.929050e+01	9.525084e+01
2.880000e-06	4.247190e-06	1.357101e-09	2.949964e+01	9.548023e+01
2.890000e-06	4.277031e-06	1.357487e-09	2.970691e+01	9.570052e+01
2.900000e-06	4.306626e-06	1.355677e-09	2.991246e+01	9.591214e+01
