# Temperatura_=_12.8
# Concentracion g/m^3_=_1620.0
# C_Vs_to_Am_M_A/Vsm_=_65563218390.804596
# pendiente_HvsI_1/m_=_3716.3
# ordenada_HvsI_A/m_=_1297.0
# frecuencia_Hz_=_135104.95300495886

Tiempo_(s)	Campo_(V.s)	Magnetizacion_(V.s)	Campo_(kA/m)	Magnetizacion_(A/m)
0.000000e+00	-5.515706e-06	-1.833945e-09	-3.837341e+01	-1.194688e+02
1.000000e-08	-5.515831e-06	-1.829713e-09	-3.837427e+01	-1.194169e+02
2.000000e-08	-5.515775e-06	-1.830294e-09	-3.837389e+01	-1.193614e+02
3.000000e-08	-5.515333e-06	-1.833547e-09	-3.837081e+01	-1.193023e+02
4.000000e-08	-5.514319e-06	-1.836391e-09	-3.836376e+01	-1.192396e+02
5.000000e-08	-5.512743e-06	-1.833534e-09	-3.835279e+01	-1.191735e+02
6.000000e-08	-5.510622e-06	-1.820570e-09	-3.833803e+01	-1.191040e+02
7.000000e-08	-5.507982e-06	-1.819293e-09	-3.831967e+01	-1.190314e+02
8.000000e-08	-5.504802e-06	-1.844763e-09	-3.829755e+01	-1.189557e+02
9.000000e-08	-5.501041e-06	-1.853037e-09	-3.827138e+01	-1.188773e+02
1.000000e-07	-5.496828e-06	-1.848548e-09	-3.824207e+01	-1.187962e+02
1.100000e-07	-5.492454e-06	-1.857574e-09	-3.821164e+01	-1.187127e+02
1.200000e-07	-5.487926e-06	-1.788426e-09	-3.818014e+01	-1.186271e+02
1.300000e-07	-5.483039e-06	-1.768723e-09	-3.814614e+01	-1.185395e+02
1.400000e-07	-5.477738e-06	-1.794021e-09	-3.810926e+01	-1.184500e+02
1.500000e-07	-5.472023e-06	-1.851025e-09	-3.806950e+01	-1.183590e+02
1.600000e-07	-5.465972e-06	-1.845466e-09	-3.802740e+01	-1.182664e+02
1.700000e-07	-5.459639e-06	-1.782695e-09	-3.798334e+01	-1.181724e+02
1.800000e-07	-5.452878e-06	-1.828556e-09	-3.793630e+01	-1.180771e+02
1.900000e-07	-5.445669e-06	-1.833824e-09	-3.788615e+01	-1.179805e+02
2.000000e-07	-5.438191e-06	-1.810111e-09	-3.783413e+01	-1.178825e+02
2.100000e-07	-5.430477e-06	-1.746475e-09	-3.778046e+01	-1.177831e+02
2.200000e-07	-5.422481e-06	-1.803522e-09	-3.772483e+01	-1.176821e+02
2.300000e-07	-5.414160e-06	-1.846958e-09	-3.766694e+01	-1.175794e+02
2.400000e-07	-5.405440e-06	-1.848993e-09	-3.760627e+01	-1.174748e+02
2.500000e-07	-5.396153e-06	-1.790618e-09	-3.754166e+01	-1.173680e+02
2.600000e-07	-5.386194e-06	-1.793588e-09	-3.747238e+01	-1.172587e+02
2.700000e-07	-5.375538e-06	-1.795135e-09	-3.739824e+01	-1.171465e+02
2.800000e-07	-5.364365e-06	-1.785802e-09	-3.732051e+01	-1.170313e+02
2.900000e-07	-5.352768e-06	-1.774910e-09	-3.723982e+01	-1.169124e+02
3.000000e-07	-5.340740e-06	-1.781370e-09	-3.715615e+01	-1.167896e+02
3.100000e-07	-5.328352e-06	-1.788100e-09	-3.706997e+01	-1.166626e+02
3.200000e-07	-5.315542e-06	-1.778086e-09	-3.698084e+01	-1.165308e+02
3.300000e-07	-5.302279e-06	-1.778353e-09	-3.688857e+01	-1.163940e+02
3.400000e-07	-5.288669e-06	-1.756390e-09	-3.679388e+01	-1.162518e+02
3.500000e-07	-5.274782e-06	-1.772759e-09	-3.669727e+01	-1.161038e+02
3.600000e-07	-5.260466e-06	-1.769025e-09	-3.659767e+01	-1.159499e+02
3.700000e-07	-5.245649e-06	-1.754317e-09	-3.649459e+01	-1.157897e+02
3.800000e-07	-5.230375e-06	-1.749949e-09	-3.638832e+01	-1.156231e+02
3.900000e-07	-5.214555e-06	-1.790464e-09	-3.627826e+01	-1.154500e+02
4.000000e-07	-5.198078e-06	-1.745275e-09	-3.616363e+01	-1.152702e+02
4.100000e-07	-5.181214e-06	-1.711309e-09	-3.604631e+01	-1.150838e+02
4.200000e-07	-5.164177e-06	-1.751984e-09	-3.592778e+01	-1.148908e+02
4.300000e-07	-5.146801e-06	-1.774615e-09	-3.580689e+01	-1.146913e+02
4.400000e-07	-5.129026e-06	-1.700808e-09	-3.568323e+01	-1.144854e+02
4.500000e-07	-5.110946e-06	-1.736353e-09	-3.555744e+01	-1.142734e+02
4.600000e-07	-5.092463e-06	-1.788190e-09	-3.542885e+01	-1.140556e+02
4.700000e-07	-5.073522e-06	-1.720401e-09	-3.529708e+01	-1.138321e+02
4.800000e-07	-5.054292e-06	-1.675484e-09	-3.516330e+01	-1.136035e+02
4.900000e-07	-5.034849e-06	-1.759577e-09	-3.502803e+01	-1.133699e+02
5.000000e-07	-5.015132e-06	-1.723762e-09	-3.489085e+01	-1.131319e+02
5.100000e-07	-4.995164e-06	-1.642855e-09	-3.475193e+01	-1.128899e+02
5.200000e-07	-4.974968e-06	-1.700846e-09	-3.461143e+01	-1.126441e+02
5.300000e-07	-4.954437e-06	-1.742410e-09	-3.446859e+01	-1.123952e+02
5.400000e-07	-4.933455e-06	-1.664399e-09	-3.432262e+01	-1.121433e+02
5.500000e-07	-4.912172e-06	-1.689059e-09	-3.417455e+01	-1.118889e+02
5.600000e-07	-4.890546e-06	-1.740728e-09	-3.402410e+01	-1.116323e+02
5.700000e-07	-4.868565e-06	-1.662265e-09	-3.387117e+01	-1.113738e+02
5.800000e-07	-4.846359e-06	-1.635460e-09	-3.371668e+01	-1.111136e+02
5.900000e-07	-4.823721e-06	-1.702959e-09	-3.355919e+01	-1.108519e+02
6.000000e-07	-4.800576e-06	-1.665992e-09	-3.339816e+01	-1.105890e+02
6.100000e-07	-4.777057e-06	-1.610156e-09	-3.323454e+01	-1.103247e+02
6.200000e-07	-4.753403e-06	-1.665816e-09	-3.306998e+01	-1.100592e+02
6.300000e-07	-4.729589e-06	-1.667504e-09	-3.290430e+01	-1.097924e+02
6.400000e-07	-4.705470e-06	-1.619502e-09	-3.273650e+01	-1.095242e+02
6.500000e-07	-4.681174e-06	-1.648418e-09	-3.256747e+01	-1.092544e+02
6.600000e-07	-4.656552e-06	-1.672476e-09	-3.239617e+01	-1.089827e+02
6.700000e-07	-4.631325e-06	-1.614995e-09	-3.222067e+01	-1.087089e+02
6.800000e-07	-4.605502e-06	-1.611078e-09	-3.204101e+01	-1.084327e+02
6.900000e-07	-4.579156e-06	-1.628225e-09	-3.185772e+01	-1.081537e+02
7.000000e-07	-4.552290e-06	-1.599181e-09	-3.167081e+01	-1.078714e+02
7.100000e-07	-4.525014e-06	-1.582340e-09	-3.148105e+01	-1.075855e+02
7.200000e-07	-4.497468e-06	-1.612789e-09	-3.128941e+01	-1.072955e+02
7.300000e-07	-4.469697e-06	-1.603146e-09	-3.109620e+01	-1.070008e+02
7.400000e-07	-4.441764e-06	-1.592828e-09	-3.090187e+01	-1.067012e+02
7.500000e-07	-4.413669e-06	-1.601292e-09	-3.070641e+01	-1.063960e+02
7.600000e-07	-4.385294e-06	-1.593250e-09	-3.050900e+01	-1.060849e+02
7.700000e-07	-4.356599e-06	-1.563782e-09	-3.030936e+01	-1.057674e+02
7.800000e-07	-4.327675e-06	-1.563976e-09	-3.010814e+01	-1.054432e+02
7.900000e-07	-4.298449e-06	-1.560178e-09	-2.990481e+01	-1.051119e+02
8.000000e-07	-4.268901e-06	-1.546253e-09	-2.969924e+01	-1.047733e+02
8.100000e-07	-4.239067e-06	-1.544464e-09	-2.949168e+01	-1.044270e+02
8.200000e-07	-4.208879e-06	-1.551566e-09	-2.928166e+01	-1.040730e+02
8.300000e-07	-4.178359e-06	-1.540821e-09	-2.906933e+01	-1.037110e+02
8.400000e-07	-4.147578e-06	-1.536068e-09	-2.885518e+01	-1.033410e+02
8.500000e-07	-4.116498e-06	-1.541902e-09	-2.863895e+01	-1.029631e+02
8.600000e-07	-4.085121e-06	-1.534155e-09	-2.842066e+01	-1.025772e+02
8.700000e-07	-4.053510e-06	-1.517206e-09	-2.820074e+01	-1.021835e+02
8.800000e-07	-4.021744e-06	-1.512202e-09	-2.797974e+01	-1.017821e+02
8.900000e-07	-3.989874e-06	-1.504889e-09	-2.775802e+01	-1.013734e+02
9.000000e-07	-3.957774e-06	-1.489114e-09	-2.753469e+01	-1.009576e+02
9.100000e-07	-3.925377e-06	-1.486228e-09	-2.730930e+01	-1.005350e+02
9.200000e-07	-3.892703e-06	-1.484012e-09	-2.708198e+01	-1.001060e+02
9.300000e-07	-3.859769e-06	-1.475830e-09	-2.685286e+01	-9.967102e+01
9.400000e-07	-3.826428e-06	-1.470388e-09	-2.662090e+01	-9.923051e+01
9.500000e-07	-3.792567e-06	-1.472337e-09	-2.638533e+01	-9.878493e+01
9.600000e-07	-3.758208e-06	-1.458822e-09	-2.614629e+01	-9.833476e+01
9.700000e-07	-3.723354e-06	-1.444242e-09	-2.590381e+01	-9.788048e+01
9.800000e-07	-3.688086e-06	-1.436413e-09	-2.565844e+01	-9.742259e+01
9.900000e-07	-3.652544e-06	-1.429053e-09	-2.541117e+01	-9.696155e+01
1.000000e-06	-3.616851e-06	-1.415532e-09	-2.516285e+01	-9.649785e+01
1.010000e-06	-3.581040e-06	-1.411207e-09	-2.491371e+01	-9.603192e+01
1.020000e-06	-3.545105e-06	-1.405124e-09	-2.466371e+01	-9.556418e+01
1.030000e-06	-3.509030e-06	-1.396690e-09	-2.441273e+01	-9.509501e+01
1.040000e-06	-3.472827e-06	-1.390205e-09	-2.416086e+01	-9.462477e+01
1.050000e-06	-3.436435e-06	-1.390816e-09	-2.390768e+01	-9.415375e+01
1.060000e-06	-3.399757e-06	-1.381350e-09	-2.365250e+01	-9.368220e+01
1.070000e-06	-3.362836e-06	-1.369580e-09	-2.339564e+01	-9.321032e+01
1.080000e-06	-3.325671e-06	-1.360877e-09	-2.313708e+01	-9.273826e+01
1.090000e-06	-3.288176e-06	-1.351538e-09	-2.287622e+01	-9.226611e+01
1.100000e-06	-3.250391e-06	-1.337630e-09	-2.261335e+01	-9.179387e+01
1.110000e-06	-3.212434e-06	-1.328295e-09	-2.234927e+01	-9.132152e+01
1.120000e-06	-3.174282e-06	-1.318412e-09	-2.208385e+01	-9.084896e+01
1.130000e-06	-3.135861e-06	-1.307533e-09	-2.181655e+01	-9.037601e+01
1.140000e-06	-3.097191e-06	-1.301798e-09	-2.154752e+01	-8.990245e+01
1.150000e-06	-3.058254e-06	-1.302058e-09	-2.127663e+01	-8.942798e+01
1.160000e-06	-3.019089e-06	-1.297867e-09	-2.100415e+01	-8.895225e+01
1.170000e-06	-2.979780e-06	-1.287538e-09	-2.073068e+01	-8.847485e+01
1.180000e-06	-2.940310e-06	-1.276852e-09	-2.045608e+01	-8.799531e+01
1.190000e-06	-2.900669e-06	-1.263746e-09	-2.018029e+01	-8.751309e+01
1.200000e-06	-2.860970e-06	-1.249800e-09	-1.990410e+01	-8.702764e+01
1.210000e-06	-2.821185e-06	-1.238418e-09	-1.962731e+01	-8.653832e+01
1.220000e-06	-2.781226e-06	-1.231200e-09	-1.934931e+01	-8.604447e+01
1.230000e-06	-2.741153e-06	-1.223050e-09	-1.907052e+01	-8.554540e+01
1.240000e-06	-2.700983e-06	-1.216428e-09	-1.879105e+01	-8.504038e+01
1.250000e-06	-2.660683e-06	-1.209218e-09	-1.851068e+01	-8.452865e+01
1.260000e-06	-2.620149e-06	-1.203359e-09	-1.822868e+01	-8.400945e+01
1.270000e-06	-2.579232e-06	-1.195372e-09	-1.794402e+01	-8.348198e+01
1.280000e-06	-2.538023e-06	-1.184582e-09	-1.765732e+01	-8.294547e+01
1.290000e-06	-2.496653e-06	-1.171725e-09	-1.736950e+01	-8.239912e+01
1.300000e-06	-2.454991e-06	-1.159044e-09	-1.707966e+01	-8.184218e+01
1.310000e-06	-2.413013e-06	-1.145326e-09	-1.678761e+01	-8.127390e+01
1.320000e-06	-2.370617e-06	-1.134405e-09	-1.649266e+01	-8.069353e+01
1.330000e-06	-2.327875e-06	-1.125096e-09	-1.619529e+01	-8.010041e+01
1.340000e-06	-2.285012e-06	-1.118034e-09	-1.589709e+01	-7.949388e+01
1.350000e-06	-2.241916e-06	-1.113122e-09	-1.559727e+01	-7.887336e+01
1.360000e-06	-2.198523e-06	-1.110121e-09	-1.529538e+01	-7.823829e+01
1.370000e-06	-2.154931e-06	-1.101344e-09	-1.499211e+01	-7.758821e+01
1.380000e-06	-2.111235e-06	-1.087858e-09	-1.468810e+01	-7.692272e+01
1.390000e-06	-2.067458e-06	-1.070432e-09	-1.438355e+01	-7.624148e+01
1.400000e-06	-2.023647e-06	-1.052753e-09	-1.407875e+01	-7.554424e+01
1.410000e-06	-1.979798e-06	-1.036916e-09	-1.377368e+01	-7.483082e+01
1.420000e-06	-1.935854e-06	-1.027144e-09	-1.346796e+01	-7.410113e+01
1.430000e-06	-1.891859e-06	-1.020923e-09	-1.316188e+01	-7.335515e+01
1.440000e-06	-1.847787e-06	-1.014331e-09	-1.285527e+01	-7.259296e+01
1.450000e-06	-1.803587e-06	-1.005357e-09	-1.254776e+01	-7.181468e+01
1.460000e-06	-1.759301e-06	-9.940214e-10	-1.223966e+01	-7.102053e+01
1.470000e-06	-1.714888e-06	-9.786270e-10	-1.193068e+01	-7.021079e+01
1.480000e-06	-1.670354e-06	-9.620977e-10	-1.162085e+01	-6.938578e+01
1.490000e-06	-1.625739e-06	-9.472145e-10	-1.131046e+01	-6.854588e+01
1.500000e-06	-1.580907e-06	-9.294252e-10	-1.099855e+01	-6.769149e+01
1.510000e-06	-1.535838e-06	-9.104931e-10	-1.068501e+01	-6.682305e+01
1.520000e-06	-1.490676e-06	-8.961834e-10	-1.037080e+01	-6.594100e+01
1.530000e-06	-1.445487e-06	-8.845756e-10	-1.005642e+01	-6.504577e+01
1.540000e-06	-1.400232e-06	-8.730379e-10	-9.741573e+00	-6.413777e+01
1.550000e-06	-1.354863e-06	-8.642048e-10	-9.425940e+00	-6.321737e+01
1.560000e-06	-1.309392e-06	-8.519248e-10	-9.109593e+00	-6.228489e+01
1.570000e-06	-1.263837e-06	-8.349298e-10	-8.792660e+00	-6.134058e+01
1.580000e-06	-1.218214e-06	-8.161012e-10	-8.475254e+00	-6.038458e+01
1.590000e-06	-1.172496e-06	-7.979123e-10	-8.157190e+00	-5.941696e+01
1.600000e-06	-1.126692e-06	-7.777798e-10	-7.838528e+00	-5.843765e+01
1.610000e-06	-1.080799e-06	-7.604043e-10	-7.519241e+00	-5.744645e+01
1.620000e-06	-1.034791e-06	-7.467142e-10	-7.199162e+00	-5.644303e+01
1.630000e-06	-9.887373e-07	-7.367945e-10	-6.878760e+00	-5.542689e+01
1.640000e-06	-9.426814e-07	-7.292717e-10	-6.558344e+00	-5.439739e+01
1.650000e-06	-8.965244e-07	-7.195535e-10	-6.237224e+00	-5.335371e+01
1.660000e-06	-8.502175e-07	-7.050873e-10	-5.915062e+00	-5.229487e+01
1.670000e-06	-8.038740e-07	-6.880127e-10	-5.592644e+00	-5.121973e+01
1.680000e-06	-7.575841e-07	-6.693143e-10	-5.270601e+00	-5.012698e+01
1.690000e-06	-7.112862e-07	-6.506312e-10	-4.948501e+00	-4.901516e+01
1.700000e-06	-6.649048e-07	-6.309608e-10	-4.625820e+00	-4.788266e+01
1.710000e-06	-6.184330e-07	-6.091775e-10	-4.302510e+00	-4.672775e+01
1.720000e-06	-5.718635e-07	-5.874800e-10	-3.978521e+00	-4.554858e+01
1.730000e-06	-5.252881e-07	-5.690780e-10	-3.654490e+00	-4.434321e+01
1.740000e-06	-4.787482e-07	-5.540546e-10	-3.330707e+00	-4.310963e+01
1.750000e-06	-4.321256e-07	-5.393093e-10	-3.006348e+00	-4.184577e+01
1.760000e-06	-3.854029e-07	-5.212170e-10	-2.681293e+00	-4.054957e+01
1.770000e-06	-3.386360e-07	-4.983597e-10	-2.355930e+00	-3.921894e+01
1.780000e-06	-2.918853e-07	-4.743848e-10	-2.030680e+00	-3.785187e+01
1.790000e-06	-2.452122e-07	-4.516421e-10	-1.705970e+00	-3.644639e+01
1.800000e-06	-1.985357e-07	-4.300366e-10	-1.381236e+00	-3.500065e+01
1.810000e-06	-1.517708e-07	-4.087939e-10	-1.055887e+00	-3.351293e+01
1.820000e-06	-1.050033e-07	-3.882076e-10	-7.305204e-01	-3.198168e+01
1.830000e-06	-5.821548e-08	-3.678210e-10	-4.050119e-01	-3.040553e+01
1.840000e-06	-1.146779e-08	-3.469744e-10	-7.978275e-02	-2.878337e+01
1.850000e-06	3.523355e-08	-3.263850e-10	2.451239e-01	-2.711429e+01
1.860000e-06	8.200056e-08	-3.043860e-10	5.704874e-01	-2.539771e+01
1.870000e-06	1.288046e-07	-2.812573e-10	8.961084e-01	-2.363329e+01
1.880000e-06	1.755515e-07	-2.563724e-10	1.221332e+00	-2.182105e+01
1.890000e-06	2.222195e-07	-2.283400e-10	1.546007e+00	-1.996130e+01
1.900000e-06	2.689043e-07	-1.985985e-10	1.870798e+00	-1.805472e+01
1.910000e-06	3.156618e-07	-1.683466e-10	2.196096e+00	-1.610231e+01
1.920000e-06	3.624069e-07	-1.390032e-10	2.521307e+00	-1.410540e+01
1.930000e-06	4.090894e-07	-1.119368e-10	2.846082e+00	-1.206569e+01
1.940000e-06	4.556634e-07	-8.726066e-11	3.170103e+00	-9.985179e+00
1.950000e-06	5.021836e-07	-6.250980e-11	3.493749e+00	-7.866213e+00
1.960000e-06	5.487432e-07	-3.662675e-11	3.817670e+00	-5.711418e+00
1.970000e-06	5.953204e-07	-8.195696e-12	4.141713e+00	-3.523709e+00
1.980000e-06	6.417953e-07	2.376489e-11	4.465044e+00	-1.306255e+00
1.990000e-06	6.880708e-07	6.064551e-11	4.786988e+00	9.375473e-01
2.000000e-06	7.342825e-07	9.950726e-11	5.108489e+00	3.204102e+00
2.010000e-06	7.805000e-07	1.364307e-10	5.430029e+00	5.489651e+00
2.020000e-06	8.267775e-07	1.708586e-10	5.751987e+00	7.790304e+00
2.030000e-06	8.730847e-07	2.040205e-10	6.074151e+00	1.010208e+01
2.040000e-06	9.192789e-07	2.338300e-10	6.395530e+00	1.242095e+01
2.050000e-06	9.653577e-07	2.613132e-10	6.716106e+00	1.474285e+01
2.060000e-06	1.011332e-06	2.912064e-10	7.035953e+00	1.706375e+01
2.070000e-06	1.057248e-06	3.240794e-10	7.355397e+00	1.937966e+01
2.080000e-06	1.103113e-06	3.578461e-10	7.674484e+00	2.168671e+01
2.090000e-06	1.148893e-06	3.927647e-10	7.992984e+00	2.398113e+01
2.100000e-06	1.194598e-06	4.284527e-10	8.310954e+00	2.625930e+01
2.110000e-06	1.240150e-06	4.630982e-10	8.627869e+00	2.851781e+01
2.120000e-06	1.285617e-06	4.955629e-10	8.944186e+00	3.075341e+01
2.130000e-06	1.331008e-06	5.273137e-10	9.259975e+00	3.296313e+01
2.140000e-06	1.376327e-06	5.568684e-10	9.575265e+00	3.514420e+01
2.150000e-06	1.421574e-06	5.813963e-10	9.890054e+00	3.729415e+01
2.160000e-06	1.466684e-06	6.033446e-10	1.020389e+01	3.941073e+01
2.170000e-06	1.511712e-06	6.274638e-10	1.051716e+01	4.149201e+01
2.180000e-06	1.556676e-06	6.557824e-10	1.082998e+01	4.353630e+01
2.190000e-06	1.601495e-06	6.866177e-10	1.114179e+01	4.554219e+01
2.200000e-06	1.646147e-06	7.194908e-10	1.145243e+01	4.750854e+01
2.210000e-06	1.690669e-06	7.530494e-10	1.176218e+01	4.943448e+01
2.220000e-06	1.734998e-06	7.824510e-10	1.207058e+01	5.131936e+01
2.230000e-06	1.779225e-06	8.058412e-10	1.237827e+01	5.316278e+01
2.240000e-06	1.823427e-06	8.242238e-10	1.268579e+01	5.496455e+01
2.250000e-06	1.867506e-06	8.389907e-10	1.299245e+01	5.672465e+01
2.260000e-06	1.911479e-06	8.558005e-10	1.329838e+01	5.844328e+01
2.270000e-06	1.955421e-06	8.786126e-10	1.360409e+01	6.012075e+01
2.280000e-06	1.999321e-06	9.056285e-10	1.390951e+01	6.175753e+01
2.290000e-06	2.043160e-06	9.327263e-10	1.421450e+01	6.335419e+01
2.300000e-06	2.086954e-06	9.601703e-10	1.451918e+01	6.491139e+01
2.310000e-06	2.130686e-06	9.845009e-10	1.482343e+01	6.642987e+01
2.320000e-06	2.174317e-06	1.003244e-09	1.512697e+01	6.791040e+01
2.330000e-06	2.217756e-06	1.018349e-09	1.542919e+01	6.935381e+01
2.340000e-06	2.260995e-06	1.032429e-09	1.573000e+01	7.076093e+01
2.350000e-06	2.304042e-06	1.048549e-09	1.602949e+01	7.213259e+01
2.360000e-06	2.346875e-06	1.065809e-09	1.632748e+01	7.346963e+01
2.370000e-06	2.389422e-06	1.084102e-09	1.662349e+01	7.477286e+01
2.380000e-06	2.431550e-06	1.103713e-09	1.691657e+01	7.604307e+01
2.390000e-06	2.473283e-06	1.122236e-09	1.720691e+01	7.728102e+01
2.400000e-06	2.514763e-06	1.139015e-09	1.749549e+01	7.848745e+01
2.410000e-06	2.556012e-06	1.155800e-09	1.778247e+01	7.966305e+01
2.420000e-06	2.597013e-06	1.172575e-09	1.806772e+01	8.080848e+01
2.430000e-06	2.637745e-06	1.188031e-09	1.835110e+01	8.192438e+01
2.440000e-06	2.678221e-06	1.203418e-09	1.863269e+01	8.301137e+01
2.450000e-06	2.718508e-06	1.218726e-09	1.891298e+01	8.407003e+01
2.460000e-06	2.758661e-06	1.233468e-09	1.919232e+01	8.510094e+01
2.470000e-06	2.798696e-06	1.246811e-09	1.947085e+01	8.610469e+01
2.480000e-06	2.838608e-06	1.259075e-09	1.974852e+01	8.708182e+01
2.490000e-06	2.878434e-06	1.272287e-09	2.002560e+01	8.803293e+01
2.500000e-06	2.918100e-06	1.285454e-09	2.030156e+01	8.895860e+01
2.510000e-06	2.957594e-06	1.300487e-09	2.057632e+01	8.985943e+01
2.520000e-06	2.996928e-06	1.315166e-09	2.084998e+01	9.073604e+01
2.530000e-06	3.036052e-06	1.328555e-09	2.112216e+01	9.158910e+01
2.540000e-06	3.074889e-06	1.341127e-09	2.139236e+01	9.241928e+01
2.550000e-06	3.113429e-06	1.350629e-09	2.166048e+01	9.322728e+01
2.560000e-06	3.151717e-06	1.357032e-09	2.192686e+01	9.401385e+01
2.570000e-06	3.189802e-06	1.362535e-09	2.219182e+01	9.477973e+01
2.580000e-06	3.227735e-06	1.370678e-09	2.245572e+01	9.552572e+01
2.590000e-06	3.265500e-06	1.380709e-09	2.271846e+01	9.625261e+01
2.600000e-06	3.303121e-06	1.394002e-09	2.298019e+01	9.696121e+01
2.610000e-06	3.340555e-06	1.410432e-09	2.324063e+01	9.765235e+01
2.620000e-06	3.377641e-06	1.427779e-09	2.349864e+01	9.832682e+01
2.630000e-06	3.414366e-06	1.440740e-09	2.375414e+01	9.898544e+01
2.640000e-06	3.450911e-06	1.447693e-09	2.400839e+01	9.962899e+01
2.650000e-06	3.487201e-06	1.451559e-09	2.426086e+01	1.002582e+02
2.660000e-06	3.523227e-06	1.453780e-09	2.451150e+01	1.008738e+02
2.670000e-06	3.559127e-06	1.457027e-09	2.476126e+01	1.014764e+02
2.680000e-06	3.594962e-06	1.464065e-09	2.501057e+01	1.020667e+02
2.690000e-06	3.630732e-06	1.477033e-09	2.525942e+01	1.026452e+02
2.700000e-06	3.666367e-06	1.492222e-09	2.550734e+01	1.032124e+02
2.710000e-06	3.701777e-06	1.504627e-09	2.575369e+01	1.037686e+02
2.720000e-06	3.736875e-06	1.513226e-09	2.599787e+01	1.043141e+02
2.730000e-06	3.771624e-06	1.517402e-09	2.623963e+01	1.048493e+02
2.740000e-06	3.805855e-06	1.518776e-09	2.647778e+01	1.053743e+02
2.750000e-06	3.839538e-06	1.520144e-09	2.671211e+01	1.058891e+02
2.760000e-06	3.872779e-06	1.524538e-09	2.694337e+01	1.063938e+02
2.770000e-06	3.905607e-06	1.532609e-09	2.717176e+01	1.068882e+02
2.780000e-06	3.938072e-06	1.542343e-09	2.739762e+01	1.073723e+02
2.790000e-06	3.970233e-06	1.552288e-09	2.762137e+01	1.078458e+02
2.800000e-06	4.002187e-06	1.561257e-09	2.784368e+01	1.083085e+02
2.810000e-06	4.034043e-06	1.568293e-09	2.806530e+01	1.087602e+02
2.820000e-06	4.065768e-06	1.573768e-09	2.828602e+01	1.092005e+02
2.830000e-06	4.097290e-06	1.579625e-09	2.850532e+01	1.096291e+02
2.840000e-06	4.128587e-06	1.585634e-09	2.872306e+01	1.100456e+02
2.850000e-06	4.159598e-06	1.589373e-09	2.893880e+01	1.104499e+02
2.860000e-06	4.190199e-06	1.592347e-09	2.915170e+01	1.108415e+02
2.870000e-06	4.220412e-06	1.596975e-09	2.936189e+01	1.112203e+02
2.880000e-06	4.250373e-06	1.601269e-09	2.957034e+01	1.115860e+02
2.890000e-06	4.280109e-06	1.605761e-09	2.977721e+01	1.119384e+02
2.900000e-06	4.309613e-06	1.613083e-09	2.998248e+01	1.122776e+02
