# Temperatura_=_-0.85
# Concentracion g/m^3_=_1620.0
# C_Vs_to_Am_M_A/Vsm_=_65563218390.804596
# pendiente_HvsI_1/m_=_3716.3
# ordenada_HvsI_A/m_=_1297.0
# frecuencia_Hz_=_135109.29149793793

Tiempo_(s)	Campo_(V.s)	Magnetizacion_(V.s)	Campo_(kA/m)	Magnetizacion_(A/m)
0.000000e+00	-5.513881e-06	-1.396560e-09	-3.836837e+01	-9.173715e+01
1.000000e-08	-5.514008e-06	-1.393601e-09	-3.836926e+01	-9.167581e+01
2.000000e-08	-5.513799e-06	-1.394026e-09	-3.836780e+01	-9.161965e+01
3.000000e-08	-5.513142e-06	-1.395146e-09	-3.836323e+01	-9.156897e+01
4.000000e-08	-5.512003e-06	-1.395909e-09	-3.835531e+01	-9.152396e+01
5.000000e-08	-5.510257e-06	-1.396819e-09	-3.834316e+01	-9.148475e+01
6.000000e-08	-5.507872e-06	-1.404862e-09	-3.832656e+01	-9.145138e+01
7.000000e-08	-5.504949e-06	-1.412781e-09	-3.830622e+01	-9.142379e+01
8.000000e-08	-5.501538e-06	-1.383884e-09	-3.828249e+01	-9.140183e+01
9.000000e-08	-5.497678e-06	-1.348884e-09	-3.825563e+01	-9.138525e+01
1.000000e-07	-5.493395e-06	-1.393959e-09	-3.822583e+01	-9.137375e+01
1.100000e-07	-5.488905e-06	-1.461672e-09	-3.819458e+01	-9.136689e+01
1.200000e-07	-5.484199e-06	-1.409752e-09	-3.816183e+01	-9.136421e+01
1.300000e-07	-5.479167e-06	-1.311221e-09	-3.812682e+01	-9.136513e+01
1.400000e-07	-5.473827e-06	-1.341031e-09	-3.808966e+01	-9.136904e+01
1.500000e-07	-5.468091e-06	-1.444023e-09	-3.804974e+01	-9.137525e+01
1.600000e-07	-5.461983e-06	-1.430014e-09	-3.800725e+01	-9.138302e+01
1.700000e-07	-5.455528e-06	-1.310959e-09	-3.796233e+01	-9.139158e+01
1.800000e-07	-5.448609e-06	-1.299746e-09	-3.791418e+01	-9.140013e+01
1.900000e-07	-5.441222e-06	-1.414493e-09	-3.786278e+01	-9.140785e+01
2.000000e-07	-5.433571e-06	-1.463797e-09	-3.780954e+01	-9.141391e+01
2.100000e-07	-5.425760e-06	-1.407292e-09	-3.775519e+01	-9.141748e+01
2.200000e-07	-5.417761e-06	-1.366175e-09	-3.769953e+01	-9.141774e+01
2.300000e-07	-5.409338e-06	-1.411149e-09	-3.764091e+01	-9.141390e+01
2.400000e-07	-5.400261e-06	-1.427966e-09	-3.757775e+01	-9.140520e+01
2.500000e-07	-5.390585e-06	-1.394619e-09	-3.751042e+01	-9.139091e+01
2.600000e-07	-5.380321e-06	-1.379688e-09	-3.743900e+01	-9.137038e+01
2.700000e-07	-5.369423e-06	-1.413899e-09	-3.736317e+01	-9.134299e+01
2.800000e-07	-5.358033e-06	-1.415175e-09	-3.728391e+01	-9.130820e+01
2.900000e-07	-5.346275e-06	-1.387181e-09	-3.720209e+01	-9.126554e+01
3.000000e-07	-5.334178e-06	-1.375884e-09	-3.711792e+01	-9.121461e+01
3.100000e-07	-5.321679e-06	-1.395464e-09	-3.703093e+01	-9.115511e+01
3.200000e-07	-5.308725e-06	-1.390356e-09	-3.694080e+01	-9.108681e+01
3.300000e-07	-5.295397e-06	-1.351504e-09	-3.684806e+01	-9.100956e+01
3.400000e-07	-5.281671e-06	-1.349716e-09	-3.675254e+01	-9.092331e+01
3.500000e-07	-5.267546e-06	-1.387226e-09	-3.665425e+01	-9.082809e+01
3.600000e-07	-5.253038e-06	-1.397532e-09	-3.655330e+01	-9.072401e+01
3.700000e-07	-5.238080e-06	-1.369898e-09	-3.644922e+01	-9.061126e+01
3.800000e-07	-5.222591e-06	-1.386549e-09	-3.634143e+01	-9.049011e+01
3.900000e-07	-5.206616e-06	-1.392813e-09	-3.623027e+01	-9.036090e+01
4.000000e-07	-5.190259e-06	-1.341776e-09	-3.611645e+01	-9.022403e+01
4.100000e-07	-5.173527e-06	-1.330959e-09	-3.600002e+01	-9.007996e+01
4.200000e-07	-5.156503e-06	-1.394229e-09	-3.588156e+01	-8.992921e+01
4.300000e-07	-5.139099e-06	-1.378877e-09	-3.576045e+01	-8.977233e+01
4.400000e-07	-5.121293e-06	-1.326796e-09	-3.563655e+01	-8.960991e+01
4.500000e-07	-5.103092e-06	-1.371225e-09	-3.550990e+01	-8.944256e+01
4.600000e-07	-5.084451e-06	-1.408698e-09	-3.538019e+01	-8.927093e+01
4.700000e-07	-5.065447e-06	-1.336219e-09	-3.524795e+01	-8.909564e+01
4.800000e-07	-5.046174e-06	-1.325351e-09	-3.511384e+01	-8.891734e+01
4.900000e-07	-5.026698e-06	-1.376226e-09	-3.497831e+01	-8.873667e+01
5.000000e-07	-5.006953e-06	-1.338438e-09	-3.484092e+01	-8.855424e+01
5.100000e-07	-4.986998e-06	-1.296603e-09	-3.470206e+01	-8.837064e+01
5.200000e-07	-4.966819e-06	-1.355970e-09	-3.456164e+01	-8.818642e+01
5.300000e-07	-4.946218e-06	-1.356762e-09	-3.441829e+01	-8.800213e+01
5.400000e-07	-4.925160e-06	-1.298369e-09	-3.427176e+01	-8.781822e+01
5.500000e-07	-4.903750e-06	-1.334298e-09	-3.412277e+01	-8.763515e+01
5.600000e-07	-4.881951e-06	-1.375920e-09	-3.397109e+01	-8.745328e+01
5.700000e-07	-4.859810e-06	-1.319160e-09	-3.381702e+01	-8.727293e+01
5.800000e-07	-4.837347e-06	-1.307811e-09	-3.366071e+01	-8.709439e+01
5.900000e-07	-4.814475e-06	-1.349651e-09	-3.350155e+01	-8.691784e+01
6.000000e-07	-4.791296e-06	-1.316583e-09	-3.334027e+01	-8.674345e+01
6.100000e-07	-4.767927e-06	-1.279447e-09	-3.317765e+01	-8.657129e+01
6.200000e-07	-4.744382e-06	-1.313306e-09	-3.301381e+01	-8.640139e+01
6.300000e-07	-4.720572e-06	-1.319721e-09	-3.284813e+01	-8.623373e+01
6.400000e-07	-4.696414e-06	-1.294082e-09	-3.268003e+01	-8.606821e+01
6.500000e-07	-4.671909e-06	-1.316410e-09	-3.250951e+01	-8.590470e+01
6.600000e-07	-4.646952e-06	-1.329737e-09	-3.233584e+01	-8.574302e+01
6.700000e-07	-4.621423e-06	-1.299024e-09	-3.215820e+01	-8.558292e+01
6.800000e-07	-4.595344e-06	-1.289078e-09	-3.197673e+01	-8.542415e+01
6.900000e-07	-4.568736e-06	-1.298629e-09	-3.179158e+01	-8.526640e+01
7.000000e-07	-4.541706e-06	-1.279890e-09	-3.160349e+01	-8.510932e+01
7.100000e-07	-4.514374e-06	-1.273107e-09	-3.141330e+01	-8.495256e+01
7.200000e-07	-4.486851e-06	-1.291478e-09	-3.122178e+01	-8.479574e+01
7.300000e-07	-4.459208e-06	-1.294624e-09	-3.102943e+01	-8.463845e+01
7.400000e-07	-4.431388e-06	-1.282063e-09	-3.083584e+01	-8.448030e+01
7.500000e-07	-4.403231e-06	-1.281604e-09	-3.063991e+01	-8.432086e+01
7.600000e-07	-4.374747e-06	-1.277491e-09	-3.044171e+01	-8.415975e+01
7.700000e-07	-4.346018e-06	-1.268463e-09	-3.024179e+01	-8.399654e+01
7.800000e-07	-4.316997e-06	-1.263518e-09	-3.003985e+01	-8.383086e+01
7.900000e-07	-4.287658e-06	-1.262865e-09	-2.983570e+01	-8.366232e+01
8.000000e-07	-4.257964e-06	-1.255955e-09	-2.962907e+01	-8.349058e+01
8.100000e-07	-4.227913e-06	-1.253730e-09	-2.941996e+01	-8.331528e+01
8.200000e-07	-4.197575e-06	-1.250887e-09	-2.920886e+01	-8.313614e+01
8.300000e-07	-4.167067e-06	-1.243556e-09	-2.899656e+01	-8.295286e+01
8.400000e-07	-4.136328e-06	-1.241355e-09	-2.878267e+01	-8.276520e+01
8.500000e-07	-4.105292e-06	-1.246754e-09	-2.856670e+01	-8.257295e+01
8.600000e-07	-4.073991e-06	-1.244426e-09	-2.834889e+01	-8.237592e+01
8.700000e-07	-4.042480e-06	-1.236365e-09	-2.812962e+01	-8.217398e+01
8.800000e-07	-4.010841e-06	-1.232951e-09	-2.790946e+01	-8.196701e+01
8.900000e-07	-3.979025e-06	-1.225374e-09	-2.768807e+01	-8.175494e+01
9.000000e-07	-3.946896e-06	-1.213467e-09	-2.746450e+01	-8.153775e+01
9.100000e-07	-3.914465e-06	-1.209415e-09	-2.723883e+01	-8.131543e+01
9.200000e-07	-3.881651e-06	-1.206258e-09	-2.701049e+01	-8.108803e+01
9.300000e-07	-3.848346e-06	-1.199706e-09	-2.677874e+01	-8.085562e+01
9.400000e-07	-3.814560e-06	-1.198646e-09	-2.654364e+01	-8.061831e+01
9.500000e-07	-3.780311e-06	-1.197726e-09	-2.630532e+01	-8.037622e+01
9.600000e-07	-3.745676e-06	-1.187904e-09	-2.606431e+01	-8.012952e+01
9.700000e-07	-3.710696e-06	-1.176499e-09	-2.582090e+01	-7.987840e+01
9.800000e-07	-3.675457e-06	-1.174090e-09	-2.557569e+01	-7.962308e+01
9.900000e-07	-3.640031e-06	-1.172349e-09	-2.532918e+01	-7.936377e+01
1.000000e-06	-3.604479e-06	-1.167427e-09	-2.508179e+01	-7.910072e+01
1.010000e-06	-3.568835e-06	-1.161436e-09	-2.483376e+01	-7.883420e+01
1.020000e-06	-3.532996e-06	-1.155858e-09	-2.458437e+01	-7.856444e+01
1.030000e-06	-3.496940e-06	-1.146540e-09	-2.433348e+01	-7.829173e+01
1.040000e-06	-3.460720e-06	-1.143524e-09	-2.408144e+01	-7.801633e+01
1.050000e-06	-3.424217e-06	-1.144464e-09	-2.382743e+01	-7.773848e+01
1.060000e-06	-3.387380e-06	-1.142183e-09	-2.357110e+01	-7.745845e+01
1.070000e-06	-3.350310e-06	-1.134553e-09	-2.331315e+01	-7.717645e+01
1.080000e-06	-3.312939e-06	-1.129211e-09	-2.305311e+01	-7.689269e+01
1.090000e-06	-3.275252e-06	-1.121832e-09	-2.279086e+01	-7.660738e+01
1.100000e-06	-3.237420e-06	-1.111573e-09	-2.252760e+01	-7.632066e+01
1.110000e-06	-3.199397e-06	-1.101362e-09	-2.226303e+01	-7.603267e+01
1.120000e-06	-3.161109e-06	-1.092502e-09	-2.199659e+01	-7.574350e+01
1.130000e-06	-3.122591e-06	-1.085506e-09	-2.172857e+01	-7.545320e+01
1.140000e-06	-3.083894e-06	-1.085160e-09	-2.145930e+01	-7.516179e+01
1.150000e-06	-3.044992e-06	-1.092271e-09	-2.118859e+01	-7.486923e+01
1.160000e-06	-3.005915e-06	-1.095849e-09	-2.091668e+01	-7.457545e+01
1.170000e-06	-2.966723e-06	-1.089792e-09	-2.064396e+01	-7.428031e+01
1.180000e-06	-2.927370e-06	-1.081978e-09	-2.037012e+01	-7.398366e+01
1.190000e-06	-2.887822e-06	-1.074164e-09	-2.009493e+01	-7.368527e+01
1.200000e-06	-2.848102e-06	-1.063631e-09	-1.981853e+01	-7.338486e+01
1.210000e-06	-2.808258e-06	-1.054828e-09	-1.954128e+01	-7.308213e+01
1.220000e-06	-2.768333e-06	-1.051435e-09	-1.926346e+01	-7.277670e+01
1.230000e-06	-2.728336e-06	-1.050029e-09	-1.898515e+01	-7.246819e+01
1.240000e-06	-2.688117e-06	-1.046765e-09	-1.870528e+01	-7.215614e+01
1.250000e-06	-2.647667e-06	-1.044781e-09	-1.842381e+01	-7.184008e+01
1.260000e-06	-2.606970e-06	-1.039446e-09	-1.814061e+01	-7.151950e+01
1.270000e-06	-2.565929e-06	-1.029435e-09	-1.785503e+01	-7.119386e+01
1.280000e-06	-2.524540e-06	-1.019233e-09	-1.756702e+01	-7.086261e+01
1.290000e-06	-2.482851e-06	-1.012861e-09	-1.727693e+01	-7.052518e+01
1.300000e-06	-2.440867e-06	-1.005187e-09	-1.698479e+01	-7.018099e+01
1.310000e-06	-2.398615e-06	-9.960129e-10	-1.669078e+01	-6.982946e+01
1.320000e-06	-2.356100e-06	-9.887583e-10	-1.639494e+01	-6.947000e+01
1.330000e-06	-2.313279e-06	-9.830204e-10	-1.609697e+01	-6.910206e+01
1.340000e-06	-2.270251e-06	-9.775854e-10	-1.579756e+01	-6.872508e+01
1.350000e-06	-2.227086e-06	-9.746167e-10	-1.549719e+01	-6.833853e+01
1.360000e-06	-2.183733e-06	-9.724901e-10	-1.519552e+01	-6.794192e+01
1.370000e-06	-2.140206e-06	-9.681772e-10	-1.489264e+01	-6.753477e+01
1.380000e-06	-2.096623e-06	-9.585800e-10	-1.458937e+01	-6.711666e+01
1.390000e-06	-2.053001e-06	-9.467695e-10	-1.428582e+01	-6.668720e+01
1.400000e-06	-2.009302e-06	-9.325319e-10	-1.398174e+01	-6.624604e+01
1.410000e-06	-1.965499e-06	-9.179912e-10	-1.367694e+01	-6.579290e+01
1.420000e-06	-1.921642e-06	-9.066405e-10	-1.337176e+01	-6.532753e+01
1.430000e-06	-1.877706e-06	-8.978424e-10	-1.306603e+01	-6.484971e+01
1.440000e-06	-1.833618e-06	-8.923325e-10	-1.275924e+01	-6.435930e+01
1.450000e-06	-1.789381e-06	-8.895681e-10	-1.245142e+01	-6.385618e+01
1.460000e-06	-1.745051e-06	-8.847459e-10	-1.214295e+01	-6.334028e+01
1.470000e-06	-1.700613e-06	-8.758141e-10	-1.183373e+01	-6.281158e+01
1.480000e-06	-1.655965e-06	-8.668767e-10	-1.152305e+01	-6.227005e+01
1.490000e-06	-1.611125e-06	-8.573230e-10	-1.121102e+01	-6.171572e+01
1.500000e-06	-1.566127e-06	-8.431647e-10	-1.089791e+01	-6.114862e+01
1.510000e-06	-1.521010e-06	-8.283890e-10	-1.058396e+01	-6.056878e+01
1.520000e-06	-1.475805e-06	-8.172945e-10	-1.026940e+01	-5.997625e+01
1.530000e-06	-1.430496e-06	-8.077373e-10	-9.954114e+00	-5.937105e+01
1.540000e-06	-1.385141e-06	-7.992780e-10	-9.638512e+00	-5.875319e+01
1.550000e-06	-1.339767e-06	-7.898244e-10	-9.322776e+00	-5.812262e+01
1.560000e-06	-1.294303e-06	-7.771570e-10	-9.006416e+00	-5.747928e+01
1.570000e-06	-1.248783e-06	-7.623399e-10	-8.689663e+00	-5.682304e+01
1.580000e-06	-1.203213e-06	-7.477711e-10	-8.372568e+00	-5.615372e+01
1.590000e-06	-1.157551e-06	-7.332673e-10	-8.054823e+00	-5.547104e+01
1.600000e-06	-1.111778e-06	-7.185739e-10	-7.736312e+00	-5.477467e+01
1.610000e-06	-1.065954e-06	-7.052840e-10	-7.417448e+00	-5.406418e+01
1.620000e-06	-1.020045e-06	-6.944382e-10	-7.097989e+00	-5.333904e+01
1.630000e-06	-9.739745e-07	-6.843434e-10	-6.777408e+00	-5.259863e+01
1.640000e-06	-9.278075e-07	-6.743368e-10	-6.456155e+00	-5.184222e+01
1.650000e-06	-8.816110e-07	-6.648373e-10	-6.134696e+00	-5.106900e+01
1.660000e-06	-8.354245e-07	-6.556377e-10	-5.813307e+00	-5.027802e+01
1.670000e-06	-7.891047e-07	-6.446025e-10	-5.490990e+00	-4.946826e+01
1.680000e-06	-7.427060e-07	-6.312932e-10	-5.168125e+00	-4.863859e+01
1.690000e-06	-6.963836e-07	-6.177200e-10	-4.845790e+00	-4.778779e+01
1.700000e-06	-6.500117e-07	-6.017388e-10	-4.523111e+00	-4.691456e+01
1.710000e-06	-6.035380e-07	-5.829459e-10	-4.199723e+00	-4.601752e+01
1.720000e-06	-5.569596e-07	-5.648247e-10	-3.875607e+00	-4.509524e+01
1.730000e-06	-5.103110e-07	-5.484908e-10	-3.551002e+00	-4.414623e+01
1.740000e-06	-4.636310e-07	-5.365559e-10	-3.226179e+00	-4.316899e+01
1.750000e-06	-4.169428e-07	-5.258111e-10	-2.901299e+00	-4.216198e+01
1.760000e-06	-3.703036e-07	-5.122971e-10	-2.576760e+00	-4.112368e+01
1.770000e-06	-3.236709e-07	-4.966691e-10	-2.252266e+00	-4.005257e+01
1.780000e-06	-2.769844e-07	-4.799837e-10	-1.927398e+00	-3.894720e+01
1.790000e-06	-2.302549e-07	-4.625678e-10	-1.602230e+00	-3.780616e+01
1.800000e-06	-1.835049e-07	-4.447408e-10	-1.276920e+00	-3.662812e+01
1.810000e-06	-1.367185e-07	-4.264827e-10	-9.513568e-01	-3.541187e+01
1.820000e-06	-8.990169e-08	-4.087759e-10	-6.255815e-01	-3.415630e+01
1.830000e-06	-4.307659e-08	-3.920262e-10	-2.997488e-01	-3.286047e+01
1.840000e-06	3.756136e-09	-3.754638e-10	2.613709e-02	-3.152355e+01
1.850000e-06	5.059244e-08	-3.586346e-10	3.520478e-01	-3.014495e+01
1.860000e-06	9.739762e-08	-3.412493e-10	6.777420e-01	-2.872421e+01
1.870000e-06	1.441756e-07	-3.233109e-10	1.003247e+00	-2.726112e+01
1.880000e-06	1.909673e-07	-3.037624e-10	1.328848e+00	-2.575567e+01
1.890000e-06	2.377725e-07	-2.821153e-10	1.654542e+00	-2.420808e+01
1.900000e-06	2.845384e-07	-2.596119e-10	1.979962e+00	-2.261881e+01
1.910000e-06	3.311792e-07	-2.374454e-10	2.304513e+00	-2.098854e+01
1.920000e-06	3.778125e-07	-2.131865e-10	2.629011e+00	-1.931821e+01
1.930000e-06	4.244733e-07	-1.886030e-10	2.953700e+00	-1.760899e+01
1.940000e-06	4.710263e-07	-1.674695e-10	3.277640e+00	-1.586231e+01
1.950000e-06	5.175532e-07	-1.489655e-10	3.601397e+00	-1.407981e+01
1.960000e-06	5.640244e-07	-1.295144e-10	3.924767e+00	-1.226335e+01
1.970000e-06	6.104407e-07	-1.074369e-10	4.247756e+00	-1.041503e+01
1.980000e-06	6.568104e-07	-8.268234e-11	4.570419e+00	-8.537123e+00
1.990000e-06	7.030686e-07	-5.426971e-11	4.892308e+00	-6.632098e+00
2.000000e-06	7.493624e-07	-2.333016e-11	5.214443e+00	-4.702589e+00
2.010000e-06	7.956542e-07	6.841909e-12	5.536565e+00	-2.751378e+00
2.020000e-06	8.418372e-07	3.494099e-11	5.857930e+00	-7.813717e-01
2.030000e-06	8.879627e-07	6.161333e-11	6.178894e+00	1.204418e+00
2.040000e-06	9.340607e-07	8.874247e-11	6.499668e+00	3.202897e+00
2.050000e-06	9.800964e-07	1.149617e-10	6.820008e+00	5.210917e+00
2.060000e-06	1.026016e-06	1.410473e-10	7.139539e+00	7.225294e+00
2.070000e-06	1.071881e-06	1.668952e-10	7.458693e+00	9.242835e+00
2.080000e-06	1.117731e-06	1.925902e-10	7.777736e+00	1.126036e+01
2.090000e-06	1.163484e-06	2.217589e-10	8.096112e+00	1.327474e+01
2.100000e-06	1.209117e-06	2.533178e-10	8.413649e+00	1.528288e+01
2.110000e-06	1.254674e-06	2.837032e-10	8.730655e+00	1.728180e+01
2.120000e-06	1.300173e-06	3.129625e-10	9.047264e+00	1.926860e+01
2.130000e-06	1.345599e-06	3.428092e-10	9.363357e+00	2.124050e+01
2.140000e-06	1.390900e-06	3.702792e-10	9.678586e+00	2.319486e+01
2.150000e-06	1.436073e-06	3.932749e-10	9.992924e+00	2.512921e+01
2.160000e-06	1.481158e-06	4.143731e-10	1.030665e+01	2.704122e+01
2.170000e-06	1.526171e-06	4.362620e-10	1.061987e+01	2.892875e+01
2.180000e-06	1.571095e-06	4.620585e-10	1.093248e+01	3.078982e+01
2.190000e-06	1.615917e-06	4.914872e-10	1.124437e+01	3.262266e+01
2.200000e-06	1.660561e-06	5.226965e-10	1.155503e+01	3.442568e+01
2.210000e-06	1.705036e-06	5.537733e-10	1.186450e+01	3.619749e+01
2.220000e-06	1.749415e-06	5.807069e-10	1.217332e+01	3.793689e+01
2.230000e-06	1.793638e-06	6.026049e-10	1.248104e+01	3.964285e+01
2.240000e-06	1.837667e-06	6.193828e-10	1.278742e+01	4.131456e+01
2.250000e-06	1.881569e-06	6.334944e-10	1.309291e+01	4.295134e+01
2.260000e-06	1.925413e-06	6.504834e-10	1.339800e+01	4.455272e+01
2.270000e-06	1.969233e-06	6.729996e-10	1.370292e+01	4.611836e+01
2.280000e-06	2.013005e-06	6.968689e-10	1.400751e+01	4.764808e+01
2.290000e-06	2.056698e-06	7.198686e-10	1.431155e+01	4.914183e+01
2.300000e-06	2.100278e-06	7.428130e-10	1.461480e+01	5.059969e+01
2.310000e-06	2.143791e-06	7.641539e-10	1.491758e+01	5.202183e+01
2.320000e-06	2.187251e-06	7.821758e-10	1.522000e+01	5.340853e+01
2.330000e-06	2.230607e-06	7.979009e-10	1.552169e+01	5.476016e+01
2.340000e-06	2.273826e-06	8.131667e-10	1.582243e+01	5.607715e+01
2.350000e-06	2.316807e-06	8.292410e-10	1.612152e+01	5.735998e+01
2.360000e-06	2.359548e-06	8.455624e-10	1.641893e+01	5.860919e+01
2.370000e-06	2.402063e-06	8.624102e-10	1.671477e+01	5.982534e+01
2.380000e-06	2.444334e-06	8.792256e-10	1.700891e+01	6.100900e+01
2.390000e-06	2.486334e-06	8.948049e-10	1.730117e+01	6.216079e+01
2.400000e-06	2.527985e-06	9.094554e-10	1.759100e+01	6.328131e+01
2.410000e-06	2.569313e-06	9.231645e-10	1.787858e+01	6.437114e+01
2.420000e-06	2.610343e-06	9.363747e-10	1.816409e+01	6.543088e+01
2.430000e-06	2.651074e-06	9.496994e-10	1.844751e+01	6.646111e+01
2.440000e-06	2.691508e-06	9.647646e-10	1.872888e+01	6.746236e+01
2.450000e-06	2.731692e-06	9.812895e-10	1.900850e+01	6.843519e+01
2.460000e-06	2.771677e-06	9.968915e-10	1.928673e+01	6.938010e+01
2.470000e-06	2.811469e-06	1.009151e-09	1.956363e+01	7.029757e+01
2.480000e-06	2.851182e-06	1.019262e-09	1.983997e+01	7.118807e+01
2.490000e-06	2.890814e-06	1.028431e-09	2.011575e+01	7.205204e+01
2.500000e-06	2.930330e-06	1.037526e-09	2.039072e+01	7.288991e+01
2.510000e-06	2.969773e-06	1.050458e-09	2.066519e+01	7.370208e+01
2.520000e-06	3.009039e-06	1.063221e-09	2.093841e+01	7.448896e+01
2.530000e-06	3.048046e-06	1.076390e-09	2.120984e+01	7.525091e+01
2.540000e-06	3.086734e-06	1.089754e-09	2.147906e+01	7.598833e+01
2.550000e-06	3.125139e-06	1.098212e-09	2.174630e+01	7.670160e+01
2.560000e-06	3.163352e-06	1.102772e-09	2.201221e+01	7.739108e+01
2.570000e-06	3.201416e-06	1.106086e-09	2.227708e+01	7.805718e+01
2.580000e-06	3.239296e-06	1.109738e-09	2.254066e+01	7.870027e+01
2.590000e-06	3.276945e-06	1.116798e-09	2.280265e+01	7.932079e+01
2.600000e-06	3.314435e-06	1.130380e-09	2.306352e+01	7.991914e+01
2.610000e-06	3.351754e-06	1.146538e-09	2.332320e+01	8.049577e+01
2.620000e-06	3.388810e-06	1.161844e-09	2.358106e+01	8.105114e+01
2.630000e-06	3.425614e-06	1.171502e-09	2.383716e+01	8.158573e+01
2.640000e-06	3.462155e-06	1.177463e-09	2.409143e+01	8.210003e+01
2.650000e-06	3.498382e-06	1.180912e-09	2.434351e+01	8.259458e+01
2.660000e-06	3.534411e-06	1.184124e-09	2.459422e+01	8.306990e+01
2.670000e-06	3.570263e-06	1.188191e-09	2.484370e+01	8.352656e+01
2.680000e-06	3.605907e-06	1.192628e-09	2.509173e+01	8.396512e+01
2.690000e-06	3.641410e-06	1.199224e-09	2.533877e+01	8.438617e+01
2.700000e-06	3.676742e-06	1.207038e-09	2.558463e+01	8.479029e+01
2.710000e-06	3.711897e-06	1.211704e-09	2.582926e+01	8.517810e+01
2.720000e-06	3.746795e-06	1.214241e-09	2.607210e+01	8.555019e+01
2.730000e-06	3.781313e-06	1.217513e-09	2.631229e+01	8.590715e+01
2.740000e-06	3.815411e-06	1.221839e-09	2.654956e+01	8.624959e+01
2.750000e-06	3.849166e-06	1.226367e-09	2.678445e+01	8.657809e+01
2.760000e-06	3.882518e-06	1.231554e-09	2.701652e+01	8.689323e+01
2.770000e-06	3.915355e-06	1.237839e-09	2.724502e+01	8.719555e+01
2.780000e-06	3.947820e-06	1.244700e-09	2.747093e+01	8.748560e+01
2.790000e-06	3.979956e-06	1.251412e-09	2.769455e+01	8.776389e+01
2.800000e-06	4.011817e-06	1.256477e-09	2.791626e+01	8.803090e+01
2.810000e-06	4.043512e-06	1.261369e-09	2.813680e+01	8.828710e+01
2.820000e-06	4.075012e-06	1.265084e-09	2.835600e+01	8.853292e+01
2.830000e-06	4.106311e-06	1.269795e-09	2.857379e+01	8.876877e+01
2.840000e-06	4.137441e-06	1.274004e-09	2.879041e+01	8.899501e+01
2.850000e-06	4.168257e-06	1.277603e-09	2.900484e+01	8.921198e+01
2.860000e-06	4.198670e-06	1.282064e-09	2.921647e+01	8.942001e+01
2.870000e-06	4.228844e-06	1.285085e-09	2.942644e+01	8.961936e+01
2.880000e-06	4.258781e-06	1.284491e-09	2.963475e+01	8.981031e+01
2.890000e-06	4.288397e-06	1.285113e-09	2.984084e+01	8.999308e+01
2.900000e-06	4.317745e-06	1.290199e-09	3.004506e+01	9.016790e+01
