# Temperatura_=_-24.2
# Concentracion g/m^3_=_1620.0
# C_Vs_to_Am_M_A/Vsm_=_65563218390.804596
# pendiente_HvsI_1/m_=_3716.3
# ordenada_HvsI_A/m_=_1297.0
# frecuencia_Hz_=_135093.85579275014

Tiempo_(s)	Campo_(V.s)	Magnetizacion_(V.s)	Campo_(kA/m)	Magnetizacion_(A/m)
0.000000e+00	-5.518170e-06	-1.145012e-09	-3.836905e+01	-7.228439e+01
1.000000e-08	-5.518252e-06	-1.143438e-09	-3.836962e+01	-7.230278e+01
2.000000e-08	-5.518091e-06	-1.144620e-09	-3.836850e+01	-7.232250e+01
3.000000e-08	-5.517634e-06	-1.144928e-09	-3.836532e+01	-7.234341e+01
4.000000e-08	-5.516743e-06	-1.144247e-09	-3.835913e+01	-7.236534e+01
5.000000e-08	-5.515397e-06	-1.146347e-09	-3.834976e+01	-7.238810e+01
6.000000e-08	-5.513494e-06	-1.154953e-09	-3.833654e+01	-7.241146e+01
7.000000e-08	-5.510996e-06	-1.149409e-09	-3.831917e+01	-7.243520e+01
8.000000e-08	-5.507906e-06	-1.129352e-09	-3.829768e+01	-7.245907e+01
9.000000e-08	-5.504259e-06	-1.113295e-09	-3.827232e+01	-7.248283e+01
1.000000e-07	-5.500251e-06	-1.155076e-09	-3.824445e+01	-7.250621e+01
1.100000e-07	-5.495943e-06	-1.198168e-09	-3.821450e+01	-7.252896e+01
1.200000e-07	-5.491445e-06	-1.153392e-09	-3.818323e+01	-7.255084e+01
1.300000e-07	-5.486640e-06	-1.075518e-09	-3.814981e+01	-7.257161e+01
1.400000e-07	-5.481420e-06	-1.121114e-09	-3.811352e+01	-7.259105e+01
1.500000e-07	-5.475762e-06	-1.165012e-09	-3.807418e+01	-7.260897e+01
1.600000e-07	-5.469655e-06	-1.169288e-09	-3.803171e+01	-7.262518e+01
1.700000e-07	-5.463213e-06	-1.084138e-09	-3.798692e+01	-7.263954e+01
1.800000e-07	-5.456263e-06	-1.093082e-09	-3.793859e+01	-7.265192e+01
1.900000e-07	-5.448930e-06	-1.164133e-09	-3.788761e+01	-7.266224e+01
2.000000e-07	-5.441377e-06	-1.161570e-09	-3.783509e+01	-7.267044e+01
2.100000e-07	-5.433455e-06	-1.104062e-09	-3.778000e+01	-7.267648e+01
2.200000e-07	-5.425244e-06	-1.069346e-09	-3.772291e+01	-7.268038e+01
2.300000e-07	-5.416783e-06	-1.131728e-09	-3.766408e+01	-7.268218e+01
2.400000e-07	-5.408003e-06	-1.136005e-09	-3.760303e+01	-7.268194e+01
2.500000e-07	-5.398679e-06	-1.098260e-09	-3.753820e+01	-7.267976e+01
2.600000e-07	-5.388652e-06	-1.070151e-09	-3.746848e+01	-7.267577e+01
2.700000e-07	-5.377974e-06	-1.112196e-09	-3.739424e+01	-7.267011e+01
2.800000e-07	-5.366668e-06	-1.095475e-09	-3.731562e+01	-7.266296e+01
2.900000e-07	-5.354968e-06	-1.093312e-09	-3.723427e+01	-7.265451e+01
3.000000e-07	-5.342936e-06	-1.088317e-09	-3.715061e+01	-7.264495e+01
3.100000e-07	-5.330523e-06	-1.123755e-09	-3.706430e+01	-7.263451e+01
3.200000e-07	-5.317651e-06	-1.102460e-09	-3.697479e+01	-7.262340e+01
3.300000e-07	-5.304332e-06	-1.085530e-09	-3.688218e+01	-7.261186e+01
3.400000e-07	-5.290729e-06	-1.084128e-09	-3.678760e+01	-7.260009e+01
3.500000e-07	-5.276777e-06	-1.105418e-09	-3.669059e+01	-7.258833e+01
3.600000e-07	-5.262383e-06	-1.102328e-09	-3.659050e+01	-7.257679e+01
3.700000e-07	-5.247481e-06	-1.093301e-09	-3.648689e+01	-7.256568e+01
3.800000e-07	-5.232074e-06	-1.112215e-09	-3.637976e+01	-7.255517e+01
3.900000e-07	-5.216112e-06	-1.122252e-09	-3.626877e+01	-7.254546e+01
4.000000e-07	-5.199615e-06	-1.094173e-09	-3.615407e+01	-7.253669e+01
4.100000e-07	-5.182725e-06	-1.080418e-09	-3.603663e+01	-7.252902e+01
4.200000e-07	-5.165467e-06	-1.112690e-09	-3.591663e+01	-7.252255e+01
4.300000e-07	-5.147906e-06	-1.112263e-09	-3.579452e+01	-7.251739e+01
4.400000e-07	-5.130118e-06	-1.089600e-09	-3.567084e+01	-7.251362e+01
4.500000e-07	-5.112030e-06	-1.104799e-09	-3.554507e+01	-7.251130e+01
4.600000e-07	-5.093517e-06	-1.142092e-09	-3.541634e+01	-7.251046e+01
4.700000e-07	-5.074599e-06	-1.105916e-09	-3.528480e+01	-7.251112e+01
4.800000e-07	-5.055320e-06	-1.088068e-09	-3.515075e+01	-7.251328e+01
4.900000e-07	-5.035769e-06	-1.108187e-09	-3.501481e+01	-7.251693e+01
5.000000e-07	-5.016000e-06	-1.111338e-09	-3.487735e+01	-7.252203e+01
5.100000e-07	-4.995974e-06	-1.076751e-09	-3.473810e+01	-7.252852e+01
5.200000e-07	-4.975673e-06	-1.103210e-09	-3.459695e+01	-7.253636e+01
5.300000e-07	-4.955039e-06	-1.115832e-09	-3.445347e+01	-7.254546e+01
5.400000e-07	-4.934050e-06	-1.097420e-09	-3.430753e+01	-7.255574e+01
5.500000e-07	-4.912769e-06	-1.101699e-09	-3.415956e+01	-7.256710e+01
5.600000e-07	-4.891129e-06	-1.134504e-09	-3.400909e+01	-7.257946e+01
5.700000e-07	-4.869085e-06	-1.105783e-09	-3.385581e+01	-7.259269e+01
5.800000e-07	-4.846720e-06	-1.092951e-09	-3.370031e+01	-7.260670e+01
5.900000e-07	-4.824000e-06	-1.118637e-09	-3.354233e+01	-7.262137e+01
6.000000e-07	-4.800848e-06	-1.117255e-09	-3.338135e+01	-7.263658e+01
6.100000e-07	-4.777310e-06	-1.084296e-09	-3.321769e+01	-7.265221e+01
6.200000e-07	-4.753572e-06	-1.100218e-09	-3.305263e+01	-7.266813e+01
6.300000e-07	-4.729699e-06	-1.110797e-09	-3.288664e+01	-7.268422e+01
6.400000e-07	-4.705672e-06	-1.095112e-09	-3.271957e+01	-7.270035e+01
6.500000e-07	-4.681307e-06	-1.102561e-09	-3.255016e+01	-7.271639e+01
6.600000e-07	-4.656445e-06	-1.121728e-09	-3.237728e+01	-7.273220e+01
6.700000e-07	-4.631083e-06	-1.106929e-09	-3.220094e+01	-7.274763e+01
6.800000e-07	-4.605161e-06	-1.098478e-09	-3.202069e+01	-7.276255e+01
6.900000e-07	-4.578795e-06	-1.109093e-09	-3.183737e+01	-7.277680e+01
7.000000e-07	-4.552104e-06	-1.099772e-09	-3.165178e+01	-7.279022e+01
7.100000e-07	-4.524976e-06	-1.093643e-09	-3.146315e+01	-7.280265e+01
7.200000e-07	-4.497445e-06	-1.104152e-09	-3.127172e+01	-7.281391e+01
7.300000e-07	-4.469665e-06	-1.109463e-09	-3.107856e+01	-7.282383e+01
7.400000e-07	-4.441771e-06	-1.102048e-09	-3.088461e+01	-7.283223e+01
7.500000e-07	-4.413680e-06	-1.108963e-09	-3.068929e+01	-7.283891e+01
7.600000e-07	-4.385209e-06	-1.107069e-09	-3.049132e+01	-7.284367e+01
7.700000e-07	-4.356449e-06	-1.100078e-09	-3.029134e+01	-7.284632e+01
7.800000e-07	-4.327466e-06	-1.092296e-09	-3.008982e+01	-7.284665e+01
7.900000e-07	-4.298141e-06	-1.092581e-09	-2.988592e+01	-7.284445e+01
8.000000e-07	-4.268474e-06	-1.085967e-09	-2.967964e+01	-7.283951e+01
8.100000e-07	-4.238609e-06	-1.088702e-09	-2.947198e+01	-7.283164e+01
8.200000e-07	-4.208458e-06	-1.086725e-09	-2.926233e+01	-7.282062e+01
8.300000e-07	-4.177947e-06	-1.085375e-09	-2.905018e+01	-7.280627e+01
8.400000e-07	-4.147127e-06	-1.086022e-09	-2.883589e+01	-7.278840e+01
8.500000e-07	-4.116013e-06	-1.099941e-09	-2.861954e+01	-7.276684e+01
8.600000e-07	-4.084694e-06	-1.104629e-09	-2.840177e+01	-7.274144e+01
8.700000e-07	-4.053178e-06	-1.100489e-09	-2.818264e+01	-7.271205e+01
8.800000e-07	-4.021451e-06	-1.091801e-09	-2.796203e+01	-7.267858e+01
8.900000e-07	-3.989528e-06	-1.085500e-09	-2.774007e+01	-7.264092e+01
9.000000e-07	-3.957385e-06	-1.077202e-09	-2.751657e+01	-7.259901e+01
9.100000e-07	-3.924918e-06	-1.079157e-09	-2.729082e+01	-7.255282e+01
9.200000e-07	-3.892168e-06	-1.082130e-09	-2.706310e+01	-7.250235e+01
9.300000e-07	-3.859110e-06	-1.081985e-09	-2.683324e+01	-7.244763e+01
9.400000e-07	-3.825562e-06	-1.080373e-09	-2.659997e+01	-7.238871e+01
9.500000e-07	-3.791518e-06	-1.080176e-09	-2.636325e+01	-7.232570e+01
9.600000e-07	-3.757060e-06	-1.074612e-09	-2.612367e+01	-7.225873e+01
9.700000e-07	-3.722201e-06	-1.067144e-09	-2.588128e+01	-7.218795e+01
9.800000e-07	-3.686972e-06	-1.067050e-09	-2.563633e+01	-7.211357e+01
9.900000e-07	-3.651528e-06	-1.068883e-09	-2.538988e+01	-7.203580e+01
1.000000e-06	-3.615867e-06	-1.069221e-09	-2.514192e+01	-7.195491e+01
1.010000e-06	-3.580009e-06	-1.066753e-09	-2.489259e+01	-7.187115e+01
1.020000e-06	-3.544053e-06	-1.066146e-09	-2.464258e+01	-7.178482e+01
1.030000e-06	-3.507988e-06	-1.061487e-09	-2.439181e+01	-7.169623e+01
1.040000e-06	-3.471713e-06	-1.059826e-09	-2.413958e+01	-7.160570e+01
1.050000e-06	-3.435164e-06	-1.061119e-09	-2.388545e+01	-7.151355e+01
1.060000e-06	-3.398388e-06	-1.064456e-09	-2.362974e+01	-7.142008e+01
1.070000e-06	-3.361357e-06	-1.061187e-09	-2.337225e+01	-7.132562e+01
1.080000e-06	-3.324053e-06	-1.060065e-09	-2.311287e+01	-7.123047e+01
1.090000e-06	-3.286530e-06	-1.056007e-09	-2.285196e+01	-7.113488e+01
1.100000e-06	-3.248742e-06	-1.050968e-09	-2.258922e+01	-7.103912e+01
1.110000e-06	-3.210739e-06	-1.044093e-09	-2.232497e+01	-7.094340e+01
1.120000e-06	-3.172570e-06	-1.041019e-09	-2.205957e+01	-7.084790e+01
1.130000e-06	-3.134226e-06	-1.037457e-09	-2.179296e+01	-7.075274e+01
1.140000e-06	-3.095583e-06	-1.038463e-09	-2.152427e+01	-7.065802e+01
1.150000e-06	-3.056656e-06	-1.041613e-09	-2.125360e+01	-7.056376e+01
1.160000e-06	-3.017576e-06	-1.044197e-09	-2.098187e+01	-7.046993e+01
1.170000e-06	-2.978305e-06	-1.041563e-09	-2.070881e+01	-7.037644e+01
1.180000e-06	-2.938891e-06	-1.038283e-09	-2.043475e+01	-7.028315e+01
1.190000e-06	-2.899345e-06	-1.035226e-09	-2.015978e+01	-7.018984e+01
1.200000e-06	-2.859599e-06	-1.031054e-09	-1.988342e+01	-7.009624e+01
1.210000e-06	-2.819705e-06	-1.025360e-09	-1.960603e+01	-7.000200e+01
1.220000e-06	-2.779719e-06	-1.023624e-09	-1.932800e+01	-6.990673e+01
1.230000e-06	-2.739583e-06	-1.021895e-09	-1.904892e+01	-6.980996e+01
1.240000e-06	-2.699306e-06	-1.019683e-09	-1.876887e+01	-6.971119e+01
1.250000e-06	-2.658850e-06	-1.017208e-09	-1.848757e+01	-6.960985e+01
1.260000e-06	-2.618138e-06	-1.014646e-09	-1.820449e+01	-6.950534e+01
1.270000e-06	-2.577261e-06	-1.013225e-09	-1.792026e+01	-6.939701e+01
1.280000e-06	-2.536193e-06	-1.008416e-09	-1.763471e+01	-6.928419e+01
1.290000e-06	-2.494742e-06	-1.003374e-09	-1.734649e+01	-6.916618e+01
1.300000e-06	-2.452972e-06	-9.970337e-10	-1.705605e+01	-6.904227e+01
1.310000e-06	-2.410959e-06	-9.906411e-10	-1.676393e+01	-6.891175e+01
1.320000e-06	-2.368669e-06	-9.837847e-10	-1.646987e+01	-6.877389e+01
1.330000e-06	-2.326055e-06	-9.797692e-10	-1.617357e+01	-6.862800e+01
1.340000e-06	-2.283057e-06	-9.777263e-10	-1.587460e+01	-6.847338e+01
1.350000e-06	-2.239783e-06	-9.794092e-10	-1.557370e+01	-6.830938e+01
1.360000e-06	-2.196369e-06	-9.806976e-10	-1.527184e+01	-6.813537e+01
1.370000e-06	-2.152823e-06	-9.800576e-10	-1.496905e+01	-6.795077e+01
1.380000e-06	-2.109112e-06	-9.750413e-10	-1.466512e+01	-6.775505e+01
1.390000e-06	-2.065315e-06	-9.671926e-10	-1.436059e+01	-6.754772e+01
1.400000e-06	-2.021429e-06	-9.573027e-10	-1.405544e+01	-6.732838e+01
1.410000e-06	-1.977480e-06	-9.492533e-10	-1.374985e+01	-6.709664e+01
1.420000e-06	-1.933526e-06	-9.432380e-10	-1.344423e+01	-6.685223e+01
1.430000e-06	-1.889515e-06	-9.413797e-10	-1.313821e+01	-6.659491e+01
1.440000e-06	-1.845361e-06	-9.398205e-10	-1.283120e+01	-6.632452e+01
1.450000e-06	-1.801126e-06	-9.376469e-10	-1.252363e+01	-6.604096e+01
1.460000e-06	-1.756847e-06	-9.335780e-10	-1.221575e+01	-6.574418e+01
1.470000e-06	-1.712474e-06	-9.264922e-10	-1.190721e+01	-6.543421e+01
1.480000e-06	-1.667901e-06	-9.190235e-10	-1.159728e+01	-6.511110e+01
1.490000e-06	-1.623133e-06	-9.120860e-10	-1.128600e+01	-6.477498e+01
1.500000e-06	-1.578285e-06	-9.035956e-10	-1.097416e+01	-6.442599e+01
1.510000e-06	-1.533394e-06	-8.942076e-10	-1.066202e+01	-6.406430e+01
1.520000e-06	-1.488332e-06	-8.851696e-10	-1.034870e+01	-6.369012e+01
1.530000e-06	-1.443050e-06	-8.782974e-10	-1.003384e+01	-6.330363e+01
1.540000e-06	-1.397730e-06	-8.746862e-10	-9.718727e+00	-6.290505e+01
1.550000e-06	-1.352376e-06	-8.709013e-10	-9.403364e+00	-6.249455e+01
1.560000e-06	-1.306903e-06	-8.630563e-10	-9.087185e+00	-6.207230e+01
1.570000e-06	-1.261349e-06	-8.511832e-10	-8.770435e+00	-6.163841e+01
1.580000e-06	-1.215747e-06	-8.390623e-10	-8.453357e+00	-6.119296e+01
1.590000e-06	-1.169995e-06	-8.265456e-10	-8.135232e+00	-6.073596e+01
1.600000e-06	-1.124167e-06	-8.148380e-10	-7.816579e+00	-6.026736e+01
1.610000e-06	-1.078296e-06	-8.055141e-10	-7.497626e+00	-5.978701e+01
1.620000e-06	-1.032315e-06	-7.994889e-10	-7.177911e+00	-5.929471e+01
1.630000e-06	-9.862098e-07	-7.956594e-10	-6.857333e+00	-5.879012e+01
1.640000e-06	-9.399770e-07	-7.912510e-10	-6.535866e+00	-5.827283e+01
1.650000e-06	-8.937462e-07	-7.854937e-10	-6.214414e+00	-5.774232e+01
1.660000e-06	-8.474857e-07	-7.782946e-10	-5.892754e+00	-5.719795e+01
1.670000e-06	-8.011441e-07	-7.664798e-10	-5.570531e+00	-5.663899e+01
1.680000e-06	-7.547611e-07	-7.518165e-10	-5.248020e+00	-5.606457e+01
1.690000e-06	-7.083028e-07	-7.410648e-10	-4.924985e+00	-5.547375e+01
1.700000e-06	-6.617960e-07	-7.319912e-10	-4.601613e+00	-5.486546e+01
1.710000e-06	-6.153026e-07	-7.192453e-10	-4.278334e+00	-5.423855e+01
1.720000e-06	-5.687588e-07	-7.075929e-10	-3.954705e+00	-5.359177e+01
1.730000e-06	-5.222168e-07	-6.948515e-10	-3.631088e+00	-5.292381e+01
1.740000e-06	-4.756803e-07	-6.838360e-10	-3.307509e+00	-5.223327e+01
1.750000e-06	-4.290424e-07	-6.739312e-10	-2.983226e+00	-5.151871e+01
1.760000e-06	-3.823624e-07	-6.608803e-10	-2.658650e+00	-5.077864e+01
1.770000e-06	-3.357025e-07	-6.470206e-10	-2.334213e+00	-5.001157e+01
1.780000e-06	-2.889841e-07	-6.355292e-10	-2.009370e+00	-4.921596e+01
1.790000e-06	-2.421834e-07	-6.255522e-10	-1.683955e+00	-4.839032e+01
1.800000e-06	-1.954036e-07	-6.138088e-10	-1.358684e+00	-4.753316e+01
1.810000e-06	-1.487029e-07	-6.020708e-10	-1.033964e+00	-4.664304e+01
1.820000e-06	-1.020254e-07	-5.882709e-10	-7.094049e-01	-4.571860e+01
1.830000e-06	-5.517022e-08	-5.713371e-10	-3.836107e-01	-4.475855e+01
1.840000e-06	-8.208538e-09	-5.555966e-10	-5.707577e-02	-4.376170e+01
1.850000e-06	3.863783e-08	-5.422669e-10	2.686573e-01	-4.272697e+01
1.860000e-06	8.543528e-08	-5.299254e-10	5.940503e-01	-4.165344e+01
1.870000e-06	1.323641e-07	-5.174005e-10	9.203567e-01	-4.054031e+01
1.880000e-06	1.793188e-07	-5.023037e-10	1.246843e+00	-3.938695e+01
1.890000e-06	2.261645e-07	-4.820189e-10	1.572572e+00	-3.819294e+01
1.900000e-06	2.729558e-07	-4.601081e-10	1.897922e+00	-3.695799e+01
1.910000e-06	3.197030e-07	-4.380260e-10	2.222965e+00	-3.568206e+01
1.920000e-06	3.664399e-07	-4.213001e-10	2.547937e+00	-3.436529e+01
1.930000e-06	4.132285e-07	-4.089808e-10	2.873269e+00	-3.300803e+01
1.940000e-06	4.599375e-07	-3.956131e-10	3.198046e+00	-3.161084e+01
1.950000e-06	5.065774e-07	-3.770726e-10	3.522344e+00	-3.017451e+01
1.960000e-06	5.531342e-07	-3.544532e-10	3.846063e+00	-2.870001e+01
1.970000e-06	5.995558e-07	-3.308377e-10	4.168843e+00	-2.718857e+01
1.980000e-06	6.459565e-07	-3.075775e-10	4.491477e+00	-2.564156e+01
1.990000e-06	6.923779e-07	-2.864806e-10	4.814255e+00	-2.406060e+01
2.000000e-06	7.387451e-07	-2.644386e-10	5.136657e+00	-2.244747e+01
2.010000e-06	7.850083e-07	-2.440304e-10	5.458335e+00	-2.080412e+01
2.020000e-06	8.312948e-07	-2.232940e-10	5.780175e+00	-1.913267e+01
2.030000e-06	8.775362e-07	-1.994741e-10	6.101702e+00	-1.743539e+01
2.040000e-06	9.236807e-07	-1.747743e-10	6.422554e+00	-1.571468e+01
2.050000e-06	9.697878e-07	-1.486881e-10	6.743148e+00	-1.397304e+01
2.060000e-06	1.015790e-06	-1.225974e-10	7.063012e+00	-1.221307e+01
2.070000e-06	1.061653e-06	-9.841907e-11	7.381906e+00	-1.043746e+01
2.080000e-06	1.107460e-06	-7.669116e-11	7.700409e+00	-8.648939e+00
2.090000e-06	1.153286e-06	-5.725947e-11	8.019048e+00	-6.850286e+00
2.100000e-06	1.199015e-06	-3.264041e-11	8.337017e+00	-5.044292e+00
2.110000e-06	1.244572e-06	-7.328345e-12	8.653783e+00	-3.233752e+00
2.120000e-06	1.290066e-06	1.989363e-11	8.970113e+00	-1.421439e+00
2.130000e-06	1.335538e-06	4.947418e-11	9.286288e+00	3.899094e-01
2.140000e-06	1.380828e-06	7.807257e-11	9.601199e+00	2.197608e+00
2.150000e-06	1.425975e-06	1.027720e-10	9.915115e+00	3.999042e+00
2.160000e-06	1.471077e-06	1.226751e-10	1.022872e+01	5.791679e+00
2.170000e-06	1.516107e-06	1.411921e-10	1.054183e+01	7.573085e+00
2.180000e-06	1.561025e-06	1.622707e-10	1.085415e+01	9.340933e+00
2.190000e-06	1.605769e-06	1.854909e-10	1.116527e+01	1.109301e+01
2.200000e-06	1.650335e-06	2.098947e-10	1.147514e+01	1.282725e+01
2.210000e-06	1.694808e-06	2.375855e-10	1.178437e+01	1.454169e+01
2.220000e-06	1.739218e-06	2.664764e-10	1.209317e+01	1.623453e+01
2.230000e-06	1.783500e-06	2.921070e-10	1.240106e+01	1.790410e+01
2.240000e-06	1.827691e-06	3.115345e-10	1.270834e+01	1.954888e+01
2.250000e-06	1.871822e-06	3.249933e-10	1.301519e+01	2.116749e+01
2.260000e-06	1.915897e-06	3.376050e-10	1.332165e+01	2.275870e+01
2.270000e-06	1.959879e-06	3.538020e-10	1.362747e+01	2.432143e+01
2.280000e-06	2.003765e-06	3.725250e-10	1.393262e+01	2.585471e+01
2.290000e-06	2.047606e-06	3.954726e-10	1.423746e+01	2.735773e+01
2.300000e-06	2.091412e-06	4.221298e-10	1.454205e+01	2.882979e+01
2.310000e-06	2.135141e-06	4.479607e-10	1.484610e+01	3.027032e+01
2.320000e-06	2.178771e-06	4.670527e-10	1.514947e+01	3.167888e+01
2.330000e-06	2.222348e-06	4.817169e-10	1.545247e+01	3.305510e+01
2.340000e-06	2.265741e-06	4.932571e-10	1.575419e+01	3.439874e+01
2.350000e-06	2.308901e-06	5.033294e-10	1.605429e+01	3.570964e+01
2.360000e-06	2.351848e-06	5.161225e-10	1.635292e+01	3.698772e+01
2.370000e-06	2.394478e-06	5.340694e-10	1.664933e+01	3.823299e+01
2.380000e-06	2.436686e-06	5.561727e-10	1.694281e+01	3.944552e+01
2.390000e-06	2.478438e-06	5.783313e-10	1.723312e+01	4.062544e+01
2.400000e-06	2.519907e-06	5.966064e-10	1.752146e+01	4.177293e+01
2.410000e-06	2.561076e-06	6.105788e-10	1.780773e+01	4.288823e+01
2.420000e-06	2.601932e-06	6.194591e-10	1.809181e+01	4.397162e+01
2.430000e-06	2.642602e-06	6.279447e-10	1.837459e+01	4.502342e+01
2.440000e-06	2.683092e-06	6.399291e-10	1.865613e+01	4.604398e+01
2.450000e-06	2.723373e-06	6.561479e-10	1.893621e+01	4.703367e+01
2.460000e-06	2.763517e-06	6.745309e-10	1.921534e+01	4.799291e+01
2.470000e-06	2.803565e-06	6.904282e-10	1.949380e+01	4.892214e+01
2.480000e-06	2.843445e-06	7.024625e-10	1.977110e+01	4.982181e+01
2.490000e-06	2.883182e-06	7.116341e-10	2.004740e+01	5.069239e+01
2.500000e-06	2.922897e-06	7.184930e-10	2.032355e+01	5.153440e+01
2.510000e-06	2.962441e-06	7.282130e-10	2.059851e+01	5.234836e+01
2.520000e-06	3.001740e-06	7.396728e-10	2.087176e+01	5.313480e+01
2.530000e-06	3.040827e-06	7.530546e-10	2.114354e+01	5.389429e+01
2.540000e-06	3.079606e-06	7.684867e-10	2.141318e+01	5.462741e+01
2.550000e-06	3.118160e-06	7.804516e-10	2.168125e+01	5.533476e+01
2.560000e-06	3.156591e-06	7.872453e-10	2.194847e+01	5.601697e+01
2.570000e-06	3.194843e-06	7.902571e-10	2.221444e+01	5.667469e+01
2.580000e-06	3.232887e-06	7.945496e-10	2.247897e+01	5.730856e+01
2.590000e-06	3.270661e-06	8.012080e-10	2.274162e+01	5.791928e+01
2.600000e-06	3.308197e-06	8.124812e-10	2.300262e+01	5.850753e+01
2.610000e-06	3.345517e-06	8.265796e-10	2.326211e+01	5.907405e+01
2.620000e-06	3.382537e-06	8.409426e-10	2.351952e+01	5.961954e+01
2.630000e-06	3.419336e-06	8.509867e-10	2.377539e+01	6.014475e+01
2.640000e-06	3.455907e-06	8.571402e-10	2.402968e+01	6.065042e+01
2.650000e-06	3.492277e-06	8.623272e-10	2.428257e+01	6.113732e+01
2.660000e-06	3.528466e-06	8.665450e-10	2.453420e+01	6.160618e+01
2.670000e-06	3.564500e-06	8.702326e-10	2.478475e+01	6.205776e+01
2.680000e-06	3.600466e-06	8.743114e-10	2.503483e+01	6.249280e+01
2.690000e-06	3.636307e-06	8.828039e-10	2.528404e+01	6.291204e+01
2.700000e-06	3.671881e-06	8.934142e-10	2.553140e+01	6.331619e+01
2.710000e-06	3.707183e-06	9.001535e-10	2.577686e+01	6.370595e+01
2.720000e-06	3.742253e-06	9.052798e-10	2.602071e+01	6.408199e+01
2.730000e-06	3.777012e-06	9.079065e-10	2.626240e+01	6.444494e+01
2.740000e-06	3.811245e-06	9.093343e-10	2.650043e+01	6.479543e+01
2.750000e-06	3.844986e-06	9.109508e-10	2.673503e+01	6.513402e+01
2.760000e-06	3.878375e-06	9.143464e-10	2.696720e+01	6.546124e+01
2.770000e-06	3.911324e-06	9.203303e-10	2.719629e+01	6.577759e+01
2.780000e-06	3.943855e-06	9.265564e-10	2.742249e+01	6.608349e+01
2.790000e-06	3.976073e-06	9.333062e-10	2.764651e+01	6.637935e+01
2.800000e-06	4.008072e-06	9.395611e-10	2.786900e+01	6.666552e+01
2.810000e-06	4.039921e-06	9.444389e-10	2.809046e+01	6.694230e+01
2.820000e-06	4.071658e-06	9.472063e-10	2.831113e+01	6.720993e+01
2.830000e-06	4.103192e-06	9.510305e-10	2.853040e+01	6.746862e+01
2.840000e-06	4.134392e-06	9.563917e-10	2.874734e+01	6.771854e+01
2.850000e-06	4.165325e-06	9.590326e-10	2.896242e+01	6.795981e+01
2.860000e-06	4.195888e-06	9.620938e-10	2.917493e+01	6.819250e+01
2.870000e-06	4.226112e-06	9.673839e-10	2.938508e+01	6.841667e+01
2.880000e-06	4.256113e-06	9.709232e-10	2.959369e+01	6.863234e+01
2.890000e-06	4.285898e-06	9.718733e-10	2.980079e+01	6.883950e+01
2.900000e-06	4.315457e-06	9.730484e-10	3.000632e+01	6.903815e+01
