# Temperatura_=_-16.84
# Concentracion g/m^3_=_1620.0
# C_Vs_to_Am_M_A/Vsm_=_65563218390.804596
# pendiente_HvsI_1/m_=_3716.3
# ordenada_HvsI_A/m_=_1297.0
# frecuencia_Hz_=_135094.73997103266

Tiempo_(s)	Campo_(V.s)	Magnetizacion_(V.s)	Campo_(kA/m)	Magnetizacion_(A/m)
0.000000e+00	-5.528531e-06	-1.233623e-09	-3.838059e+01	-7.864977e+01
1.000000e-08	-5.528672e-06	-1.235797e-09	-3.838157e+01	-7.860368e+01
2.000000e-08	-5.528398e-06	-1.236794e-09	-3.837967e+01	-7.855466e+01
3.000000e-08	-5.527718e-06	-1.237679e-09	-3.837495e+01	-7.850293e+01
4.000000e-08	-5.526603e-06	-1.240108e-09	-3.836720e+01	-7.844876e+01
5.000000e-08	-5.524927e-06	-1.244382e-09	-3.835557e+01	-7.839247e+01
6.000000e-08	-5.522629e-06	-1.245494e-09	-3.833962e+01	-7.833444e+01
7.000000e-08	-5.519871e-06	-1.238490e-09	-3.832047e+01	-7.827506e+01
8.000000e-08	-5.516702e-06	-1.222826e-09	-3.829847e+01	-7.821477e+01
9.000000e-08	-5.513042e-06	-1.202816e-09	-3.827307e+01	-7.815404e+01
1.000000e-07	-5.508907e-06	-1.196483e-09	-3.824436e+01	-7.809333e+01
1.100000e-07	-5.504411e-06	-1.214528e-09	-3.821315e+01	-7.803314e+01
1.200000e-07	-5.499709e-06	-1.259148e-09	-3.818050e+01	-7.797396e+01
1.300000e-07	-5.494662e-06	-1.235203e-09	-3.814546e+01	-7.791626e+01
1.400000e-07	-5.489189e-06	-1.192769e-09	-3.810747e+01	-7.786049e+01
1.500000e-07	-5.483425e-06	-1.209344e-09	-3.806745e+01	-7.780709e+01
1.600000e-07	-5.477282e-06	-1.274251e-09	-3.802481e+01	-7.775644e+01
1.700000e-07	-5.470679e-06	-1.244923e-09	-3.797897e+01	-7.770889e+01
1.800000e-07	-5.463709e-06	-1.149686e-09	-3.793058e+01	-7.766473e+01
1.900000e-07	-5.456447e-06	-1.156203e-09	-3.788016e+01	-7.762419e+01
2.000000e-07	-5.448859e-06	-1.227753e-09	-3.782749e+01	-7.758742e+01
2.100000e-07	-5.440930e-06	-1.232614e-09	-3.777244e+01	-7.755453e+01
2.200000e-07	-5.432789e-06	-1.166126e-09	-3.771593e+01	-7.752554e+01
2.300000e-07	-5.424268e-06	-1.169985e-09	-3.765677e+01	-7.750039e+01
2.400000e-07	-5.415133e-06	-1.205710e-09	-3.759335e+01	-7.747895e+01
2.500000e-07	-5.405347e-06	-1.199209e-09	-3.752541e+01	-7.746103e+01
2.600000e-07	-5.395076e-06	-1.157976e-09	-3.745411e+01	-7.744634e+01
2.700000e-07	-5.384344e-06	-1.167908e-09	-3.737960e+01	-7.743454e+01
2.800000e-07	-5.373052e-06	-1.189721e-09	-3.730121e+01	-7.742525e+01
2.900000e-07	-5.361357e-06	-1.185735e-09	-3.722003e+01	-7.741799e+01
3.000000e-07	-5.349289e-06	-1.171538e-09	-3.713624e+01	-7.741228e+01
3.100000e-07	-5.336763e-06	-1.190970e-09	-3.704929e+01	-7.740758e+01
3.200000e-07	-5.323811e-06	-1.196848e-09	-3.695937e+01	-7.740332e+01
3.300000e-07	-5.310468e-06	-1.188074e-09	-3.686674e+01	-7.739893e+01
3.400000e-07	-5.296742e-06	-1.175003e-09	-3.677145e+01	-7.739382e+01
3.500000e-07	-5.282479e-06	-1.174928e-09	-3.667243e+01	-7.738741e+01
3.600000e-07	-5.267673e-06	-1.183839e-09	-3.656964e+01	-7.737914e+01
3.700000e-07	-5.252566e-06	-1.198068e-09	-3.646477e+01	-7.736847e+01
3.800000e-07	-5.237023e-06	-1.188726e-09	-3.635687e+01	-7.735489e+01
3.900000e-07	-5.220912e-06	-1.175118e-09	-3.624502e+01	-7.733797e+01
4.000000e-07	-5.204426e-06	-1.183493e-09	-3.613056e+01	-7.731729e+01
4.100000e-07	-5.187627e-06	-1.172651e-09	-3.601394e+01	-7.729252e+01
4.200000e-07	-5.170429e-06	-1.165097e-09	-3.589455e+01	-7.726339e+01
4.300000e-07	-5.152889e-06	-1.191618e-09	-3.577278e+01	-7.722971e+01
4.400000e-07	-5.135084e-06	-1.200494e-09	-3.564917e+01	-7.719134e+01
4.500000e-07	-5.116885e-06	-1.161253e-09	-3.552283e+01	-7.714825e+01
4.600000e-07	-5.098246e-06	-1.171554e-09	-3.539344e+01	-7.710047e+01
4.700000e-07	-5.079233e-06	-1.199240e-09	-3.526144e+01	-7.704811e+01
4.800000e-07	-5.059903e-06	-1.167045e-09	-3.512725e+01	-7.699136e+01
4.900000e-07	-5.040310e-06	-1.137567e-09	-3.499122e+01	-7.693046e+01
5.000000e-07	-5.020529e-06	-1.172709e-09	-3.485390e+01	-7.686575e+01
5.100000e-07	-5.000495e-06	-1.168768e-09	-3.471482e+01	-7.679758e+01
5.200000e-07	-4.980050e-06	-1.150127e-09	-3.457289e+01	-7.672640e+01
5.300000e-07	-4.959289e-06	-1.182562e-09	-3.442875e+01	-7.665265e+01
5.400000e-07	-4.938258e-06	-1.190775e-09	-3.428275e+01	-7.657684e+01
5.500000e-07	-4.916807e-06	-1.142475e-09	-3.413383e+01	-7.649948e+01
5.600000e-07	-4.894976e-06	-1.159205e-09	-3.398228e+01	-7.642110e+01
5.700000e-07	-4.872810e-06	-1.188428e-09	-3.382839e+01	-7.634223e+01
5.800000e-07	-4.850360e-06	-1.151273e-09	-3.367254e+01	-7.626338e+01
5.900000e-07	-4.827641e-06	-1.139209e-09	-3.351482e+01	-7.618505e+01
6.000000e-07	-4.804546e-06	-1.174951e-09	-3.335448e+01	-7.610771e+01
6.100000e-07	-4.781188e-06	-1.155391e-09	-3.319233e+01	-7.603178e+01
6.200000e-07	-4.757601e-06	-1.132043e-09	-3.302858e+01	-7.595764e+01
6.300000e-07	-4.733749e-06	-1.161692e-09	-3.286300e+01	-7.588563e+01
6.400000e-07	-4.709514e-06	-1.164146e-09	-3.269475e+01	-7.581601e+01
6.500000e-07	-4.684810e-06	-1.139471e-09	-3.252324e+01	-7.574899e+01
6.600000e-07	-4.659746e-06	-1.152474e-09	-3.234924e+01	-7.568470e+01
6.700000e-07	-4.634222e-06	-1.157501e-09	-3.217205e+01	-7.562322e+01
6.800000e-07	-4.608102e-06	-1.133800e-09	-3.199072e+01	-7.556455e+01
6.900000e-07	-4.581472e-06	-1.137873e-09	-3.180585e+01	-7.550861e+01
7.000000e-07	-4.554500e-06	-1.148229e-09	-3.161860e+01	-7.545527e+01
7.100000e-07	-4.527315e-06	-1.135468e-09	-3.142987e+01	-7.540434e+01
7.200000e-07	-4.499913e-06	-1.136274e-09	-3.123964e+01	-7.535555e+01
7.300000e-07	-4.472246e-06	-1.151250e-09	-3.104757e+01	-7.530860e+01
7.400000e-07	-4.444258e-06	-1.142261e-09	-3.085327e+01	-7.526314e+01
7.500000e-07	-4.416000e-06	-1.134605e-09	-3.065709e+01	-7.521876e+01
7.600000e-07	-4.387452e-06	-1.141038e-09	-3.045890e+01	-7.517504e+01
7.700000e-07	-4.358555e-06	-1.140145e-09	-3.025829e+01	-7.513154e+01
7.800000e-07	-4.329402e-06	-1.130935e-09	-3.005591e+01	-7.508777e+01
7.900000e-07	-4.300044e-06	-1.135060e-09	-2.985210e+01	-7.504328e+01
8.000000e-07	-4.270413e-06	-1.133519e-09	-2.964639e+01	-7.499759e+01
8.100000e-07	-4.240516e-06	-1.127507e-09	-2.943884e+01	-7.495024e+01
8.200000e-07	-4.210369e-06	-1.127446e-09	-2.922955e+01	-7.490078e+01
8.300000e-07	-4.179834e-06	-1.130148e-09	-2.901757e+01	-7.484880e+01
8.400000e-07	-4.148895e-06	-1.125277e-09	-2.880277e+01	-7.479391e+01
8.500000e-07	-4.117690e-06	-1.130608e-09	-2.858614e+01	-7.473575e+01
8.600000e-07	-4.086301e-06	-1.137964e-09	-2.836823e+01	-7.467402e+01
8.700000e-07	-4.054688e-06	-1.131327e-09	-2.814876e+01	-7.460845e+01
8.800000e-07	-4.022902e-06	-1.120985e-09	-2.792810e+01	-7.453882e+01
8.900000e-07	-3.990919e-06	-1.119340e-09	-2.770606e+01	-7.446495e+01
9.000000e-07	-3.958606e-06	-1.114866e-09	-2.748174e+01	-7.438674e+01
9.100000e-07	-3.925909e-06	-1.108289e-09	-2.725474e+01	-7.430411e+01
9.200000e-07	-3.892864e-06	-1.110946e-09	-2.702534e+01	-7.421704e+01
9.300000e-07	-3.859464e-06	-1.115245e-09	-2.679347e+01	-7.412555e+01
9.400000e-07	-3.825618e-06	-1.110899e-09	-2.655850e+01	-7.402971e+01
9.500000e-07	-3.791362e-06	-1.108807e-09	-2.632068e+01	-7.392963e+01
9.600000e-07	-3.756703e-06	-1.106557e-09	-2.608007e+01	-7.382545e+01
9.700000e-07	-3.721694e-06	-1.096269e-09	-2.583703e+01	-7.371734e+01
9.800000e-07	-3.686429e-06	-1.089950e-09	-2.559221e+01	-7.360550e+01
9.900000e-07	-3.650970e-06	-1.091842e-09	-2.534604e+01	-7.349015e+01
1.000000e-06	-3.615335e-06	-1.092139e-09	-2.509866e+01	-7.337152e+01
1.010000e-06	-3.579486e-06	-1.087778e-09	-2.484978e+01	-7.324984e+01
1.020000e-06	-3.543470e-06	-1.090624e-09	-2.459975e+01	-7.312535e+01
1.030000e-06	-3.507304e-06	-1.092060e-09	-2.434867e+01	-7.299829e+01
1.040000e-06	-3.470969e-06	-1.087501e-09	-2.409643e+01	-7.286887e+01
1.050000e-06	-3.434397e-06	-1.082977e-09	-2.384254e+01	-7.273732e+01
1.060000e-06	-3.397495e-06	-1.080828e-09	-2.358635e+01	-7.260381e+01
1.070000e-06	-3.360242e-06	-1.074446e-09	-2.332773e+01	-7.246852e+01
1.080000e-06	-3.322816e-06	-1.069482e-09	-2.306791e+01	-7.233158e+01
1.090000e-06	-3.285235e-06	-1.068639e-09	-2.280701e+01	-7.219310e+01
1.100000e-06	-3.247458e-06	-1.068207e-09	-2.254475e+01	-7.205315e+01
1.110000e-06	-3.209478e-06	-1.063529e-09	-2.228108e+01	-7.191176e+01
1.120000e-06	-3.171173e-06	-1.059510e-09	-2.201516e+01	-7.176895e+01
1.130000e-06	-3.132613e-06	-1.054488e-09	-2.174747e+01	-7.162467e+01
1.140000e-06	-3.093871e-06	-1.050821e-09	-2.147851e+01	-7.147885e+01
1.150000e-06	-3.054897e-06	-1.050825e-09	-2.120794e+01	-7.133137e+01
1.160000e-06	-3.015707e-06	-1.051893e-09	-2.093587e+01	-7.118208e+01
1.170000e-06	-2.976374e-06	-1.050387e-09	-2.066281e+01	-7.103081e+01
1.180000e-06	-2.936960e-06	-1.046154e-09	-2.038919e+01	-7.087733e+01
1.190000e-06	-2.897475e-06	-1.040706e-09	-2.011507e+01	-7.072139e+01
1.200000e-06	-2.857799e-06	-1.033540e-09	-1.983963e+01	-7.056271e+01
1.210000e-06	-2.817886e-06	-1.026207e-09	-1.956255e+01	-7.040100e+01
1.220000e-06	-2.777882e-06	-1.022421e-09	-1.928482e+01	-7.023591e+01
1.230000e-06	-2.737703e-06	-1.020485e-09	-1.900589e+01	-7.006712e+01
1.240000e-06	-2.697243e-06	-1.017915e-09	-1.872500e+01	-6.989424e+01
1.250000e-06	-2.656534e-06	-1.016817e-09	-1.844239e+01	-6.971690e+01
1.260000e-06	-2.615456e-06	-1.017342e-09	-1.815722e+01	-6.953472e+01
1.270000e-06	-2.574056e-06	-1.014450e-09	-1.786981e+01	-6.934729e+01
1.280000e-06	-2.532514e-06	-1.006275e-09	-1.758141e+01	-6.915423e+01
1.290000e-06	-2.490738e-06	-9.990821e-10	-1.729139e+01	-6.895513e+01
1.300000e-06	-2.448624e-06	-9.931243e-10	-1.699903e+01	-6.874961e+01
1.310000e-06	-2.406187e-06	-9.866189e-10	-1.670442e+01	-6.853727e+01
1.320000e-06	-2.363415e-06	-9.812650e-10	-1.640748e+01	-6.831773e+01
1.330000e-06	-2.320446e-06	-9.792896e-10	-1.610918e+01	-6.809063e+01
1.340000e-06	-2.277313e-06	-9.783887e-10	-1.580973e+01	-6.785561e+01
1.350000e-06	-2.233987e-06	-9.790548e-10	-1.550896e+01	-6.761233e+01
1.360000e-06	-2.190554e-06	-9.787516e-10	-1.520743e+01	-6.736048e+01
1.370000e-06	-2.147016e-06	-9.752968e-10	-1.490518e+01	-6.709976e+01
1.380000e-06	-2.103384e-06	-9.667102e-10	-1.460227e+01	-6.682988e+01
1.390000e-06	-2.059666e-06	-9.544622e-10	-1.429877e+01	-6.655059e+01
1.400000e-06	-2.015878e-06	-9.413147e-10	-1.399478e+01	-6.626165e+01
1.410000e-06	-1.971950e-06	-9.317650e-10	-1.368982e+01	-6.596285e+01
1.420000e-06	-1.927900e-06	-9.275629e-10	-1.338402e+01	-6.565399e+01
1.430000e-06	-1.883830e-06	-9.276250e-10	-1.307807e+01	-6.533491e+01
1.440000e-06	-1.839606e-06	-9.275050e-10	-1.277106e+01	-6.500545e+01
1.450000e-06	-1.795169e-06	-9.248394e-10	-1.246256e+01	-6.466548e+01
1.460000e-06	-1.750571e-06	-9.188891e-10	-1.215295e+01	-6.431487e+01
1.470000e-06	-1.705927e-06	-9.086928e-10	-1.184302e+01	-6.395353e+01
1.480000e-06	-1.661266e-06	-8.976833e-10	-1.153297e+01	-6.358135e+01
1.490000e-06	-1.616429e-06	-8.894125e-10	-1.122170e+01	-6.319825e+01
1.500000e-06	-1.571409e-06	-8.812816e-10	-1.090915e+01	-6.280413e+01
1.510000e-06	-1.526191e-06	-8.731521e-10	-1.059524e+01	-6.239889e+01
1.520000e-06	-1.480888e-06	-8.679242e-10	-1.028074e+01	-6.198245e+01
1.530000e-06	-1.435557e-06	-8.647574e-10	-9.966034e+00	-6.155467e+01
1.540000e-06	-1.390165e-06	-8.598169e-10	-9.650907e+00	-6.111542e+01
1.550000e-06	-1.344650e-06	-8.498196e-10	-9.334931e+00	-6.066455e+01
1.560000e-06	-1.299005e-06	-8.355106e-10	-9.018049e+00	-6.020184e+01
1.570000e-06	-1.253378e-06	-8.189602e-10	-8.701298e+00	-5.972706e+01
1.580000e-06	-1.207690e-06	-8.057586e-10	-8.384115e+00	-5.923995e+01
1.590000e-06	-1.161890e-06	-7.968316e-10	-8.066163e+00	-5.874015e+01
1.600000e-06	-1.115938e-06	-7.890207e-10	-7.747147e+00	-5.822729e+01
1.610000e-06	-1.069906e-06	-7.825747e-10	-7.427585e+00	-5.770090e+01
1.620000e-06	-1.023872e-06	-7.774904e-10	-7.108004e+00	-5.716048e+01
1.630000e-06	-9.776629e-07	-7.703112e-10	-6.787206e+00	-5.660543e+01
1.640000e-06	-9.313178e-07	-7.603469e-10	-6.465466e+00	-5.603508e+01
1.650000e-06	-8.849895e-07	-7.491244e-10	-6.143842e+00	-5.544869e+01
1.660000e-06	-8.386727e-07	-7.394652e-10	-5.822298e+00	-5.484543e+01
1.670000e-06	-7.923259e-07	-7.307936e-10	-5.500546e+00	-5.422441e+01
1.680000e-06	-7.459538e-07	-7.226918e-10	-5.178618e+00	-5.358464e+01
1.690000e-06	-6.994873e-07	-7.135345e-10	-4.856034e+00	-5.292507e+01
1.700000e-06	-6.528863e-07	-7.010319e-10	-4.532517e+00	-5.224456e+01
1.710000e-06	-6.062781e-07	-6.855141e-10	-4.208950e+00	-5.154192e+01
1.720000e-06	-5.596441e-07	-6.690110e-10	-3.885204e+00	-5.081590e+01
1.730000e-06	-5.129323e-07	-6.546516e-10	-3.560918e+00	-5.006520e+01
1.740000e-06	-4.661500e-07	-6.443064e-10	-3.236143e+00	-4.928846e+01
1.750000e-06	-4.192684e-07	-6.360190e-10	-2.910677e+00	-4.848432e+01
1.760000e-06	-3.724036e-07	-6.263653e-10	-2.585329e+00	-4.765136e+01
1.770000e-06	-3.255498e-07	-6.135393e-10	-2.260057e+00	-4.678821e+01
1.780000e-06	-2.786419e-07	-5.981376e-10	-1.934409e+00	-4.589347e+01
1.790000e-06	-2.316894e-07	-5.820270e-10	-1.608452e+00	-4.496577e+01
1.800000e-06	-1.846962e-07	-5.663509e-10	-1.282212e+00	-4.400381e+01
1.810000e-06	-1.377205e-07	-5.518922e-10	-9.560937e-01	-4.300634e+01
1.820000e-06	-9.078546e-08	-5.383185e-10	-6.302577e-01	-4.197216e+01
1.830000e-06	-4.385972e-08	-5.247581e-10	-3.044863e-01	-4.090020e+01
1.840000e-06	3.083557e-09	-5.123166e-10	2.140690e-02	-3.978949e+01
1.850000e-06	5.004368e-08	-5.006789e-10	3.474171e-01	-3.863920e+01
1.860000e-06	9.695098e-08	-4.876660e-10	6.730605e-01	-3.744861e+01
1.870000e-06	1.438327e-07	-4.715566e-10	9.985264e-01	-3.621721e+01
1.880000e-06	1.908254e-07	-4.520718e-10	1.324763e+00	-3.494464e+01
1.890000e-06	2.377838e-07	-4.300616e-10	1.650761e+00	-3.363071e+01
1.900000e-06	2.846329e-07	-4.064930e-10	1.976001e+00	-3.227545e+01
1.910000e-06	3.314746e-07	-3.851200e-10	2.301188e+00	-3.087911e+01
1.920000e-06	3.783133e-07	-3.667363e-10	2.626355e+00	-2.944211e+01
1.930000e-06	4.251479e-07	-3.505872e-10	2.951494e+00	-2.796513e+01
1.940000e-06	4.719312e-07	-3.354183e-10	3.276277e+00	-2.644905e+01
1.950000e-06	5.186546e-07	-3.176212e-10	3.600644e+00	-2.489497e+01
1.960000e-06	5.653524e-07	-2.949289e-10	3.924833e+00	-2.330421e+01
1.970000e-06	6.120253e-07	-2.687635e-10	4.248849e+00	-2.167830e+01
1.980000e-06	6.585827e-07	-2.420683e-10	4.572063e+00	-2.001899e+01
1.990000e-06	7.050942e-07	-2.166930e-10	4.894959e+00	-1.832820e+01
2.000000e-06	7.516362e-07	-1.930619e-10	5.218067e+00	-1.660806e+01
2.010000e-06	7.980784e-07	-1.713301e-10	5.540481e+00	-1.486085e+01
2.020000e-06	8.444527e-07	-1.491495e-10	5.862424e+00	-1.308900e+01
2.030000e-06	8.907323e-07	-1.238282e-10	6.183710e+00	-1.129510e+01
2.040000e-06	9.368436e-07	-9.731235e-11	6.503828e+00	-9.481840e+00
2.050000e-06	9.828993e-07	-7.207592e-11	6.823559e+00	-7.652002e+00
2.060000e-06	1.028914e-06	-4.844233e-11	7.143006e+00	-5.808451e+00
2.070000e-06	1.074817e-06	-2.524525e-11	7.461680e+00	-3.954104e+00
2.080000e-06	1.120654e-06	-1.419135e-12	7.779890e+00	-2.091909e+00
2.090000e-06	1.166463e-06	2.497593e-11	8.097907e+00	-2.248221e-01
2.100000e-06	1.212203e-06	5.364607e-11	8.415445e+00	1.644213e+00
2.110000e-06	1.257804e-06	8.123083e-11	8.732023e+00	3.512285e+00
2.120000e-06	1.303310e-06	1.081063e-10	9.047935e+00	5.376541e+00
2.130000e-06	1.348748e-06	1.352901e-10	9.363383e+00	7.234199e+00
2.140000e-06	1.394092e-06	1.598267e-10	9.678171e+00	9.082568e+00
2.150000e-06	1.439389e-06	1.810674e-10	9.992634e+00	1.091907e+01
2.160000e-06	1.484577e-06	2.016686e-10	1.030634e+01	1.274124e+01
2.170000e-06	1.529619e-06	2.230341e-10	1.061904e+01	1.454675e+01
2.180000e-06	1.574537e-06	2.470929e-10	1.093087e+01	1.633344e+01
2.190000e-06	1.619278e-06	2.743071e-10	1.124147e+01	1.809927e+01
2.200000e-06	1.663921e-06	3.033183e-10	1.155140e+01	1.984239e+01
2.210000e-06	1.708481e-06	3.325748e-10	1.186075e+01	2.156109e+01
2.220000e-06	1.752920e-06	3.594798e-10	1.216926e+01	2.325385e+01
2.230000e-06	1.797160e-06	3.806061e-10	1.247638e+01	2.491931e+01
2.240000e-06	1.841268e-06	3.957430e-10	1.278259e+01	2.655626e+01
2.250000e-06	1.885342e-06	4.076722e-10	1.308856e+01	2.816368e+01
2.260000e-06	1.929301e-06	4.229600e-10	1.339374e+01	2.974069e+01
2.270000e-06	1.973199e-06	4.451942e-10	1.369849e+01	3.128657e+01
2.280000e-06	2.017039e-06	4.713903e-10	1.400284e+01	3.280073e+01
2.290000e-06	2.060795e-06	4.976354e-10	1.430661e+01	3.428273e+01
2.300000e-06	2.104500e-06	5.229416e-10	1.461002e+01	3.573224e+01
2.310000e-06	2.148136e-06	5.457227e-10	1.491295e+01	3.714906e+01
2.320000e-06	2.191667e-06	5.624557e-10	1.521516e+01	3.853307e+01
2.330000e-06	2.235048e-06	5.747574e-10	1.551632e+01	3.988427e+01
2.340000e-06	2.278315e-06	5.868204e-10	1.581669e+01	4.120272e+01
2.350000e-06	2.321530e-06	6.021373e-10	1.611671e+01	4.248856e+01
2.360000e-06	2.364582e-06	6.214718e-10	1.641558e+01	4.374200e+01
2.370000e-06	2.407356e-06	6.434985e-10	1.671253e+01	4.496329e+01
2.380000e-06	2.449815e-06	6.651150e-10	1.700730e+01	4.615272e+01
2.390000e-06	2.491978e-06	6.833091e-10	1.730000e+01	4.731062e+01
2.400000e-06	2.533769e-06	6.964542e-10	1.759012e+01	4.843736e+01
2.410000e-06	2.575263e-06	7.071304e-10	1.787819e+01	4.953330e+01
2.420000e-06	2.616515e-06	7.182926e-10	1.816457e+01	5.059885e+01
2.430000e-06	2.657376e-06	7.306856e-10	1.844824e+01	5.163441e+01
2.440000e-06	2.697899e-06	7.454713e-10	1.872956e+01	5.264040e+01
2.450000e-06	2.738203e-06	7.611436e-10	1.900936e+01	5.361724e+01
2.460000e-06	2.778331e-06	7.760799e-10	1.928794e+01	5.456535e+01
2.470000e-06	2.818302e-06	7.888348e-10	1.956543e+01	5.548517e+01
2.480000e-06	2.858193e-06	7.997770e-10	1.984237e+01	5.637712e+01
2.490000e-06	2.897955e-06	8.099474e-10	2.011840e+01	5.724165e+01
2.500000e-06	2.937557e-06	8.201478e-10	2.039333e+01	5.807919e+01
2.510000e-06	2.977041e-06	8.333453e-10	2.066744e+01	5.889020e+01
2.520000e-06	3.016298e-06	8.454337e-10	2.093997e+01	5.967511e+01
2.530000e-06	3.055388e-06	8.577344e-10	2.121135e+01	6.043440e+01
2.540000e-06	3.094309e-06	8.714971e-10	2.148155e+01	6.116853e+01
2.550000e-06	3.132900e-06	8.811738e-10	2.174946e+01	6.187799e+01
2.560000e-06	3.171289e-06	8.853999e-10	2.201597e+01	6.256326e+01
2.570000e-06	3.209507e-06	8.884308e-10	2.228128e+01	6.322485e+01
2.580000e-06	3.247451e-06	8.946497e-10	2.254470e+01	6.386328e+01
2.590000e-06	3.285153e-06	9.022446e-10	2.280644e+01	6.447907e+01
2.600000e-06	3.322634e-06	9.145437e-10	2.306665e+01	6.507277e+01
2.610000e-06	3.359971e-06	9.310916e-10	2.332585e+01	6.564492e+01
2.620000e-06	3.397133e-06	9.452488e-10	2.358384e+01	6.619608e+01
2.630000e-06	3.434023e-06	9.526370e-10	2.383994e+01	6.672683e+01
2.640000e-06	3.470642e-06	9.566892e-10	2.409416e+01	6.723772e+01
2.650000e-06	3.507047e-06	9.601872e-10	2.434689e+01	6.772935e+01
2.660000e-06	3.543160e-06	9.623218e-10	2.459760e+01	6.820227e+01
2.670000e-06	3.579031e-06	9.656557e-10	2.484662e+01	6.865708e+01
2.680000e-06	3.614761e-06	9.734610e-10	2.509467e+01	6.909432e+01
2.690000e-06	3.650295e-06	9.873793e-10	2.534136e+01	6.951456e+01
2.700000e-06	3.685726e-06	9.998959e-10	2.558733e+01	6.991836e+01
2.710000e-06	3.721035e-06	1.007195e-09	2.583246e+01	7.030624e+01
2.720000e-06	3.756154e-06	1.009352e-09	2.607626e+01	7.067872e+01
2.730000e-06	3.790941e-06	1.007893e-09	2.631776e+01	7.103631e+01
2.740000e-06	3.825242e-06	1.006946e-09	2.655589e+01	7.137950e+01
2.750000e-06	3.859086e-06	1.010432e-09	2.679084e+01	7.170874e+01
2.760000e-06	3.892450e-06	1.017681e-09	2.702247e+01	7.202449e+01
2.770000e-06	3.925284e-06	1.026967e-09	2.725041e+01	7.232716e+01
2.780000e-06	3.957778e-06	1.036975e-09	2.747599e+01	7.261717e+01
2.790000e-06	3.990009e-06	1.045182e-09	2.769974e+01	7.289491e+01
2.800000e-06	4.021959e-06	1.051888e-09	2.792155e+01	7.316074e+01
2.810000e-06	4.053718e-06	1.055353e-09	2.814203e+01	7.341502e+01
2.820000e-06	4.085315e-06	1.057180e-09	2.836139e+01	7.365811e+01
2.830000e-06	4.116823e-06	1.059312e-09	2.858012e+01	7.389032e+01
2.840000e-06	4.148097e-06	1.060928e-09	2.879723e+01	7.411201e+01
2.850000e-06	4.179002e-06	1.064847e-09	2.901179e+01	7.432348e+01
2.860000e-06	4.209579e-06	1.071813e-09	2.922406e+01	7.452508e+01
2.870000e-06	4.239767e-06	1.078016e-09	2.943364e+01	7.471711e+01
2.880000e-06	4.269667e-06	1.081637e-09	2.964121e+01	7.489993e+01
2.890000e-06	4.299395e-06	1.082461e-09	2.984759e+01	7.507386e+01
2.900000e-06	4.328830e-06	1.084600e-09	3.005193e+01	7.523927e+01
