# Temperatura_=_10.58
# Concentracion g/m^3_=_1620.0
# C_Vs_to_Am_M_A/Vsm_=_65563218390.804596
# pendiente_HvsI_1/m_=_3716.3
# ordenada_HvsI_A/m_=_1297.0
# frecuencia_Hz_=_135106.45275859896

Tiempo_(s)	Campo_(V.s)	Magnetizacion_(V.s)	Campo_(kA/m)	Magnetizacion_(A/m)
0.000000e+00	-5.530440e-06	-1.674080e-09	-3.837513e+01	-1.098144e+02
1.000000e-08	-5.530524e-06	-1.671033e-09	-3.837571e+01	-1.097643e+02
2.000000e-08	-5.530366e-06	-1.671144e-09	-3.837461e+01	-1.097155e+02
3.000000e-08	-5.529829e-06	-1.672035e-09	-3.837088e+01	-1.096680e+02
4.000000e-08	-5.528779e-06	-1.674282e-09	-3.836360e+01	-1.096216e+02
5.000000e-08	-5.527125e-06	-1.670227e-09	-3.835212e+01	-1.095763e+02
6.000000e-08	-5.524874e-06	-1.661325e-09	-3.833650e+01	-1.095317e+02
7.000000e-08	-5.522022e-06	-1.660607e-09	-3.831672e+01	-1.094875e+02
8.000000e-08	-5.518654e-06	-1.652111e-09	-3.829334e+01	-1.094434e+02
9.000000e-08	-5.514883e-06	-1.682703e-09	-3.826718e+01	-1.093991e+02
1.000000e-07	-5.510710e-06	-1.766697e-09	-3.823822e+01	-1.093540e+02
1.100000e-07	-5.506161e-06	-1.701782e-09	-3.820665e+01	-1.093077e+02
1.200000e-07	-5.501400e-06	-1.570611e-09	-3.817362e+01	-1.092596e+02
1.300000e-07	-5.496477e-06	-1.572181e-09	-3.813946e+01	-1.092092e+02
1.400000e-07	-5.491131e-06	-1.692119e-09	-3.810236e+01	-1.091560e+02
1.500000e-07	-5.485310e-06	-1.738418e-09	-3.806198e+01	-1.090993e+02
1.600000e-07	-5.479161e-06	-1.600263e-09	-3.801931e+01	-1.090386e+02
1.700000e-07	-5.472684e-06	-1.619197e-09	-3.797436e+01	-1.089733e+02
1.800000e-07	-5.465689e-06	-1.703170e-09	-3.792583e+01	-1.089028e+02
1.900000e-07	-5.458240e-06	-1.726331e-09	-3.787414e+01	-1.088268e+02
2.000000e-07	-5.450572e-06	-1.596272e-09	-3.782093e+01	-1.087445e+02
2.100000e-07	-5.442741e-06	-1.599146e-09	-3.776659e+01	-1.086558e+02
2.200000e-07	-5.434618e-06	-1.678070e-09	-3.771023e+01	-1.085600e+02
2.300000e-07	-5.426119e-06	-1.724546e-09	-3.765125e+01	-1.084569e+02
2.400000e-07	-5.417167e-06	-1.654127e-09	-3.758914e+01	-1.083463e+02
2.500000e-07	-5.407587e-06	-1.623486e-09	-3.752266e+01	-1.082279e+02
2.600000e-07	-5.397235e-06	-1.651558e-09	-3.745083e+01	-1.081016e+02
2.700000e-07	-5.386313e-06	-1.663580e-09	-3.737504e+01	-1.079673e+02
2.800000e-07	-5.374982e-06	-1.637220e-09	-3.729642e+01	-1.078251e+02
2.900000e-07	-5.363210e-06	-1.622453e-09	-3.721474e+01	-1.076750e+02
3.000000e-07	-5.351054e-06	-1.661576e-09	-3.713039e+01	-1.075172e+02
3.100000e-07	-5.338540e-06	-1.653490e-09	-3.704355e+01	-1.073520e+02
3.200000e-07	-5.325602e-06	-1.633879e-09	-3.695378e+01	-1.071796e+02
3.300000e-07	-5.312165e-06	-1.590699e-09	-3.686054e+01	-1.070003e+02
3.400000e-07	-5.298375e-06	-1.633058e-09	-3.676485e+01	-1.068147e+02
3.500000e-07	-5.284316e-06	-1.629950e-09	-3.666730e+01	-1.066232e+02
3.600000e-07	-5.269771e-06	-1.607745e-09	-3.656638e+01	-1.064262e+02
3.700000e-07	-5.254677e-06	-1.603033e-09	-3.646164e+01	-1.062243e+02
3.800000e-07	-5.239132e-06	-1.675817e-09	-3.635377e+01	-1.060181e+02
3.900000e-07	-5.222976e-06	-1.621116e-09	-3.624167e+01	-1.058082e+02
4.000000e-07	-5.206378e-06	-1.563544e-09	-3.612649e+01	-1.055950e+02
4.100000e-07	-5.189523e-06	-1.613463e-09	-3.600954e+01	-1.053792e+02
4.200000e-07	-5.172345e-06	-1.651424e-09	-3.589034e+01	-1.051612e+02
4.300000e-07	-5.154786e-06	-1.544365e-09	-3.576851e+01	-1.049417e+02
4.400000e-07	-5.136866e-06	-1.576500e-09	-3.564416e+01	-1.047212e+02
4.500000e-07	-5.118575e-06	-1.681511e-09	-3.551724e+01	-1.045000e+02
4.600000e-07	-5.099859e-06	-1.612785e-09	-3.538737e+01	-1.042785e+02
4.700000e-07	-5.080691e-06	-1.523266e-09	-3.525437e+01	-1.040572e+02
4.800000e-07	-5.061238e-06	-1.630544e-09	-3.511939e+01	-1.038363e+02
4.900000e-07	-5.041620e-06	-1.632295e-09	-3.498325e+01	-1.036160e+02
5.000000e-07	-5.021766e-06	-1.516326e-09	-3.484549e+01	-1.033966e+02
5.100000e-07	-5.001717e-06	-1.563361e-09	-3.470638e+01	-1.031780e+02
5.200000e-07	-4.981380e-06	-1.632340e-09	-3.456526e+01	-1.029603e+02
5.300000e-07	-4.960578e-06	-1.534143e-09	-3.442091e+01	-1.027436e+02
5.400000e-07	-4.939369e-06	-1.538310e-09	-3.427375e+01	-1.025277e+02
5.500000e-07	-4.917826e-06	-1.638464e-09	-3.412426e+01	-1.023124e+02
5.600000e-07	-4.895896e-06	-1.563109e-09	-3.397210e+01	-1.020977e+02
5.700000e-07	-4.873658e-06	-1.498319e-09	-3.381779e+01	-1.018831e+02
5.800000e-07	-4.851159e-06	-1.589177e-09	-3.366167e+01	-1.016685e+02
5.900000e-07	-4.828308e-06	-1.588024e-09	-3.350311e+01	-1.014535e+02
6.000000e-07	-4.805126e-06	-1.495497e-09	-3.334225e+01	-1.012378e+02
6.100000e-07	-4.781697e-06	-1.544419e-09	-3.317968e+01	-1.010211e+02
6.200000e-07	-4.758033e-06	-1.573786e-09	-3.301548e+01	-1.008028e+02
6.300000e-07	-4.734150e-06	-1.508744e-09	-3.284976e+01	-1.005828e+02
6.400000e-07	-4.709977e-06	-1.511159e-09	-3.268202e+01	-1.003605e+02
6.500000e-07	-4.685380e-06	-1.562937e-09	-3.251135e+01	-1.001356e+02
6.600000e-07	-4.660268e-06	-1.517130e-09	-3.233710e+01	-9.990785e+01
6.700000e-07	-4.634657e-06	-1.504057e-09	-3.215938e+01	-9.967682e+01
6.800000e-07	-4.608516e-06	-1.534968e-09	-3.197799e+01	-9.944223e+01
6.900000e-07	-4.581805e-06	-1.520875e-09	-3.179265e+01	-9.920382e+01
7.000000e-07	-4.554667e-06	-1.486929e-09	-3.160434e+01	-9.896134e+01
7.100000e-07	-4.527249e-06	-1.508774e-09	-3.141409e+01	-9.871458e+01
7.200000e-07	-4.499612e-06	-1.502231e-09	-3.122232e+01	-9.846339e+01
7.300000e-07	-4.471761e-06	-1.488500e-09	-3.102907e+01	-9.820762e+01
7.400000e-07	-4.443747e-06	-1.500350e-09	-3.083468e+01	-9.794718e+01
7.500000e-07	-4.415537e-06	-1.507936e-09	-3.063893e+01	-9.768198e+01
7.600000e-07	-4.387021e-06	-1.485180e-09	-3.044107e+01	-9.741200e+01
7.700000e-07	-4.358179e-06	-1.482732e-09	-3.024093e+01	-9.713721e+01
7.800000e-07	-4.329078e-06	-1.477351e-09	-3.003900e+01	-9.685762e+01
7.900000e-07	-4.299688e-06	-1.462778e-09	-2.983507e+01	-9.657325e+01
8.000000e-07	-4.269925e-06	-1.462399e-09	-2.962855e+01	-9.628413e+01
8.100000e-07	-4.239900e-06	-1.468338e-09	-2.942021e+01	-9.599031e+01
8.200000e-07	-4.209682e-06	-1.450870e-09	-2.921053e+01	-9.569181e+01
8.300000e-07	-4.179216e-06	-1.440170e-09	-2.899913e+01	-9.538869e+01
8.400000e-07	-4.148350e-06	-1.447046e-09	-2.878496e+01	-9.508098e+01
8.500000e-07	-4.117118e-06	-1.439446e-09	-2.856824e+01	-9.476869e+01
8.600000e-07	-4.085696e-06	-1.428772e-09	-2.835020e+01	-9.445184e+01
8.700000e-07	-4.054120e-06	-1.429656e-09	-2.813110e+01	-9.413041e+01
8.800000e-07	-4.022330e-06	-1.425040e-09	-2.791051e+01	-9.380439e+01
8.900000e-07	-3.990306e-06	-1.405426e-09	-2.768830e+01	-9.347373e+01
9.000000e-07	-3.958063e-06	-1.404916e-09	-2.746457e+01	-9.313837e+01
9.100000e-07	-3.925527e-06	-1.402672e-09	-2.723881e+01	-9.279822e+01
9.200000e-07	-3.892548e-06	-1.386950e-09	-2.700997e+01	-9.245320e+01
9.300000e-07	-3.859072e-06	-1.377849e-09	-2.677768e+01	-9.210319e+01
9.400000e-07	-3.825177e-06	-1.385837e-09	-2.654249e+01	-9.174808e+01
9.500000e-07	-3.790905e-06	-1.374823e-09	-2.630468e+01	-9.138775e+01
9.600000e-07	-3.756271e-06	-1.362583e-09	-2.606436e+01	-9.102206e+01
9.700000e-07	-3.721222e-06	-1.358858e-09	-2.582116e+01	-9.065091e+01
9.800000e-07	-3.685838e-06	-1.354944e-09	-2.557563e+01	-9.027417e+01
9.900000e-07	-3.650270e-06	-1.337765e-09	-2.532883e+01	-8.989176e+01
1.000000e-06	-3.614564e-06	-1.334650e-09	-2.508107e+01	-8.950358e+01
1.010000e-06	-3.578717e-06	-1.328941e-09	-2.483233e+01	-8.910959e+01
1.020000e-06	-3.542691e-06	-1.316821e-09	-2.458235e+01	-8.870976e+01
1.030000e-06	-3.506506e-06	-1.307049e-09	-2.433127e+01	-8.830408e+01
1.040000e-06	-3.470113e-06	-1.310029e-09	-2.407874e+01	-8.789261e+01
1.050000e-06	-3.433410e-06	-1.303669e-09	-2.382406e+01	-8.747540e+01
1.060000e-06	-3.396424e-06	-1.293236e-09	-2.356742e+01	-8.705257e+01
1.070000e-06	-3.359175e-06	-1.287038e-09	-2.330895e+01	-8.662427e+01
1.080000e-06	-3.321679e-06	-1.279525e-09	-2.304877e+01	-8.619067e+01
1.090000e-06	-3.283932e-06	-1.266211e-09	-2.278685e+01	-8.575199e+01
1.100000e-06	-3.245894e-06	-1.258608e-09	-2.252291e+01	-8.530848e+01
1.110000e-06	-3.207654e-06	-1.252036e-09	-2.225757e+01	-8.486039e+01
1.120000e-06	-3.169217e-06	-1.239673e-09	-2.199086e+01	-8.440801e+01
1.130000e-06	-3.130494e-06	-1.230264e-09	-2.172216e+01	-8.395165e+01
1.140000e-06	-3.091585e-06	-1.228028e-09	-2.145217e+01	-8.349158e+01
1.150000e-06	-3.052577e-06	-1.226416e-09	-2.118150e+01	-8.302812e+01
1.160000e-06	-3.013470e-06	-1.219843e-09	-2.091014e+01	-8.256154e+01
1.170000e-06	-2.974170e-06	-1.214684e-09	-2.063745e+01	-8.209209e+01
1.180000e-06	-2.934692e-06	-1.208406e-09	-2.036351e+01	-8.162000e+01
1.190000e-06	-2.895091e-06	-1.201050e-09	-2.008872e+01	-8.114546e+01
1.200000e-06	-2.855297e-06	-1.190043e-09	-1.981260e+01	-8.066859e+01
1.210000e-06	-2.815319e-06	-1.181628e-09	-1.953519e+01	-8.018947e+01
1.220000e-06	-2.775171e-06	-1.171347e-09	-1.925661e+01	-7.970812e+01
1.230000e-06	-2.734939e-06	-1.163875e-09	-1.897745e+01	-7.922447e+01
1.240000e-06	-2.694589e-06	-1.154886e-09	-1.869746e+01	-7.873839e+01
1.250000e-06	-2.653988e-06	-1.148787e-09	-1.841573e+01	-7.824966e+01
1.260000e-06	-2.612968e-06	-1.143305e-09	-1.813110e+01	-7.775798e+01
1.270000e-06	-2.571617e-06	-1.137109e-09	-1.784417e+01	-7.726298e+01
1.280000e-06	-2.530099e-06	-1.127198e-09	-1.755608e+01	-7.676421e+01
1.290000e-06	-2.488285e-06	-1.117280e-09	-1.726594e+01	-7.626112e+01
1.300000e-06	-2.446157e-06	-1.104092e-09	-1.697362e+01	-7.575311e+01
1.310000e-06	-2.403753e-06	-1.090931e-09	-1.667939e+01	-7.523952e+01
1.320000e-06	-2.361042e-06	-1.077844e-09	-1.638302e+01	-7.471961e+01
1.330000e-06	-2.318097e-06	-1.067179e-09	-1.608502e+01	-7.419261e+01
1.340000e-06	-2.274959e-06	-1.058390e-09	-1.578569e+01	-7.365771e+01
1.350000e-06	-2.231686e-06	-1.055588e-09	-1.548543e+01	-7.311407e+01
1.360000e-06	-2.188293e-06	-1.051963e-09	-1.518433e+01	-7.256085e+01
1.370000e-06	-2.144714e-06	-1.043889e-09	-1.488194e+01	-7.199720e+01
1.380000e-06	-2.101025e-06	-1.031403e-09	-1.457878e+01	-7.142227e+01
1.390000e-06	-2.057263e-06	-1.015656e-09	-1.427513e+01	-7.083527e+01
1.400000e-06	-2.013417e-06	-9.973845e-10	-1.397089e+01	-7.023543e+01
1.410000e-06	-1.969441e-06	-9.817374e-10	-1.366574e+01	-6.962201e+01
1.420000e-06	-1.925327e-06	-9.702585e-10	-1.335964e+01	-6.899438e+01
1.430000e-06	-1.881130e-06	-9.605940e-10	-1.305296e+01	-6.835193e+01
1.440000e-06	-1.836800e-06	-9.529060e-10	-1.274536e+01	-6.769416e+01
1.450000e-06	-1.792366e-06	-9.460732e-10	-1.243704e+01	-6.702065e+01
1.460000e-06	-1.747905e-06	-9.369466e-10	-1.212852e+01	-6.633105e+01
1.470000e-06	-1.703293e-06	-9.217799e-10	-1.181897e+01	-6.562511e+01
1.480000e-06	-1.658454e-06	-9.068961e-10	-1.150783e+01	-6.490268e+01
1.490000e-06	-1.613513e-06	-8.930003e-10	-1.119600e+01	-6.416368e+01
1.500000e-06	-1.568498e-06	-8.760463e-10	-1.088364e+01	-6.340810e+01
1.510000e-06	-1.523325e-06	-8.581383e-10	-1.057019e+01	-6.263603e+01
1.520000e-06	-1.478038e-06	-8.446937e-10	-1.025595e+01	-6.184760e+01
1.530000e-06	-1.432681e-06	-8.325862e-10	-9.941219e+00	-6.104298e+01
1.540000e-06	-1.387254e-06	-8.220970e-10	-9.626007e+00	-6.022241e+01
1.550000e-06	-1.341747e-06	-8.117268e-10	-9.310235e+00	-5.938611e+01
1.560000e-06	-1.296158e-06	-8.007720e-10	-8.993902e+00	-5.853433e+01
1.570000e-06	-1.250577e-06	-7.854163e-10	-8.677622e+00	-5.766729e+01
1.580000e-06	-1.204933e-06	-7.688194e-10	-8.360902e+00	-5.678517e+01
1.590000e-06	-1.159111e-06	-7.500389e-10	-8.042944e+00	-5.588813e+01
1.600000e-06	-1.113202e-06	-7.315044e-10	-7.724391e+00	-5.497622e+01
1.610000e-06	-1.067205e-06	-7.139659e-10	-7.405218e+00	-5.404944e+01
1.620000e-06	-1.021083e-06	-7.002935e-10	-7.085186e+00	-5.310764e+01
1.630000e-06	-9.748412e-07	-6.889981e-10	-6.764318e+00	-5.215060e+01
1.640000e-06	-9.285355e-07	-6.768614e-10	-6.443008e+00	-5.117794e+01
1.650000e-06	-8.822449e-07	-6.629976e-10	-6.121802e+00	-5.018914e+01
1.660000e-06	-8.359743e-07	-6.482443e-10	-5.800736e+00	-4.918355e+01
1.670000e-06	-7.896691e-07	-6.315987e-10	-5.479429e+00	-4.816036e+01
1.680000e-06	-7.432548e-07	-6.130928e-10	-5.157365e+00	-4.711858e+01
1.690000e-06	-6.967679e-07	-5.966987e-10	-4.834798e+00	-4.605711e+01
1.700000e-06	-6.502038e-07	-5.795996e-10	-4.511694e+00	-4.497467e+01
1.710000e-06	-6.035105e-07	-5.605143e-10	-4.187695e+00	-4.386986e+01
1.720000e-06	-5.567142e-07	-5.413380e-10	-3.862980e+00	-4.274115e+01
1.730000e-06	-5.099432e-07	-5.211567e-10	-3.538441e+00	-4.158689e+01
1.740000e-06	-4.632664e-07	-5.024081e-10	-3.214556e+00	-4.040536e+01
1.750000e-06	-4.165608e-07	-4.842328e-10	-2.890470e+00	-3.919476e+01
1.760000e-06	-3.698007e-07	-4.661735e-10	-2.566007e+00	-3.795325e+01
1.770000e-06	-3.230294e-07	-4.478897e-10	-2.241466e+00	-3.667896e+01
1.780000e-06	-2.761687e-07	-4.293064e-10	-1.916305e+00	-3.537005e+01
1.790000e-06	-2.292745e-07	-4.116677e-10	-1.590911e+00	-3.402473e+01
1.800000e-06	-1.824224e-07	-3.928341e-10	-1.265809e+00	-3.264124e+01
1.810000e-06	-1.355612e-07	-3.719064e-10	-9.406446e-01	-3.121798e+01
1.820000e-06	-8.874618e-08	-3.492944e-10	-6.158002e-01	-2.975346e+01
1.830000e-06	-4.194346e-08	-3.258788e-10	-2.910411e-01	-2.824634e+01
1.840000e-06	4.954061e-09	-3.034703e-10	3.437569e-02	-2.669551e+01
1.850000e-06	5.183203e-08	-2.831857e-10	3.596569e-01	-2.510006e+01
1.860000e-06	9.870286e-08	-2.649505e-10	6.848885e-01	-2.345934e+01
1.870000e-06	1.456790e-07	-2.484417e-10	1.010851e+00	-2.177297e+01
1.880000e-06	1.926855e-07	-2.289478e-10	1.337024e+00	-2.004086e+01
1.890000e-06	2.396204e-07	-2.053112e-10	1.662700e+00	-1.826323e+01
1.900000e-06	2.865205e-07	-1.780030e-10	1.988135e+00	-1.644060e+01
1.910000e-06	3.334104e-07	-1.494046e-10	2.313499e+00	-1.457384e+01
1.920000e-06	3.802694e-07	-1.190472e-10	2.638649e+00	-1.266413e+01
1.930000e-06	4.270563e-07	-9.007576e-11	2.963298e+00	-1.071299e+01
1.940000e-06	4.737662e-07	-6.327177e-11	3.287412e+00	-8.722241e+00
1.950000e-06	5.204437e-07	-3.712207e-11	3.611303e+00	-6.694043e+00
1.960000e-06	5.670305e-07	-1.160305e-11	3.934564e+00	-4.630833e+00
1.970000e-06	6.135535e-07	1.219714e-11	4.257382e+00	-2.535332e+00
1.980000e-06	6.600387e-07	3.754817e-11	4.579937e+00	-4.105168e-01
1.990000e-06	7.064858e-07	6.861207e-11	4.902229e+00	1.740406e+00
2.000000e-06	7.529332e-07	1.059901e-10	5.224522e+00	3.914029e+00
2.010000e-06	7.993943e-07	1.448964e-10	5.546911e+00	6.106772e+00
2.020000e-06	8.458246e-07	1.821746e-10	5.869086e+00	8.314921e+00
2.030000e-06	8.921484e-07	2.160326e-10	6.190522e+00	1.053466e+01
2.040000e-06	9.383260e-07	2.448580e-10	6.510943e+00	1.276210e+01
2.050000e-06	9.844001e-07	2.697808e-10	6.830646e+00	1.499334e+01
2.060000e-06	1.030487e-06	2.933976e-10	7.150439e+00	1.722446e+01
2.070000e-06	1.076508e-06	3.192390e-10	7.469772e+00	1.945160e+01
2.080000e-06	1.122395e-06	3.496164e-10	7.788178e+00	2.167097e+01
2.090000e-06	1.168222e-06	3.846242e-10	8.106166e+00	2.387889e+01
2.100000e-06	1.213984e-06	4.216099e-10	8.423702e+00	2.607183e+01
2.110000e-06	1.259667e-06	4.570013e-10	8.740696e+00	2.824639e+01
2.120000e-06	1.305294e-06	4.872235e-10	9.057292e+00	3.039941e+01
2.130000e-06	1.350837e-06	5.131118e-10	9.373315e+00	3.252790e+01
2.140000e-06	1.396306e-06	5.352942e-10	9.688819e+00	3.462913e+01
2.150000e-06	1.441718e-06	5.568667e-10	1.000392e+01	3.670059e+01
2.160000e-06	1.487021e-06	5.814433e-10	1.031828e+01	3.874005e+01
2.170000e-06	1.532169e-06	6.097086e-10	1.063155e+01	4.074552e+01
2.180000e-06	1.577136e-06	6.404829e-10	1.094357e+01	4.271529e+01
2.190000e-06	1.621981e-06	6.730344e-10	1.125475e+01	4.464790e+01
2.200000e-06	1.666720e-06	7.049833e-10	1.156519e+01	4.654215e+01
2.210000e-06	1.711326e-06	7.327582e-10	1.187470e+01	4.839710e+01
2.220000e-06	1.755865e-06	7.554544e-10	1.218376e+01	5.021203e+01
2.230000e-06	1.800294e-06	7.752794e-10	1.249205e+01	5.198648e+01
2.240000e-06	1.844593e-06	7.933734e-10	1.279943e+01	5.372016e+01
2.250000e-06	1.888789e-06	8.113472e-10	1.310610e+01	5.541300e+01
2.260000e-06	1.932842e-06	8.329244e-10	1.341178e+01	5.706511e+01
2.270000e-06	1.976801e-06	8.583823e-10	1.371681e+01	5.867672e+01
2.280000e-06	2.020685e-06	8.825163e-10	1.402131e+01	6.024822e+01
2.290000e-06	2.064499e-06	9.038100e-10	1.432533e+01	6.178011e+01
2.300000e-06	2.108219e-06	9.238751e-10	1.462871e+01	6.327297e+01
2.310000e-06	2.151860e-06	9.412614e-10	1.493153e+01	6.472746e+01
2.320000e-06	2.195415e-06	9.560431e-10	1.523375e+01	6.614429e+01
2.330000e-06	2.238853e-06	9.714260e-10	1.553516e+01	6.752421e+01
2.340000e-06	2.282158e-06	9.884801e-10	1.583565e+01	6.886796e+01
2.350000e-06	2.325277e-06	1.005927e-09	1.613485e+01	7.017633e+01
2.360000e-06	2.368197e-06	1.024026e-09	1.643266e+01	7.145005e+01
2.370000e-06	2.410922e-06	1.042557e-09	1.672913e+01	7.268988e+01
2.380000e-06	2.453287e-06	1.060149e-09	1.702310e+01	7.389650e+01
2.390000e-06	2.495264e-06	1.075145e-09	1.731437e+01	7.507061e+01
2.400000e-06	2.536997e-06	1.088336e-09	1.760395e+01	7.621282e+01
2.410000e-06	2.578382e-06	1.101386e-09	1.789112e+01	7.732375e+01
2.420000e-06	2.619363e-06	1.115348e-09	1.817548e+01	7.840394e+01
2.430000e-06	2.660042e-06	1.132971e-09	1.845775e+01	7.945392e+01
2.440000e-06	2.700563e-06	1.151401e-09	1.873892e+01	8.047416e+01
2.450000e-06	2.740950e-06	1.166237e-09	1.901915e+01	8.146514e+01
2.460000e-06	2.781148e-06	1.177728e-09	1.929809e+01	8.242729e+01
2.470000e-06	2.821170e-06	1.185747e-09	1.957579e+01	8.336102e+01
2.480000e-06	2.861050e-06	1.192991e-09	1.985252e+01	8.426676e+01
2.490000e-06	2.900794e-06	1.201868e-09	2.012830e+01	8.514492e+01
2.500000e-06	2.940413e-06	1.213290e-09	2.040321e+01	8.599592e+01
2.510000e-06	2.979918e-06	1.228132e-09	2.067733e+01	8.682021e+01
2.520000e-06	3.019259e-06	1.242461e-09	2.095031e+01	8.761825e+01
2.530000e-06	3.058375e-06	1.257434e-09	2.122173e+01	8.839054e+01
2.540000e-06	3.097256e-06	1.271840e-09	2.149152e+01	8.913761e+01
2.550000e-06	3.135927e-06	1.281265e-09	2.175986e+01	8.986003e+01
2.560000e-06	3.174320e-06	1.286208e-09	2.202626e+01	9.055842e+01
2.570000e-06	3.212488e-06	1.289554e-09	2.229111e+01	9.123344e+01
2.580000e-06	3.250490e-06	1.294291e-09	2.255480e+01	9.188580e+01
2.590000e-06	3.288275e-06	1.303060e-09	2.281699e+01	9.251626e+01
2.600000e-06	3.325827e-06	1.317556e-09	2.307756e+01	9.312560e+01
2.610000e-06	3.363123e-06	1.333985e-09	2.333635e+01	9.371468e+01
2.620000e-06	3.400207e-06	1.349694e-09	2.359367e+01	9.428434e+01
2.630000e-06	3.437062e-06	1.360885e-09	2.384941e+01	9.483550e+01
2.640000e-06	3.473639e-06	1.367580e-09	2.410321e+01	9.536908e+01
2.650000e-06	3.509969e-06	1.370672e-09	2.435529e+01	9.588599e+01
2.660000e-06	3.546018e-06	1.373187e-09	2.460543e+01	9.638717e+01
2.670000e-06	3.581878e-06	1.377013e-09	2.485427e+01	9.687356e+01
2.680000e-06	3.617634e-06	1.382218e-09	2.510237e+01	9.734606e+01
2.690000e-06	3.653265e-06	1.391832e-09	2.534961e+01	9.780556e+01
2.700000e-06	3.688805e-06	1.403732e-09	2.559622e+01	9.825291e+01
2.710000e-06	3.724194e-06	1.413362e-09	2.584178e+01	9.868892e+01
2.720000e-06	3.759355e-06	1.420077e-09	2.608576e+01	9.911436e+01
2.730000e-06	3.794171e-06	1.423427e-09	2.632734e+01	9.952991e+01
2.740000e-06	3.828478e-06	1.425760e-09	2.656540e+01	9.993622e+01
2.750000e-06	3.862279e-06	1.429613e-09	2.679994e+01	1.003338e+02
2.760000e-06	3.895635e-06	1.436405e-09	2.703139e+01	1.007233e+02
2.770000e-06	3.928547e-06	1.444988e-09	2.725977e+01	1.011049e+02
2.780000e-06	3.961100e-06	1.452722e-09	2.748565e+01	1.014791e+02
2.790000e-06	3.993336e-06	1.460130e-09	2.770933e+01	1.018461e+02
2.800000e-06	4.025285e-06	1.466336e-09	2.793102e+01	1.022061e+02
2.810000e-06	4.057078e-06	1.471971e-09	2.815162e+01	1.025591e+02
2.820000e-06	4.088770e-06	1.477578e-09	2.837153e+01	1.029052e+02
2.830000e-06	4.120245e-06	1.484134e-09	2.858993e+01	1.032444e+02
2.840000e-06	4.151403e-06	1.490867e-09	2.880614e+01	1.035765e+02
2.850000e-06	4.182327e-06	1.496595e-09	2.902071e+01	1.039014e+02
2.860000e-06	4.213029e-06	1.503167e-09	2.923375e+01	1.042190e+02
2.870000e-06	4.243383e-06	1.510535e-09	2.944437e+01	1.045288e+02
2.880000e-06	4.273378e-06	1.514219e-09	2.965251e+01	1.048308e+02
2.890000e-06	4.303098e-06	1.516011e-09	2.985873e+01	1.051246e+02
2.900000e-06	4.332524e-06	1.519695e-09	3.006292e+01	1.054100e+02
