# Temperatura_=_-9.92
# Concentracion g/m^3_=_1620.0
# C_Vs_to_Am_M_A/Vsm_=_65563218390.804596
# pendiente_HvsI_1/m_=_3716.3
# ordenada_HvsI_A/m_=_1297.0
# frecuencia_Hz_=_135107.24885739916

Tiempo_(s)	Campo_(V.s)	Magnetizacion_(V.s)	Campo_(kA/m)	Magnetizacion_(A/m)
0.000000e+00	-5.523611e-06	-1.379448e-09	-3.836234e+01	-8.920520e+01
1.000000e-08	-5.523963e-06	-1.375583e-09	-3.836479e+01	-8.917318e+01
2.000000e-08	-5.524112e-06	-1.377079e-09	-3.836582e+01	-8.914193e+01
3.000000e-08	-5.523927e-06	-1.380654e-09	-3.836454e+01	-8.911124e+01
4.000000e-08	-5.523391e-06	-1.382927e-09	-3.836081e+01	-8.908084e+01
5.000000e-08	-5.522316e-06	-1.379256e-09	-3.835335e+01	-8.905046e+01
6.000000e-08	-5.520506e-06	-1.364012e-09	-3.834078e+01	-8.901978e+01
7.000000e-08	-5.518031e-06	-1.335482e-09	-3.832358e+01	-8.898845e+01
8.000000e-08	-5.514973e-06	-1.330067e-09	-3.830235e+01	-8.895609e+01
9.000000e-08	-5.511483e-06	-1.396973e-09	-3.827811e+01	-8.892234e+01
1.000000e-07	-5.507634e-06	-1.498222e-09	-3.825138e+01	-8.888679e+01
1.100000e-07	-5.503365e-06	-1.459973e-09	-3.822173e+01	-8.884902e+01
1.200000e-07	-5.498792e-06	-1.298428e-09	-3.818997e+01	-8.880863e+01
1.300000e-07	-5.494032e-06	-1.232689e-09	-3.815691e+01	-8.876521e+01
1.400000e-07	-5.489026e-06	-1.358321e-09	-3.812214e+01	-8.871836e+01
1.500000e-07	-5.483561e-06	-1.419811e-09	-3.808419e+01	-8.866768e+01
1.600000e-07	-5.477684e-06	-1.342403e-09	-3.804337e+01	-8.861280e+01
1.700000e-07	-5.471566e-06	-1.288940e-09	-3.800088e+01	-8.855337e+01
1.800000e-07	-5.465072e-06	-1.384684e-09	-3.795578e+01	-8.848907e+01
1.900000e-07	-5.458075e-06	-1.418655e-09	-3.790718e+01	-8.841960e+01
2.000000e-07	-5.450700e-06	-1.329396e-09	-3.785596e+01	-8.834472e+01
2.100000e-07	-5.443067e-06	-1.258538e-09	-3.780295e+01	-8.826422e+01
2.200000e-07	-5.435149e-06	-1.324578e-09	-3.774796e+01	-8.817792e+01
2.300000e-07	-5.426991e-06	-1.386709e-09	-3.769130e+01	-8.808570e+01
2.400000e-07	-5.418604e-06	-1.365738e-09	-3.763305e+01	-8.798748e+01
2.500000e-07	-5.409686e-06	-1.315813e-09	-3.757111e+01	-8.788326e+01
2.600000e-07	-5.399946e-06	-1.312744e-09	-3.750347e+01	-8.777305e+01
2.700000e-07	-5.389439e-06	-1.332053e-09	-3.743050e+01	-8.765694e+01
2.800000e-07	-5.378560e-06	-1.310823e-09	-3.735494e+01	-8.753506e+01
2.900000e-07	-5.367360e-06	-1.300342e-09	-3.727715e+01	-8.740761e+01
3.000000e-07	-5.355600e-06	-1.311837e-09	-3.719548e+01	-8.727481e+01
3.100000e-07	-5.343440e-06	-1.335966e-09	-3.711102e+01	-8.713697e+01
3.200000e-07	-5.330923e-06	-1.301283e-09	-3.702409e+01	-8.699439e+01
3.300000e-07	-5.317943e-06	-1.282772e-09	-3.693394e+01	-8.684747e+01
3.400000e-07	-5.304548e-06	-1.288882e-09	-3.684091e+01	-8.669661e+01
3.500000e-07	-5.290856e-06	-1.322080e-09	-3.674582e+01	-8.654227e+01
3.600000e-07	-5.276686e-06	-1.292967e-09	-3.664741e+01	-8.638492e+01
3.700000e-07	-5.262027e-06	-1.296450e-09	-3.654560e+01	-8.622505e+01
3.800000e-07	-5.247009e-06	-1.319442e-09	-3.644130e+01	-8.606321e+01
3.900000e-07	-5.231403e-06	-1.311937e-09	-3.633291e+01	-8.589991e+01
4.000000e-07	-5.215221e-06	-1.261876e-09	-3.622053e+01	-8.573571e+01
4.100000e-07	-5.198610e-06	-1.298905e-09	-3.610516e+01	-8.557115e+01
4.200000e-07	-5.181633e-06	-1.330930e-09	-3.598725e+01	-8.540677e+01
4.300000e-07	-5.164356e-06	-1.275674e-09	-3.586726e+01	-8.524309e+01
4.400000e-07	-5.146785e-06	-1.261396e-09	-3.574523e+01	-8.508064e+01
4.500000e-07	-5.128966e-06	-1.340450e-09	-3.562147e+01	-8.491988e+01
4.600000e-07	-5.110692e-06	-1.322887e-09	-3.549456e+01	-8.476129e+01
4.700000e-07	-5.091902e-06	-1.244291e-09	-3.536406e+01	-8.460529e+01
4.800000e-07	-5.072825e-06	-1.285992e-09	-3.523156e+01	-8.445224e+01
4.900000e-07	-5.053469e-06	-1.329987e-09	-3.509713e+01	-8.430250e+01
5.000000e-07	-5.033837e-06	-1.260669e-09	-3.496079e+01	-8.415634e+01
5.100000e-07	-5.014027e-06	-1.242597e-09	-3.482320e+01	-8.401399e+01
5.200000e-07	-4.994015e-06	-1.297570e-09	-3.468422e+01	-8.387563e+01
5.300000e-07	-4.973578e-06	-1.261764e-09	-3.454228e+01	-8.374137e+01
5.400000e-07	-4.952656e-06	-1.239183e-09	-3.439697e+01	-8.361126e+01
5.500000e-07	-4.931480e-06	-1.306284e-09	-3.424990e+01	-8.348528e+01
5.600000e-07	-4.909983e-06	-1.303231e-09	-3.410060e+01	-8.336336e+01
5.700000e-07	-4.888097e-06	-1.230919e-09	-3.394859e+01	-8.324535e+01
5.800000e-07	-4.865906e-06	-1.263482e-09	-3.379448e+01	-8.313106e+01
5.900000e-07	-4.843341e-06	-1.293461e-09	-3.363776e+01	-8.302021e+01
6.000000e-07	-4.820460e-06	-1.240019e-09	-3.347884e+01	-8.291248e+01
6.100000e-07	-4.797282e-06	-1.231657e-09	-3.331787e+01	-8.280749e+01
6.200000e-07	-4.773772e-06	-1.274069e-09	-3.315459e+01	-8.270481e+01
6.300000e-07	-4.750034e-06	-1.241735e-09	-3.298973e+01	-8.260397e+01
6.400000e-07	-4.726114e-06	-1.225055e-09	-3.282360e+01	-8.250444e+01
6.500000e-07	-4.701958e-06	-1.260050e-09	-3.265583e+01	-8.240568e+01
6.600000e-07	-4.677436e-06	-1.255608e-09	-3.248553e+01	-8.230711e+01
6.700000e-07	-4.652408e-06	-1.224788e-09	-3.231170e+01	-8.220811e+01
6.800000e-07	-4.626837e-06	-1.241934e-09	-3.213410e+01	-8.210808e+01
6.900000e-07	-4.600677e-06	-1.239740e-09	-3.195242e+01	-8.200638e+01
7.000000e-07	-4.573931e-06	-1.213669e-09	-3.176666e+01	-8.190239e+01
7.100000e-07	-4.546755e-06	-1.216264e-09	-3.157792e+01	-8.179550e+01
7.200000e-07	-4.519309e-06	-1.229120e-09	-3.138731e+01	-8.168509e+01
7.300000e-07	-4.491669e-06	-1.216775e-09	-3.119534e+01	-8.157060e+01
7.400000e-07	-4.463903e-06	-1.221078e-09	-3.100250e+01	-8.145145e+01
7.500000e-07	-4.435979e-06	-1.231537e-09	-3.080856e+01	-8.132714e+01
7.600000e-07	-4.407780e-06	-1.221311e-09	-3.061272e+01	-8.119719e+01
7.700000e-07	-4.379241e-06	-1.213116e-09	-3.041451e+01	-8.106117e+01
7.800000e-07	-4.350315e-06	-1.211263e-09	-3.021362e+01	-8.091870e+01
7.900000e-07	-4.321013e-06	-1.197393e-09	-3.001011e+01	-8.076945e+01
8.000000e-07	-4.291446e-06	-1.189465e-09	-2.980476e+01	-8.061318e+01
8.100000e-07	-4.261641e-06	-1.196303e-09	-2.959776e+01	-8.044967e+01
8.200000e-07	-4.231565e-06	-1.190054e-09	-2.938888e+01	-8.027878e+01
8.300000e-07	-4.201216e-06	-1.183759e-09	-2.917810e+01	-8.010045e+01
8.400000e-07	-4.170527e-06	-1.191218e-09	-2.896496e+01	-7.991467e+01
8.500000e-07	-4.139518e-06	-1.193237e-09	-2.874960e+01	-7.972149e+01
8.600000e-07	-4.108232e-06	-1.179965e-09	-2.853231e+01	-7.952104e+01
8.700000e-07	-4.076704e-06	-1.176299e-09	-2.831334e+01	-7.931348e+01
8.800000e-07	-4.044989e-06	-1.171375e-09	-2.809308e+01	-7.909905e+01
8.900000e-07	-4.013162e-06	-1.158434e-09	-2.787204e+01	-7.887805e+01
9.000000e-07	-3.981220e-06	-1.150616e-09	-2.765020e+01	-7.865080e+01
9.100000e-07	-3.949034e-06	-1.156276e-09	-2.742666e+01	-7.841769e+01
9.200000e-07	-3.916514e-06	-1.147337e-09	-2.720080e+01	-7.817913e+01
9.300000e-07	-3.883692e-06	-1.137427e-09	-2.697284e+01	-7.793556e+01
9.400000e-07	-3.850458e-06	-1.137998e-09	-2.674203e+01	-7.768746e+01
9.500000e-07	-3.816648e-06	-1.136105e-09	-2.650722e+01	-7.743532e+01
9.600000e-07	-3.782356e-06	-1.121503e-09	-2.626905e+01	-7.717963e+01
9.700000e-07	-3.747637e-06	-1.115626e-09	-2.602792e+01	-7.692091e+01
9.800000e-07	-3.712509e-06	-1.112683e-09	-2.578396e+01	-7.665965e+01
9.900000e-07	-3.677082e-06	-1.103513e-09	-2.553791e+01	-7.639635e+01
1.000000e-06	-3.641472e-06	-1.099040e-09	-2.529059e+01	-7.613150e+01
1.010000e-06	-3.605716e-06	-1.103144e-09	-2.504226e+01	-7.586554e+01
1.020000e-06	-3.569820e-06	-1.096193e-09	-2.479296e+01	-7.559890e+01
1.030000e-06	-3.533737e-06	-1.085756e-09	-2.454236e+01	-7.533200e+01
1.040000e-06	-3.497522e-06	-1.083648e-09	-2.429083e+01	-7.506518e+01
1.050000e-06	-3.461148e-06	-1.082112e-09	-2.403821e+01	-7.479878e+01
1.060000e-06	-3.424473e-06	-1.077015e-09	-2.378350e+01	-7.453306e+01
1.070000e-06	-3.387527e-06	-1.074650e-09	-2.352690e+01	-7.426826e+01
1.080000e-06	-3.350309e-06	-1.072660e-09	-2.326842e+01	-7.400456e+01
1.090000e-06	-3.312795e-06	-1.063527e-09	-2.300788e+01	-7.374209e+01
1.100000e-06	-3.275067e-06	-1.056051e-09	-2.274585e+01	-7.348092e+01
1.110000e-06	-3.237207e-06	-1.052599e-09	-2.248291e+01	-7.322107e+01
1.120000e-06	-3.199115e-06	-1.046520e-09	-2.221835e+01	-7.296252e+01
1.130000e-06	-3.160736e-06	-1.038663e-09	-2.195180e+01	-7.270518e+01
1.140000e-06	-3.122122e-06	-1.037563e-09	-2.168363e+01	-7.244891e+01
1.150000e-06	-3.083283e-06	-1.038265e-09	-2.141388e+01	-7.219354e+01
1.160000e-06	-3.044241e-06	-1.037228e-09	-2.114273e+01	-7.193883e+01
1.170000e-06	-3.005063e-06	-1.034843e-09	-2.087063e+01	-7.168451e+01
1.180000e-06	-2.965689e-06	-1.034015e-09	-2.059717e+01	-7.143024e+01
1.190000e-06	-2.926112e-06	-1.030499e-09	-2.032231e+01	-7.117568e+01
1.200000e-06	-2.886480e-06	-1.026775e-09	-2.004705e+01	-7.092043e+01
1.210000e-06	-2.846749e-06	-1.021007e-09	-1.977112e+01	-7.066406e+01
1.220000e-06	-2.806849e-06	-1.014624e-09	-1.949400e+01	-7.040610e+01
1.230000e-06	-2.766828e-06	-1.008861e-09	-1.921605e+01	-7.014609e+01
1.240000e-06	-2.726608e-06	-1.005723e-09	-1.893672e+01	-6.988350e+01
1.250000e-06	-2.686159e-06	-1.001184e-09	-1.865579e+01	-6.961782e+01
1.260000e-06	-2.645531e-06	-9.978135e-10	-1.837362e+01	-6.934851e+01
1.270000e-06	-2.604628e-06	-9.945343e-10	-1.808955e+01	-6.907501e+01
1.280000e-06	-2.563417e-06	-9.904052e-10	-1.780333e+01	-6.879678e+01
1.290000e-06	-2.521931e-06	-9.816321e-10	-1.751520e+01	-6.851324e+01
1.300000e-06	-2.480168e-06	-9.699240e-10	-1.722515e+01	-6.822385e+01
1.310000e-06	-2.438232e-06	-9.591633e-10	-1.693390e+01	-6.792804e+01
1.320000e-06	-2.396039e-06	-9.515137e-10	-1.664087e+01	-6.762526e+01
1.330000e-06	-2.353442e-06	-9.459689e-10	-1.634502e+01	-6.731498e+01
1.340000e-06	-2.310526e-06	-9.424291e-10	-1.604696e+01	-6.699665e+01
1.350000e-06	-2.267372e-06	-9.410017e-10	-1.574726e+01	-6.666977e+01
1.360000e-06	-2.224026e-06	-9.389209e-10	-1.544621e+01	-6.633384e+01
1.370000e-06	-2.180492e-06	-9.347916e-10	-1.514386e+01	-6.598839e+01
1.380000e-06	-2.136872e-06	-9.283006e-10	-1.484091e+01	-6.563294e+01
1.390000e-06	-2.093229e-06	-9.186700e-10	-1.453780e+01	-6.526708e+01
1.400000e-06	-2.049466e-06	-9.049366e-10	-1.423386e+01	-6.489040e+01
1.410000e-06	-2.005543e-06	-8.917282e-10	-1.392881e+01	-6.450250e+01
1.420000e-06	-1.961561e-06	-8.823467e-10	-1.362334e+01	-6.410304e+01
1.430000e-06	-1.917541e-06	-8.751140e-10	-1.331762e+01	-6.369169e+01
1.440000e-06	-1.873466e-06	-8.689930e-10	-1.301152e+01	-6.326813e+01
1.450000e-06	-1.829380e-06	-8.663770e-10	-1.270533e+01	-6.283210e+01
1.460000e-06	-1.785119e-06	-8.621633e-10	-1.239793e+01	-6.238334e+01
1.470000e-06	-1.740639e-06	-8.538693e-10	-1.208901e+01	-6.192163e+01
1.480000e-06	-1.696090e-06	-8.439486e-10	-1.177961e+01	-6.144677e+01
1.490000e-06	-1.651450e-06	-8.356133e-10	-1.146958e+01	-6.095856e+01
1.500000e-06	-1.606591e-06	-8.254901e-10	-1.115802e+01	-6.045684e+01
1.510000e-06	-1.561577e-06	-8.122609e-10	-1.084540e+01	-5.994147e+01
1.520000e-06	-1.516495e-06	-7.992003e-10	-1.053229e+01	-5.941230e+01
1.530000e-06	-1.471251e-06	-7.906093e-10	-1.021807e+01	-5.886919e+01
1.540000e-06	-1.425862e-06	-7.846711e-10	-9.902831e+00	-5.831201e+01
1.550000e-06	-1.380464e-06	-7.795850e-10	-9.587539e+00	-5.774062e+01
1.560000e-06	-1.334991e-06	-7.702003e-10	-9.271722e+00	-5.715487e+01
1.570000e-06	-1.289367e-06	-7.552050e-10	-8.954857e+00	-5.655462e+01
1.580000e-06	-1.243643e-06	-7.388522e-10	-8.637297e+00	-5.593966e+01
1.590000e-06	-1.197796e-06	-7.251225e-10	-8.318882e+00	-5.530980e+01
1.600000e-06	-1.151851e-06	-7.139989e-10	-7.999786e+00	-5.466478e+01
1.610000e-06	-1.105907e-06	-7.037286e-10	-7.680697e+00	-5.400434e+01
1.620000e-06	-1.059935e-06	-6.941149e-10	-7.361414e+00	-5.332814e+01
1.630000e-06	-1.013850e-06	-6.846050e-10	-7.041343e+00	-5.263581e+01
1.640000e-06	-9.677104e-07	-6.747817e-10	-6.720900e+00	-5.192691e+01
1.650000e-06	-9.215137e-07	-6.657320e-10	-6.400056e+00	-5.120096e+01
1.660000e-06	-8.752021e-07	-6.575198e-10	-6.078415e+00	-5.045739e+01
1.670000e-06	-8.288289e-07	-6.477079e-10	-5.756346e+00	-4.969559e+01
1.680000e-06	-7.823696e-07	-6.369472e-10	-5.433679e+00	-4.891486e+01
1.690000e-06	-7.358464e-07	-6.257220e-10	-5.110568e+00	-4.811443e+01
1.700000e-06	-6.893366e-07	-6.139948e-10	-4.787550e+00	-4.729347e+01
1.710000e-06	-6.427456e-07	-5.989495e-10	-4.463969e+00	-4.645109e+01
1.720000e-06	-5.961301e-07	-5.805314e-10	-4.140217e+00	-4.558631e+01
1.730000e-06	-5.494790e-07	-5.630767e-10	-3.816217e+00	-4.469811e+01
1.740000e-06	-5.027863e-07	-5.496927e-10	-3.491929e+00	-4.378540e+01
1.750000e-06	-4.561974e-07	-5.409250e-10	-3.168362e+00	-4.284705e+01
1.760000e-06	-4.095805e-07	-5.328680e-10	-2.844600e+00	-4.188188e+01
1.770000e-06	-3.628120e-07	-5.203349e-10	-2.519786e+00	-4.088870e+01
1.780000e-06	-3.159486e-07	-5.029077e-10	-2.194312e+00	-3.986628e+01
1.790000e-06	-2.690255e-07	-4.829313e-10	-1.868424e+00	-3.881339e+01
1.800000e-06	-2.221275e-07	-4.631179e-10	-1.542710e+00	-3.772882e+01
1.810000e-06	-1.753053e-07	-4.446644e-10	-1.217523e+00	-3.661137e+01
1.820000e-06	-1.285602e-07	-4.297993e-10	-8.928708e-01	-3.545989e+01
1.830000e-06	-8.170359e-08	-4.174752e-10	-5.674442e-01	-3.427328e+01
1.840000e-06	-3.475113e-08	-4.051677e-10	-2.413520e-01	-3.305051e+01
1.850000e-06	1.208710e-08	-3.906180e-10	8.394676e-02	-3.179064e+01
1.860000e-06	5.890977e-08	-3.739241e-10	4.091375e-01	-3.049285e+01
1.870000e-06	1.058516e-07	-3.553626e-10	7.351556e-01	-2.915644e+01
1.880000e-06	1.527934e-07	-3.341725e-10	1.061174e+00	-2.778083e+01
1.890000e-06	1.996355e-07	-3.125492e-10	1.386500e+00	-2.636563e+01
1.900000e-06	2.464836e-07	-2.916858e-10	1.711867e+00	-2.491058e+01
1.910000e-06	2.933520e-07	-2.710748e-10	2.037376e+00	-2.341566e+01
1.920000e-06	3.401970e-07	-2.508415e-10	2.362721e+00	-2.188099e+01
1.930000e-06	3.869970e-07	-2.302345e-10	2.687754e+00	-2.030694e+01
1.940000e-06	4.337117e-07	-2.084102e-10	3.012196e+00	-1.869406e+01
1.950000e-06	4.803756e-07	-1.863028e-10	3.336284e+00	-1.704315e+01
1.960000e-06	5.269895e-07	-1.646261e-10	3.660024e+00	-1.535521e+01
1.970000e-06	5.735337e-07	-1.429963e-10	3.983281e+00	-1.363148e+01
1.980000e-06	6.200647e-07	-1.218545e-10	4.306446e+00	-1.187342e+01
1.990000e-06	6.665688e-07	-9.977495e-11	4.629424e+00	-1.008272e+01
2.000000e-06	7.129438e-07	-7.406887e-11	4.951506e+00	-8.261253e+00
2.010000e-06	7.592404e-07	-4.541891e-11	5.273043e+00	-6.411133e+00
2.020000e-06	8.055426e-07	-1.682806e-11	5.594619e+00	-4.534646e+00
2.030000e-06	8.518379e-07	1.037641e-11	5.916148e+00	-2.634263e+00
2.040000e-06	8.981059e-07	3.714500e-11	6.237485e+00	-7.126184e-01
2.050000e-06	9.442321e-07	6.344428e-11	6.557839e+00	1.227510e+00
2.060000e-06	9.902818e-07	8.940768e-11	6.877661e+00	3.183217e+00
2.070000e-06	1.036340e-06	1.161436e-10	7.197540e+00	5.151494e+00
2.080000e-06	1.082347e-06	1.445645e-10	7.517070e+00	7.129254e+00
2.090000e-06	1.128231e-06	1.734140e-10	7.835737e+00	9.113348e+00
2.100000e-06	1.174010e-06	2.032277e-10	8.153684e+00	1.110060e+01
2.110000e-06	1.219748e-06	2.333820e-10	8.471337e+00	1.308781e+01
2.120000e-06	1.265358e-06	2.621564e-10	8.788109e+00	1.507182e+01
2.130000e-06	1.310873e-06	2.886361e-10	9.104216e+00	1.704949e+01
2.140000e-06	1.356303e-06	3.138681e-10	9.419739e+00	1.901776e+01
2.150000e-06	1.401649e-06	3.379756e-10	9.734673e+00	2.097363e+01
2.160000e-06	1.446914e-06	3.617862e-10	1.004905e+01	2.291425e+01
2.170000e-06	1.492021e-06	3.861875e-10	1.036232e+01	2.483687e+01
2.180000e-06	1.537019e-06	4.116658e-10	1.067484e+01	2.673888e+01
2.190000e-06	1.581899e-06	4.400202e-10	1.098654e+01	2.861785e+01
2.200000e-06	1.626614e-06	4.700644e-10	1.129709e+01	3.047152e+01
2.210000e-06	1.671235e-06	4.996190e-10	1.160699e+01	3.229782e+01
2.220000e-06	1.715812e-06	5.270548e-10	1.191658e+01	3.409485e+01
2.230000e-06	1.760272e-06	5.516023e-10	1.222537e+01	3.586096e+01
2.240000e-06	1.804587e-06	5.728440e-10	1.253314e+01	3.759467e+01
2.250000e-06	1.848803e-06	5.919251e-10	1.284023e+01	3.929470e+01
2.260000e-06	1.892903e-06	6.108547e-10	1.314651e+01	4.096001e+01
2.270000e-06	1.936880e-06	6.308652e-10	1.345193e+01	4.258974e+01
2.280000e-06	1.980785e-06	6.514141e-10	1.375686e+01	4.418321e+01
2.290000e-06	2.024640e-06	6.723196e-10	1.406144e+01	4.573996e+01
2.300000e-06	2.068428e-06	6.940599e-10	1.436556e+01	4.725969e+01
2.310000e-06	2.112137e-06	7.159667e-10	1.466912e+01	4.874227e+01
2.320000e-06	2.155729e-06	7.357938e-10	1.497187e+01	5.018770e+01
2.330000e-06	2.199159e-06	7.533929e-10	1.527350e+01	5.159616e+01
2.340000e-06	2.242459e-06	7.687999e-10	1.557423e+01	5.296791e+01
2.350000e-06	2.285707e-06	7.828863e-10	1.587459e+01	5.430335e+01
2.360000e-06	2.328828e-06	7.977673e-10	1.617407e+01	5.560294e+01
2.370000e-06	2.371663e-06	8.140457e-10	1.647157e+01	5.686725e+01
2.380000e-06	2.414173e-06	8.317300e-10	1.676681e+01	5.809688e+01
2.390000e-06	2.456368e-06	8.491599e-10	1.705986e+01	5.929249e+01
2.400000e-06	2.498299e-06	8.660070e-10	1.735108e+01	6.045477e+01
2.410000e-06	2.539932e-06	8.818061e-10	1.764022e+01	6.158442e+01
2.420000e-06	2.581213e-06	8.959985e-10	1.792693e+01	6.268214e+01
2.430000e-06	2.622158e-06	9.089349e-10	1.821130e+01	6.374864e+01
2.440000e-06	2.662840e-06	9.209851e-10	1.849384e+01	6.478461e+01
2.450000e-06	2.703313e-06	9.340230e-10	1.877493e+01	6.579070e+01
2.460000e-06	2.743646e-06	9.484431e-10	1.905505e+01	6.676757e+01
2.470000e-06	2.783826e-06	9.633617e-10	1.933410e+01	6.771580e+01
2.480000e-06	2.823818e-06	9.774489e-10	1.961186e+01	6.863598e+01
2.490000e-06	2.863691e-06	9.916391e-10	1.988878e+01	6.952862e+01
2.500000e-06	2.903391e-06	1.005099e-09	2.016450e+01	7.039423e+01
2.510000e-06	2.942907e-06	1.018004e-09	2.043895e+01	7.123326e+01
2.520000e-06	2.982290e-06	1.031625e-09	2.071247e+01	7.204615e+01
2.530000e-06	3.021552e-06	1.041781e-09	2.098515e+01	7.283330e+01
2.540000e-06	3.060622e-06	1.051826e-09	2.125650e+01	7.359508e+01
2.550000e-06	3.099474e-06	1.062757e-09	2.152633e+01	7.433186e+01
2.560000e-06	3.138137e-06	1.072845e-09	2.179485e+01	7.504400e+01
2.570000e-06	3.176559e-06	1.080517e-09	2.206170e+01	7.573183e+01
2.580000e-06	3.214718e-06	1.087363e-09	2.232672e+01	7.639572e+01
2.590000e-06	3.252653e-06	1.094548e-09	2.259018e+01	7.703600e+01
2.600000e-06	3.290390e-06	1.101213e-09	2.285227e+01	7.765308e+01
2.610000e-06	3.327886e-06	1.112503e-09	2.311269e+01	7.824732e+01
2.620000e-06	3.365123e-06	1.128141e-09	2.337130e+01	7.881916e+01
2.630000e-06	3.402102e-06	1.144991e-09	2.362813e+01	7.936903e+01
2.640000e-06	3.438846e-06	1.158033e-09	2.388333e+01	7.989743e+01
2.650000e-06	3.475361e-06	1.164420e-09	2.413692e+01	8.040486e+01
2.660000e-06	3.511638e-06	1.165417e-09	2.438888e+01	8.089188e+01
2.670000e-06	3.547679e-06	1.164994e-09	2.463918e+01	8.135907e+01
2.680000e-06	3.583534e-06	1.167802e-09	2.488820e+01	8.180705e+01
2.690000e-06	3.619293e-06	1.175652e-09	2.513656e+01	8.223649e+01
2.700000e-06	3.654947e-06	1.187996e-09	2.538418e+01	8.264806e+01
2.710000e-06	3.690449e-06	1.200101e-09	2.563075e+01	8.304248e+01
2.720000e-06	3.725734e-06	1.207679e-09	2.587580e+01	8.342047e+01
2.730000e-06	3.760787e-06	1.207934e-09	2.611925e+01	8.378279e+01
2.740000e-06	3.795452e-06	1.205384e-09	2.636001e+01	8.413019e+01
2.750000e-06	3.829602e-06	1.205842e-09	2.659718e+01	8.446343e+01
2.760000e-06	3.863312e-06	1.208655e-09	2.683131e+01	8.478326e+01
2.770000e-06	3.896506e-06	1.217214e-09	2.706184e+01	8.509042e+01
2.780000e-06	3.929173e-06	1.228404e-09	2.728872e+01	8.538565e+01
2.790000e-06	3.961523e-06	1.239070e-09	2.751340e+01	8.566963e+01
2.800000e-06	3.993654e-06	1.246134e-09	2.773655e+01	8.594304e+01
2.810000e-06	4.025613e-06	1.247628e-09	2.795851e+01	8.620650e+01
2.820000e-06	4.057462e-06	1.248188e-09	2.817971e+01	8.646059e+01
2.830000e-06	4.089133e-06	1.249115e-09	2.839967e+01	8.670586e+01
2.840000e-06	4.120578e-06	1.253946e-09	2.861806e+01	8.694279e+01
2.850000e-06	4.151731e-06	1.259465e-09	2.883442e+01	8.717181e+01
2.860000e-06	4.182554e-06	1.266678e-09	2.904849e+01	8.739329e+01
2.870000e-06	4.213071e-06	1.274614e-09	2.926044e+01	8.760755e+01
2.880000e-06	4.243250e-06	1.278673e-09	2.947003e+01	8.781485e+01
2.890000e-06	4.273126e-06	1.277812e-09	2.967753e+01	8.801541e+01
2.900000e-06	4.302695e-06	1.276037e-09	2.988289e+01	8.820936e+01
