# Temperatura_=_-10.94
# Concentracion g/m^3_=_1620.0
# C_Vs_to_Am_M_A/Vsm_=_65563218390.804596
# pendiente_HvsI_1/m_=_3716.3
# ordenada_HvsI_A/m_=_1297.0
# frecuencia_Hz_=_135107.68024058122

Tiempo_(s)	Campo_(V.s)	Magnetizacion_(V.s)	Campo_(kA/m)	Magnetizacion_(A/m)
0.000000e+00	-5.499437e-06	-1.364174e-09	-3.837712e+01	-8.810691e+01
1.000000e-08	-5.499589e-06	-1.361345e-09	-3.837818e+01	-8.808161e+01
2.000000e-08	-5.499494e-06	-1.361379e-09	-3.837752e+01	-8.805719e+01
3.000000e-08	-5.499143e-06	-1.363000e-09	-3.837507e+01	-8.803352e+01
4.000000e-08	-5.498324e-06	-1.364599e-09	-3.836935e+01	-8.801041e+01
5.000000e-08	-5.496891e-06	-1.362270e-09	-3.835935e+01	-8.798764e+01
6.000000e-08	-5.494820e-06	-1.353371e-09	-3.834490e+01	-8.796494e+01
7.000000e-08	-5.492081e-06	-1.345847e-09	-3.832578e+01	-8.794201e+01
8.000000e-08	-5.488788e-06	-1.342617e-09	-3.830281e+01	-8.791853e+01
9.000000e-08	-5.485064e-06	-1.374656e-09	-3.827682e+01	-8.789414e+01
1.000000e-07	-5.480970e-06	-1.447139e-09	-3.824825e+01	-8.786848e+01
1.100000e-07	-5.476495e-06	-1.422000e-09	-3.821703e+01	-8.784118e+01
1.200000e-07	-5.471817e-06	-1.287497e-09	-3.818438e+01	-8.781186e+01
1.300000e-07	-5.466958e-06	-1.269609e-09	-3.815047e+01	-8.778016e+01
1.400000e-07	-5.461699e-06	-1.360254e-09	-3.811377e+01	-8.774575e+01
1.500000e-07	-5.456002e-06	-1.426263e-09	-3.807402e+01	-8.770829e+01
1.600000e-07	-5.449964e-06	-1.329009e-09	-3.803188e+01	-8.766750e+01
1.700000e-07	-5.443633e-06	-1.292902e-09	-3.798770e+01	-8.762311e+01
1.800000e-07	-5.436823e-06	-1.372068e-09	-3.794018e+01	-8.757492e+01
1.900000e-07	-5.429507e-06	-1.406117e-09	-3.788912e+01	-8.752275e+01
2.000000e-07	-5.421921e-06	-1.317014e-09	-3.783618e+01	-8.746648e+01
2.100000e-07	-5.414149e-06	-1.266517e-09	-3.778195e+01	-8.740604e+01
2.200000e-07	-5.406152e-06	-1.335516e-09	-3.772614e+01	-8.734140e+01
2.300000e-07	-5.397866e-06	-1.391307e-09	-3.766832e+01	-8.727258e+01
2.400000e-07	-5.389180e-06	-1.351531e-09	-3.760770e+01	-8.719966e+01
2.500000e-07	-5.379843e-06	-1.294833e-09	-3.754255e+01	-8.712276e+01
2.600000e-07	-5.369669e-06	-1.314474e-09	-3.747155e+01	-8.704203e+01
2.700000e-07	-5.358864e-06	-1.326530e-09	-3.739615e+01	-8.695767e+01
2.800000e-07	-5.347662e-06	-1.308173e-09	-3.731798e+01	-8.686990e+01
2.900000e-07	-5.336072e-06	-1.278533e-09	-3.723710e+01	-8.677897e+01
3.000000e-07	-5.324164e-06	-1.300789e-09	-3.715400e+01	-8.668516e+01
3.100000e-07	-5.311952e-06	-1.304213e-09	-3.706878e+01	-8.658873e+01
3.200000e-07	-5.299257e-06	-1.284223e-09	-3.698019e+01	-8.648997e+01
3.300000e-07	-5.286038e-06	-1.245424e-09	-3.688794e+01	-8.638916e+01
3.400000e-07	-5.272481e-06	-1.270625e-09	-3.679334e+01	-8.628657e+01
3.500000e-07	-5.258681e-06	-1.293107e-09	-3.669703e+01	-8.618244e+01
3.600000e-07	-5.244468e-06	-1.275913e-09	-3.659785e+01	-8.607702e+01
3.700000e-07	-5.229689e-06	-1.258389e-09	-3.649472e+01	-8.597051e+01
3.800000e-07	-5.214438e-06	-1.304101e-09	-3.638829e+01	-8.586308e+01
3.900000e-07	-5.198514e-06	-1.288496e-09	-3.627716e+01	-8.575486e+01
4.000000e-07	-5.182014e-06	-1.230047e-09	-3.616203e+01	-8.564597e+01
4.100000e-07	-5.165339e-06	-1.260885e-09	-3.604566e+01	-8.553648e+01
4.200000e-07	-5.148490e-06	-1.310362e-09	-3.592808e+01	-8.542640e+01
4.300000e-07	-5.131241e-06	-1.244297e-09	-3.580771e+01	-8.531573e+01
4.400000e-07	-5.113597e-06	-1.227766e-09	-3.568459e+01	-8.520444e+01
4.500000e-07	-5.095701e-06	-1.324008e-09	-3.555970e+01	-8.509245e+01
4.600000e-07	-5.077342e-06	-1.298325e-09	-3.543159e+01	-8.497967e+01
4.700000e-07	-5.058424e-06	-1.207029e-09	-3.529957e+01	-8.486597e+01
4.800000e-07	-5.039118e-06	-1.269594e-09	-3.516484e+01	-8.475121e+01
4.900000e-07	-5.019583e-06	-1.320131e-09	-3.502852e+01	-8.463526e+01
5.000000e-07	-4.999842e-06	-1.224763e-09	-3.489076e+01	-8.451795e+01
5.100000e-07	-4.979956e-06	-1.229414e-09	-3.475199e+01	-8.439915e+01
5.200000e-07	-4.959869e-06	-1.304707e-09	-3.461181e+01	-8.427869e+01
5.300000e-07	-4.939359e-06	-1.248189e-09	-3.446869e+01	-8.415647e+01
5.400000e-07	-4.918447e-06	-1.214185e-09	-3.432276e+01	-8.403236e+01
5.500000e-07	-4.897245e-06	-1.307805e-09	-3.417480e+01	-8.390627e+01
5.600000e-07	-4.875688e-06	-1.285662e-09	-3.402437e+01	-8.377817e+01
5.700000e-07	-4.853758e-06	-1.208355e-09	-3.387133e+01	-8.364801e+01
5.800000e-07	-4.831537e-06	-1.263342e-09	-3.371627e+01	-8.351581e+01
5.900000e-07	-4.809034e-06	-1.293987e-09	-3.355923e+01	-8.338160e+01
6.000000e-07	-4.786100e-06	-1.213209e-09	-3.339919e+01	-8.324547e+01
6.100000e-07	-4.762701e-06	-1.220882e-09	-3.323590e+01	-8.310754e+01
6.200000e-07	-4.739046e-06	-1.261150e-09	-3.307083e+01	-8.296793e+01
6.300000e-07	-4.715279e-06	-1.215907e-09	-3.290497e+01	-8.282683e+01
6.400000e-07	-4.691316e-06	-1.204865e-09	-3.273775e+01	-8.268444e+01
6.500000e-07	-4.667098e-06	-1.255384e-09	-3.256875e+01	-8.254097e+01
6.600000e-07	-4.642369e-06	-1.234857e-09	-3.239618e+01	-8.239665e+01
6.700000e-07	-4.617142e-06	-1.209342e-09	-3.222014e+01	-8.225171e+01
6.800000e-07	-4.591472e-06	-1.235181e-09	-3.204100e+01	-8.210640e+01
6.900000e-07	-4.565059e-06	-1.227533e-09	-3.185668e+01	-8.196095e+01
7.000000e-07	-4.538044e-06	-1.195744e-09	-3.166816e+01	-8.181555e+01
7.100000e-07	-4.510731e-06	-1.209577e-09	-3.147756e+01	-8.167041e+01
7.200000e-07	-4.483196e-06	-1.216875e-09	-3.128541e+01	-8.152568e+01
7.300000e-07	-4.455528e-06	-1.202974e-09	-3.109233e+01	-8.138149e+01
7.400000e-07	-4.427762e-06	-1.211638e-09	-3.089857e+01	-8.123792e+01
7.500000e-07	-4.399726e-06	-1.216922e-09	-3.070292e+01	-8.109500e+01
7.600000e-07	-4.371401e-06	-1.202500e-09	-3.050526e+01	-8.095271e+01
7.700000e-07	-4.342856e-06	-1.202207e-09	-3.030607e+01	-8.081098e+01
7.800000e-07	-4.313980e-06	-1.205150e-09	-3.010456e+01	-8.066969e+01
7.900000e-07	-4.284721e-06	-1.191818e-09	-2.990038e+01	-8.052865e+01
8.000000e-07	-4.255150e-06	-1.192203e-09	-2.969402e+01	-8.038763e+01
8.100000e-07	-4.225303e-06	-1.199183e-09	-2.948574e+01	-8.024634e+01
8.200000e-07	-4.195132e-06	-1.190265e-09	-2.927519e+01	-8.010444e+01
8.300000e-07	-4.164671e-06	-1.182783e-09	-2.906262e+01	-7.996157e+01
8.400000e-07	-4.133969e-06	-1.193068e-09	-2.884838e+01	-7.981730e+01
8.500000e-07	-4.102985e-06	-1.192698e-09	-2.863216e+01	-7.967121e+01
8.600000e-07	-4.071779e-06	-1.187110e-09	-2.841439e+01	-7.952283e+01
8.700000e-07	-4.040384e-06	-1.189832e-09	-2.819530e+01	-7.937171e+01
8.800000e-07	-4.008800e-06	-1.190015e-09	-2.797490e+01	-7.921736e+01
8.900000e-07	-3.977051e-06	-1.174728e-09	-2.775334e+01	-7.905935e+01
9.000000e-07	-3.945084e-06	-1.170813e-09	-2.753026e+01	-7.889724e+01
9.100000e-07	-3.912871e-06	-1.172445e-09	-2.730547e+01	-7.873062e+01
9.200000e-07	-3.880365e-06	-1.163322e-09	-2.707863e+01	-7.855913e+01
9.300000e-07	-3.847446e-06	-1.156068e-09	-2.684891e+01	-7.838246e+01
9.400000e-07	-3.814050e-06	-1.162112e-09	-2.661586e+01	-7.820037e+01
9.500000e-07	-3.780149e-06	-1.155539e-09	-2.637929e+01	-7.801264e+01
9.600000e-07	-3.745789e-06	-1.142606e-09	-2.613951e+01	-7.781917e+01
9.700000e-07	-3.711016e-06	-1.142115e-09	-2.589685e+01	-7.761990e+01
9.800000e-07	-3.675873e-06	-1.142581e-09	-2.565161e+01	-7.741486e+01
9.900000e-07	-3.640436e-06	-1.133762e-09	-2.540432e+01	-7.720415e+01
1.000000e-06	-3.604795e-06	-1.133194e-09	-2.515560e+01	-7.698794e+01
1.010000e-06	-3.569019e-06	-1.133601e-09	-2.490594e+01	-7.676649e+01
1.020000e-06	-3.533173e-06	-1.124171e-09	-2.465580e+01	-7.654011e+01
1.030000e-06	-3.497264e-06	-1.116096e-09	-2.440521e+01	-7.630916e+01
1.040000e-06	-3.461219e-06	-1.117409e-09	-2.415367e+01	-7.607408e+01
1.050000e-06	-3.424915e-06	-1.117286e-09	-2.390033e+01	-7.583532e+01
1.060000e-06	-3.388231e-06	-1.113483e-09	-2.364434e+01	-7.559338e+01
1.070000e-06	-3.351217e-06	-1.114225e-09	-2.338604e+01	-7.534878e+01
1.080000e-06	-3.313920e-06	-1.111591e-09	-2.312577e+01	-7.510203e+01
1.090000e-06	-3.276435e-06	-1.101396e-09	-2.286418e+01	-7.485365e+01
1.100000e-06	-3.238836e-06	-1.092018e-09	-2.260181e+01	-7.460413e+01
1.110000e-06	-3.201032e-06	-1.088089e-09	-2.233799e+01	-7.435392e+01
1.120000e-06	-3.162925e-06	-1.080386e-09	-2.207207e+01	-7.410344e+01
1.130000e-06	-3.124596e-06	-1.074414e-09	-2.180460e+01	-7.385303e+01
1.140000e-06	-3.086140e-06	-1.074221e-09	-2.153623e+01	-7.360296e+01
1.150000e-06	-3.047460e-06	-1.076973e-09	-2.126631e+01	-7.335344e+01
1.160000e-06	-3.008548e-06	-1.075445e-09	-2.099477e+01	-7.310456e+01
1.170000e-06	-2.969418e-06	-1.073058e-09	-2.072171e+01	-7.285633e+01
1.180000e-06	-2.930025e-06	-1.068305e-09	-2.044681e+01	-7.260866e+01
1.190000e-06	-2.890461e-06	-1.062065e-09	-2.017071e+01	-7.236134e+01
1.200000e-06	-2.850827e-06	-1.054070e-09	-1.989413e+01	-7.211407e+01
1.210000e-06	-2.811115e-06	-1.046933e-09	-1.961701e+01	-7.186642e+01
1.220000e-06	-2.771253e-06	-1.040797e-09	-1.933884e+01	-7.161788e+01
1.230000e-06	-2.731248e-06	-1.037680e-09	-1.905966e+01	-7.136784e+01
1.240000e-06	-2.691124e-06	-1.032548e-09	-1.877967e+01	-7.111560e+01
1.250000e-06	-2.650862e-06	-1.026442e-09	-1.849870e+01	-7.086036e+01
1.260000e-06	-2.610387e-06	-1.022357e-09	-1.821625e+01	-7.060127e+01
1.270000e-06	-2.569601e-06	-1.018566e-09	-1.793164e+01	-7.033744e+01
1.280000e-06	-2.528495e-06	-1.012449e-09	-1.764478e+01	-7.006792e+01
1.290000e-06	-2.487198e-06	-1.005802e-09	-1.735660e+01	-6.979172e+01
1.300000e-06	-2.445569e-06	-9.974562e-10	-1.706609e+01	-6.950787e+01
1.310000e-06	-2.403557e-06	-9.882221e-10	-1.677292e+01	-6.921538e+01
1.320000e-06	-2.361286e-06	-9.800409e-10	-1.647793e+01	-6.891331e+01
1.330000e-06	-2.318738e-06	-9.719193e-10	-1.618102e+01	-6.860074e+01
1.340000e-06	-2.275889e-06	-9.667487e-10	-1.588200e+01	-6.827680e+01
1.350000e-06	-2.232760e-06	-9.663629e-10	-1.558103e+01	-6.794069e+01
1.360000e-06	-2.189476e-06	-9.669210e-10	-1.527898e+01	-6.759170e+01
1.370000e-06	-2.146038e-06	-9.633920e-10	-1.497585e+01	-6.722921e+01
1.380000e-06	-2.102476e-06	-9.565629e-10	-1.467186e+01	-6.685270e+01
1.390000e-06	-2.058839e-06	-9.452553e-10	-1.436734e+01	-6.646174e+01
1.400000e-06	-2.015116e-06	-9.304536e-10	-1.406223e+01	-6.605604e+01
1.410000e-06	-1.971345e-06	-9.183361e-10	-1.375678e+01	-6.563540e+01
1.420000e-06	-1.927511e-06	-9.117363e-10	-1.345089e+01	-6.519976e+01
1.430000e-06	-1.883571e-06	-9.052848e-10	-1.314426e+01	-6.474916e+01
1.440000e-06	-1.839522e-06	-9.007982e-10	-1.283687e+01	-6.428375e+01
1.450000e-06	-1.795423e-06	-8.982274e-10	-1.252913e+01	-6.380377e+01
1.460000e-06	-1.751267e-06	-8.947930e-10	-1.222099e+01	-6.330956e+01
1.470000e-06	-1.706924e-06	-8.872276e-10	-1.191155e+01	-6.280154e+01
1.480000e-06	-1.662473e-06	-8.771033e-10	-1.160135e+01	-6.228019e+01
1.490000e-06	-1.617970e-06	-8.667854e-10	-1.129080e+01	-6.174602e+01
1.500000e-06	-1.573312e-06	-8.527239e-10	-1.097916e+01	-6.119960e+01
1.510000e-06	-1.528501e-06	-8.399156e-10	-1.066645e+01	-6.064149e+01
1.520000e-06	-1.483579e-06	-8.302209e-10	-1.035297e+01	-6.007226e+01
1.530000e-06	-1.438570e-06	-8.194789e-10	-1.003887e+01	-5.949244e+01
1.540000e-06	-1.393430e-06	-8.083316e-10	-9.723874e+00	-5.890251e+01
1.550000e-06	-1.348153e-06	-7.965755e-10	-9.407912e+00	-5.830291e+01
1.560000e-06	-1.302785e-06	-7.845360e-10	-9.091318e+00	-5.769395e+01
1.570000e-06	-1.257338e-06	-7.707611e-10	-8.774173e+00	-5.707590e+01
1.580000e-06	-1.211837e-06	-7.595895e-10	-8.456648e+00	-5.644886e+01
1.590000e-06	-1.166218e-06	-7.486443e-10	-8.138303e+00	-5.581283e+01
1.600000e-06	-1.120513e-06	-7.364724e-10	-7.819354e+00	-5.516767e+01
1.610000e-06	-1.074698e-06	-7.247638e-10	-7.499646e+00	-5.451307e+01
1.620000e-06	-1.028761e-06	-7.144667e-10	-7.179078e+00	-5.384857e+01
1.630000e-06	-9.828079e-07	-7.062178e-10	-6.858400e+00	-5.317355e+01
1.640000e-06	-9.368504e-07	-6.975995e-10	-6.537691e+00	-5.248724e+01
1.650000e-06	-8.908784e-07	-6.874782e-10	-6.216881e+00	-5.178868e+01
1.660000e-06	-8.448632e-07	-6.770775e-10	-5.895770e+00	-5.107679e+01
1.670000e-06	-7.987973e-07	-6.662235e-10	-5.574305e+00	-5.035029e+01
1.680000e-06	-7.526578e-07	-6.523242e-10	-5.252327e+00	-4.960782e+01
1.690000e-06	-7.064238e-07	-6.375929e-10	-4.929689e+00	-4.884784e+01
1.700000e-06	-6.601635e-07	-6.230507e-10	-4.606867e+00	-4.806873e+01
1.710000e-06	-6.139174e-07	-6.061658e-10	-4.284145e+00	-4.726877e+01
1.720000e-06	-5.675677e-07	-5.899363e-10	-3.960699e+00	-4.644616e+01
1.730000e-06	-5.211398e-07	-5.771672e-10	-3.636708e+00	-4.559905e+01
1.740000e-06	-4.747557e-07	-5.660072e-10	-3.313022e+00	-4.472556e+01
1.750000e-06	-4.284171e-07	-5.545231e-10	-2.989654e+00	-4.382379e+01
1.760000e-06	-3.820169e-07	-5.402316e-10	-2.665856e+00	-4.289188e+01
1.770000e-06	-3.355244e-07	-5.242604e-10	-2.341414e+00	-4.192798e+01
1.780000e-06	-2.890335e-07	-5.081210e-10	-2.016983e+00	-4.093033e+01
1.790000e-06	-2.423966e-07	-4.945656e-10	-1.691533e+00	-3.989724e+01
1.800000e-06	-1.955789e-07	-4.820605e-10	-1.364822e+00	-3.882714e+01
1.810000e-06	-1.487444e-07	-4.666554e-10	-1.037994e+00	-3.771860e+01
1.820000e-06	-1.020308e-07	-4.487967e-10	-7.120088e-01	-3.657032e+01
1.830000e-06	-5.543639e-08	-4.311502e-10	-3.868558e-01	-3.538121e+01
1.840000e-06	-8.825723e-09	-4.141184e-10	-6.158918e-02	-3.415032e+01
1.850000e-06	3.781939e-08	-3.975109e-10	2.639178e-01	-3.287695e+01
1.860000e-06	8.448307e-08	-3.815816e-10	5.895543e-01	-3.156059e+01
1.870000e-06	1.311602e-07	-3.649590e-10	9.152847e-01	-3.020096e+01
1.880000e-06	1.778457e-07	-3.460353e-10	1.241073e+00	-2.879802e+01
1.890000e-06	2.245088e-07	-3.249375e-10	1.566706e+00	-2.735196e+01
1.900000e-06	2.710247e-07	-3.022924e-10	1.891311e+00	-2.586323e+01
1.910000e-06	3.174686e-07	-2.784159e-10	2.215414e+00	-2.433249e+01
1.920000e-06	3.639565e-07	-2.529976e-10	2.539824e+00	-2.276067e+01
1.930000e-06	4.104274e-07	-2.285670e-10	2.864115e+00	-2.114891e+01
1.940000e-06	4.569137e-07	-2.069082e-10	3.188514e+00	-1.949858e+01
1.950000e-06	5.033976e-07	-1.856484e-10	3.512896e+00	-1.781128e+01
1.960000e-06	5.497137e-07	-1.643170e-10	3.836107e+00	-1.608879e+01
1.970000e-06	5.959388e-07	-1.428489e-10	4.158683e+00	-1.433311e+01
1.980000e-06	6.422495e-07	-1.196859e-10	4.481856e+00	-1.254638e+01
1.990000e-06	6.885022e-07	-9.447063e-11	4.804625e+00	-1.073092e+01
2.000000e-06	7.346055e-07	-6.649878e-11	5.126351e+00	-8.889202e+00
2.010000e-06	7.806754e-07	-3.664486e-11	5.447844e+00	-7.023801e+00
2.020000e-06	8.267751e-07	-6.976558e-12	5.769545e+00	-5.137407e+00
2.030000e-06	8.728573e-07	2.078265e-11	6.091123e+00	-3.232793e+00
2.040000e-06	9.188449e-07	4.581273e-11	6.412042e+00	-1.312797e+00
2.050000e-06	9.647601e-07	6.923734e-11	6.732455e+00	6.196945e-01
2.060000e-06	1.010676e-06	9.252550e-11	7.052876e+00	2.561771e+00
2.070000e-06	1.056525e-06	1.174205e-10	7.372828e+00	4.510511e+00
2.080000e-06	1.102256e-06	1.442354e-10	7.691950e+00	6.463004e+00
2.090000e-06	1.147861e-06	1.727690e-10	8.010204e+00	8.416369e+00
2.100000e-06	1.193367e-06	2.019221e-10	8.327757e+00	1.036777e+01
2.110000e-06	1.238833e-06	2.311133e-10	8.645037e+00	1.231442e+01
2.120000e-06	1.284236e-06	2.599308e-10	8.961877e+00	1.425361e+01
2.130000e-06	1.329513e-06	2.891632e-10	9.277835e+00	1.618274e+01
2.140000e-06	1.374678e-06	3.161108e-10	9.593012e+00	1.809928e+01
2.150000e-06	1.419760e-06	3.381423e-10	9.907613e+00	2.000082e+01
2.160000e-06	1.464818e-06	3.575563e-10	1.022205e+01	2.188508e+01
2.170000e-06	1.509801e-06	3.778882e-10	1.053595e+01	2.374989e+01
2.180000e-06	1.554572e-06	4.026347e-10	1.084838e+01	2.559322e+01
2.190000e-06	1.599180e-06	4.306530e-10	1.115967e+01	2.741319e+01
2.200000e-06	1.643693e-06	4.601723e-10	1.147030e+01	2.920805e+01
2.210000e-06	1.688085e-06	4.904635e-10	1.178009e+01	3.097621e+01
2.220000e-06	1.732330e-06	5.167600e-10	1.208884e+01	3.271620e+01
2.230000e-06	1.776460e-06	5.415856e-10	1.239680e+01	3.442674e+01
2.240000e-06	1.820459e-06	5.631311e-10	1.270384e+01	3.610667e+01
2.250000e-06	1.864400e-06	5.783781e-10	1.301048e+01	3.775497e+01
2.260000e-06	1.908333e-06	5.925229e-10	1.331706e+01	3.937077e+01
2.270000e-06	1.952208e-06	6.108144e-10	1.362324e+01	4.095337e+01
2.280000e-06	1.996012e-06	6.345808e-10	1.392892e+01	4.250215e+01
2.290000e-06	2.039733e-06	6.598973e-10	1.423402e+01	4.401667e+01
2.300000e-06	2.083389e-06	6.858165e-10	1.453866e+01	4.549657e+01
2.310000e-06	2.126969e-06	7.071831e-10	1.484278e+01	4.694165e+01
2.320000e-06	2.170451e-06	7.239221e-10	1.514622e+01	4.835179e+01
2.330000e-06	2.213807e-06	7.378129e-10	1.544877e+01	4.972698e+01
2.340000e-06	2.256996e-06	7.519392e-10	1.575016e+01	5.106731e+01
2.350000e-06	2.299972e-06	7.678383e-10	1.605006e+01	5.237295e+01
2.360000e-06	2.342672e-06	7.851789e-10	1.634804e+01	5.364417e+01
2.370000e-06	2.385027e-06	8.059255e-10	1.664361e+01	5.488128e+01
2.380000e-06	2.427147e-06	8.273957e-10	1.693754e+01	5.608467e+01
2.390000e-06	2.468992e-06	8.458168e-10	1.722955e+01	5.725479e+01
2.400000e-06	2.510455e-06	8.601668e-10	1.751889e+01	5.839212e+01
2.410000e-06	2.551593e-06	8.709477e-10	1.780596e+01	5.949720e+01
2.420000e-06	2.592380e-06	8.809817e-10	1.809059e+01	6.057058e+01
2.430000e-06	2.632971e-06	8.936613e-10	1.837386e+01	6.161286e+01
2.440000e-06	2.673440e-06	9.105612e-10	1.865626e+01	6.262462e+01
2.450000e-06	2.713676e-06	9.277172e-10	1.893704e+01	6.360650e+01
2.460000e-06	2.753730e-06	9.440091e-10	1.921655e+01	6.455912e+01
2.470000e-06	2.793661e-06	9.555810e-10	1.949521e+01	6.548309e+01
2.480000e-06	2.833452e-06	9.636270e-10	1.977288e+01	6.637904e+01
2.490000e-06	2.873086e-06	9.730577e-10	2.004947e+01	6.724759e+01
2.500000e-06	2.912597e-06	9.822968e-10	2.032519e+01	6.808935e+01
2.510000e-06	2.952027e-06	9.945273e-10	2.060035e+01	6.890492e+01
2.520000e-06	2.991262e-06	1.006122e-09	2.087414e+01	6.969488e+01
2.530000e-06	3.030203e-06	1.019399e-09	2.114589e+01	7.045980e+01
2.540000e-06	3.068924e-06	1.033767e-09	2.141609e+01	7.120024e+01
2.550000e-06	3.107437e-06	1.044568e-09	2.168485e+01	7.191675e+01
2.560000e-06	3.145758e-06	1.050069e-09	2.195227e+01	7.260987e+01
2.570000e-06	3.183947e-06	1.051304e-09	2.221877e+01	7.328010e+01
2.580000e-06	3.221882e-06	1.052356e-09	2.248349e+01	7.392797e+01
2.590000e-06	3.259565e-06	1.056037e-09	2.274646e+01	7.455397e+01
2.600000e-06	3.297087e-06	1.065617e-09	2.300830e+01	7.515860e+01
2.610000e-06	3.334389e-06	1.079644e-09	2.326861e+01	7.574236e+01
2.620000e-06	3.371399e-06	1.095904e-09	2.352688e+01	7.630574e+01
2.630000e-06	3.408197e-06	1.108616e-09	2.378367e+01	7.684922e+01
2.640000e-06	3.444775e-06	1.115802e-09	2.403892e+01	7.737331e+01
2.650000e-06	3.480995e-06	1.120248e-09	2.429168e+01	7.787851e+01
2.660000e-06	3.516993e-06	1.122480e-09	2.454289e+01	7.836531e+01
2.670000e-06	3.552882e-06	1.124595e-09	2.479334e+01	7.883423e+01
2.680000e-06	3.588550e-06	1.129057e-09	2.504224e+01	7.928580e+01
2.690000e-06	3.624071e-06	1.138198e-09	2.529012e+01	7.972053e+01
2.700000e-06	3.659484e-06	1.148886e-09	2.553724e+01	8.013898e+01
2.710000e-06	3.694683e-06	1.156486e-09	2.578287e+01	8.054169e+01
2.720000e-06	3.729581e-06	1.161364e-09	2.602640e+01	8.092920e+01
2.730000e-06	3.764163e-06	1.164172e-09	2.626773e+01	8.130207e+01
2.740000e-06	3.798349e-06	1.165879e-09	2.650630e+01	8.166087e+01
2.750000e-06	3.831931e-06	1.167553e-09	2.674064e+01	8.200615e+01
2.760000e-06	3.864980e-06	1.172455e-09	2.697127e+01	8.233847e+01
2.770000e-06	3.897653e-06	1.181028e-09	2.719928e+01	8.265839e+01
2.780000e-06	3.930044e-06	1.188107e-09	2.742531e+01	8.296643e+01
2.790000e-06	3.962145e-06	1.192884e-09	2.764932e+01	8.326314e+01
2.800000e-06	3.994044e-06	1.197726e-09	2.787192e+01	8.354901e+01
2.810000e-06	4.025864e-06	1.202333e-09	2.809398e+01	8.382453e+01
2.820000e-06	4.057506e-06	1.206134e-09	2.831479e+01	8.409017e+01
2.830000e-06	4.088854e-06	1.210048e-09	2.853355e+01	8.434637e+01
2.840000e-06	4.119948e-06	1.213985e-09	2.875053e+01	8.459351e+01
2.850000e-06	4.150819e-06	1.218550e-09	2.896596e+01	8.483198e+01
2.860000e-06	4.181339e-06	1.225236e-09	2.917894e+01	8.506210e+01
2.870000e-06	4.211474e-06	1.232388e-09	2.938924e+01	8.528416e+01
2.880000e-06	4.241383e-06	1.235669e-09	2.959795e+01	8.549843e+01
2.890000e-06	4.271036e-06	1.236312e-09	2.980488e+01	8.570509e+01
2.900000e-06	4.300335e-06	1.238699e-09	3.000934e+01	8.590435e+01
