# Temperatura_=_5.67
# Concentracion g/m^3_=_1620.0
# C_Vs_to_Am_M_A/Vsm_=_65563218390.804596
# pendiente_HvsI_1/m_=_3716.3
# ordenada_HvsI_A/m_=_1297.0
# frecuencia_Hz_=_135109.80033273884

Tiempo_(s)	Campo_(V.s)	Magnetizacion_(V.s)	Campo_(kA/m)	Magnetizacion_(A/m)
0.000000e+00	-5.524292e-06	-1.570647e-09	-3.836839e+01	-1.024701e+02
1.000000e-08	-5.524594e-06	-1.570416e-09	-3.837049e+01	-1.024429e+02
2.000000e-08	-5.524503e-06	-1.572771e-09	-3.836986e+01	-1.024161e+02
3.000000e-08	-5.523999e-06	-1.573838e-09	-3.836636e+01	-1.023900e+02
4.000000e-08	-5.523002e-06	-1.570226e-09	-3.835943e+01	-1.023645e+02
5.000000e-08	-5.521490e-06	-1.562452e-09	-3.834893e+01	-1.023399e+02
6.000000e-08	-5.519539e-06	-1.549933e-09	-3.833538e+01	-1.023161e+02
7.000000e-08	-5.516971e-06	-1.565091e-09	-3.831755e+01	-1.022933e+02
8.000000e-08	-5.513836e-06	-1.626771e-09	-3.829577e+01	-1.022715e+02
9.000000e-08	-5.510237e-06	-1.618937e-09	-3.827078e+01	-1.022506e+02
1.000000e-07	-5.506190e-06	-1.490871e-09	-3.824267e+01	-1.022306e+02
1.100000e-07	-5.501845e-06	-1.463505e-09	-3.821249e+01	-1.022114e+02
1.200000e-07	-5.497304e-06	-1.579908e-09	-3.818095e+01	-1.021927e+02
1.300000e-07	-5.492447e-06	-1.643090e-09	-3.814722e+01	-1.021745e+02
1.400000e-07	-5.487164e-06	-1.526471e-09	-3.811052e+01	-1.021563e+02
1.500000e-07	-5.481536e-06	-1.477953e-09	-3.807144e+01	-1.021379e+02
1.600000e-07	-5.475578e-06	-1.608446e-09	-3.803005e+01	-1.021190e+02
1.700000e-07	-5.469153e-06	-1.639909e-09	-3.798543e+01	-1.020992e+02
1.800000e-07	-5.462305e-06	-1.516242e-09	-3.793787e+01	-1.020780e+02
1.900000e-07	-5.455244e-06	-1.455582e-09	-3.788882e+01	-1.020549e+02
2.000000e-07	-5.447950e-06	-1.580252e-09	-3.783817e+01	-1.020295e+02
2.100000e-07	-5.440328e-06	-1.633474e-09	-3.778523e+01	-1.020012e+02
2.200000e-07	-5.432448e-06	-1.573193e-09	-3.773050e+01	-1.019695e+02
2.300000e-07	-5.424285e-06	-1.517931e-09	-3.767381e+01	-1.019339e+02
2.400000e-07	-5.415551e-06	-1.576927e-09	-3.761315e+01	-1.018938e+02
2.500000e-07	-5.406086e-06	-1.590386e-09	-3.754740e+01	-1.018487e+02
2.600000e-07	-5.396021e-06	-1.551405e-09	-3.747750e+01	-1.017981e+02
2.700000e-07	-5.385370e-06	-1.525396e-09	-3.740353e+01	-1.017415e+02
2.800000e-07	-5.374168e-06	-1.565143e-09	-3.732572e+01	-1.016785e+02
2.900000e-07	-5.362556e-06	-1.581638e-09	-3.724507e+01	-1.016086e+02
3.000000e-07	-5.350605e-06	-1.542487e-09	-3.716207e+01	-1.015316e+02
3.100000e-07	-5.338230e-06	-1.510964e-09	-3.707612e+01	-1.014471e+02
3.200000e-07	-5.325382e-06	-1.532839e-09	-3.698689e+01	-1.013549e+02
3.300000e-07	-5.312265e-06	-1.566702e-09	-3.689578e+01	-1.012549e+02
3.400000e-07	-5.298858e-06	-1.528086e-09	-3.680267e+01	-1.011469e+02
3.500000e-07	-5.284821e-06	-1.506513e-09	-3.670517e+01	-1.010309e+02
3.600000e-07	-5.270290e-06	-1.554451e-09	-3.660425e+01	-1.009070e+02
3.700000e-07	-5.255427e-06	-1.572582e-09	-3.650102e+01	-1.007753e+02
3.800000e-07	-5.240005e-06	-1.499448e-09	-3.639391e+01	-1.006361e+02
3.900000e-07	-5.223985e-06	-1.515859e-09	-3.628264e+01	-1.004896e+02
4.000000e-07	-5.207589e-06	-1.568846e-09	-3.616877e+01	-1.003361e+02
4.100000e-07	-5.190932e-06	-1.503175e-09	-3.605307e+01	-1.001760e+02
4.200000e-07	-5.173926e-06	-1.451741e-09	-3.593496e+01	-1.000099e+02
4.300000e-07	-5.156606e-06	-1.570335e-09	-3.581467e+01	-9.983813e+01
4.400000e-07	-5.138933e-06	-1.576418e-09	-3.569192e+01	-9.966132e+01
4.500000e-07	-5.120776e-06	-1.459766e-09	-3.556581e+01	-9.948003e+01
4.600000e-07	-5.102176e-06	-1.498264e-09	-3.543663e+01	-9.929485e+01
4.700000e-07	-5.083319e-06	-1.592758e-09	-3.530566e+01	-9.910637e+01
4.800000e-07	-5.064204e-06	-1.487370e-09	-3.517290e+01	-9.891520e+01
4.900000e-07	-5.044818e-06	-1.447548e-09	-3.503825e+01	-9.872194e+01
5.000000e-07	-5.025253e-06	-1.545734e-09	-3.490237e+01	-9.852715e+01
5.100000e-07	-5.005381e-06	-1.511779e-09	-3.476435e+01	-9.833139e+01
5.200000e-07	-4.985055e-06	-1.431917e-09	-3.462318e+01	-9.813516e+01
5.300000e-07	-4.964395e-06	-1.530949e-09	-3.447969e+01	-9.793892e+01
5.400000e-07	-4.943433e-06	-1.545788e-09	-3.433410e+01	-9.774308e+01
5.500000e-07	-4.922072e-06	-1.431008e-09	-3.418574e+01	-9.754798e+01
5.600000e-07	-4.900397e-06	-1.468051e-09	-3.403519e+01	-9.735392e+01
5.700000e-07	-4.878520e-06	-1.548838e-09	-3.388325e+01	-9.716111e+01
5.800000e-07	-4.856271e-06	-1.458119e-09	-3.372872e+01	-9.696968e+01
5.900000e-07	-4.833533e-06	-1.424836e-09	-3.357080e+01	-9.677972e+01
6.000000e-07	-4.810535e-06	-1.501796e-09	-3.341107e+01	-9.659121e+01
6.100000e-07	-4.787336e-06	-1.465160e-09	-3.324994e+01	-9.640408e+01
6.200000e-07	-4.763855e-06	-1.409177e-09	-3.308686e+01	-9.621818e+01
6.300000e-07	-4.740152e-06	-1.466178e-09	-3.292223e+01	-9.603331e+01
6.400000e-07	-4.716158e-06	-1.478959e-09	-3.275558e+01	-9.584918e+01
6.500000e-07	-4.691752e-06	-1.428635e-09	-3.258608e+01	-9.566548e+01
6.600000e-07	-4.666862e-06	-1.458234e-09	-3.241320e+01	-9.548180e+01
6.700000e-07	-4.641443e-06	-1.472772e-09	-3.223666e+01	-9.529775e+01
6.800000e-07	-4.615467e-06	-1.422745e-09	-3.205625e+01	-9.511285e+01
6.900000e-07	-4.589041e-06	-1.415933e-09	-3.187270e+01	-9.492662e+01
7.000000e-07	-4.562206e-06	-1.438193e-09	-3.168633e+01	-9.473857e+01
7.100000e-07	-4.535026e-06	-1.413247e-09	-3.149755e+01	-9.454818e+01
7.200000e-07	-4.507609e-06	-1.415843e-09	-3.130713e+01	-9.435494e+01
7.300000e-07	-4.479959e-06	-1.442605e-09	-3.111509e+01	-9.415835e+01
7.400000e-07	-4.452126e-06	-1.432371e-09	-3.092178e+01	-9.395792e+01
7.500000e-07	-4.424043e-06	-1.408080e-09	-3.072673e+01	-9.375318e+01
7.600000e-07	-4.395625e-06	-1.413114e-09	-3.052935e+01	-9.354369e+01
7.700000e-07	-4.366893e-06	-1.398808e-09	-3.032980e+01	-9.332907e+01
7.800000e-07	-4.337898e-06	-1.385591e-09	-3.012842e+01	-9.310895e+01
7.900000e-07	-4.308635e-06	-1.396120e-09	-2.992517e+01	-9.288302e+01
8.000000e-07	-4.279046e-06	-1.399424e-09	-2.971967e+01	-9.265101e+01
8.100000e-07	-4.249120e-06	-1.382032e-09	-2.951182e+01	-9.241271e+01
8.200000e-07	-4.218833e-06	-1.387177e-09	-2.930146e+01	-9.216797e+01
8.300000e-07	-4.188237e-06	-1.389025e-09	-2.908896e+01	-9.191667e+01
8.400000e-07	-4.157384e-06	-1.368310e-09	-2.887467e+01	-9.165876e+01
8.500000e-07	-4.126259e-06	-1.362963e-09	-2.865850e+01	-9.139425e+01
8.600000e-07	-4.094957e-06	-1.377359e-09	-2.844110e+01	-9.112317e+01
8.700000e-07	-4.063531e-06	-1.369701e-09	-2.822283e+01	-9.084563e+01
8.800000e-07	-4.031969e-06	-1.357886e-09	-2.800362e+01	-9.056175e+01
8.900000e-07	-4.000210e-06	-1.359299e-09	-2.778304e+01	-9.027172e+01
9.000000e-07	-3.968186e-06	-1.347482e-09	-2.756062e+01	-8.997575e+01
9.100000e-07	-3.935742e-06	-1.327033e-09	-2.733528e+01	-8.967406e+01
9.200000e-07	-3.902866e-06	-1.327947e-09	-2.710695e+01	-8.936694e+01
9.300000e-07	-3.869611e-06	-1.332045e-09	-2.687598e+01	-8.905466e+01
9.400000e-07	-3.835887e-06	-1.319265e-09	-2.664175e+01	-8.873751e+01
9.500000e-07	-3.801722e-06	-1.319933e-09	-2.640447e+01	-8.841580e+01
9.600000e-07	-3.767130e-06	-1.325635e-09	-2.616421e+01	-8.808985e+01
9.700000e-07	-3.732140e-06	-1.311962e-09	-2.592119e+01	-8.775995e+01
9.800000e-07	-3.696878e-06	-1.295183e-09	-2.567628e+01	-8.742642e+01
9.900000e-07	-3.661460e-06	-1.296763e-09	-2.543029e+01	-8.708953e+01
1.000000e-06	-3.625868e-06	-1.291581e-09	-2.518309e+01	-8.674957e+01
1.010000e-06	-3.590079e-06	-1.279124e-09	-2.493452e+01	-8.640680e+01
1.020000e-06	-3.554177e-06	-1.279040e-09	-2.468516e+01	-8.606145e+01
1.030000e-06	-3.518162e-06	-1.284274e-09	-2.443503e+01	-8.571374e+01
1.040000e-06	-3.481848e-06	-1.275814e-09	-2.418281e+01	-8.536387e+01
1.050000e-06	-3.445247e-06	-1.271630e-09	-2.392860e+01	-8.501199e+01
1.060000e-06	-3.408430e-06	-1.268120e-09	-2.367289e+01	-8.465824e+01
1.070000e-06	-3.371324e-06	-1.254625e-09	-2.341518e+01	-8.430274e+01
1.080000e-06	-3.334005e-06	-1.238601e-09	-2.315598e+01	-8.394554e+01
1.090000e-06	-3.296486e-06	-1.233058e-09	-2.289540e+01	-8.358670e+01
1.100000e-06	-3.258689e-06	-1.225255e-09	-2.263288e+01	-8.322624e+01
1.110000e-06	-3.220625e-06	-1.216652e-09	-2.236852e+01	-8.286413e+01
1.120000e-06	-3.182359e-06	-1.212859e-09	-2.210274e+01	-8.250033e+01
1.130000e-06	-3.143895e-06	-1.209343e-09	-2.183560e+01	-8.213476e+01
1.140000e-06	-3.105253e-06	-1.200455e-09	-2.156721e+01	-8.176731e+01
1.150000e-06	-3.066359e-06	-1.198418e-09	-2.129708e+01	-8.139783e+01
1.160000e-06	-3.027218e-06	-1.199398e-09	-2.102522e+01	-8.102617e+01
1.170000e-06	-2.987928e-06	-1.193311e-09	-2.075234e+01	-8.065213e+01
1.180000e-06	-2.948500e-06	-1.183213e-09	-2.047850e+01	-8.027547e+01
1.190000e-06	-2.909001e-06	-1.175130e-09	-2.020417e+01	-7.989595e+01
1.200000e-06	-2.869390e-06	-1.164837e-09	-1.992905e+01	-7.951329e+01
1.210000e-06	-2.829570e-06	-1.151724e-09	-1.965248e+01	-7.912717e+01
1.220000e-06	-2.789569e-06	-1.142747e-09	-1.937466e+01	-7.873726e+01
1.230000e-06	-2.749414e-06	-1.136430e-09	-1.909577e+01	-7.834321e+01
1.240000e-06	-2.709055e-06	-1.128871e-09	-1.881546e+01	-7.794465e+01
1.250000e-06	-2.668469e-06	-1.121679e-09	-1.853358e+01	-7.754115e+01
1.260000e-06	-2.627601e-06	-1.117393e-09	-1.824973e+01	-7.713232e+01
1.270000e-06	-2.586427e-06	-1.109960e-09	-1.796376e+01	-7.671771e+01
1.280000e-06	-2.544919e-06	-1.098931e-09	-1.767547e+01	-7.629686e+01
1.290000e-06	-2.503108e-06	-1.088857e-09	-1.738508e+01	-7.586932e+01
1.300000e-06	-2.461007e-06	-1.080398e-09	-1.709267e+01	-7.543461e+01
1.310000e-06	-2.418623e-06	-1.068899e-09	-1.679829e+01	-7.499224e+01
1.320000e-06	-2.376019e-06	-1.057066e-09	-1.650239e+01	-7.454173e+01
1.330000e-06	-2.333119e-06	-1.047030e-09	-1.620443e+01	-7.408261e+01
1.340000e-06	-2.289978e-06	-1.041060e-09	-1.590480e+01	-7.361438e+01
1.350000e-06	-2.246720e-06	-1.035538e-09	-1.560436e+01	-7.313659e+01
1.360000e-06	-2.203315e-06	-1.030711e-09	-1.530290e+01	-7.264877e+01
1.370000e-06	-2.159756e-06	-1.022636e-09	-1.500036e+01	-7.215048e+01
1.380000e-06	-2.116125e-06	-1.012059e-09	-1.469732e+01	-7.164130e+01
1.390000e-06	-2.072439e-06	-9.999355e-10	-1.439391e+01	-7.112084e+01
1.400000e-06	-2.028651e-06	-9.870736e-10	-1.408978e+01	-7.058871e+01
1.410000e-06	-1.984781e-06	-9.723988e-10	-1.378509e+01	-7.004460e+01
1.420000e-06	-1.940897e-06	-9.611232e-10	-1.348030e+01	-6.948818e+01
1.430000e-06	-1.896933e-06	-9.541557e-10	-1.317495e+01	-6.891919e+01
1.440000e-06	-1.852794e-06	-9.488895e-10	-1.286839e+01	-6.833739e+01
1.450000e-06	-1.808437e-06	-9.424299e-10	-1.256031e+01	-6.774257e+01
1.460000e-06	-1.763921e-06	-9.341918e-10	-1.225113e+01	-6.713458e+01
1.470000e-06	-1.719332e-06	-9.233460e-10	-1.194144e+01	-6.651327e+01
1.480000e-06	-1.674637e-06	-9.108215e-10	-1.163102e+01	-6.587854e+01
1.490000e-06	-1.629784e-06	-8.974683e-10	-1.131949e+01	-6.523032e+01
1.500000e-06	-1.584775e-06	-8.826933e-10	-1.100689e+01	-6.456855e+01
1.510000e-06	-1.539682e-06	-8.682328e-10	-1.069370e+01	-6.389319e+01
1.520000e-06	-1.494478e-06	-8.565428e-10	-1.037974e+01	-6.320422e+01
1.530000e-06	-1.449117e-06	-8.450454e-10	-1.006469e+01	-6.250160e+01
1.540000e-06	-1.403722e-06	-8.347638e-10	-9.749403e+00	-6.178530e+01
1.550000e-06	-1.358304e-06	-8.265473e-10	-9.433957e+00	-6.105529e+01
1.560000e-06	-1.312739e-06	-8.157516e-10	-9.117488e+00	-6.031147e+01
1.570000e-06	-1.267075e-06	-8.025182e-10	-8.800337e+00	-5.955376e+01
1.580000e-06	-1.221332e-06	-7.897161e-10	-8.482635e+00	-5.878200e+01
1.590000e-06	-1.175488e-06	-7.767032e-10	-8.164227e+00	-5.799598e+01
1.600000e-06	-1.129572e-06	-7.620812e-10	-7.845327e+00	-5.719544e+01
1.610000e-06	-1.083618e-06	-7.496069e-10	-7.526153e+00	-5.638003e+01
1.620000e-06	-1.037592e-06	-7.376845e-10	-7.206486e+00	-5.554934e+01
1.630000e-06	-9.915138e-07	-7.273551e-10	-6.886456e+00	-5.470286e+01
1.640000e-06	-9.453743e-07	-7.185774e-10	-6.565999e+00	-5.383998e+01
1.650000e-06	-8.991086e-07	-7.094245e-10	-6.244665e+00	-5.296001e+01
1.660000e-06	-8.527471e-07	-6.982073e-10	-5.922666e+00	-5.206213e+01
1.670000e-06	-8.063162e-07	-6.842112e-10	-5.600185e+00	-5.114543e+01
1.680000e-06	-7.598446e-07	-6.676895e-10	-5.277421e+00	-5.020892e+01
1.690000e-06	-7.133309e-07	-6.519287e-10	-4.954366e+00	-4.925146e+01
1.700000e-06	-6.667453e-07	-6.351185e-10	-4.630810e+00	-4.827185e+01
1.710000e-06	-6.201103e-07	-6.171666e-10	-4.306911e+00	-4.726879e+01
1.720000e-06	-5.734620e-07	-5.992828e-10	-3.982921e+00	-4.624090e+01
1.730000e-06	-5.267798e-07	-5.836736e-10	-3.658694e+00	-4.518672e+01
1.740000e-06	-4.800976e-07	-5.711558e-10	-3.334467e+00	-4.410476e+01
1.750000e-06	-4.333766e-07	-5.591419e-10	-3.009972e+00	-4.299346e+01
1.760000e-06	-3.866353e-07	-5.432067e-10	-2.685335e+00	-4.185125e+01
1.770000e-06	-3.398312e-07	-5.246422e-10	-2.360262e+00	-4.067655e+01
1.780000e-06	-2.928919e-07	-5.060188e-10	-2.034250e+00	-3.946780e+01
1.790000e-06	-2.459843e-07	-4.873891e-10	-1.708458e+00	-3.822346e+01
1.800000e-06	-1.991621e-07	-4.689634e-10	-1.383260e+00	-3.694208e+01
1.810000e-06	-1.523100e-07	-4.491802e-10	-1.057854e+00	-3.562225e+01
1.820000e-06	-1.053941e-07	-4.282711e-10	-7.320035e-01	-3.426270e+01
1.830000e-06	-5.849559e-08	-4.085755e-10	-4.062750e-01	-3.286227e+01
1.840000e-06	-1.160965e-08	-3.879361e-10	-8.063358e-02	-3.141994e+01
1.850000e-06	3.531546e-08	-3.681391e-10	2.452799e-01	-2.993487e+01
1.860000e-06	8.225292e-08	-3.499100e-10	5.712791e-01	-2.840641e+01
1.870000e-06	1.291586e-07	-3.308614e-10	8.970578e-01	-2.683413e+01
1.880000e-06	1.760409e-07	-3.099148e-10	1.222674e+00	-2.521780e+01
1.890000e-06	2.228772e-07	-2.853179e-10	1.547970e+00	-2.355746e+01
1.900000e-06	2.697212e-07	-2.585692e-10	1.873321e+00	-2.185338e+01
1.910000e-06	3.165663e-07	-2.320371e-10	2.198678e+00	-2.010610e+01
1.920000e-06	3.633547e-07	-2.058048e-10	2.523642e+00	-1.831644e+01
1.930000e-06	4.101341e-07	-1.801280e-10	2.848544e+00	-1.648548e+01
1.940000e-06	4.568706e-07	-1.588647e-10	3.173147e+00	-1.461457e+01
1.950000e-06	5.035516e-07	-1.339117e-10	3.497365e+00	-1.270535e+01
1.960000e-06	5.501780e-07	-1.104479e-10	3.821204e+00	-1.075969e+01
1.970000e-06	5.967226e-07	-8.678368e-11	4.144475e+00	-8.779758e+00
1.980000e-06	6.432516e-07	-6.076838e-11	4.467637e+00	-6.767928e+00
1.990000e-06	6.897764e-07	-3.074731e-11	4.790770e+00	-4.726818e+00
2.000000e-06	7.361879e-07	1.745230e-12	5.113116e+00	-2.659255e+00
2.010000e-06	7.825368e-07	3.424666e-11	5.435028e+00	-5.682516e-01
2.020000e-06	8.288454e-07	6.837827e-11	5.756659e+00	1.543014e+00
2.030000e-06	8.750498e-07	1.003250e-10	6.077567e+00	3.671222e+00
2.040000e-06	9.212209e-07	1.292798e-10	6.398244e+00	5.812937e+00
2.050000e-06	9.673762e-07	1.554507e-10	6.718810e+00	7.964640e+00
2.060000e-06	1.013459e-06	1.826703e-10	7.038872e+00	1.012275e+01
2.070000e-06	1.059433e-06	2.107905e-10	7.358183e+00	1.228366e+01
2.080000e-06	1.105306e-06	2.405097e-10	7.676789e+00	1.444377e+01
2.090000e-06	1.151105e-06	2.716411e-10	7.994878e+00	1.659948e+01
2.100000e-06	1.196837e-06	3.039104e-10	8.312503e+00	1.874729e+01
2.110000e-06	1.242520e-06	3.358019e-10	8.629796e+00	2.088374e+01
2.120000e-06	1.288093e-06	3.654685e-10	8.946315e+00	2.300552e+01
2.130000e-06	1.333574e-06	3.943655e-10	9.262199e+00	2.510942e+01
2.140000e-06	1.379014e-06	4.238109e-10	9.577801e+00	2.719241e+01
2.150000e-06	1.424358e-06	4.489172e-10	9.892732e+00	2.925161e+01
2.160000e-06	1.469591e-06	4.729982e-10	1.020689e+01	3.128435e+01
2.170000e-06	1.514734e-06	4.966475e-10	1.052043e+01	3.328816e+01
2.180000e-06	1.559786e-06	5.230902e-10	1.083333e+01	3.526078e+01
2.190000e-06	1.604740e-06	5.517875e-10	1.114555e+01	3.720020e+01
2.200000e-06	1.649594e-06	5.830777e-10	1.145708e+01	3.910462e+01
2.210000e-06	1.694280e-06	6.148942e-10	1.176745e+01	4.097247e+01
2.220000e-06	1.738718e-06	6.439800e-10	1.207608e+01	4.280244e+01
2.230000e-06	1.782981e-06	6.684426e-10	1.238351e+01	4.459342e+01
2.240000e-06	1.827081e-06	6.864740e-10	1.268980e+01	4.634457e+01
2.250000e-06	1.871024e-06	7.016980e-10	1.299500e+01	4.805523e+01
2.260000e-06	1.914934e-06	7.179611e-10	1.329998e+01	4.972498e+01
2.270000e-06	1.958867e-06	7.386074e-10	1.360511e+01	5.135358e+01
2.280000e-06	2.002738e-06	7.625529e-10	1.390981e+01	5.294099e+01
2.290000e-06	2.046463e-06	7.873113e-10	1.421349e+01	5.448734e+01
2.300000e-06	2.090100e-06	8.126200e-10	1.451657e+01	5.599291e+01
2.310000e-06	2.133699e-06	8.364971e-10	1.481938e+01	5.745813e+01
2.320000e-06	2.177200e-06	8.557200e-10	1.512152e+01	5.888354e+01
2.330000e-06	2.220603e-06	8.702673e-10	1.542296e+01	6.026981e+01
2.340000e-06	2.263970e-06	8.830573e-10	1.572417e+01	6.161768e+01
2.350000e-06	2.307177e-06	8.976312e-10	1.602426e+01	6.292798e+01
2.360000e-06	2.350162e-06	9.128414e-10	1.632280e+01	6.420158e+01
2.370000e-06	2.392985e-06	9.297604e-10	1.662023e+01	6.543941e+01
2.380000e-06	2.435588e-06	9.481699e-10	1.691612e+01	6.664241e+01
2.390000e-06	2.477865e-06	9.667997e-10	1.720975e+01	6.781155e+01
2.400000e-06	2.519819e-06	9.838460e-10	1.750114e+01	6.894781e+01
2.410000e-06	2.561393e-06	9.991853e-10	1.778989e+01	7.005213e+01
2.420000e-06	2.602593e-06	1.011757e-09	1.807604e+01	7.112547e+01
2.430000e-06	2.643499e-06	1.023557e-09	1.836015e+01	7.216874e+01
2.440000e-06	2.684116e-06	1.037398e-09	1.864225e+01	7.318284e+01
2.450000e-06	2.724442e-06	1.053165e-09	1.892233e+01	7.416861e+01
2.460000e-06	2.764579e-06	1.067626e-09	1.920110e+01	7.512686e+01
2.470000e-06	2.804562e-06	1.079280e-09	1.947880e+01	7.605838e+01
2.480000e-06	2.844354e-06	1.089291e-09	1.975516e+01	7.696388e+01
2.490000e-06	2.884041e-06	1.101091e-09	2.003080e+01	7.784404e+01
2.500000e-06	2.923614e-06	1.114154e-09	2.030566e+01	7.869953e+01
2.510000e-06	2.963065e-06	1.129946e-09	2.057966e+01	7.953093e+01
2.520000e-06	3.002364e-06	1.145412e-09	2.085261e+01	8.033881e+01
2.530000e-06	3.041531e-06	1.158968e-09	2.112464e+01	8.112371e+01
2.540000e-06	3.080566e-06	1.172139e-09	2.139575e+01	8.188612e+01
2.550000e-06	3.119272e-06	1.182296e-09	2.166458e+01	8.262652e+01
2.560000e-06	3.157697e-06	1.190174e-09	2.193146e+01	8.334537e+01
2.570000e-06	3.195943e-06	1.197410e-09	2.219709e+01	8.404309e+01
2.580000e-06	3.233933e-06	1.204415e-09	2.246095e+01	8.472011e+01
2.590000e-06	3.271671e-06	1.211640e-09	2.272305e+01	8.537684e+01
2.600000e-06	3.309269e-06	1.223211e-09	2.298418e+01	8.601367e+01
2.610000e-06	3.346752e-06	1.238718e-09	2.324452e+01	8.663102e+01
2.620000e-06	3.384016e-06	1.254554e-09	2.350333e+01	8.722926e+01
2.630000e-06	3.420932e-06	1.265944e-09	2.375973e+01	8.780882e+01
2.640000e-06	3.457518e-06	1.273293e-09	2.401383e+01	8.837009e+01
2.650000e-06	3.493905e-06	1.278442e-09	2.426655e+01	8.891347e+01
2.660000e-06	3.530053e-06	1.283946e-09	2.451762e+01	8.943940e+01
2.670000e-06	3.565993e-06	1.287218e-09	2.476723e+01	8.994828e+01
2.680000e-06	3.601783e-06	1.290088e-09	2.501581e+01	9.044056e+01
2.690000e-06	3.637429e-06	1.296453e-09	2.526339e+01	9.091667e+01
2.700000e-06	3.672931e-06	1.307581e-09	2.550996e+01	9.137706e+01
2.710000e-06	3.708274e-06	1.318610e-09	2.575543e+01	9.182217e+01
2.720000e-06	3.743472e-06	1.327814e-09	2.599989e+01	9.225247e+01
2.730000e-06	3.778417e-06	1.334719e-09	2.624260e+01	9.266842e+01
2.740000e-06	3.813007e-06	1.338004e-09	2.648284e+01	9.307047e+01
2.750000e-06	3.847111e-06	1.339208e-09	2.671971e+01	9.345908e+01
2.760000e-06	3.880574e-06	1.340376e-09	2.695212e+01	9.383473e+01
2.770000e-06	3.913566e-06	1.345578e-09	2.718126e+01	9.419786e+01
2.780000e-06	3.946173e-06	1.353687e-09	2.740773e+01	9.454892e+01
2.790000e-06	3.978414e-06	1.361701e-09	2.763166e+01	9.488838e+01
2.800000e-06	4.010393e-06	1.370870e-09	2.785377e+01	9.521665e+01
2.810000e-06	4.042160e-06	1.379111e-09	2.807440e+01	9.553418e+01
2.820000e-06	4.073801e-06	1.384150e-09	2.829416e+01	9.584137e+01
2.830000e-06	4.105291e-06	1.387780e-09	2.851287e+01	9.613865e+01
2.840000e-06	4.136550e-06	1.389005e-09	2.872998e+01	9.642639e+01
2.850000e-06	4.167525e-06	1.390372e-09	2.894511e+01	9.670498e+01
2.860000e-06	4.198181e-06	1.393540e-09	2.915803e+01	9.697479e+01
2.870000e-06	4.228540e-06	1.400100e-09	2.936888e+01	9.723616e+01
2.880000e-06	4.258671e-06	1.405281e-09	2.957816e+01	9.748943e+01
2.890000e-06	4.288526e-06	1.409244e-09	2.978551e+01	9.773492e+01
2.900000e-06	4.318042e-06	1.414162e-09	2.999051e+01	9.797293e+01
