# Temperatura_=_-5.41
# Concentracion g/m^3_=_1620.0
# C_Vs_to_Am_M_A/Vsm_=_65563218390.804596
# pendiente_HvsI_1/m_=_3716.3
# ordenada_HvsI_A/m_=_1297.0
# frecuencia_Hz_=_135111.08757192668

Tiempo_(s)	Campo_(V.s)	Magnetizacion_(V.s)	Campo_(kA/m)	Magnetizacion_(A/m)
0.000000e+00	-5.521023e-06	-1.399409e-09	-3.836417e+01	-9.108208e+01
1.000000e-08	-5.521231e-06	-1.395692e-09	-3.836561e+01	-9.104134e+01
2.000000e-08	-5.521216e-06	-1.396666e-09	-3.836551e+01	-9.100190e+01
3.000000e-08	-5.520775e-06	-1.397944e-09	-3.836245e+01	-9.096402e+01
4.000000e-08	-5.519805e-06	-1.397823e-09	-3.835570e+01	-9.092791e+01
5.000000e-08	-5.518274e-06	-1.393182e-09	-3.834507e+01	-9.089370e+01
6.000000e-08	-5.516183e-06	-1.380209e-09	-3.833054e+01	-9.086148e+01
7.000000e-08	-5.513474e-06	-1.378268e-09	-3.831172e+01	-9.083127e+01
8.000000e-08	-5.510235e-06	-1.409191e-09	-3.828920e+01	-9.080299e+01
9.000000e-08	-5.506532e-06	-1.446168e-09	-3.826347e+01	-9.077653e+01
1.000000e-07	-5.502404e-06	-1.421260e-09	-3.823479e+01	-9.075166e+01
1.100000e-07	-5.498021e-06	-1.359701e-09	-3.820433e+01	-9.072812e+01
1.200000e-07	-5.493419e-06	-1.352279e-09	-3.817236e+01	-9.070557e+01
1.300000e-07	-5.488625e-06	-1.406095e-09	-3.813904e+01	-9.068358e+01
1.400000e-07	-5.483367e-06	-1.392736e-09	-3.810251e+01	-9.066171e+01
1.500000e-07	-5.477651e-06	-1.368455e-09	-3.806279e+01	-9.063943e+01
1.600000e-07	-5.471674e-06	-1.359822e-09	-3.802126e+01	-9.061619e+01
1.700000e-07	-5.465336e-06	-1.411796e-09	-3.797722e+01	-9.059142e+01
1.800000e-07	-5.458476e-06	-1.389235e-09	-3.792955e+01	-9.056450e+01
1.900000e-07	-5.451196e-06	-1.359564e-09	-3.787896e+01	-9.053482e+01
2.000000e-07	-5.443737e-06	-1.360438e-09	-3.782713e+01	-9.050177e+01
2.100000e-07	-5.436034e-06	-1.416381e-09	-3.777360e+01	-9.046474e+01
2.200000e-07	-5.428042e-06	-1.439587e-09	-3.771807e+01	-9.042317e+01
2.300000e-07	-5.419741e-06	-1.420193e-09	-3.766039e+01	-9.037650e+01
2.400000e-07	-5.410936e-06	-1.406474e-09	-3.759920e+01	-9.032425e+01
2.500000e-07	-5.401432e-06	-1.407165e-09	-3.753316e+01	-9.026598e+01
2.600000e-07	-5.391231e-06	-1.407866e-09	-3.746228e+01	-9.020130e+01
2.700000e-07	-5.380489e-06	-1.378786e-09	-3.738764e+01	-9.012991e+01
2.800000e-07	-5.369299e-06	-1.390098e-09	-3.730988e+01	-9.005159e+01
2.900000e-07	-5.357668e-06	-1.401053e-09	-3.722906e+01	-8.996617e+01
3.000000e-07	-5.345692e-06	-1.403580e-09	-3.714584e+01	-8.987361e+01
3.100000e-07	-5.333361e-06	-1.361601e-09	-3.706015e+01	-8.977390e+01
3.200000e-07	-5.320603e-06	-1.363749e-09	-3.697150e+01	-8.966717e+01
3.300000e-07	-5.307485e-06	-1.361786e-09	-3.688035e+01	-8.955360e+01
3.400000e-07	-5.293997e-06	-1.361780e-09	-3.678663e+01	-8.943344e+01
3.500000e-07	-5.280078e-06	-1.334690e-09	-3.668991e+01	-8.930705e+01
3.600000e-07	-5.265787e-06	-1.365664e-09	-3.659060e+01	-8.917483e+01
3.700000e-07	-5.251022e-06	-1.378907e-09	-3.648800e+01	-8.903724e+01
3.800000e-07	-5.235660e-06	-1.365507e-09	-3.638126e+01	-8.889481e+01
3.900000e-07	-5.219706e-06	-1.338897e-09	-3.627040e+01	-8.874808e+01
4.000000e-07	-5.203359e-06	-1.360296e-09	-3.615681e+01	-8.859765e+01
4.100000e-07	-5.186691e-06	-1.348533e-09	-3.604098e+01	-8.844412e+01
4.200000e-07	-5.169670e-06	-1.324522e-09	-3.592271e+01	-8.828812e+01
4.300000e-07	-5.152337e-06	-1.346103e-09	-3.580227e+01	-8.813026e+01
4.400000e-07	-5.134716e-06	-1.377419e-09	-3.567982e+01	-8.797113e+01
4.500000e-07	-5.116735e-06	-1.348970e-09	-3.555487e+01	-8.781133e+01
4.600000e-07	-5.098182e-06	-1.333170e-09	-3.542596e+01	-8.765139e+01
4.700000e-07	-5.079170e-06	-1.363163e-09	-3.529385e+01	-8.749182e+01
4.800000e-07	-5.059873e-06	-1.353115e-09	-3.515975e+01	-8.733308e+01
4.900000e-07	-5.040337e-06	-1.321028e-09	-3.502401e+01	-8.717556e+01
5.000000e-07	-5.020588e-06	-1.331530e-09	-3.488677e+01	-8.701961e+01
5.100000e-07	-5.000648e-06	-1.339154e-09	-3.474821e+01	-8.686550e+01
5.200000e-07	-4.980411e-06	-1.306288e-09	-3.460760e+01	-8.671343e+01
5.300000e-07	-4.959806e-06	-1.322609e-09	-3.446442e+01	-8.656355e+01
5.400000e-07	-4.938878e-06	-1.348160e-09	-3.431899e+01	-8.641591e+01
5.500000e-07	-4.917574e-06	-1.320646e-09	-3.417095e+01	-8.627052e+01
5.600000e-07	-4.895837e-06	-1.298559e-09	-3.401991e+01	-8.612730e+01
5.700000e-07	-4.873809e-06	-1.334463e-09	-3.386685e+01	-8.598615e+01
5.800000e-07	-4.851505e-06	-1.326328e-09	-3.371186e+01	-8.584686e+01
5.900000e-07	-4.828768e-06	-1.298578e-09	-3.355387e+01	-8.570920e+01
6.000000e-07	-4.805733e-06	-1.304460e-09	-3.339380e+01	-8.557290e+01
6.100000e-07	-4.782472e-06	-1.310804e-09	-3.323217e+01	-8.543764e+01
6.200000e-07	-4.758944e-06	-1.276652e-09	-3.306868e+01	-8.530306e+01
6.300000e-07	-4.735185e-06	-1.279382e-09	-3.290358e+01	-8.516880e+01
6.400000e-07	-4.711180e-06	-1.295223e-09	-3.273678e+01	-8.503447e+01
6.500000e-07	-4.686813e-06	-1.286410e-09	-3.256746e+01	-8.489966e+01
6.600000e-07	-4.661927e-06	-1.279586e-09	-3.239453e+01	-8.476399e+01
6.700000e-07	-4.636527e-06	-1.295299e-09	-3.221804e+01	-8.462704e+01
6.800000e-07	-4.610609e-06	-1.279644e-09	-3.203794e+01	-8.448844e+01
6.900000e-07	-4.584129e-06	-1.261208e-09	-3.185394e+01	-8.434782e+01
7.000000e-07	-4.557135e-06	-1.262737e-09	-3.166636e+01	-8.420482e+01
7.100000e-07	-4.529799e-06	-1.262510e-09	-3.147641e+01	-8.405911e+01
7.200000e-07	-4.502288e-06	-1.254459e-09	-3.128524e+01	-8.391040e+01
7.300000e-07	-4.474571e-06	-1.265922e-09	-3.109265e+01	-8.375840e+01
7.400000e-07	-4.446666e-06	-1.272190e-09	-3.089874e+01	-8.360287e+01
7.500000e-07	-4.418592e-06	-1.260362e-09	-3.070366e+01	-8.344359e+01
7.600000e-07	-4.390278e-06	-1.255562e-09	-3.050691e+01	-8.328037e+01
7.700000e-07	-4.361555e-06	-1.256501e-09	-3.030732e+01	-8.311306e+01
7.800000e-07	-4.332463e-06	-1.246260e-09	-3.010517e+01	-8.294151e+01
7.900000e-07	-4.303121e-06	-1.241168e-09	-2.990128e+01	-8.276562e+01
8.000000e-07	-4.273511e-06	-1.247296e-09	-2.969553e+01	-8.258530e+01
8.100000e-07	-4.243616e-06	-1.240963e-09	-2.948780e+01	-8.240048e+01
8.200000e-07	-4.213422e-06	-1.234250e-09	-2.927798e+01	-8.221113e+01
8.300000e-07	-4.182952e-06	-1.235621e-09	-2.906626e+01	-8.201720e+01
8.400000e-07	-4.152161e-06	-1.233980e-09	-2.885230e+01	-8.181868e+01
8.500000e-07	-4.121034e-06	-1.225394e-09	-2.863600e+01	-8.161556e+01
8.600000e-07	-4.089628e-06	-1.230709e-09	-2.841777e+01	-8.140786e+01
8.700000e-07	-4.058062e-06	-1.229072e-09	-2.819843e+01	-8.119559e+01
8.800000e-07	-4.026384e-06	-1.220625e-09	-2.797831e+01	-8.097878e+01
8.900000e-07	-3.994529e-06	-1.214717e-09	-2.775696e+01	-8.075746e+01
9.000000e-07	-3.962385e-06	-1.215495e-09	-2.753359e+01	-8.053168e+01
9.100000e-07	-3.929962e-06	-1.205085e-09	-2.730830e+01	-8.030150e+01
9.200000e-07	-3.897188e-06	-1.199426e-09	-2.708056e+01	-8.006698e+01
9.300000e-07	-3.863949e-06	-1.198896e-09	-2.684959e+01	-7.982821e+01
9.400000e-07	-3.830318e-06	-1.193380e-09	-2.661590e+01	-7.958529e+01
9.500000e-07	-3.796291e-06	-1.183588e-09	-2.637945e+01	-7.933832e+01
9.600000e-07	-3.761791e-06	-1.183385e-09	-2.613972e+01	-7.908743e+01
9.700000e-07	-3.726840e-06	-1.174816e-09	-2.589685e+01	-7.883277e+01
9.800000e-07	-3.691537e-06	-1.161973e-09	-2.565154e+01	-7.857451e+01
9.900000e-07	-3.656006e-06	-1.157748e-09	-2.540464e+01	-7.831283e+01
1.000000e-06	-3.620368e-06	-1.160323e-09	-2.515700e+01	-7.804794e+01
1.010000e-06	-3.584647e-06	-1.154117e-09	-2.490879e+01	-7.778006e+01
1.020000e-06	-3.548770e-06	-1.149176e-09	-2.465949e+01	-7.750945e+01
1.030000e-06	-3.512727e-06	-1.148419e-09	-2.440904e+01	-7.723635e+01
1.040000e-06	-3.476509e-06	-1.141135e-09	-2.415736e+01	-7.696106e+01
1.050000e-06	-3.440016e-06	-1.132555e-09	-2.390379e+01	-7.668385e+01
1.060000e-06	-3.403123e-06	-1.129447e-09	-2.364743e+01	-7.640502e+01
1.070000e-06	-3.365927e-06	-1.123673e-09	-2.338896e+01	-7.612486e+01
1.080000e-06	-3.328558e-06	-1.115196e-09	-2.312930e+01	-7.584366e+01
1.090000e-06	-3.290982e-06	-1.112586e-09	-2.286819e+01	-7.556169e+01
1.100000e-06	-3.253250e-06	-1.109229e-09	-2.260600e+01	-7.527921e+01
1.110000e-06	-3.215273e-06	-1.102284e-09	-2.234211e+01	-7.499645e+01
1.120000e-06	-3.176980e-06	-1.093589e-09	-2.207602e+01	-7.471361e+01
1.130000e-06	-3.138538e-06	-1.085082e-09	-2.180889e+01	-7.443084e+01
1.140000e-06	-3.099927e-06	-1.073144e-09	-2.154059e+01	-7.414823e+01
1.150000e-06	-3.061122e-06	-1.067268e-09	-2.127095e+01	-7.386585e+01
1.160000e-06	-3.022092e-06	-1.067071e-09	-2.099974e+01	-7.358366e+01
1.170000e-06	-2.982816e-06	-1.066852e-09	-2.072682e+01	-7.330157e+01
1.180000e-06	-2.943390e-06	-1.063296e-09	-2.045286e+01	-7.301943e+01
1.190000e-06	-2.903859e-06	-1.062067e-09	-2.017817e+01	-7.273697e+01
1.200000e-06	-2.864239e-06	-1.055144e-09	-1.990286e+01	-7.245388e+01
1.210000e-06	-2.824457e-06	-1.045148e-09	-1.962642e+01	-7.216974e+01
1.220000e-06	-2.784562e-06	-1.034898e-09	-1.934921e+01	-7.188404e+01
1.230000e-06	-2.744513e-06	-1.027076e-09	-1.907091e+01	-7.159622e+01
1.240000e-06	-2.704246e-06	-1.018100e-09	-1.879111e+01	-7.130561e+01
1.250000e-06	-2.663717e-06	-1.015352e-09	-1.850948e+01	-7.101148e+01
1.260000e-06	-2.622903e-06	-1.016743e-09	-1.822588e+01	-7.071304e+01
1.270000e-06	-2.581859e-06	-1.014892e-09	-1.794067e+01	-7.040943e+01
1.280000e-06	-2.540482e-06	-1.007731e-09	-1.765316e+01	-7.009975e+01
1.290000e-06	-2.498740e-06	-9.994452e-10	-1.736310e+01	-6.978306e+01
1.300000e-06	-2.456692e-06	-9.880368e-10	-1.707092e+01	-6.945842e+01
1.310000e-06	-2.414345e-06	-9.739794e-10	-1.677666e+01	-6.912485e+01
1.320000e-06	-2.371720e-06	-9.630626e-10	-1.648047e+01	-6.878139e+01
1.330000e-06	-2.328793e-06	-9.562719e-10	-1.618218e+01	-6.842712e+01
1.340000e-06	-2.285643e-06	-9.512618e-10	-1.588235e+01	-6.806111e+01
1.350000e-06	-2.242370e-06	-9.493755e-10	-1.558166e+01	-6.768253e+01
1.360000e-06	-2.198959e-06	-9.491756e-10	-1.528000e+01	-6.729059e+01
1.370000e-06	-2.155450e-06	-9.462535e-10	-1.497767e+01	-6.688457e+01
1.380000e-06	-2.111834e-06	-9.379600e-10	-1.467459e+01	-6.646386e+01
1.390000e-06	-2.068152e-06	-9.249309e-10	-1.437106e+01	-6.602794e+01
1.400000e-06	-2.024450e-06	-9.100340e-10	-1.406738e+01	-6.557640e+01
1.410000e-06	-1.980647e-06	-8.959490e-10	-1.376300e+01	-6.510895e+01
1.420000e-06	-1.936687e-06	-8.858349e-10	-1.345754e+01	-6.462541e+01
1.430000e-06	-1.892640e-06	-8.781209e-10	-1.315147e+01	-6.412573e+01
1.440000e-06	-1.848507e-06	-8.736083e-10	-1.284480e+01	-6.360998e+01
1.450000e-06	-1.804250e-06	-8.689495e-10	-1.253727e+01	-6.307834e+01
1.460000e-06	-1.759902e-06	-8.615369e-10	-1.222911e+01	-6.253110e+01
1.470000e-06	-1.715432e-06	-8.495704e-10	-1.192010e+01	-6.196866e+01
1.480000e-06	-1.670825e-06	-8.351726e-10	-1.161013e+01	-6.139151e+01
1.490000e-06	-1.626063e-06	-8.216877e-10	-1.129909e+01	-6.080021e+01
1.500000e-06	-1.581159e-06	-8.107142e-10	-1.098707e+01	-6.019538e+01
1.510000e-06	-1.536119e-06	-8.005313e-10	-1.067410e+01	-5.957767e+01
1.520000e-06	-1.490899e-06	-7.920521e-10	-1.035988e+01	-5.894778e+01
1.530000e-06	-1.445543e-06	-7.825860e-10	-1.004471e+01	-5.830639e+01
1.540000e-06	-1.400168e-06	-7.728112e-10	-9.729408e+00	-5.765415e+01
1.550000e-06	-1.354735e-06	-7.630199e-10	-9.413708e+00	-5.699170e+01
1.560000e-06	-1.309195e-06	-7.550302e-10	-9.097257e+00	-5.631959e+01
1.570000e-06	-1.263591e-06	-7.437371e-10	-8.780371e+00	-5.563827e+01
1.580000e-06	-1.217936e-06	-7.324296e-10	-8.463122e+00	-5.494812e+01
1.590000e-06	-1.172217e-06	-7.196768e-10	-8.145436e+00	-5.424935e+01
1.600000e-06	-1.126364e-06	-7.037530e-10	-7.826815e+00	-5.354205e+01
1.610000e-06	-1.080383e-06	-6.889663e-10	-7.507303e+00	-5.282615e+01
1.620000e-06	-1.034314e-06	-6.793924e-10	-7.187184e+00	-5.210140e+01
1.630000e-06	-9.881108e-07	-6.730681e-10	-6.866128e+00	-5.136735e+01
1.640000e-06	-9.418237e-07	-6.666389e-10	-6.544491e+00	-5.062339e+01
1.650000e-06	-8.955662e-07	-6.583695e-10	-6.223059e+00	-4.986869e+01
1.660000e-06	-8.492908e-07	-6.473180e-10	-5.901503e+00	-4.910225e+01
1.670000e-06	-8.030113e-07	-6.339422e-10	-5.579919e+00	-4.832285e+01
1.680000e-06	-7.567223e-07	-6.186977e-10	-5.258269e+00	-4.752911e+01
1.690000e-06	-7.103024e-07	-6.053400e-10	-4.935709e+00	-4.671948e+01
1.700000e-06	-6.637899e-07	-5.902946e-10	-4.612505e+00	-4.589224e+01
1.710000e-06	-6.172250e-07	-5.746400e-10	-4.288938e+00	-4.504555e+01
1.720000e-06	-5.706250e-07	-5.606961e-10	-3.965126e+00	-4.417744e+01
1.730000e-06	-5.240532e-07	-5.491990e-10	-3.641511e+00	-4.328585e+01
1.740000e-06	-4.773527e-07	-5.361988e-10	-3.317001e+00	-4.236865e+01
1.750000e-06	-4.305072e-07	-5.213332e-10	-2.991484e+00	-4.142370e+01
1.760000e-06	-3.837664e-07	-5.044662e-10	-2.666694e+00	-4.044880e+01
1.770000e-06	-3.370332e-07	-4.864844e-10	-2.341957e+00	-3.944183e+01
1.780000e-06	-2.902308e-07	-4.695342e-10	-2.016739e+00	-3.840069e+01
1.790000e-06	-2.433846e-07	-4.548447e-10	-1.691217e+00	-3.732336e+01
1.800000e-06	-1.965698e-07	-4.417134e-10	-1.365913e+00	-3.620798e+01
1.810000e-06	-1.498514e-07	-4.289918e-10	-1.041279e+00	-3.505279e+01
1.820000e-06	-1.030733e-07	-4.142551e-10	-7.162301e-01	-3.385623e+01
1.830000e-06	-5.622507e-08	-3.968078e-10	-3.906936e-01	-3.261694e+01
1.840000e-06	-9.397665e-09	-3.772554e-10	-6.530196e-02	-3.133378e+01
1.850000e-06	3.748025e-08	-3.567915e-10	2.604406e-01	-3.000586e+01
1.860000e-06	8.443538e-08	-3.372220e-10	5.867198e-01	-2.863255e+01
1.870000e-06	1.313853e-07	-3.188372e-10	9.129628e-01	-2.721352e+01
1.880000e-06	1.782641e-07	-3.014616e-10	1.238711e+00	-2.574869e+01
1.890000e-06	2.250947e-07	-2.834322e-10	1.564125e+00	-2.423832e+01
1.900000e-06	2.719355e-07	-2.621182e-10	1.889610e+00	-2.268294e+01
1.910000e-06	3.187391e-07	-2.370605e-10	2.214836e+00	-2.108339e+01
1.920000e-06	3.655276e-07	-2.102211e-10	2.539957e+00	-1.944081e+01
1.930000e-06	4.123095e-07	-1.851393e-10	2.865033e+00	-1.775662e+01
1.940000e-06	4.590621e-07	-1.629681e-10	3.189905e+00	-1.603251e+01
1.950000e-06	5.057672e-07	-1.414791e-10	3.514446e+00	-1.427043e+01
1.960000e-06	5.524531e-07	-1.203293e-10	3.838855e+00	-1.247258e+01
1.970000e-06	5.990199e-07	-9.876342e-11	4.162435e+00	-1.064138e+01
1.980000e-06	6.454319e-07	-7.502654e-11	4.484941e+00	-8.779430e+00
1.990000e-06	6.918275e-07	-4.783925e-11	4.807332e+00	-6.889523e+00
2.000000e-06	7.382022e-07	-1.881321e-11	5.129578e+00	-4.974589e+00
2.010000e-06	7.844936e-07	1.065229e-11	5.451245e+00	-3.037676e+00
2.020000e-06	8.307107e-07	4.168774e-11	5.772395e+00	-1.081927e+00
2.030000e-06	8.768599e-07	7.304752e-11	6.093074e+00	8.894519e-01
2.040000e-06	9.229153e-07	1.007473e-10	6.413101e+00	2.873220e+00
2.050000e-06	9.689376e-07	1.250687e-10	6.732898e+00	4.866125e+00
2.060000e-06	1.014986e-06	1.495622e-10	7.052880e+00	6.864931e+00
2.070000e-06	1.060988e-06	1.752582e-10	7.372533e+00	8.866443e+00
2.080000e-06	1.106876e-06	2.015993e-10	7.691400e+00	1.086752e+01
2.090000e-06	1.152669e-06	2.296915e-10	8.009601e+00	1.286513e+01
2.100000e-06	1.198423e-06	2.595944e-10	8.327533e+00	1.485629e+01
2.110000e-06	1.244123e-06	2.901878e-10	8.645093e+00	1.683819e+01
2.120000e-06	1.289678e-06	3.196422e-10	8.961644e+00	1.880812e+01
2.130000e-06	1.335099e-06	3.471137e-10	9.277262e+00	2.076351e+01
2.140000e-06	1.380434e-06	3.708307e-10	9.592280e+00	2.270195e+01
2.150000e-06	1.425721e-06	3.916161e-10	9.906969e+00	2.462117e+01
2.160000e-06	1.470974e-06	4.135189e-10	1.022142e+01	2.651907e+01
2.170000e-06	1.516132e-06	4.377585e-10	1.053521e+01	2.839371e+01
2.180000e-06	1.561166e-06	4.641045e-10	1.084814e+01	3.024331e+01
2.190000e-06	1.606068e-06	4.921506e-10	1.116016e+01	3.206624e+01
2.200000e-06	1.650781e-06	5.207141e-10	1.147085e+01	3.386104e+01
2.210000e-06	1.695270e-06	5.477992e-10	1.178000e+01	3.562638e+01
2.220000e-06	1.739590e-06	5.725524e-10	1.208796e+01	3.736108e+01
2.230000e-06	1.783806e-06	5.951528e-10	1.239521e+01	3.906412e+01
2.240000e-06	1.827909e-06	6.150654e-10	1.270167e+01	4.073457e+01
2.250000e-06	1.871888e-06	6.314170e-10	1.300727e+01	4.237164e+01
2.260000e-06	1.915814e-06	6.483526e-10	1.331250e+01	4.397467e+01
2.270000e-06	1.959717e-06	6.686510e-10	1.361757e+01	4.554308e+01
2.280000e-06	2.003587e-06	6.895619e-10	1.392241e+01	4.707641e+01
2.290000e-06	2.047398e-06	7.109382e-10	1.422684e+01	4.857428e+01
2.300000e-06	2.091133e-06	7.324026e-10	1.453075e+01	5.003640e+01
2.310000e-06	2.134778e-06	7.530120e-10	1.483402e+01	5.146256e+01
2.320000e-06	2.178376e-06	7.705814e-10	1.513698e+01	5.285262e+01
2.330000e-06	2.221920e-06	7.868710e-10	1.543955e+01	5.420654e+01
2.340000e-06	2.265338e-06	8.013355e-10	1.574125e+01	5.552431e+01
2.350000e-06	2.308620e-06	8.165029e-10	1.604201e+01	5.680601e+01
2.360000e-06	2.351687e-06	8.329715e-10	1.634127e+01	5.805178e+01
2.370000e-06	2.394355e-06	8.503406e-10	1.663776e+01	5.926182e+01
2.380000e-06	2.436625e-06	8.683683e-10	1.693148e+01	6.043638e+01
2.390000e-06	2.478742e-06	8.849208e-10	1.722414e+01	6.157579e+01
2.400000e-06	2.520632e-06	9.003666e-10	1.751523e+01	6.268043e+01
2.410000e-06	2.562088e-06	9.140114e-10	1.780329e+01	6.375073e+01
2.420000e-06	2.603073e-06	9.257886e-10	1.808809e+01	6.478719e+01
2.430000e-06	2.643741e-06	9.379827e-10	1.837068e+01	6.579036e+01
2.440000e-06	2.684233e-06	9.522346e-10	1.865205e+01	6.676086e+01
2.450000e-06	2.724490e-06	9.668796e-10	1.893178e+01	6.769934e+01
2.460000e-06	2.764577e-06	9.830643e-10	1.921033e+01	6.860651e+01
2.470000e-06	2.804537e-06	9.975907e-10	1.948800e+01	6.948315e+01
2.480000e-06	2.844320e-06	1.008694e-09	1.976445e+01	7.033004e+01
2.490000e-06	2.884026e-06	1.015480e-09	2.004035e+01	7.114805e+01
2.500000e-06	2.923696e-06	1.021248e-09	2.031601e+01	7.193805e+01
2.510000e-06	2.963231e-06	1.032814e-09	2.059073e+01	7.270096e+01
2.520000e-06	3.002584e-06	1.047090e-09	2.086418e+01	7.343770e+01
2.530000e-06	3.041721e-06	1.062820e-09	2.113614e+01	7.414923e+01
2.540000e-06	3.080644e-06	1.079261e-09	2.140660e+01	7.483651e+01
2.550000e-06	3.119375e-06	1.090971e-09	2.167573e+01	7.550051e+01
2.560000e-06	3.157864e-06	1.095377e-09	2.194319e+01	7.614219e+01
2.570000e-06	3.196104e-06	1.094188e-09	2.220891e+01	7.676247e+01
2.580000e-06	3.234114e-06	1.095347e-09	2.247302e+01	7.736230e+01
2.590000e-06	3.271912e-06	1.101645e-09	2.273568e+01	7.794257e+01
2.600000e-06	3.309538e-06	1.113943e-09	2.299713e+01	7.850413e+01
2.610000e-06	3.346970e-06	1.129122e-09	2.325724e+01	7.904781e+01
2.620000e-06	3.384173e-06	1.145268e-09	2.351575e+01	7.957437e+01
2.630000e-06	3.421060e-06	1.156721e-09	2.377207e+01	8.008454e+01
2.640000e-06	3.457583e-06	1.162217e-09	2.402585e+01	8.057897e+01
2.650000e-06	3.493793e-06	1.165305e-09	2.427747e+01	8.105828e+01
2.660000e-06	3.529803e-06	1.167577e-09	2.452769e+01	8.152301e+01
2.670000e-06	3.565713e-06	1.171563e-09	2.477722e+01	8.197363e+01
2.680000e-06	3.601534e-06	1.177873e-09	2.502613e+01	8.241058e+01
2.690000e-06	3.637259e-06	1.187442e-09	2.527438e+01	8.283420e+01
2.700000e-06	3.672854e-06	1.197031e-09	2.552172e+01	8.324480e+01
2.710000e-06	3.708212e-06	1.202954e-09	2.576741e+01	8.364264e+01
2.720000e-06	3.743288e-06	1.206141e-09	2.601114e+01	8.402790e+01
2.730000e-06	3.777996e-06	1.207719e-09	2.625233e+01	8.440075e+01
2.740000e-06	3.812308e-06	1.209893e-09	2.649075e+01	8.476131e+01
2.750000e-06	3.846232e-06	1.213246e-09	2.672648e+01	8.510965e+01
2.760000e-06	3.879714e-06	1.217406e-09	2.695914e+01	8.544585e+01
2.770000e-06	3.912679e-06	1.223998e-09	2.718820e+01	8.576994e+01
2.780000e-06	3.945154e-06	1.230601e-09	2.741386e+01	8.608196e+01
2.790000e-06	3.977275e-06	1.236360e-09	2.763706e+01	8.638193e+01
2.800000e-06	4.009192e-06	1.242402e-09	2.785884e+01	8.666989e+01
2.810000e-06	4.040997e-06	1.247071e-09	2.807985e+01	8.694589e+01
2.820000e-06	4.072656e-06	1.250611e-09	2.829984e+01	8.720997e+01
2.830000e-06	4.104127e-06	1.255681e-09	2.851852e+01	8.746223e+01
2.840000e-06	4.135402e-06	1.260249e-09	2.873585e+01	8.770276e+01
2.850000e-06	4.166429e-06	1.264425e-09	2.895145e+01	8.793171e+01
2.860000e-06	4.197104e-06	1.268927e-09	2.916460e+01	8.814923e+01
2.870000e-06	4.227429e-06	1.274600e-09	2.937532e+01	8.835554e+01
2.880000e-06	4.257457e-06	1.278912e-09	2.958397e+01	8.855087e+01
2.890000e-06	4.287174e-06	1.280538e-09	2.979047e+01	8.873548e+01
2.900000e-06	4.316649e-06	1.281078e-09	2.999528e+01	8.890969e+01
