# Temperatura_=_-35.66
# Concentracion g/m^3_=_1620.0
# C_Vs_to_Am_M_A/Vsm_=_65563218390.804596
# pendiente_HvsI_1/m_=_3716.3
# ordenada_HvsI_A/m_=_1297.0
# frecuencia_Hz_=_135092.94958375412

Tiempo_(s)	Campo_(V.s)	Magnetizacion_(V.s)	Campo_(kA/m)	Magnetizacion_(A/m)
0.000000e+00	-5.532354e-06	-1.250054e-09	-3.837600e+01	-7.966230e+01
1.000000e-08	-5.532492e-06	-1.252512e-09	-3.837696e+01	-7.973118e+01
2.000000e-08	-5.532319e-06	-1.256873e-09	-3.837576e+01	-7.980206e+01
3.000000e-08	-5.531751e-06	-1.260384e-09	-3.837182e+01	-7.987395e+01
4.000000e-08	-5.530671e-06	-1.261719e-09	-3.836433e+01	-7.994578e+01
5.000000e-08	-5.528915e-06	-1.254847e-09	-3.835215e+01	-8.001644e+01
6.000000e-08	-5.526544e-06	-1.249974e-09	-3.833570e+01	-8.008476e+01
7.000000e-08	-5.523639e-06	-1.257370e-09	-3.831555e+01	-8.014959e+01
8.000000e-08	-5.520188e-06	-1.266110e-09	-3.829161e+01	-8.020977e+01
9.000000e-08	-5.516317e-06	-1.246854e-09	-3.826475e+01	-8.026418e+01
1.000000e-07	-5.512126e-06	-1.236537e-09	-3.823569e+01	-8.031175e+01
1.100000e-07	-5.507635e-06	-1.225386e-09	-3.820453e+01	-8.035150e+01
1.200000e-07	-5.502912e-06	-1.267197e-09	-3.817177e+01	-8.038252e+01
1.300000e-07	-5.497974e-06	-1.255194e-09	-3.813752e+01	-8.040404e+01
1.400000e-07	-5.492615e-06	-1.243116e-09	-3.810035e+01	-8.041540e+01
1.500000e-07	-5.486795e-06	-1.212527e-09	-3.805997e+01	-8.041610e+01
1.600000e-07	-5.480645e-06	-1.248953e-09	-3.801731e+01	-8.040578e+01
1.700000e-07	-5.474166e-06	-1.263460e-09	-3.797237e+01	-8.038424e+01
1.800000e-07	-5.467216e-06	-1.231536e-09	-3.792416e+01	-8.035145e+01
1.900000e-07	-5.459841e-06	-1.216550e-09	-3.787300e+01	-8.030755e+01
2.000000e-07	-5.452255e-06	-1.230213e-09	-3.782038e+01	-8.025283e+01
2.100000e-07	-5.444474e-06	-1.261268e-09	-3.776641e+01	-8.018775e+01
2.200000e-07	-5.436378e-06	-1.231276e-09	-3.771025e+01	-8.011292e+01
2.300000e-07	-5.427916e-06	-1.225783e-09	-3.765155e+01	-8.002907e+01
2.400000e-07	-5.418895e-06	-1.223201e-09	-3.758898e+01	-7.993709e+01
2.500000e-07	-5.409118e-06	-1.242200e-09	-3.752116e+01	-7.983793e+01
2.600000e-07	-5.398640e-06	-1.216833e-09	-3.744847e+01	-7.973267e+01
2.700000e-07	-5.387693e-06	-1.215285e-09	-3.737254e+01	-7.962244e+01
2.800000e-07	-5.376345e-06	-1.199974e-09	-3.729382e+01	-7.950840e+01
2.900000e-07	-5.364634e-06	-1.215413e-09	-3.721258e+01	-7.939177e+01
3.000000e-07	-5.352648e-06	-1.188140e-09	-3.712944e+01	-7.927374e+01
3.100000e-07	-5.340241e-06	-1.180316e-09	-3.704338e+01	-7.915549e+01
3.200000e-07	-5.327331e-06	-1.176145e-09	-3.695383e+01	-7.903816e+01
3.300000e-07	-5.314061e-06	-1.199056e-09	-3.686178e+01	-7.892282e+01
3.400000e-07	-5.300485e-06	-1.182668e-09	-3.676761e+01	-7.881047e+01
3.500000e-07	-5.286381e-06	-1.172844e-09	-3.666977e+01	-7.870200e+01
3.600000e-07	-5.271612e-06	-1.178610e-09	-3.656733e+01	-7.859818e+01
3.700000e-07	-5.256413e-06	-1.194114e-09	-3.646189e+01	-7.849966e+01
3.800000e-07	-5.240812e-06	-1.180117e-09	-3.635367e+01	-7.840697e+01
3.900000e-07	-5.224668e-06	-1.177936e-09	-3.624169e+01	-7.832047e+01
4.000000e-07	-5.208100e-06	-1.187635e-09	-3.612676e+01	-7.824041e+01
4.100000e-07	-5.191216e-06	-1.177308e-09	-3.600965e+01	-7.816685e+01
4.200000e-07	-5.174009e-06	-1.175646e-09	-3.589029e+01	-7.809975e+01
4.300000e-07	-5.156481e-06	-1.196260e-09	-3.576870e+01	-7.803893e+01
4.400000e-07	-5.138616e-06	-1.205205e-09	-3.564478e+01	-7.798405e+01
4.500000e-07	-5.120362e-06	-1.174247e-09	-3.551816e+01	-7.793469e+01
4.600000e-07	-5.101653e-06	-1.184336e-09	-3.538838e+01	-7.789033e+01
4.700000e-07	-5.082517e-06	-1.193394e-09	-3.525564e+01	-7.785034e+01
4.800000e-07	-5.063130e-06	-1.180561e-09	-3.512116e+01	-7.781404e+01
4.900000e-07	-5.043532e-06	-1.160198e-09	-3.498521e+01	-7.778070e+01
5.000000e-07	-5.023753e-06	-1.181791e-09	-3.484801e+01	-7.774955e+01
5.100000e-07	-5.003778e-06	-1.167528e-09	-3.470946e+01	-7.771983e+01
5.200000e-07	-4.983472e-06	-1.159802e-09	-3.456860e+01	-7.769077e+01
5.300000e-07	-4.962787e-06	-1.176870e-09	-3.442511e+01	-7.766163e+01
5.400000e-07	-4.941719e-06	-1.195493e-09	-3.427897e+01	-7.763171e+01
5.500000e-07	-4.920183e-06	-1.166890e-09	-3.412959e+01	-7.760038e+01
5.600000e-07	-4.898254e-06	-1.173063e-09	-3.397747e+01	-7.756708e+01
5.700000e-07	-4.876145e-06	-1.184281e-09	-3.382411e+01	-7.753132e+01
5.800000e-07	-4.853803e-06	-1.171083e-09	-3.366913e+01	-7.749274e+01
5.900000e-07	-4.830945e-06	-1.152074e-09	-3.351058e+01	-7.745104e+01
6.000000e-07	-4.807677e-06	-1.169469e-09	-3.334917e+01	-7.740604e+01
6.100000e-07	-4.784187e-06	-1.164682e-09	-3.318623e+01	-7.735767e+01
6.200000e-07	-4.760527e-06	-1.158099e-09	-3.302211e+01	-7.730596e+01
6.300000e-07	-4.736720e-06	-1.171691e-09	-3.285697e+01	-7.725105e+01
6.400000e-07	-4.712550e-06	-1.180123e-09	-3.268931e+01	-7.719314e+01
6.500000e-07	-4.687865e-06	-1.164774e-09	-3.251808e+01	-7.713255e+01
6.600000e-07	-4.662689e-06	-1.166255e-09	-3.234344e+01	-7.706966e+01
6.700000e-07	-4.637005e-06	-1.168624e-09	-3.216528e+01	-7.700488e+01
6.800000e-07	-4.610760e-06	-1.152192e-09	-3.198323e+01	-7.693871e+01
6.900000e-07	-4.584052e-06	-1.149465e-09	-3.179796e+01	-7.687163e+01
7.000000e-07	-4.556944e-06	-1.158997e-09	-3.160992e+01	-7.680418e+01
7.100000e-07	-4.529529e-06	-1.155205e-09	-3.141976e+01	-7.673684e+01
7.200000e-07	-4.501956e-06	-1.148864e-09	-3.122849e+01	-7.667011e+01
7.300000e-07	-4.474275e-06	-1.161209e-09	-3.103648e+01	-7.660443e+01
7.400000e-07	-4.446390e-06	-1.159700e-09	-3.084305e+01	-7.654020e+01
7.500000e-07	-4.418155e-06	-1.149702e-09	-3.064719e+01	-7.647773e+01
7.600000e-07	-4.389629e-06	-1.146963e-09	-3.044932e+01	-7.641728e+01
7.700000e-07	-4.360894e-06	-1.149772e-09	-3.025000e+01	-7.635900e+01
7.800000e-07	-4.331876e-06	-1.137667e-09	-3.004871e+01	-7.630295e+01
7.900000e-07	-4.302491e-06	-1.138625e-09	-2.984487e+01	-7.624909e+01
8.000000e-07	-4.272725e-06	-1.140753e-09	-2.963840e+01	-7.619729e+01
8.100000e-07	-4.242649e-06	-1.137633e-09	-2.942977e+01	-7.614730e+01
8.200000e-07	-4.212294e-06	-1.130497e-09	-2.921920e+01	-7.609877e+01
8.300000e-07	-4.181688e-06	-1.137737e-09	-2.900690e+01	-7.605127e+01
8.400000e-07	-4.150832e-06	-1.134387e-09	-2.879286e+01	-7.600427e+01
8.500000e-07	-4.119633e-06	-1.135312e-09	-2.857645e+01	-7.595717e+01
8.600000e-07	-4.088236e-06	-1.139923e-09	-2.835866e+01	-7.590932e+01
8.700000e-07	-4.056736e-06	-1.138529e-09	-2.814016e+01	-7.586000e+01
8.800000e-07	-4.025081e-06	-1.125759e-09	-2.792058e+01	-7.580847e+01
8.900000e-07	-3.993203e-06	-1.126063e-09	-2.769945e+01	-7.575398e+01
9.000000e-07	-3.960998e-06	-1.123412e-09	-2.747606e+01	-7.569576e+01
9.100000e-07	-3.928377e-06	-1.113816e-09	-2.724978e+01	-7.563308e+01
9.200000e-07	-3.895323e-06	-1.109081e-09	-2.702049e+01	-7.556524e+01
9.300000e-07	-3.861925e-06	-1.115961e-09	-2.678882e+01	-7.549159e+01
9.400000e-07	-3.828039e-06	-1.115687e-09	-2.655376e+01	-7.541154e+01
9.500000e-07	-3.793608e-06	-1.114936e-09	-2.631493e+01	-7.532460e+01
9.600000e-07	-3.758807e-06	-1.117705e-09	-2.607353e+01	-7.523037e+01
9.700000e-07	-3.723652e-06	-1.111715e-09	-2.582967e+01	-7.512853e+01
9.800000e-07	-3.688227e-06	-1.100657e-09	-2.558394e+01	-7.501892e+01
9.900000e-07	-3.652693e-06	-1.098473e-09	-2.533745e+01	-7.490145e+01
1.000000e-06	-3.617054e-06	-1.101004e-09	-2.509024e+01	-7.477619e+01
1.010000e-06	-3.581317e-06	-1.096359e-09	-2.484234e+01	-7.464331e+01
1.020000e-06	-3.545444e-06	-1.095512e-09	-2.459350e+01	-7.450309e+01
1.030000e-06	-3.509273e-06	-1.096853e-09	-2.434260e+01	-7.435594e+01
1.040000e-06	-3.472836e-06	-1.096169e-09	-2.408985e+01	-7.420236e+01
1.050000e-06	-3.436184e-06	-1.092206e-09	-2.383560e+01	-7.404296e+01
1.060000e-06	-3.399247e-06	-1.091424e-09	-2.357939e+01	-7.387841e+01
1.070000e-06	-3.362073e-06	-1.082776e-09	-2.332152e+01	-7.370944e+01
1.080000e-06	-3.324669e-06	-1.075512e-09	-2.306206e+01	-7.353686e+01
1.090000e-06	-3.286994e-06	-1.072708e-09	-2.280073e+01	-7.336148e+01
1.100000e-06	-3.249104e-06	-1.072372e-09	-2.253790e+01	-7.318413e+01
1.110000e-06	-3.210897e-06	-1.066556e-09	-2.227287e+01	-7.300563e+01
1.120000e-06	-3.172450e-06	-1.065139e-09	-2.200617e+01	-7.282676e+01
1.130000e-06	-3.133911e-06	-1.062733e-09	-2.173884e+01	-7.264827e+01
1.140000e-06	-3.095175e-06	-1.059568e-09	-2.147015e+01	-7.247085e+01
1.150000e-06	-3.056174e-06	-1.058713e-09	-2.119961e+01	-7.229509e+01
1.160000e-06	-3.016864e-06	-1.060800e-09	-2.092693e+01	-7.212148e+01
1.170000e-06	-2.977365e-06	-1.056163e-09	-2.065293e+01	-7.195041e+01
1.180000e-06	-2.937810e-06	-1.049280e-09	-2.037856e+01	-7.178215e+01
1.190000e-06	-2.898228e-06	-1.045503e-09	-2.010399e+01	-7.161684e+01
1.200000e-06	-2.858529e-06	-1.042480e-09	-1.982862e+01	-7.145447e+01
1.210000e-06	-2.818672e-06	-1.035737e-09	-1.955214e+01	-7.129490e+01
1.220000e-06	-2.778684e-06	-1.034163e-09	-1.927476e+01	-7.113785e+01
1.230000e-06	-2.738526e-06	-1.033921e-09	-1.899620e+01	-7.098290e+01
1.240000e-06	-2.698149e-06	-1.031657e-09	-1.871612e+01	-7.082950e+01
1.250000e-06	-2.657454e-06	-1.029823e-09	-1.843383e+01	-7.067698e+01
1.260000e-06	-2.616406e-06	-1.030323e-09	-1.814909e+01	-7.052455e+01
1.270000e-06	-2.575085e-06	-1.027363e-09	-1.786246e+01	-7.037134e+01
1.280000e-06	-2.533565e-06	-1.018230e-09	-1.757445e+01	-7.021635e+01
1.290000e-06	-2.491718e-06	-1.010816e-09	-1.728418e+01	-7.005858e+01
1.300000e-06	-2.449417e-06	-1.004190e-09	-1.699075e+01	-6.989691e+01
1.310000e-06	-2.406778e-06	-9.983841e-10	-1.669498e+01	-6.973025e+01
1.320000e-06	-2.363974e-06	-9.943455e-10	-1.639806e+01	-6.955745e+01
1.330000e-06	-2.320991e-06	-9.940226e-10	-1.609990e+01	-6.937741e+01
1.340000e-06	-2.277775e-06	-9.938452e-10	-1.580013e+01	-6.918903e+01
1.350000e-06	-2.234412e-06	-9.946545e-10	-1.549933e+01	-6.899127e+01
1.360000e-06	-2.190916e-06	-9.938473e-10	-1.519762e+01	-6.878314e+01
1.370000e-06	-2.147303e-06	-9.899923e-10	-1.489509e+01	-6.856374e+01
1.380000e-06	-2.103633e-06	-9.817867e-10	-1.459216e+01	-6.833226e+01
1.390000e-06	-2.059926e-06	-9.734491e-10	-1.428898e+01	-6.808801e+01
1.400000e-06	-2.016134e-06	-9.648489e-10	-1.398522e+01	-6.783039e+01
1.410000e-06	-1.972267e-06	-9.578968e-10	-1.368093e+01	-6.755894e+01
1.420000e-06	-1.928335e-06	-9.535215e-10	-1.337618e+01	-6.727331e+01
1.430000e-06	-1.884295e-06	-9.541058e-10	-1.307069e+01	-6.697330e+01
1.440000e-06	-1.840108e-06	-9.535425e-10	-1.276419e+01	-6.665881e+01
1.450000e-06	-1.795789e-06	-9.521755e-10	-1.245676e+01	-6.632987e+01
1.460000e-06	-1.751289e-06	-9.491004e-10	-1.214808e+01	-6.598664e+01
1.470000e-06	-1.706609e-06	-9.414663e-10	-1.183815e+01	-6.562936e+01
1.480000e-06	-1.661835e-06	-9.298793e-10	-1.152756e+01	-6.525839e+01
1.490000e-06	-1.616908e-06	-9.179712e-10	-1.121593e+01	-6.487413e+01
1.500000e-06	-1.571866e-06	-9.071012e-10	-1.090348e+01	-6.447709e+01
1.510000e-06	-1.526720e-06	-9.005325e-10	-1.059032e+01	-6.406778e+01
1.520000e-06	-1.481346e-06	-8.981408e-10	-1.027558e+01	-6.364678e+01
1.530000e-06	-1.435906e-06	-8.950525e-10	-9.960375e+00	-6.321464e+01
1.540000e-06	-1.390525e-06	-8.889356e-10	-9.645588e+00	-6.277193e+01
1.550000e-06	-1.345056e-06	-8.814970e-10	-9.330186e+00	-6.231917e+01
1.560000e-06	-1.299473e-06	-8.706411e-10	-9.013991e+00	-6.185684e+01
1.570000e-06	-1.253785e-06	-8.576135e-10	-8.697068e+00	-6.138534e+01
1.580000e-06	-1.207979e-06	-8.459182e-10	-8.379328e+00	-6.090501e+01
1.590000e-06	-1.162064e-06	-8.335729e-10	-8.060828e+00	-6.041606e+01
1.600000e-06	-1.116095e-06	-8.240360e-10	-7.741960e+00	-5.991861e+01
1.610000e-06	-1.070123e-06	-8.164632e-10	-7.423065e+00	-5.941264e+01
1.620000e-06	-1.024062e-06	-8.088279e-10	-7.103556e+00	-5.889800e+01
1.630000e-06	-9.778627e-07	-8.019614e-10	-6.783091e+00	-5.837440e+01
1.640000e-06	-9.315969e-07	-7.963177e-10	-6.462161e+00	-5.784139e+01
1.650000e-06	-8.853130e-07	-7.914303e-10	-6.141106e+00	-5.729839e+01
1.660000e-06	-8.389910e-07	-7.859322e-10	-5.819787e+00	-5.674466e+01
1.670000e-06	-7.925972e-07	-7.767612e-10	-5.497969e+00	-5.617932e+01
1.680000e-06	-7.461423e-07	-7.662899e-10	-5.175728e+00	-5.560134e+01
1.690000e-06	-6.996476e-07	-7.541858e-10	-4.853210e+00	-5.500958e+01
1.700000e-06	-6.530738e-07	-7.397683e-10	-4.530144e+00	-5.440277e+01
1.710000e-06	-6.064063e-07	-7.256739e-10	-4.206428e+00	-5.377952e+01
1.720000e-06	-5.596470e-07	-7.165615e-10	-3.882075e+00	-5.313838e+01
1.730000e-06	-5.128513e-07	-7.115531e-10	-3.557470e+00	-5.247778e+01
1.740000e-06	-4.661021e-07	-7.081275e-10	-3.233187e+00	-5.179613e+01
1.750000e-06	-4.193564e-07	-7.003784e-10	-2.908929e+00	-5.109178e+01
1.760000e-06	-3.725063e-07	-6.882682e-10	-2.583946e+00	-5.036307e+01
1.770000e-06	-3.256624e-07	-6.729488e-10	-2.259006e+00	-4.960832e+01
1.780000e-06	-2.787947e-07	-6.567544e-10	-1.933901e+00	-4.882591e+01
1.790000e-06	-2.318043e-07	-6.451392e-10	-1.607945e+00	-4.801421e+01
1.800000e-06	-1.848515e-07	-6.355768e-10	-1.282250e+00	-4.717168e+01
1.810000e-06	-1.379402e-07	-6.248880e-10	-9.568425e-01	-4.629686e+01
1.820000e-06	-9.102382e-08	-6.146939e-10	-6.314003e-01	-4.538836e+01
1.830000e-06	-4.415715e-08	-6.035373e-10	-3.063027e-01	-4.444493e+01
1.840000e-06	2.732037e-09	-5.886159e-10	1.895119e-02	-4.346544e+01
1.850000e-06	4.964043e-08	-5.719414e-10	3.443383e-01	-4.244889e+01
1.860000e-06	9.655783e-08	-5.574017e-10	6.697878e-01	-4.139445e+01
1.870000e-06	1.435166e-07	-5.429851e-10	9.955244e-01	-4.030145e+01
1.880000e-06	1.904187e-07	-5.267429e-10	1.320868e+00	-3.916938e+01
1.890000e-06	2.372369e-07	-5.115389e-10	1.645629e+00	-3.799794e+01
1.900000e-06	2.841287e-07	-4.934810e-10	1.970901e+00	-3.678697e+01
1.910000e-06	3.310944e-07	-4.726477e-10	2.296686e+00	-3.553655e+01
1.920000e-06	3.780245e-07	-4.507131e-10	2.622224e+00	-3.424692e+01
1.930000e-06	4.248792e-07	-4.306934e-10	2.947238e+00	-3.291850e+01
1.940000e-06	4.715727e-07	-4.132173e-10	3.271134e+00	-3.155192e+01
1.950000e-06	5.182355e-07	-3.970239e-10	3.594818e+00	-3.014798e+01
1.960000e-06	5.649075e-07	-3.818035e-10	3.918565e+00	-2.870766e+01
1.970000e-06	6.115361e-07	-3.648950e-10	4.242011e+00	-2.723210e+01
1.980000e-06	6.580559e-07	-3.453120e-10	4.564703e+00	-2.572261e+01
1.990000e-06	7.045569e-07	-3.213589e-10	4.887265e+00	-2.418067e+01
2.000000e-06	7.510006e-07	-2.947503e-10	5.209428e+00	-2.260787e+01
2.010000e-06	7.973230e-07	-2.697883e-10	5.530750e+00	-2.100594e+01
2.020000e-06	8.436829e-07	-2.463408e-10	5.852333e+00	-1.937676e+01
2.030000e-06	8.899696e-07	-2.244196e-10	6.173407e+00	-1.772227e+01
2.040000e-06	9.361898e-07	-2.044184e-10	6.494020e+00	-1.604455e+01
2.050000e-06	9.823423e-07	-1.842724e-10	6.814164e+00	-1.434572e+01
2.060000e-06	1.028448e-06	-1.623017e-10	7.133983e+00	-1.262800e+01
2.070000e-06	1.074582e-06	-1.367280e-10	7.454002e+00	-1.089366e+01
2.080000e-06	1.120542e-06	-1.107239e-10	7.772811e+00	-9.144998e+00
2.090000e-06	1.166362e-06	-8.525257e-11	8.090642e+00	-7.384356e+00
2.100000e-06	1.212131e-06	-5.832389e-11	8.408125e+00	-5.614087e+00
2.110000e-06	1.257866e-06	-3.189121e-11	8.725377e+00	-3.836550e+00
2.120000e-06	1.303621e-06	-6.700682e-12	9.042764e+00	-2.054093e+00
2.130000e-06	1.349163e-06	1.838480e-11	9.358673e+00	-2.690496e-01
2.140000e-06	1.394505e-06	4.099528e-11	9.673193e+00	1.516280e+00
2.150000e-06	1.439745e-06	6.200131e-11	9.987009e+00	3.299635e+00
2.160000e-06	1.484933e-06	8.432638e-11	1.030046e+01	5.078806e+00
2.170000e-06	1.530117e-06	1.078744e-10	1.061388e+01	6.851642e+00
2.180000e-06	1.575182e-06	1.329704e-10	1.092649e+01	8.616061e+00
2.190000e-06	1.620107e-06	1.597840e-10	1.123811e+01	1.037006e+01
2.200000e-06	1.664848e-06	1.887499e-10	1.154847e+01	1.211170e+01
2.210000e-06	1.709506e-06	2.186297e-10	1.185824e+01	1.383916e+01
2.220000e-06	1.754098e-06	2.447745e-10	1.216756e+01	1.555070e+01
2.230000e-06	1.798459e-06	2.655552e-10	1.247528e+01	1.724467e+01
2.240000e-06	1.842681e-06	2.837407e-10	1.278203e+01	1.891953e+01
2.250000e-06	1.886802e-06	3.008931e-10	1.308808e+01	2.057384e+01
2.260000e-06	1.930759e-06	3.194256e-10	1.339300e+01	2.220628e+01
2.270000e-06	1.974642e-06	3.417794e-10	1.369740e+01	2.381563e+01
2.280000e-06	2.018460e-06	3.665610e-10	1.400135e+01	2.540076e+01
2.290000e-06	2.062214e-06	3.915072e-10	1.430485e+01	2.696068e+01
2.300000e-06	2.105909e-06	4.162997e-10	1.460795e+01	2.849449e+01
2.310000e-06	2.149536e-06	4.383532e-10	1.491058e+01	3.000139e+01
2.320000e-06	2.193098e-06	4.569522e-10	1.521275e+01	3.148068e+01
2.330000e-06	2.236582e-06	4.729352e-10	1.551439e+01	3.293179e+01
2.340000e-06	2.279908e-06	4.871282e-10	1.581492e+01	3.435420e+01
2.350000e-06	2.323077e-06	5.032379e-10	1.611437e+01	3.574751e+01
2.360000e-06	2.366103e-06	5.199321e-10	1.641282e+01	3.711140e+01
2.370000e-06	2.408894e-06	5.412894e-10	1.670965e+01	3.844562e+01
2.380000e-06	2.451450e-06	5.629939e-10	1.700485e+01	3.975002e+01
2.390000e-06	2.493691e-06	5.795561e-10	1.729786e+01	4.102450e+01
2.400000e-06	2.535584e-06	5.953899e-10	1.758846e+01	4.226903e+01
2.410000e-06	2.577177e-06	6.094775e-10	1.787697e+01	4.348364e+01
2.420000e-06	2.618389e-06	6.257359e-10	1.816285e+01	4.466842e+01
2.430000e-06	2.659290e-06	6.430493e-10	1.844657e+01	4.582350e+01
2.440000e-06	2.699953e-06	6.616565e-10	1.872863e+01	4.694907e+01
2.450000e-06	2.740296e-06	6.785667e-10	1.900847e+01	4.804534e+01
2.460000e-06	2.780452e-06	6.920399e-10	1.928702e+01	4.911258e+01
2.470000e-06	2.820509e-06	7.004231e-10	1.956488e+01	5.015106e+01
2.480000e-06	2.860413e-06	7.102717e-10	1.984168e+01	5.116112e+01
2.490000e-06	2.900184e-06	7.231669e-10	2.011756e+01	5.214308e+01
2.500000e-06	2.939831e-06	7.393537e-10	2.039258e+01	5.309732e+01
2.510000e-06	2.979298e-06	7.576731e-10	2.066634e+01	5.402422e+01
2.520000e-06	3.018495e-06	7.738447e-10	2.093824e+01	5.492420e+01
2.530000e-06	3.057518e-06	7.925204e-10	2.120893e+01	5.579767e+01
2.540000e-06	3.096378e-06	8.079726e-10	2.147849e+01	5.664509e+01
2.550000e-06	3.134972e-06	8.156677e-10	2.174620e+01	5.746691e+01
2.560000e-06	3.173327e-06	8.185269e-10	2.201225e+01	5.826361e+01
2.570000e-06	3.211498e-06	8.206084e-10	2.227704e+01	5.903569e+01
2.580000e-06	3.249521e-06	8.276362e-10	2.254079e+01	5.978365e+01
2.590000e-06	3.287377e-06	8.399716e-10	2.280338e+01	6.050803e+01
2.600000e-06	3.324972e-06	8.590637e-10	2.306417e+01	6.120938e+01
2.610000e-06	3.362343e-06	8.807469e-10	2.332340e+01	6.188824e+01
2.620000e-06	3.399485e-06	8.984558e-10	2.358104e+01	6.254520e+01
2.630000e-06	3.436299e-06	9.079849e-10	2.383640e+01	6.318084e+01
2.640000e-06	3.472772e-06	9.092605e-10	2.408940e+01	6.379578e+01
2.650000e-06	3.508973e-06	9.085780e-10	2.434052e+01	6.439062e+01
2.660000e-06	3.545026e-06	9.066910e-10	2.459060e+01	6.496600e+01
2.670000e-06	3.580932e-06	9.078584e-10	2.483967e+01	6.552255e+01
2.680000e-06	3.616727e-06	9.165948e-10	2.508797e+01	6.606090e+01
2.690000e-06	3.652478e-06	9.349906e-10	2.533596e+01	6.658170e+01
2.700000e-06	3.688058e-06	9.545397e-10	2.558277e+01	6.708558e+01
2.710000e-06	3.723418e-06	9.666215e-10	2.582804e+01	6.757317e+01
2.720000e-06	3.758455e-06	9.703010e-10	2.607109e+01	6.804509e+01
2.730000e-06	3.793138e-06	9.675106e-10	2.631167e+01	6.850195e+01
2.740000e-06	3.827525e-06	9.622686e-10	2.655020e+01	6.894432e+01
2.750000e-06	3.861517e-06	9.607777e-10	2.678599e+01	6.937277e+01
2.760000e-06	3.894983e-06	9.657373e-10	2.701813e+01	6.978783e+01
2.770000e-06	3.927903e-06	9.778772e-10	2.724649e+01	7.018998e+01
2.780000e-06	3.960437e-06	9.930732e-10	2.747216e+01	7.057969e+01
2.790000e-06	3.992712e-06	1.008283e-09	2.769604e+01	7.095738e+01
2.800000e-06	4.024743e-06	1.019440e-09	2.791823e+01	7.132342e+01
2.810000e-06	4.056498e-06	1.024154e-09	2.813851e+01	7.167813e+01
2.820000e-06	4.088071e-06	1.023621e-09	2.835752e+01	7.202180e+01
2.830000e-06	4.119524e-06	1.022984e-09	2.857569e+01	7.235465e+01
2.840000e-06	4.150774e-06	1.024679e-09	2.879247e+01	7.267687e+01
2.850000e-06	4.181720e-06	1.029295e-09	2.900713e+01	7.298859e+01
2.860000e-06	4.212304e-06	1.040710e-09	2.921927e+01	7.328992e+01
2.870000e-06	4.242572e-06	1.054760e-09	2.942924e+01	7.358090e+01
2.880000e-06	4.272553e-06	1.063097e-09	2.963720e+01	7.386155e+01
2.890000e-06	4.302265e-06	1.066210e-09	2.984330e+01	7.413185e+01
2.900000e-06	4.331735e-06	1.066986e-09	3.004773e+01	7.439177e+01
