# Temperatura_=_-6.7
# Concentracion g/m^3_=_1620.0
# C_Vs_to_Am_M_A/Vsm_=_65563218390.804596
# pendiente_HvsI_1/m_=_3716.3
# ordenada_HvsI_A/m_=_1297.0
# frecuencia_Hz_=_135108.69180763542

Tiempo_(s)	Campo_(V.s)	Magnetizacion_(V.s)	Campo_(kA/m)	Magnetizacion_(A/m)
0.000000e+00	-5.522215e-06	-1.455551e-09	-3.837444e+01	-9.462090e+01
1.000000e-08	-5.522333e-06	-1.454114e-09	-3.837526e+01	-9.453574e+01
2.000000e-08	-5.522158e-06	-1.454030e-09	-3.837405e+01	-9.444919e+01
3.000000e-08	-5.521551e-06	-1.452356e-09	-3.836983e+01	-9.436092e+01
4.000000e-08	-5.520348e-06	-1.450183e-09	-3.836147e+01	-9.427058e+01
5.000000e-08	-5.518467e-06	-1.444615e-09	-3.834840e+01	-9.417782e+01
6.000000e-08	-5.516029e-06	-1.444563e-09	-3.833145e+01	-9.408227e+01
7.000000e-08	-5.513075e-06	-1.444596e-09	-3.831093e+01	-9.398360e+01
8.000000e-08	-5.509591e-06	-1.408163e-09	-3.828672e+01	-9.388146e+01
9.000000e-08	-5.505694e-06	-1.407875e-09	-3.825963e+01	-9.377554e+01
1.000000e-07	-5.501486e-06	-1.525777e-09	-3.823039e+01	-9.366557e+01
1.100000e-07	-5.496901e-06	-1.536383e-09	-3.819853e+01	-9.355128e+01
1.200000e-07	-5.491997e-06	-1.370362e-09	-3.816445e+01	-9.343248e+01
1.300000e-07	-5.486948e-06	-1.322363e-09	-3.812937e+01	-9.330902e+01
1.400000e-07	-5.481583e-06	-1.444639e-09	-3.809208e+01	-9.318078e+01
1.500000e-07	-5.475780e-06	-1.556856e-09	-3.805176e+01	-9.304771e+01
1.600000e-07	-5.469584e-06	-1.400916e-09	-3.800870e+01	-9.290982e+01
1.700000e-07	-5.463016e-06	-1.310721e-09	-3.796306e+01	-9.276716e+01
1.800000e-07	-5.456112e-06	-1.442795e-09	-3.791509e+01	-9.261984e+01
1.900000e-07	-5.448816e-06	-1.519912e-09	-3.786438e+01	-9.246803e+01
2.000000e-07	-5.441191e-06	-1.419242e-09	-3.781140e+01	-9.231194e+01
2.100000e-07	-5.433376e-06	-1.323540e-09	-3.775709e+01	-9.215183e+01
2.200000e-07	-5.425211e-06	-1.417286e-09	-3.770035e+01	-9.198798e+01
2.300000e-07	-5.416575e-06	-1.483712e-09	-3.764034e+01	-9.182074e+01
2.400000e-07	-5.407503e-06	-1.431324e-09	-3.757730e+01	-9.165044e+01
2.500000e-07	-5.397856e-06	-1.359077e-09	-3.751026e+01	-9.147747e+01
2.600000e-07	-5.387504e-06	-1.405531e-09	-3.743832e+01	-9.130220e+01
2.700000e-07	-5.376477e-06	-1.424229e-09	-3.736169e+01	-9.112502e+01
2.800000e-07	-5.365042e-06	-1.390594e-09	-3.728223e+01	-9.094632e+01
2.900000e-07	-5.353274e-06	-1.350116e-09	-3.720045e+01	-9.076644e+01
3.000000e-07	-5.341122e-06	-1.392561e-09	-3.711601e+01	-9.058575e+01
3.100000e-07	-5.328594e-06	-1.412139e-09	-3.702895e+01	-9.040457e+01
3.200000e-07	-5.315608e-06	-1.371694e-09	-3.693870e+01	-9.022318e+01
3.300000e-07	-5.302124e-06	-1.319810e-09	-3.684500e+01	-9.004183e+01
3.400000e-07	-5.288307e-06	-1.358096e-09	-3.674899e+01	-8.986073e+01
3.500000e-07	-5.274169e-06	-1.400113e-09	-3.665074e+01	-8.968005e+01
3.600000e-07	-5.259495e-06	-1.349186e-09	-3.654877e+01	-8.949990e+01
3.700000e-07	-5.244256e-06	-1.330408e-09	-3.644287e+01	-8.932036e+01
3.800000e-07	-5.228603e-06	-1.407726e-09	-3.633410e+01	-8.914144e+01
3.900000e-07	-5.212529e-06	-1.381146e-09	-3.622240e+01	-8.896314e+01
4.000000e-07	-5.195902e-06	-1.278701e-09	-3.610686e+01	-8.878539e+01
4.100000e-07	-5.178972e-06	-1.349120e-09	-3.598921e+01	-8.860808e+01
4.200000e-07	-5.161810e-06	-1.425795e-09	-3.586995e+01	-8.843109e+01
4.300000e-07	-5.144247e-06	-1.311683e-09	-3.574790e+01	-8.825424e+01
4.400000e-07	-5.126357e-06	-1.283382e-09	-3.562358e+01	-8.807735e+01
4.500000e-07	-5.108130e-06	-1.438518e-09	-3.549692e+01	-8.790023e+01
4.600000e-07	-5.089457e-06	-1.380979e-09	-3.536716e+01	-8.772265e+01
4.700000e-07	-5.070365e-06	-1.249635e-09	-3.523448e+01	-8.754441e+01
4.800000e-07	-5.051030e-06	-1.349596e-09	-3.510013e+01	-8.736529e+01
4.900000e-07	-5.031514e-06	-1.407596e-09	-3.496451e+01	-8.718509e+01
5.000000e-07	-5.011716e-06	-1.256252e-09	-3.482693e+01	-8.700364e+01
5.100000e-07	-4.991649e-06	-1.294327e-09	-3.468748e+01	-8.682077e+01
5.200000e-07	-4.971281e-06	-1.400465e-09	-3.454594e+01	-8.663634e+01
5.300000e-07	-4.950494e-06	-1.290814e-09	-3.440149e+01	-8.645025e+01
5.400000e-07	-4.929302e-06	-1.248324e-09	-3.425422e+01	-8.626244e+01
5.500000e-07	-4.907821e-06	-1.392913e-09	-3.410495e+01	-8.607286e+01
5.600000e-07	-4.886003e-06	-1.337787e-09	-3.395334e+01	-8.588151e+01
5.700000e-07	-4.863879e-06	-1.227398e-09	-3.379960e+01	-8.568843e+01
5.800000e-07	-4.841487e-06	-1.325266e-09	-3.364399e+01	-8.549369e+01
5.900000e-07	-4.818701e-06	-1.358423e-09	-3.348565e+01	-8.529737e+01
6.000000e-07	-4.795517e-06	-1.239509e-09	-3.332454e+01	-8.509962e+01
6.100000e-07	-4.772087e-06	-1.271482e-09	-3.316173e+01	-8.490056e+01
6.200000e-07	-4.748441e-06	-1.335048e-09	-3.299741e+01	-8.470038e+01
6.300000e-07	-4.724479e-06	-1.259364e-09	-3.283089e+01	-8.449923e+01
6.400000e-07	-4.700281e-06	-1.249976e-09	-3.266273e+01	-8.429730e+01
6.500000e-07	-4.675793e-06	-1.317825e-09	-3.249257e+01	-8.409477e+01
6.600000e-07	-4.650767e-06	-1.279587e-09	-3.231866e+01	-8.389179e+01
6.700000e-07	-4.625127e-06	-1.241782e-09	-3.214048e+01	-8.368853e+01
6.800000e-07	-4.598947e-06	-1.283643e-09	-3.195856e+01	-8.348511e+01
6.900000e-07	-4.572226e-06	-1.265417e-09	-3.177287e+01	-8.328162e+01
7.000000e-07	-4.545040e-06	-1.226756e-09	-3.158395e+01	-8.307813e+01
7.100000e-07	-4.517587e-06	-1.252464e-09	-3.139318e+01	-8.287467e+01
7.200000e-07	-4.489963e-06	-1.261861e-09	-3.120122e+01	-8.267121e+01
7.300000e-07	-4.462196e-06	-1.231948e-09	-3.100826e+01	-8.246769e+01
7.400000e-07	-4.434277e-06	-1.246103e-09	-3.081424e+01	-8.226400e+01
7.500000e-07	-4.406078e-06	-1.255097e-09	-3.061829e+01	-8.205999e+01
7.600000e-07	-4.377498e-06	-1.234368e-09	-3.041968e+01	-8.185545e+01
7.700000e-07	-4.348591e-06	-1.229217e-09	-3.021880e+01	-8.165013e+01
7.800000e-07	-4.319406e-06	-1.236713e-09	-3.001600e+01	-8.144375e+01
7.900000e-07	-4.289930e-06	-1.215607e-09	-2.981117e+01	-8.123598e+01
8.000000e-07	-4.260158e-06	-1.212653e-09	-2.960428e+01	-8.102648e+01
8.100000e-07	-4.230091e-06	-1.220973e-09	-2.939534e+01	-8.081486e+01
8.200000e-07	-4.199787e-06	-1.208265e-09	-2.918475e+01	-8.060074e+01
8.300000e-07	-4.169134e-06	-1.196043e-09	-2.897174e+01	-8.038372e+01
8.400000e-07	-4.138104e-06	-1.215677e-09	-2.875611e+01	-8.016340e+01
8.500000e-07	-4.106852e-06	-1.217753e-09	-2.853893e+01	-7.993941e+01
8.600000e-07	-4.075447e-06	-1.203079e-09	-2.832070e+01	-7.971136e+01
8.700000e-07	-4.043931e-06	-1.202044e-09	-2.810169e+01	-7.947894e+01
8.800000e-07	-4.012195e-06	-1.198056e-09	-2.788116e+01	-7.924184e+01
8.900000e-07	-3.980200e-06	-1.172956e-09	-2.765882e+01	-7.899979e+01
9.000000e-07	-3.947974e-06	-1.169048e-09	-2.743488e+01	-7.875261e+01
9.100000e-07	-3.915385e-06	-1.177371e-09	-2.720841e+01	-7.850013e+01
9.200000e-07	-3.882350e-06	-1.164571e-09	-2.697885e+01	-7.824228e+01
9.300000e-07	-3.848927e-06	-1.155989e-09	-2.674659e+01	-7.797902e+01
9.400000e-07	-3.815144e-06	-1.167618e-09	-2.651183e+01	-7.771041e+01
9.500000e-07	-3.780862e-06	-1.162935e-09	-2.627360e+01	-7.743656e+01
9.600000e-07	-3.746031e-06	-1.142142e-09	-2.603156e+01	-7.715764e+01
9.700000e-07	-3.710922e-06	-1.138883e-09	-2.578758e+01	-7.687389e+01
9.800000e-07	-3.675669e-06	-1.135813e-09	-2.554260e+01	-7.658561e+01
9.900000e-07	-3.640220e-06	-1.122129e-09	-2.529626e+01	-7.629315e+01
1.000000e-06	-3.604607e-06	-1.120113e-09	-2.504879e+01	-7.599691e+01
1.010000e-06	-3.568846e-06	-1.124407e-09	-2.480028e+01	-7.569730e+01
1.020000e-06	-3.532935e-06	-1.113786e-09	-2.455073e+01	-7.539480e+01
1.030000e-06	-3.496813e-06	-1.106179e-09	-2.429972e+01	-7.508987e+01
1.040000e-06	-3.460469e-06	-1.109156e-09	-2.404716e+01	-7.478300e+01
1.050000e-06	-3.423851e-06	-1.105324e-09	-2.379269e+01	-7.447465e+01
1.060000e-06	-3.386878e-06	-1.092190e-09	-2.353576e+01	-7.416528e+01
1.070000e-06	-3.349654e-06	-1.089680e-09	-2.327709e+01	-7.385531e+01
1.080000e-06	-3.312198e-06	-1.084043e-09	-2.301680e+01	-7.354513e+01
1.090000e-06	-3.274437e-06	-1.074524e-09	-2.275440e+01	-7.323506e+01
1.100000e-06	-3.236437e-06	-1.067272e-09	-2.249033e+01	-7.292537e+01
1.110000e-06	-3.198290e-06	-1.063071e-09	-2.222524e+01	-7.261626e+01
1.120000e-06	-3.159996e-06	-1.049956e-09	-2.195914e+01	-7.230785e+01
1.130000e-06	-3.121476e-06	-1.039818e-09	-2.169145e+01	-7.200016e+01
1.140000e-06	-3.082743e-06	-1.039638e-09	-2.142230e+01	-7.169313e+01
1.150000e-06	-3.043875e-06	-1.042146e-09	-2.115220e+01	-7.138663e+01
1.160000e-06	-3.004821e-06	-1.039457e-09	-2.088081e+01	-7.108040e+01
1.170000e-06	-2.965548e-06	-1.036724e-09	-2.060790e+01	-7.077412e+01
1.180000e-06	-2.926128e-06	-1.030467e-09	-2.033397e+01	-7.046735e+01
1.190000e-06	-2.886594e-06	-1.019604e-09	-2.005924e+01	-7.015958e+01
1.200000e-06	-2.846902e-06	-1.007757e-09	-1.978341e+01	-6.985022e+01
1.210000e-06	-2.807035e-06	-1.000411e-09	-1.950638e+01	-6.953862e+01
1.220000e-06	-2.766972e-06	-9.941276e-10	-1.922797e+01	-6.922406e+01
1.230000e-06	-2.726706e-06	-9.904424e-10	-1.894816e+01	-6.890575e+01
1.240000e-06	-2.686172e-06	-9.890441e-10	-1.866648e+01	-6.858289e+01
1.250000e-06	-2.645415e-06	-9.857872e-10	-1.838326e+01	-6.825464e+01
1.260000e-06	-2.604508e-06	-9.809352e-10	-1.809899e+01	-6.792015e+01
1.270000e-06	-2.563393e-06	-9.725921e-10	-1.781328e+01	-6.757857e+01
1.280000e-06	-2.521968e-06	-9.639555e-10	-1.752542e+01	-6.722907e+01
1.290000e-06	-2.480137e-06	-9.539963e-10	-1.723473e+01	-6.687083e+01
1.300000e-06	-2.438003e-06	-9.438294e-10	-1.694193e+01	-6.650310e+01
1.310000e-06	-2.395675e-06	-9.349334e-10	-1.664779e+01	-6.612516e+01
1.320000e-06	-2.353008e-06	-9.295837e-10	-1.635130e+01	-6.573636e+01
1.330000e-06	-2.310051e-06	-9.244504e-10	-1.605279e+01	-6.533613e+01
1.340000e-06	-2.266958e-06	-9.200244e-10	-1.575333e+01	-6.492397e+01
1.350000e-06	-2.223690e-06	-9.177185e-10	-1.545265e+01	-6.449947e+01
1.360000e-06	-2.180255e-06	-9.146961e-10	-1.515082e+01	-6.406233e+01
1.370000e-06	-2.136738e-06	-9.066862e-10	-1.484841e+01	-6.361233e+01
1.380000e-06	-2.093139e-06	-8.952728e-10	-1.454544e+01	-6.314934e+01
1.390000e-06	-2.049410e-06	-8.796063e-10	-1.424156e+01	-6.267335e+01
1.400000e-06	-2.005618e-06	-8.662504e-10	-1.393724e+01	-6.218441e+01
1.410000e-06	-1.961787e-06	-8.562088e-10	-1.363266e+01	-6.168269e+01
1.420000e-06	-1.917853e-06	-8.493381e-10	-1.332736e+01	-6.116840e+01
1.430000e-06	-1.873780e-06	-8.446117e-10	-1.302109e+01	-6.064186e+01
1.440000e-06	-1.829644e-06	-8.414042e-10	-1.271438e+01	-6.010342e+01
1.450000e-06	-1.785470e-06	-8.367963e-10	-1.240741e+01	-5.955348e+01
1.460000e-06	-1.741182e-06	-8.291421e-10	-1.209965e+01	-5.899248e+01
1.470000e-06	-1.696665e-06	-8.179500e-10	-1.179030e+01	-5.842088e+01
1.480000e-06	-1.651899e-06	-8.070307e-10	-1.147922e+01	-5.783913e+01
1.490000e-06	-1.607028e-06	-7.953677e-10	-1.116740e+01	-5.724767e+01
1.500000e-06	-1.562066e-06	-7.813202e-10	-1.085496e+01	-5.664694e+01
1.510000e-06	-1.516936e-06	-7.683056e-10	-1.054134e+01	-5.603729e+01
1.520000e-06	-1.471689e-06	-7.594844e-10	-1.022692e+01	-5.541904e+01
1.530000e-06	-1.426332e-06	-7.516886e-10	-9.911728e+00	-5.479244e+01
1.540000e-06	-1.380902e-06	-7.418012e-10	-9.596030e+00	-5.415763e+01
1.550000e-06	-1.335517e-06	-7.303397e-10	-9.280646e+00	-5.351466e+01
1.560000e-06	-1.290112e-06	-7.180817e-10	-8.965120e+00	-5.286349e+01
1.570000e-06	-1.244491e-06	-7.045158e-10	-8.648096e+00	-5.220393e+01
1.580000e-06	-1.198673e-06	-6.928043e-10	-8.329700e+00	-5.153568e+01
1.590000e-06	-1.152811e-06	-6.806956e-10	-8.011004e+00	-5.085830e+01
1.600000e-06	-1.106941e-06	-6.662937e-10	-7.692248e+00	-5.017123e+01
1.610000e-06	-1.061017e-06	-6.531987e-10	-7.373113e+00	-4.947375e+01
1.620000e-06	-1.015002e-06	-6.422196e-10	-7.053352e+00	-4.876502e+01
1.630000e-06	-9.689119e-07	-6.334727e-10	-6.733069e+00	-4.804406e+01
1.640000e-06	-9.227358e-07	-6.244847e-10	-6.412186e+00	-4.730978e+01
1.650000e-06	-8.764591e-07	-6.168352e-10	-6.090605e+00	-4.656094e+01
1.660000e-06	-8.300632e-07	-6.088449e-10	-5.768194e+00	-4.579620e+01
1.670000e-06	-7.835990e-07	-5.975512e-10	-5.445310e+00	-4.501414e+01
1.680000e-06	-7.372055e-07	-5.822423e-10	-5.122917e+00	-4.421322e+01
1.690000e-06	-6.907754e-07	-5.658887e-10	-4.800269e+00	-4.339185e+01
1.700000e-06	-6.442328e-07	-5.476899e-10	-4.476840e+00	-4.254837e+01
1.710000e-06	-5.976854e-07	-5.284440e-10	-4.153377e+00	-4.168108e+01
1.720000e-06	-5.510925e-07	-5.100864e-10	-3.829598e+00	-4.078825e+01
1.730000e-06	-5.044413e-07	-4.953590e-10	-3.505414e+00	-3.986816e+01
1.740000e-06	-4.577669e-07	-4.846710e-10	-3.181069e+00	-3.891908e+01
1.750000e-06	-4.110054e-07	-4.732992e-10	-2.856119e+00	-3.793933e+01
1.760000e-06	-3.641698e-07	-4.584588e-10	-2.530654e+00	-3.692726e+01
1.770000e-06	-3.173585e-07	-4.413782e-10	-2.205357e+00	-3.588131e+01
1.780000e-06	-2.705990e-07	-4.242675e-10	-1.880420e+00	-3.479997e+01
1.790000e-06	-2.238494e-07	-4.081393e-10	-1.555552e+00	-3.368186e+01
1.800000e-06	-1.770141e-07	-3.905621e-10	-1.230089e+00	-3.252570e+01
1.810000e-06	-1.300867e-07	-3.723293e-10	-9.039861e-01	-3.133037e+01
1.820000e-06	-8.321076e-08	-3.549732e-10	-5.782401e-01	-3.009486e+01
1.830000e-06	-3.638382e-08	-3.371607e-10	-2.528349e-01	-2.881834e+01
1.840000e-06	1.041262e-08	-3.206002e-10	7.235837e-02	-2.750015e+01
1.850000e-06	5.720097e-08	-3.066413e-10	3.974954e-01	-2.613980e+01
1.860000e-06	1.040157e-07	-2.929096e-10	7.228157e-01	-2.473702e+01
1.870000e-06	1.508354e-07	-2.751848e-10	1.048171e+00	-2.329169e+01
1.880000e-06	1.977165e-07	-2.518358e-10	1.373952e+00	-2.180393e+01
1.890000e-06	2.445271e-07	-2.258653e-10	1.699244e+00	-2.027404e+01
1.900000e-06	2.912824e-07	-1.999884e-10	2.024151e+00	-1.870255e+01
1.910000e-06	3.380910e-07	-1.769025e-10	2.349429e+00	-1.709018e+01
1.920000e-06	3.848848e-07	-1.557696e-10	2.674604e+00	-1.543785e+01
1.930000e-06	4.316600e-07	-1.358422e-10	2.999650e+00	-1.374671e+01
1.940000e-06	4.783931e-07	-1.149845e-10	3.324403e+00	-1.201808e+01
1.950000e-06	5.250711e-07	-9.357634e-11	3.648773e+00	-1.025350e+01
1.960000e-06	5.717260e-07	-6.902316e-11	3.972983e+00	-8.454671e+00
1.970000e-06	6.182989e-07	-4.237209e-11	4.296623e+00	-6.623495e+00
1.980000e-06	6.647824e-07	-1.605417e-11	4.619641e+00	-4.762029e+00
1.990000e-06	7.112461e-07	1.150247e-11	4.942522e+00	-2.872491e+00
2.000000e-06	7.576572e-07	3.631367e-11	5.265038e+00	-9.572445e-01
2.010000e-06	8.040475e-07	6.175412e-11	5.587409e+00	9.812140e-01
2.020000e-06	8.503245e-07	8.950596e-11	5.908993e+00	2.940268e+00
2.030000e-06	8.964087e-07	1.200908e-10	6.229236e+00	4.917197e+00
2.040000e-06	9.424218e-07	1.491733e-10	6.548986e+00	6.909189e+00
2.050000e-06	9.884731e-07	1.747810e-10	6.869001e+00	8.913362e+00
2.060000e-06	1.034520e-06	1.987817e-10	7.188986e+00	1.092677e+01
2.070000e-06	1.080482e-06	2.220060e-10	7.508380e+00	1.294644e+01
2.080000e-06	1.126314e-06	2.467585e-10	7.826869e+00	1.496935e+01
2.090000e-06	1.171992e-06	2.761705e-10	8.144296e+00	1.699250e+01
2.100000e-06	1.217589e-06	3.104697e-10	8.461149e+00	1.901288e+01
2.110000e-06	1.263159e-06	3.459193e-10	8.777823e+00	2.102752e+01
2.120000e-06	1.308695e-06	3.778178e-10	9.094254e+00	2.303348e+01
2.130000e-06	1.354095e-06	4.056560e-10	9.409747e+00	2.502789e+01
2.140000e-06	1.399351e-06	4.296668e-10	9.724231e+00	2.700796e+01
2.150000e-06	1.444606e-06	4.503543e-10	1.003872e+01	2.897099e+01
2.160000e-06	1.489849e-06	4.713257e-10	1.035311e+01	3.091436e+01
2.170000e-06	1.534920e-06	4.947399e-10	1.066632e+01	3.283562e+01
2.180000e-06	1.579894e-06	5.226257e-10	1.097885e+01	3.473240e+01
2.190000e-06	1.624816e-06	5.523744e-10	1.129101e+01	3.660252e+01
2.200000e-06	1.669615e-06	5.834033e-10	1.160233e+01	3.844391e+01
2.210000e-06	1.714246e-06	6.128600e-10	1.191247e+01	4.025470e+01
2.220000e-06	1.758695e-06	6.388311e-10	1.222135e+01	4.203318e+01
2.230000e-06	1.802973e-06	6.613066e-10	1.252904e+01	4.377781e+01
2.240000e-06	1.847081e-06	6.799126e-10	1.283555e+01	4.548722e+01
2.250000e-06	1.891068e-06	6.962679e-10	1.314122e+01	4.716026e+01
2.260000e-06	1.934941e-06	7.133256e-10	1.344610e+01	4.879593e+01
2.270000e-06	1.978693e-06	7.338828e-10	1.375014e+01	5.039343e+01
2.280000e-06	2.022395e-06	7.581092e-10	1.405383e+01	5.195216e+01
2.290000e-06	2.066028e-06	7.843908e-10	1.435704e+01	5.347166e+01
2.300000e-06	2.109580e-06	8.104743e-10	1.465969e+01	5.495168e+01
2.310000e-06	2.153125e-06	8.327414e-10	1.496228e+01	5.639212e+01
2.320000e-06	2.196663e-06	8.507986e-10	1.526484e+01	5.779304e+01
2.330000e-06	2.240140e-06	8.656468e-10	1.556696e+01	5.915466e+01
2.340000e-06	2.283473e-06	8.799272e-10	1.586809e+01	6.047734e+01
2.350000e-06	2.326625e-06	8.948922e-10	1.616795e+01	6.176155e+01
2.360000e-06	2.369485e-06	9.098846e-10	1.646580e+01	6.300790e+01
2.370000e-06	2.412022e-06	9.276932e-10	1.676139e+01	6.421709e+01
2.380000e-06	2.454381e-06	9.474564e-10	1.705574e+01	6.538990e+01
2.390000e-06	2.496479e-06	9.654716e-10	1.734829e+01	6.652721e+01
2.400000e-06	2.538144e-06	9.815404e-10	1.763783e+01	6.762995e+01
2.410000e-06	2.579387e-06	9.965557e-10	1.792442e+01	6.869909e+01
2.420000e-06	2.620401e-06	1.010055e-09	1.820944e+01	6.973564e+01
2.430000e-06	2.661214e-06	1.022823e-09	1.849305e+01	7.074064e+01
2.440000e-06	2.701680e-06	1.036047e-09	1.877425e+01	7.171513e+01
2.450000e-06	2.741852e-06	1.050248e-09	1.905341e+01	7.266015e+01
2.460000e-06	2.781854e-06	1.063999e-09	1.933139e+01	7.357672e+01
2.470000e-06	2.821761e-06	1.075562e-09	1.960871e+01	7.446584e+01
2.480000e-06	2.861514e-06	1.086446e-09	1.988496e+01	7.532849e+01
2.490000e-06	2.901142e-06	1.097603e-09	2.016034e+01	7.616558e+01
2.500000e-06	2.940681e-06	1.110087e-09	2.043509e+01	7.697801e+01
2.510000e-06	2.980056e-06	1.124814e-09	2.070872e+01	7.776659e+01
2.520000e-06	3.019253e-06	1.137521e-09	2.098110e+01	7.853211e+01
2.530000e-06	3.058283e-06	1.150196e-09	2.125232e+01	7.927528e+01
2.540000e-06	3.097086e-06	1.161001e-09	2.152197e+01	7.999676e+01
2.550000e-06	3.135612e-06	1.167604e-09	2.178969e+01	8.069715e+01
2.560000e-06	3.173848e-06	1.171299e-09	2.205540e+01	8.137700e+01
2.570000e-06	3.211829e-06	1.175834e-09	2.231933e+01	8.203678e+01
2.580000e-06	3.249764e-06	1.183696e-09	2.258295e+01	8.267696e+01
2.590000e-06	3.287524e-06	1.192984e-09	2.284534e+01	8.329790e+01
2.600000e-06	3.324942e-06	1.205674e-09	2.310536e+01	8.389996e+01
2.610000e-06	3.362152e-06	1.221334e-09	2.336394e+01	8.448345e+01
2.620000e-06	3.399207e-06	1.236409e-09	2.362144e+01	8.504864e+01
2.630000e-06	3.436047e-06	1.245966e-09	2.387744e+01	8.559580e+01
2.640000e-06	3.472619e-06	1.249480e-09	2.413159e+01	8.612515e+01
2.650000e-06	3.508856e-06	1.251099e-09	2.438340e+01	8.663692e+01
2.660000e-06	3.544780e-06	1.252173e-09	2.463304e+01	8.713130e+01
2.670000e-06	3.580520e-06	1.254206e-09	2.488140e+01	8.760852e+01
2.680000e-06	3.616167e-06	1.259896e-09	2.512911e+01	8.806877e+01
2.690000e-06	3.651778e-06	1.269419e-09	2.537658e+01	8.851227e+01
2.700000e-06	3.687231e-06	1.279918e-09	2.562295e+01	8.893925e+01
2.710000e-06	3.722506e-06	1.287971e-09	2.586808e+01	8.934995e+01
2.720000e-06	3.757633e-06	1.294037e-09	2.611218e+01	8.974461e+01
2.730000e-06	3.792473e-06	1.298789e-09	2.635429e+01	9.012351e+01
2.740000e-06	3.826841e-06	1.302337e-09	2.659311e+01	9.048694e+01
2.750000e-06	3.860669e-06	1.304828e-09	2.682818e+01	9.083521e+01
2.760000e-06	3.893947e-06	1.307349e-09	2.705944e+01	9.116864e+01
2.770000e-06	3.926629e-06	1.308917e-09	2.728655e+01	9.148758e+01
2.780000e-06	3.958897e-06	1.310769e-09	2.751078e+01	9.179238e+01
2.790000e-06	3.990915e-06	1.314331e-09	2.773328e+01	9.208343e+01
2.800000e-06	4.022737e-06	1.321503e-09	2.795442e+01	9.236110e+01
2.810000e-06	4.054419e-06	1.329665e-09	2.817457e+01	9.262580e+01
2.820000e-06	4.085915e-06	1.337380e-09	2.839344e+01	9.287793e+01
2.830000e-06	4.117253e-06	1.343312e-09	2.861121e+01	9.311790e+01
2.840000e-06	4.148334e-06	1.343621e-09	2.882720e+01	9.334612e+01
2.850000e-06	4.179096e-06	1.341864e-09	2.904096e+01	9.356301e+01
2.860000e-06	4.209579e-06	1.341744e-09	2.925279e+01	9.376896e+01
2.870000e-06	4.239731e-06	1.342771e-09	2.946233e+01	9.396438e+01
2.880000e-06	4.269565e-06	1.344068e-09	2.966965e+01	9.414967e+01
2.890000e-06	4.299141e-06	1.347634e-09	2.987517e+01	9.432522e+01
2.900000e-06	4.328509e-06	1.355160e-09	3.007926e+01	9.449140e+01
