# Temperatura_=_-5.87
# Concentracion g/m^3_=_1620.0
# C_Vs_to_Am_M_A/Vsm_=_65563218390.804596
# pendiente_HvsI_1/m_=_3716.3
# ordenada_HvsI_A/m_=_1297.0
# frecuencia_Hz_=_135111.44564527992

Tiempo_(s)	Campo_(V.s)	Magnetizacion_(V.s)	Campo_(kA/m)	Magnetizacion_(A/m)
0.000000e+00	-5.523321e-06	-1.408624e-09	-3.836569e+01	-9.220023e+01
1.000000e-08	-5.523575e-06	-1.408034e-09	-3.836745e+01	-9.213683e+01
2.000000e-08	-5.523600e-06	-1.407759e-09	-3.836763e+01	-9.207687e+01
3.000000e-08	-5.523199e-06	-1.404242e-09	-3.836484e+01	-9.202015e+01
4.000000e-08	-5.522238e-06	-1.398905e-09	-3.835817e+01	-9.196634e+01
5.000000e-08	-5.520642e-06	-1.390060e-09	-3.834708e+01	-9.191501e+01
6.000000e-08	-5.518400e-06	-1.379779e-09	-3.833151e+01	-9.186563e+01
7.000000e-08	-5.515558e-06	-1.369992e-09	-3.831177e+01	-9.181755e+01
8.000000e-08	-5.512237e-06	-1.364858e-09	-3.828870e+01	-9.177004e+01
9.000000e-08	-5.508578e-06	-1.414529e-09	-3.826328e+01	-9.172229e+01
1.000000e-07	-5.504498e-06	-1.511781e-09	-3.823494e+01	-9.167345e+01
1.100000e-07	-5.499970e-06	-1.456393e-09	-3.820349e+01	-9.162260e+01
1.200000e-07	-5.495259e-06	-1.304606e-09	-3.817077e+01	-9.156881e+01
1.300000e-07	-5.490424e-06	-1.273210e-09	-3.813718e+01	-9.151113e+01
1.400000e-07	-5.485210e-06	-1.403745e-09	-3.810097e+01	-9.144863e+01
1.500000e-07	-5.479522e-06	-1.461893e-09	-3.806146e+01	-9.138043e+01
1.600000e-07	-5.473458e-06	-1.334615e-09	-3.801934e+01	-9.130566e+01
1.700000e-07	-5.467092e-06	-1.306894e-09	-3.797511e+01	-9.122356e+01
1.800000e-07	-5.460273e-06	-1.426916e-09	-3.792775e+01	-9.113343e+01
1.900000e-07	-5.452979e-06	-1.473224e-09	-3.787708e+01	-9.103469e+01
2.000000e-07	-5.445493e-06	-1.355870e-09	-3.782508e+01	-9.092687e+01
2.100000e-07	-5.437769e-06	-1.309573e-09	-3.777144e+01	-9.080963e+01
2.200000e-07	-5.429630e-06	-1.403382e-09	-3.771490e+01	-9.068276e+01
2.300000e-07	-5.421196e-06	-1.461815e-09	-3.765632e+01	-9.054621e+01
2.400000e-07	-5.412453e-06	-1.395654e-09	-3.759559e+01	-9.040006e+01
2.500000e-07	-5.403045e-06	-1.349701e-09	-3.753024e+01	-9.024455e+01
2.600000e-07	-5.392728e-06	-1.374232e-09	-3.745857e+01	-9.008006e+01
2.700000e-07	-5.381778e-06	-1.383743e-09	-3.738251e+01	-8.990712e+01
2.800000e-07	-5.370499e-06	-1.348164e-09	-3.730417e+01	-8.972639e+01
2.900000e-07	-5.358859e-06	-1.341928e-09	-3.722332e+01	-8.953864e+01
3.000000e-07	-5.346859e-06	-1.378260e-09	-3.713996e+01	-8.934476e+01
3.100000e-07	-5.334505e-06	-1.382442e-09	-3.705415e+01	-8.914574e+01
3.200000e-07	-5.321651e-06	-1.341051e-09	-3.696486e+01	-8.894262e+01
3.300000e-07	-5.308332e-06	-1.314186e-09	-3.687235e+01	-8.873652e+01
3.400000e-07	-5.294739e-06	-1.345704e-09	-3.677793e+01	-8.852859e+01
3.500000e-07	-5.280840e-06	-1.358223e-09	-3.668139e+01	-8.831997e+01
3.600000e-07	-5.266401e-06	-1.319521e-09	-3.658109e+01	-8.811183e+01
3.700000e-07	-5.251390e-06	-1.326394e-09	-3.647682e+01	-8.790527e+01
3.800000e-07	-5.236093e-06	-1.382636e-09	-3.637057e+01	-8.770138e+01
3.900000e-07	-5.220272e-06	-1.344555e-09	-3.626067e+01	-8.750114e+01
4.000000e-07	-5.203743e-06	-1.286363e-09	-3.614586e+01	-8.730546e+01
4.100000e-07	-5.186930e-06	-1.343669e-09	-3.602908e+01	-8.711514e+01
4.200000e-07	-5.169927e-06	-1.378070e-09	-3.591097e+01	-8.693085e+01
4.300000e-07	-5.152490e-06	-1.284917e-09	-3.578985e+01	-8.675314e+01
4.400000e-07	-5.134726e-06	-1.299793e-09	-3.566646e+01	-8.658241e+01
4.500000e-07	-5.116751e-06	-1.403330e-09	-3.554160e+01	-8.641889e+01
4.600000e-07	-5.098304e-06	-1.345703e-09	-3.541347e+01	-8.626267e+01
4.700000e-07	-5.079292e-06	-1.259560e-09	-3.528141e+01	-8.611369e+01
4.800000e-07	-5.059976e-06	-1.346867e-09	-3.514724e+01	-8.597172e+01
4.900000e-07	-5.040505e-06	-1.363438e-09	-3.501199e+01	-8.583640e+01
5.000000e-07	-5.020788e-06	-1.259712e-09	-3.487503e+01	-8.570721e+01
5.100000e-07	-5.000792e-06	-1.292464e-09	-3.473613e+01	-8.558350e+01
5.200000e-07	-4.980472e-06	-1.361547e-09	-3.459499e+01	-8.546452e+01
5.300000e-07	-4.959747e-06	-1.284569e-09	-3.445103e+01	-8.534941e+01
5.400000e-07	-4.938642e-06	-1.281019e-09	-3.430443e+01	-8.523722e+01
5.500000e-07	-4.917320e-06	-1.374796e-09	-3.415633e+01	-8.512694e+01
5.600000e-07	-4.895662e-06	-1.319133e-09	-3.400589e+01	-8.501751e+01
5.700000e-07	-4.873583e-06	-1.244089e-09	-3.385253e+01	-8.490785e+01
5.800000e-07	-4.851116e-06	-1.318442e-09	-3.369647e+01	-8.479688e+01
5.900000e-07	-4.828180e-06	-1.330246e-09	-3.353716e+01	-8.468351e+01
6.000000e-07	-4.804949e-06	-1.253808e-09	-3.337578e+01	-8.456672e+01
6.100000e-07	-4.781571e-06	-1.284597e-09	-3.321340e+01	-8.444551e+01
6.200000e-07	-4.757998e-06	-1.321431e-09	-3.304966e+01	-8.431898e+01
6.300000e-07	-4.734215e-06	-1.263951e-09	-3.288446e+01	-8.418628e+01
6.400000e-07	-4.710218e-06	-1.255762e-09	-3.271778e+01	-8.404669e+01
6.500000e-07	-4.685826e-06	-1.295062e-09	-3.254835e+01	-8.389959e+01
6.600000e-07	-4.660861e-06	-1.263213e-09	-3.237493e+01	-8.374446e+01
6.700000e-07	-4.635380e-06	-1.240565e-09	-3.219794e+01	-8.358093e+01
6.800000e-07	-4.609408e-06	-1.266007e-09	-3.201753e+01	-8.340874e+01
6.900000e-07	-4.582781e-06	-1.254606e-09	-3.183258e+01	-8.322774e+01
7.000000e-07	-4.555646e-06	-1.229433e-09	-3.164409e+01	-8.303794e+01
7.100000e-07	-4.528299e-06	-1.246546e-09	-3.145414e+01	-8.283945e+01
7.200000e-07	-4.500773e-06	-1.250777e-09	-3.126294e+01	-8.263247e+01
7.300000e-07	-4.473062e-06	-1.236163e-09	-3.107046e+01	-8.241734e+01
7.400000e-07	-4.445232e-06	-1.238196e-09	-3.087715e+01	-8.219447e+01
7.500000e-07	-4.417153e-06	-1.236314e-09	-3.068211e+01	-8.196434e+01
7.600000e-07	-4.388705e-06	-1.217742e-09	-3.048451e+01	-8.172750e+01
7.700000e-07	-4.360011e-06	-1.214405e-09	-3.028519e+01	-8.148456e+01
7.800000e-07	-4.331013e-06	-1.213486e-09	-3.008377e+01	-8.123614e+01
7.900000e-07	-4.301644e-06	-1.204385e-09	-2.987977e+01	-8.098290e+01
8.000000e-07	-4.272065e-06	-1.206440e-09	-2.967430e+01	-8.072548e+01
8.100000e-07	-4.242273e-06	-1.210456e-09	-2.946737e+01	-8.046451e+01
8.200000e-07	-4.212155e-06	-1.193415e-09	-2.925816e+01	-8.020062e+01
8.300000e-07	-4.181661e-06	-1.183078e-09	-2.904635e+01	-7.993436e+01
8.400000e-07	-4.150824e-06	-1.190156e-09	-2.883215e+01	-7.966626e+01
8.500000e-07	-4.119694e-06	-1.188169e-09	-2.861592e+01	-7.939678e+01
8.600000e-07	-4.088349e-06	-1.181013e-09	-2.839819e+01	-7.912631e+01
8.700000e-07	-4.056873e-06	-1.184236e-09	-2.817955e+01	-7.885516e+01
8.800000e-07	-4.025248e-06	-1.181351e-09	-2.795988e+01	-7.858360e+01
8.900000e-07	-3.993421e-06	-1.166453e-09	-2.773881e+01	-7.831177e+01
9.000000e-07	-3.961344e-06	-1.165168e-09	-2.751600e+01	-7.803979e+01
9.100000e-07	-3.928965e-06	-1.167107e-09	-2.729109e+01	-7.776767e+01
9.200000e-07	-3.896222e-06	-1.157713e-09	-2.706366e+01	-7.749536e+01
9.300000e-07	-3.863074e-06	-1.156762e-09	-2.683340e+01	-7.722277e+01
9.400000e-07	-3.829390e-06	-1.164987e-09	-2.659943e+01	-7.694973e+01
9.500000e-07	-3.795106e-06	-1.156742e-09	-2.636129e+01	-7.667605e+01
9.600000e-07	-3.760429e-06	-1.142350e-09	-2.612042e+01	-7.640149e+01
9.700000e-07	-3.725453e-06	-1.138376e-09	-2.587747e+01	-7.612580e+01
9.800000e-07	-3.690182e-06	-1.134752e-09	-2.563247e+01	-7.584872e+01
9.900000e-07	-3.654715e-06	-1.125994e-09	-2.538611e+01	-7.556998e+01
1.000000e-06	-3.619119e-06	-1.129260e-09	-2.513886e+01	-7.528933e+01
1.010000e-06	-3.583428e-06	-1.133132e-09	-2.489095e+01	-7.500653e+01
1.020000e-06	-3.547589e-06	-1.124919e-09	-2.464200e+01	-7.472139e+01
1.030000e-06	-3.511598e-06	-1.116530e-09	-2.439201e+01	-7.443373e+01
1.040000e-06	-3.475412e-06	-1.114532e-09	-2.414065e+01	-7.414342e+01
1.050000e-06	-3.438851e-06	-1.109032e-09	-2.388670e+01	-7.385039e+01
1.060000e-06	-3.401953e-06	-1.101424e-09	-2.363040e+01	-7.355461e+01
1.070000e-06	-3.364813e-06	-1.097061e-09	-2.337242e+01	-7.325609e+01
1.080000e-06	-3.327416e-06	-1.090386e-09	-2.311266e+01	-7.295491e+01
1.090000e-06	-3.289813e-06	-1.079694e-09	-2.285146e+01	-7.265117e+01
1.100000e-06	-3.251997e-06	-1.073731e-09	-2.258879e+01	-7.234504e+01
1.110000e-06	-3.213930e-06	-1.068411e-09	-2.232437e+01	-7.203670e+01
1.120000e-06	-3.175636e-06	-1.058377e-09	-2.205837e+01	-7.172637e+01
1.130000e-06	-3.137161e-06	-1.049619e-09	-2.179112e+01	-7.141427e+01
1.140000e-06	-3.098510e-06	-1.044980e-09	-2.152265e+01	-7.110065e+01
1.150000e-06	-3.059676e-06	-1.041585e-09	-2.125290e+01	-7.078573e+01
1.160000e-06	-3.020612e-06	-1.037490e-09	-2.098155e+01	-7.046972e+01
1.170000e-06	-2.981289e-06	-1.033694e-09	-2.070842e+01	-7.015282e+01
1.180000e-06	-2.941796e-06	-1.028625e-09	-2.043409e+01	-6.983517e+01
1.190000e-06	-2.902199e-06	-1.022247e-09	-2.015904e+01	-6.951686e+01
1.200000e-06	-2.862516e-06	-1.014097e-09	-1.988340e+01	-6.919793e+01
1.210000e-06	-2.822688e-06	-1.006146e-09	-1.960675e+01	-6.887834e+01
1.220000e-06	-2.782628e-06	-9.981701e-10	-1.932849e+01	-6.855796e+01
1.230000e-06	-2.742388e-06	-9.919045e-10	-1.904898e+01	-6.823661e+01
1.240000e-06	-2.702008e-06	-9.842814e-10	-1.876849e+01	-6.791399e+01
1.250000e-06	-2.661360e-06	-9.773489e-10	-1.848614e+01	-6.758973e+01
1.260000e-06	-2.620399e-06	-9.732944e-10	-1.820162e+01	-6.726336e+01
1.270000e-06	-2.579239e-06	-9.684315e-10	-1.791572e+01	-6.693432e+01
1.280000e-06	-2.537816e-06	-9.597153e-10	-1.762799e+01	-6.660197e+01
1.290000e-06	-2.496160e-06	-9.479487e-10	-1.733864e+01	-6.626560e+01
1.300000e-06	-2.454328e-06	-9.358094e-10	-1.704807e+01	-6.592442e+01
1.310000e-06	-2.412077e-06	-9.262221e-10	-1.675459e+01	-6.557759e+01
1.320000e-06	-2.369358e-06	-9.184293e-10	-1.645786e+01	-6.522423e+01
1.330000e-06	-2.326421e-06	-9.108484e-10	-1.615962e+01	-6.486341e+01
1.340000e-06	-2.283297e-06	-9.048587e-10	-1.586007e+01	-6.449420e+01
1.350000e-06	-2.239940e-06	-9.018724e-10	-1.555891e+01	-6.411566e+01
1.360000e-06	-2.196483e-06	-8.996581e-10	-1.525705e+01	-6.372686e+01
1.370000e-06	-2.152922e-06	-8.949382e-10	-1.495447e+01	-6.332691e+01
1.380000e-06	-2.109252e-06	-8.868345e-10	-1.465113e+01	-6.291494e+01
1.390000e-06	-2.065531e-06	-8.758167e-10	-1.434744e+01	-6.249018e+01
1.400000e-06	-2.021747e-06	-8.628775e-10	-1.404331e+01	-6.205189e+01
1.410000e-06	-1.977908e-06	-8.513585e-10	-1.373880e+01	-6.159943e+01
1.420000e-06	-1.934029e-06	-8.416967e-10	-1.343401e+01	-6.113228e+01
1.430000e-06	-1.890062e-06	-8.336153e-10	-1.312861e+01	-6.064998e+01
1.440000e-06	-1.845972e-06	-8.295545e-10	-1.282235e+01	-6.015221e+01
1.450000e-06	-1.801738e-06	-8.263156e-10	-1.251510e+01	-5.963875e+01
1.460000e-06	-1.757321e-06	-8.198557e-10	-1.220658e+01	-5.910949e+01
1.470000e-06	-1.712778e-06	-8.108787e-10	-1.189717e+01	-5.856444e+01
1.480000e-06	-1.668082e-06	-8.013921e-10	-1.158671e+01	-5.800372e+01
1.490000e-06	-1.623219e-06	-7.920540e-10	-1.127509e+01	-5.742754e+01
1.500000e-06	-1.578312e-06	-7.788661e-10	-1.096316e+01	-5.683619e+01
1.510000e-06	-1.533274e-06	-7.661512e-10	-1.065031e+01	-5.623006e+01
1.520000e-06	-1.488080e-06	-7.595284e-10	-1.033639e+01	-5.560960e+01
1.530000e-06	-1.442795e-06	-7.527430e-10	-1.002184e+01	-5.497529e+01
1.540000e-06	-1.397404e-06	-7.471765e-10	-9.706547e+00	-5.432763e+01
1.550000e-06	-1.351970e-06	-7.385886e-10	-9.390952e+00	-5.366717e+01
1.560000e-06	-1.306496e-06	-7.259745e-10	-9.075084e+00	-5.299441e+01
1.570000e-06	-1.260898e-06	-7.089960e-10	-8.758358e+00	-5.230983e+01
1.580000e-06	-1.215185e-06	-6.943747e-10	-8.440830e+00	-5.161385e+01
1.590000e-06	-1.169446e-06	-6.834107e-10	-8.123117e+00	-5.090683e+01
1.600000e-06	-1.123629e-06	-6.717684e-10	-7.804868e+00	-5.018903e+01
1.610000e-06	-1.077702e-06	-6.604288e-10	-7.485852e+00	-4.946059e+01
1.620000e-06	-1.031711e-06	-6.505605e-10	-7.166392e+00	-4.872153e+01
1.630000e-06	-9.855807e-07	-6.417249e-10	-6.845969e+00	-4.797173e+01
1.640000e-06	-9.393556e-07	-6.345353e-10	-6.524883e+00	-4.721091e+01
1.650000e-06	-8.930939e-07	-6.272977e-10	-6.203544e+00	-4.643862e+01
1.660000e-06	-8.467625e-07	-6.173196e-10	-5.881720e+00	-4.565426e+01
1.670000e-06	-8.004065e-07	-6.066728e-10	-5.559726e+00	-4.485704e+01
1.680000e-06	-7.540005e-07	-5.935573e-10	-5.237383e+00	-4.404600e+01
1.690000e-06	-7.075510e-07	-5.808443e-10	-4.914739e+00	-4.322001e+01
1.700000e-06	-6.610820e-07	-5.664280e-10	-4.591960e+00	-4.237779e+01
1.710000e-06	-6.145679e-07	-5.498405e-10	-4.268867e+00	-4.151789e+01
1.720000e-06	-5.679293e-07	-5.330015e-10	-3.944909e+00	-4.063874e+01
1.730000e-06	-5.211059e-07	-5.181287e-10	-3.619668e+00	-3.973864e+01
1.740000e-06	-4.742198e-07	-5.062714e-10	-3.293991e+00	-3.881578e+01
1.750000e-06	-4.273463e-07	-4.930179e-10	-2.968402e+00	-3.786829e+01
1.760000e-06	-3.805015e-07	-4.756185e-10	-2.643012e+00	-3.689423e+01
1.770000e-06	-3.336754e-07	-4.573056e-10	-2.317752e+00	-3.589163e+01
1.780000e-06	-2.868309e-07	-4.395960e-10	-1.992364e+00	-3.485852e+01
1.790000e-06	-2.399580e-07	-4.246553e-10	-1.666779e+00	-3.379296e+01
1.800000e-06	-1.930456e-07	-4.103038e-10	-1.340919e+00	-3.269306e+01
1.810000e-06	-1.461183e-07	-3.943439e-10	-1.014956e+00	-3.155703e+01
1.820000e-06	-9.922029e-08	-3.762752e-10	-6.891968e-01	-3.038316e+01
1.830000e-06	-5.230677e-08	-3.576865e-10	-3.633294e-01	-2.916990e+01
1.840000e-06	-5.386272e-09	-3.387413e-10	-3.741373e-02	-2.791587e+01
1.850000e-06	4.153232e-08	-3.197945e-10	2.884888e-01	-2.661987e+01
1.860000e-06	8.848770e-08	-3.026234e-10	6.146468e-01	-2.528091e+01
1.870000e-06	1.353270e-07	-2.852617e-10	9.399989e-01	-2.389824e+01
1.880000e-06	1.821124e-07	-2.645906e-10	1.264976e+00	-2.247135e+01
1.890000e-06	2.289328e-07	-2.407260e-10	1.590196e+00	-2.100000e+01
1.900000e-06	2.757417e-07	-2.151345e-10	1.915337e+00	-1.948422e+01
1.910000e-06	3.224712e-07	-1.897918e-10	2.239926e+00	-1.792432e+01
1.920000e-06	3.691468e-07	-1.657813e-10	2.564140e+00	-1.632089e+01
1.930000e-06	4.158549e-07	-1.436335e-10	2.888581e+00	-1.467482e+01
1.940000e-06	4.624984e-07	-1.232634e-10	3.212573e+00	-1.298727e+01
1.950000e-06	5.091216e-07	-1.020481e-10	3.536423e+00	-1.125968e+01
1.960000e-06	5.557575e-07	-7.857135e-11	3.860362e+00	-9.493750e+00
1.970000e-06	6.023395e-07	-5.292452e-11	4.183927e+00	-7.691452e+00
1.980000e-06	6.488510e-07	-2.473153e-11	4.507001e+00	-5.854983e+00
1.990000e-06	6.952590e-07	5.109584e-12	4.829357e+00	-3.986767e+00
2.000000e-06	7.416512e-07	3.416557e-11	5.151604e+00	-2.089430e+00
2.010000e-06	7.880488e-07	6.157136e-11	5.473887e+00	-1.657796e-01
2.020000e-06	8.343557e-07	8.870171e-11	5.795541e+00	1.781222e+00
2.030000e-06	8.805574e-07	1.166400e-10	6.116464e+00	3.748476e+00
2.040000e-06	9.267356e-07	1.436077e-10	6.437223e+00	5.732780e+00
2.050000e-06	9.728963e-07	1.708200e-10	6.757861e+00	7.730847e+00
2.060000e-06	1.018941e-06	1.986694e-10	7.077691e+00	9.739335e+00
2.070000e-06	1.064888e-06	2.271263e-10	7.396846e+00	1.175487e+01
2.080000e-06	1.110749e-06	2.545909e-10	7.715407e+00	1.377408e+01
2.090000e-06	1.156549e-06	2.816937e-10	8.033534e+00	1.579361e+01
2.100000e-06	1.202289e-06	3.088824e-10	8.351254e+00	1.781014e+01
2.110000e-06	1.247989e-06	3.347295e-10	8.668693e+00	1.982042e+01
2.120000e-06	1.293578e-06	3.609074e-10	8.985360e+00	2.182130e+01
2.130000e-06	1.339052e-06	3.879780e-10	9.301224e+00	2.380970e+01
2.140000e-06	1.384450e-06	4.154284e-10	9.616563e+00	2.578271e+01
2.150000e-06	1.429694e-06	4.426437e-10	9.930837e+00	2.773751e+01
2.160000e-06	1.474893e-06	4.679162e-10	1.024480e+01	2.967147e+01
2.170000e-06	1.520019e-06	4.913613e-10	1.055825e+01	3.158208e+01
2.180000e-06	1.565020e-06	5.146953e-10	1.087082e+01	3.346703e+01
2.190000e-06	1.610020e-06	5.392507e-10	1.118340e+01	3.532419e+01
2.200000e-06	1.654943e-06	5.658026e-10	1.149544e+01	3.715158e+01
2.210000e-06	1.699605e-06	5.940261e-10	1.180567e+01	3.894744e+01
2.220000e-06	1.744086e-06	6.220739e-10	1.211465e+01	4.071017e+01
2.230000e-06	1.788445e-06	6.462489e-10	1.242277e+01	4.243838e+01
2.240000e-06	1.832630e-06	6.635052e-10	1.272968e+01	4.413084e+01
2.250000e-06	1.876705e-06	6.765096e-10	1.303583e+01	4.578652e+01
2.260000e-06	1.920694e-06	6.895307e-10	1.334139e+01	4.740455e+01
2.270000e-06	1.964510e-06	7.046079e-10	1.364574e+01	4.898424e+01
2.280000e-06	2.008194e-06	7.234506e-10	1.394917e+01	5.052505e+01
2.290000e-06	2.051850e-06	7.465921e-10	1.425241e+01	5.202663e+01
2.300000e-06	2.095496e-06	7.729473e-10	1.455558e+01	5.348874e+01
2.310000e-06	2.139119e-06	7.968933e-10	1.485859e+01	5.491129e+01
2.320000e-06	2.182672e-06	8.155788e-10	1.516112e+01	5.629432e+01
2.330000e-06	2.226118e-06	8.287199e-10	1.546290e+01	5.763801e+01
2.340000e-06	2.269438e-06	8.382632e-10	1.576380e+01	5.894262e+01
2.350000e-06	2.312585e-06	8.496506e-10	1.606351e+01	6.020854e+01
2.360000e-06	2.355550e-06	8.642755e-10	1.636195e+01	6.143622e+01
2.370000e-06	2.398369e-06	8.824311e-10	1.665938e+01	6.262623e+01
2.380000e-06	2.440946e-06	9.035931e-10	1.695512e+01	6.377919e+01
2.390000e-06	2.483118e-06	9.240661e-10	1.724805e+01	6.489578e+01
2.400000e-06	2.524898e-06	9.406558e-10	1.753826e+01	6.597675e+01
2.410000e-06	2.566313e-06	9.538506e-10	1.782594e+01	6.702291e+01
2.420000e-06	2.607378e-06	9.647321e-10	1.811118e+01	6.803508e+01
2.430000e-06	2.648113e-06	9.767994e-10	1.839413e+01	6.901413e+01
2.440000e-06	2.688559e-06	9.908465e-10	1.867507e+01	6.996096e+01
2.450000e-06	2.728823e-06	1.004389e-09	1.895475e+01	7.087649e+01
2.460000e-06	2.768948e-06	1.018356e-09	1.923347e+01	7.176163e+01
2.470000e-06	2.808926e-06	1.031892e-09	1.951116e+01	7.261734e+01
2.480000e-06	2.848772e-06	1.045743e-09	1.978793e+01	7.344455e+01
2.490000e-06	2.888446e-06	1.058998e-09	2.006351e+01	7.424420e+01
2.500000e-06	2.927940e-06	1.070176e-09	2.033784e+01	7.501723e+01
2.510000e-06	2.967360e-06	1.081925e-09	2.061166e+01	7.576455e+01
2.520000e-06	3.006696e-06	1.091314e-09	2.088489e+01	7.648708e+01
2.530000e-06	3.045849e-06	1.102336e-09	2.115685e+01	7.718572e+01
2.540000e-06	3.084787e-06	1.116715e-09	2.142732e+01	7.786134e+01
2.550000e-06	3.123476e-06	1.129237e-09	2.169606e+01	7.851479e+01
2.560000e-06	3.161896e-06	1.137444e-09	2.196293e+01	7.914691e+01
2.570000e-06	3.200134e-06	1.143274e-09	2.222854e+01	7.975851e+01
2.580000e-06	3.238163e-06	1.148867e-09	2.249270e+01	8.035037e+01
2.590000e-06	3.275973e-06	1.153748e-09	2.275533e+01	8.092325e+01
2.600000e-06	3.313595e-06	1.162214e-09	2.301665e+01	8.147787e+01
2.610000e-06	3.351006e-06	1.174316e-09	2.327652e+01	8.201494e+01
2.620000e-06	3.388181e-06	1.190424e-09	2.353474e+01	8.253512e+01
2.630000e-06	3.425054e-06	1.204465e-09	2.379086e+01	8.303907e+01
2.640000e-06	3.461596e-06	1.213235e-09	2.404469e+01	8.352740e+01
2.650000e-06	3.497927e-06	1.217642e-09	2.429705e+01	8.400070e+01
2.660000e-06	3.534018e-06	1.218998e-09	2.454774e+01	8.445951e+01
2.670000e-06	3.569842e-06	1.220470e-09	2.479657e+01	8.490439e+01
2.680000e-06	3.605565e-06	1.224026e-09	2.504472e+01	8.533581e+01
2.690000e-06	3.641180e-06	1.232947e-09	2.529210e+01	8.575427e+01
2.700000e-06	3.676661e-06	1.243131e-09	2.553855e+01	8.616021e+01
2.710000e-06	3.712013e-06	1.250955e-09	2.578412e+01	8.655405e+01
2.720000e-06	3.747101e-06	1.257004e-09	2.602784e+01	8.693617e+01
2.730000e-06	3.781792e-06	1.261462e-09	2.626881e+01	8.730696e+01
2.740000e-06	3.816092e-06	1.263693e-09	2.650706e+01	8.766674e+01
2.750000e-06	3.849987e-06	1.262708e-09	2.674250e+01	8.801583e+01
2.760000e-06	3.883501e-06	1.262421e-09	2.697529e+01	8.835451e+01
2.770000e-06	3.916590e-06	1.264893e-09	2.720513e+01	8.868304e+01
2.780000e-06	3.949201e-06	1.271381e-09	2.743165e+01	8.900165e+01
2.790000e-06	3.981428e-06	1.280826e-09	2.765551e+01	8.931055e+01
2.800000e-06	4.013389e-06	1.291671e-09	2.787751e+01	8.960990e+01
2.810000e-06	4.045142e-06	1.300145e-09	2.809807e+01	8.989985e+01
2.820000e-06	4.076716e-06	1.303773e-09	2.831739e+01	9.018053e+01
2.830000e-06	4.108171e-06	1.303835e-09	2.853588e+01	9.045203e+01
2.840000e-06	4.139440e-06	1.300353e-09	2.875308e+01	9.071443e+01
2.850000e-06	4.170414e-06	1.298082e-09	2.896823e+01	9.096775e+01
2.860000e-06	4.201071e-06	1.301358e-09	2.918118e+01	9.121203e+01
2.870000e-06	4.231385e-06	1.309758e-09	2.939173e+01	9.144725e+01
2.880000e-06	4.261366e-06	1.317820e-09	2.959999e+01	9.167341e+01
2.890000e-06	4.291151e-06	1.323733e-09	2.980688e+01	9.189045e+01
2.900000e-06	4.320687e-06	1.327039e-09	3.001204e+01	9.209832e+01
