# Temperatura_=_10.6
# Concentracion g/m^3_=_1620.0
# C_Vs_to_Am_M_A/Vsm_=_65563218390.804596
# pendiente_HvsI_1/m_=_3716.3
# ordenada_HvsI_A/m_=_1297.0
# frecuencia_Hz_=_135108.4358676088

Tiempo_(s)	Campo_(V.s)	Magnetizacion_(V.s)	Campo_(kA/m)	Magnetizacion_(A/m)
0.000000e+00	-5.533804e-06	-1.674758e-09	-3.837349e+01	-1.096875e+02
1.000000e-08	-5.533968e-06	-1.672784e-09	-3.837463e+01	-1.095862e+02
2.000000e-08	-5.533810e-06	-1.675694e-09	-3.837353e+01	-1.094838e+02
3.000000e-08	-5.533326e-06	-1.679872e-09	-3.837017e+01	-1.093810e+02
4.000000e-08	-5.532453e-06	-1.679646e-09	-3.836412e+01	-1.092785e+02
5.000000e-08	-5.530982e-06	-1.671760e-09	-3.835392e+01	-1.091769e+02
6.000000e-08	-5.528830e-06	-1.652631e-09	-3.833899e+01	-1.090768e+02
7.000000e-08	-5.526084e-06	-1.650116e-09	-3.831995e+01	-1.089788e+02
8.000000e-08	-5.522822e-06	-1.673958e-09	-3.829734e+01	-1.088832e+02
9.000000e-08	-5.519101e-06	-1.703996e-09	-3.827153e+01	-1.087906e+02
1.000000e-07	-5.514957e-06	-1.704854e-09	-3.824279e+01	-1.087010e+02
1.100000e-07	-5.510448e-06	-1.661484e-09	-3.821153e+01	-1.086148e+02
1.200000e-07	-5.505811e-06	-1.635913e-09	-3.817938e+01	-1.085318e+02
1.300000e-07	-5.500935e-06	-1.644071e-09	-3.814556e+01	-1.084522e+02
1.400000e-07	-5.495518e-06	-1.652445e-09	-3.810800e+01	-1.083757e+02
1.500000e-07	-5.489763e-06	-1.649447e-09	-3.806809e+01	-1.083021e+02
1.600000e-07	-5.483786e-06	-1.633934e-09	-3.802664e+01	-1.082311e+02
1.700000e-07	-5.477394e-06	-1.668746e-09	-3.798232e+01	-1.081622e+02
1.800000e-07	-5.470475e-06	-1.662917e-09	-3.793434e+01	-1.080948e+02
1.900000e-07	-5.463226e-06	-1.670787e-09	-3.788407e+01	-1.080286e+02
2.000000e-07	-5.455769e-06	-1.639752e-09	-3.783236e+01	-1.079627e+02
2.100000e-07	-5.448049e-06	-1.675926e-09	-3.777883e+01	-1.078965e+02
2.200000e-07	-5.440072e-06	-1.685221e-09	-3.772351e+01	-1.078293e+02
2.300000e-07	-5.431783e-06	-1.697058e-09	-3.766603e+01	-1.077603e+02
2.400000e-07	-5.423006e-06	-1.680679e-09	-3.760517e+01	-1.076889e+02
2.500000e-07	-5.413556e-06	-1.678895e-09	-3.753965e+01	-1.076143e+02
2.600000e-07	-5.403327e-06	-1.666145e-09	-3.746871e+01	-1.075358e+02
2.700000e-07	-5.392498e-06	-1.643829e-09	-3.739362e+01	-1.074528e+02
2.800000e-07	-5.381329e-06	-1.640888e-09	-3.731616e+01	-1.073646e+02
2.900000e-07	-5.369752e-06	-1.647652e-09	-3.723589e+01	-1.072706e+02
3.000000e-07	-5.357790e-06	-1.653357e-09	-3.715294e+01	-1.071705e+02
3.100000e-07	-5.345458e-06	-1.626449e-09	-3.706742e+01	-1.070638e+02
3.200000e-07	-5.332557e-06	-1.632484e-09	-3.697796e+01	-1.069502e+02
3.300000e-07	-5.319193e-06	-1.625466e-09	-3.688530e+01	-1.068294e+02
3.400000e-07	-5.305651e-06	-1.636325e-09	-3.679139e+01	-1.067014e+02
3.500000e-07	-5.291836e-06	-1.613604e-09	-3.669559e+01	-1.065660e+02
3.600000e-07	-5.277498e-06	-1.627522e-09	-3.659617e+01	-1.064234e+02
3.700000e-07	-5.262672e-06	-1.623419e-09	-3.649335e+01	-1.062737e+02
3.800000e-07	-5.247399e-06	-1.632509e-09	-3.638745e+01	-1.061170e+02
3.900000e-07	-5.231385e-06	-1.612042e-09	-3.627640e+01	-1.059537e+02
4.000000e-07	-5.214862e-06	-1.612181e-09	-3.616182e+01	-1.057841e+02
4.100000e-07	-5.198120e-06	-1.600894e-09	-3.604572e+01	-1.056086e+02
4.200000e-07	-5.180955e-06	-1.608722e-09	-3.592670e+01	-1.054277e+02
4.300000e-07	-5.163423e-06	-1.609155e-09	-3.580512e+01	-1.052419e+02
4.400000e-07	-5.145640e-06	-1.622645e-09	-3.568181e+01	-1.050516e+02
4.500000e-07	-5.127515e-06	-1.611548e-09	-3.555613e+01	-1.048574e+02
4.600000e-07	-5.108950e-06	-1.605956e-09	-3.542739e+01	-1.046598e+02
4.700000e-07	-5.089945e-06	-1.597622e-09	-3.529560e+01	-1.044592e+02
4.800000e-07	-5.070583e-06	-1.601613e-09	-3.516134e+01	-1.042561e+02
4.900000e-07	-5.051002e-06	-1.590826e-09	-3.502555e+01	-1.040510e+02
5.000000e-07	-5.031279e-06	-1.584613e-09	-3.488879e+01	-1.038443e+02
5.100000e-07	-5.011325e-06	-1.576360e-09	-3.475042e+01	-1.036361e+02
5.200000e-07	-4.991018e-06	-1.575899e-09	-3.460960e+01	-1.034268e+02
5.300000e-07	-4.970332e-06	-1.582169e-09	-3.446616e+01	-1.032166e+02
5.400000e-07	-4.949321e-06	-1.591603e-09	-3.432046e+01	-1.030056e+02
5.500000e-07	-4.927939e-06	-1.582823e-09	-3.417219e+01	-1.027939e+02
5.600000e-07	-4.906103e-06	-1.564634e-09	-3.402077e+01	-1.025813e+02
5.700000e-07	-4.883951e-06	-1.564930e-09	-3.386716e+01	-1.023678e+02
5.800000e-07	-4.861608e-06	-1.565763e-09	-3.371222e+01	-1.021533e+02
5.900000e-07	-4.838909e-06	-1.557110e-09	-3.355482e+01	-1.019375e+02
6.000000e-07	-4.815789e-06	-1.547125e-09	-3.339450e+01	-1.017201e+02
6.100000e-07	-4.792423e-06	-1.548790e-09	-3.323247e+01	-1.015008e+02
6.200000e-07	-4.768801e-06	-1.536152e-09	-3.306867e+01	-1.012792e+02
6.300000e-07	-4.744902e-06	-1.532893e-09	-3.290295e+01	-1.010550e+02
6.400000e-07	-4.720804e-06	-1.533405e-09	-3.273584e+01	-1.008276e+02
6.500000e-07	-4.696341e-06	-1.535818e-09	-3.256620e+01	-1.005968e+02
6.600000e-07	-4.671333e-06	-1.524756e-09	-3.239279e+01	-1.003620e+02
6.700000e-07	-4.645827e-06	-1.522904e-09	-3.221592e+01	-1.001229e+02
6.800000e-07	-4.619773e-06	-1.511340e-09	-3.203525e+01	-9.987915e+01
6.900000e-07	-4.593282e-06	-1.506604e-09	-3.185155e+01	-9.963031e+01
7.000000e-07	-4.566432e-06	-1.498362e-09	-3.166536e+01	-9.937612e+01
7.100000e-07	-4.539160e-06	-1.497946e-09	-3.147625e+01	-9.911631e+01
7.200000e-07	-4.511593e-06	-1.492455e-09	-3.128509e+01	-9.885068e+01
7.300000e-07	-4.483845e-06	-1.497491e-09	-3.109268e+01	-9.857909e+01
7.400000e-07	-4.455926e-06	-1.494703e-09	-3.089907e+01	-9.830145e+01
7.500000e-07	-4.427780e-06	-1.491052e-09	-3.070390e+01	-9.801775e+01
7.600000e-07	-4.399325e-06	-1.482150e-09	-3.050658e+01	-9.772802e+01
7.700000e-07	-4.370508e-06	-1.477392e-09	-3.030675e+01	-9.743238e+01
7.800000e-07	-4.341325e-06	-1.467258e-09	-3.010438e+01	-9.713100e+01
7.900000e-07	-4.311817e-06	-1.460095e-09	-2.989977e+01	-9.682408e+01
8.000000e-07	-4.282102e-06	-1.452736e-09	-2.969372e+01	-9.651191e+01
8.100000e-07	-4.252166e-06	-1.448423e-09	-2.948612e+01	-9.619478e+01
8.200000e-07	-4.221941e-06	-1.444353e-09	-2.927653e+01	-9.587306e+01
8.300000e-07	-4.191406e-06	-1.443212e-09	-2.906479e+01	-9.554711e+01
8.400000e-07	-4.160533e-06	-1.441059e-09	-2.885071e+01	-9.521732e+01
8.500000e-07	-4.129356e-06	-1.438485e-09	-2.863451e+01	-9.488409e+01
8.600000e-07	-4.097944e-06	-1.438203e-09	-2.841669e+01	-9.454783e+01
8.700000e-07	-4.066338e-06	-1.430826e-09	-2.819753e+01	-9.420893e+01
8.800000e-07	-4.034593e-06	-1.420899e-09	-2.797739e+01	-9.386776e+01
8.900000e-07	-4.002642e-06	-1.409870e-09	-2.775583e+01	-9.352467e+01
9.000000e-07	-3.970430e-06	-1.403094e-09	-2.753246e+01	-9.317997e+01
9.100000e-07	-3.937977e-06	-1.393267e-09	-2.730742e+01	-9.283394e+01
9.200000e-07	-3.905161e-06	-1.390026e-09	-2.707986e+01	-9.248682e+01
9.300000e-07	-3.871933e-06	-1.388213e-09	-2.684944e+01	-9.213878e+01
9.400000e-07	-3.838198e-06	-1.386686e-09	-2.661551e+01	-9.178996e+01
9.500000e-07	-3.803919e-06	-1.379170e-09	-2.637781e+01	-9.144043e+01
9.600000e-07	-3.769236e-06	-1.374499e-09	-2.613731e+01	-9.109022e+01
9.700000e-07	-3.734170e-06	-1.363566e-09	-2.589415e+01	-9.073930e+01
9.800000e-07	-3.698829e-06	-1.353113e-09	-2.564908e+01	-9.038758e+01
9.900000e-07	-3.663329e-06	-1.344374e-09	-2.540290e+01	-9.003493e+01
1.000000e-06	-3.627659e-06	-1.343196e-09	-2.515555e+01	-8.968117e+01
1.010000e-06	-3.591846e-06	-1.336264e-09	-2.490721e+01	-8.932609e+01
1.020000e-06	-3.555908e-06	-1.332381e-09	-2.465801e+01	-8.896943e+01
1.030000e-06	-3.519851e-06	-1.328241e-09	-2.440797e+01	-8.861090e+01
1.040000e-06	-3.483572e-06	-1.323904e-09	-2.415640e+01	-8.825019e+01
1.050000e-06	-3.446895e-06	-1.316603e-09	-2.390207e+01	-8.788697e+01
1.060000e-06	-3.409909e-06	-1.310613e-09	-2.364560e+01	-8.752090e+01
1.070000e-06	-3.372693e-06	-1.300310e-09	-2.338753e+01	-8.715163e+01
1.080000e-06	-3.335227e-06	-1.290418e-09	-2.312773e+01	-8.677880e+01
1.090000e-06	-3.297575e-06	-1.282472e-09	-2.286663e+01	-8.640208e+01
1.100000e-06	-3.259722e-06	-1.273116e-09	-2.260415e+01	-8.602111e+01
1.110000e-06	-3.221685e-06	-1.259911e-09	-2.234038e+01	-8.563558e+01
1.120000e-06	-3.183403e-06	-1.247281e-09	-2.207492e+01	-8.524515e+01
1.130000e-06	-3.144782e-06	-1.238343e-09	-2.180711e+01	-8.484953e+01
1.140000e-06	-3.105939e-06	-1.232275e-09	-2.153775e+01	-8.444843e+01
1.150000e-06	-3.066942e-06	-1.230452e-09	-2.126734e+01	-8.404159e+01
1.160000e-06	-3.027722e-06	-1.228622e-09	-2.099537e+01	-8.362874e+01
1.170000e-06	-2.988277e-06	-1.222602e-09	-2.072184e+01	-8.320966e+01
1.180000e-06	-2.948719e-06	-1.210394e-09	-2.044753e+01	-8.278410e+01
1.190000e-06	-2.909068e-06	-1.198819e-09	-2.017257e+01	-8.235185e+01
1.200000e-06	-2.869299e-06	-1.184952e-09	-1.989680e+01	-8.191269e+01
1.210000e-06	-2.829412e-06	-1.173158e-09	-1.962021e+01	-8.146642e+01
1.220000e-06	-2.789431e-06	-1.164679e-09	-1.934297e+01	-8.101281e+01
1.230000e-06	-2.749355e-06	-1.159797e-09	-1.906506e+01	-8.055167e+01
1.240000e-06	-2.709053e-06	-1.151727e-09	-1.878560e+01	-8.008274e+01
1.250000e-06	-2.668434e-06	-1.145311e-09	-1.850393e+01	-7.960582e+01
1.260000e-06	-2.627466e-06	-1.137771e-09	-1.821984e+01	-7.912063e+01
1.270000e-06	-2.586222e-06	-1.127094e-09	-1.793384e+01	-7.862692e+01
1.280000e-06	-2.544661e-06	-1.111415e-09	-1.764564e+01	-7.812441e+01
1.290000e-06	-2.502682e-06	-1.099010e-09	-1.735454e+01	-7.761279e+01
1.300000e-06	-2.460434e-06	-1.088717e-09	-1.706158e+01	-7.709175e+01
1.310000e-06	-2.418054e-06	-1.080445e-09	-1.676770e+01	-7.656096e+01
1.320000e-06	-2.375427e-06	-1.073693e-09	-1.647211e+01	-7.602008e+01
1.330000e-06	-2.332451e-06	-1.069639e-09	-1.617409e+01	-7.546874e+01
1.340000e-06	-2.289189e-06	-1.062856e-09	-1.587410e+01	-7.490659e+01
1.350000e-06	-2.245769e-06	-1.053166e-09	-1.557301e+01	-7.433325e+01
1.360000e-06	-2.202290e-06	-1.042509e-09	-1.527151e+01	-7.374837e+01
1.370000e-06	-2.158693e-06	-1.029389e-09	-1.496919e+01	-7.315159e+01
1.380000e-06	-2.114958e-06	-1.014586e-09	-1.466592e+01	-7.254256e+01
1.390000e-06	-2.071180e-06	-1.002297e-09	-1.436234e+01	-7.192096e+01
1.400000e-06	-2.027346e-06	-9.911229e-10	-1.405838e+01	-7.128649e+01
1.410000e-06	-1.983397e-06	-9.800659e-10	-1.375362e+01	-7.063888e+01
1.420000e-06	-1.939372e-06	-9.705802e-10	-1.344834e+01	-6.997788e+01
1.430000e-06	-1.895297e-06	-9.627765e-10	-1.314270e+01	-6.930330e+01
1.440000e-06	-1.851116e-06	-9.544055e-10	-1.283634e+01	-6.861497e+01
1.450000e-06	-1.806802e-06	-9.430623e-10	-1.252904e+01	-6.791278e+01
1.460000e-06	-1.762340e-06	-9.310599e-10	-1.222073e+01	-6.719664e+01
1.470000e-06	-1.717749e-06	-9.184447e-10	-1.191152e+01	-6.646653e+01
1.480000e-06	-1.672964e-06	-9.059806e-10	-1.160096e+01	-6.572245e+01
1.490000e-06	-1.628003e-06	-8.928395e-10	-1.128919e+01	-6.496445e+01
1.500000e-06	-1.582970e-06	-8.785703e-10	-1.097691e+01	-6.419259e+01
1.510000e-06	-1.537830e-06	-8.642128e-10	-1.066389e+01	-6.340698e+01
1.520000e-06	-1.492546e-06	-8.541641e-10	-1.034988e+01	-6.260772e+01
1.530000e-06	-1.447110e-06	-8.456929e-10	-1.003480e+01	-6.179495e+01
1.540000e-06	-1.401601e-06	-8.371235e-10	-9.719230e+00	-6.096878e+01
1.550000e-06	-1.356066e-06	-8.248361e-10	-9.403476e+00	-6.012932e+01
1.560000e-06	-1.310462e-06	-8.093319e-10	-9.087236e+00	-5.927664e+01
1.570000e-06	-1.264771e-06	-7.916789e-10	-8.770398e+00	-5.841078e+01
1.580000e-06	-1.218982e-06	-7.760726e-10	-8.452884e+00	-5.753173e+01
1.590000e-06	-1.173142e-06	-7.610287e-10	-8.135008e+00	-5.663940e+01
1.600000e-06	-1.127265e-06	-7.446578e-10	-7.816881e+00	-5.573364e+01
1.610000e-06	-1.081313e-06	-7.270788e-10	-7.498234e+00	-5.481420e+01
1.620000e-06	-1.035202e-06	-7.106552e-10	-7.178484e+00	-5.388072e+01
1.630000e-06	-9.890080e-07	-6.968156e-10	-6.858155e+00	-5.293274e+01
1.640000e-06	-9.427739e-07	-6.843503e-10	-6.537550e+00	-5.196969e+01
1.650000e-06	-8.964892e-07	-6.728604e-10	-6.216594e+00	-5.099086e+01
1.660000e-06	-8.501695e-07	-6.628287e-10	-5.895397e+00	-4.999540e+01
1.670000e-06	-8.037514e-07	-6.511745e-10	-5.573516e+00	-4.898237e+01
1.680000e-06	-7.572419e-07	-6.349060e-10	-5.251001e+00	-4.795066e+01
1.690000e-06	-7.106641e-07	-6.157220e-10	-4.928013e+00	-4.689906e+01
1.700000e-06	-6.640176e-07	-5.934549e-10	-4.604549e+00	-4.582622e+01
1.710000e-06	-6.173455e-07	-5.693067e-10	-4.280907e+00	-4.473069e+01
1.720000e-06	-5.707227e-07	-5.478933e-10	-3.957607e+00	-4.361092e+01
1.730000e-06	-5.240524e-07	-5.313773e-10	-3.633977e+00	-4.246528e+01
1.740000e-06	-4.772753e-07	-5.202255e-10	-3.309607e+00	-4.129207e+01
1.750000e-06	-4.304907e-07	-5.086425e-10	-2.985185e+00	-4.008954e+01
1.760000e-06	-3.836694e-07	-4.895054e-10	-2.660509e+00	-3.885592e+01
1.770000e-06	-3.367412e-07	-4.648633e-10	-2.335090e+00	-3.758942e+01
1.780000e-06	-2.897627e-07	-4.391469e-10	-2.009324e+00	-3.628829e+01
1.790000e-06	-2.427713e-07	-4.162761e-10	-1.683468e+00	-3.495083e+01
1.800000e-06	-1.957845e-07	-3.951762e-10	-1.357644e+00	-3.357540e+01
1.810000e-06	-1.487963e-07	-3.753014e-10	-1.031810e+00	-3.216047e+01
1.820000e-06	-1.018216e-07	-3.572690e-10	-7.060695e-01	-3.070464e+01
1.830000e-06	-5.486405e-08	-3.386016e-10	-3.804480e-01	-2.920667e+01
1.840000e-06	-7.947564e-09	-3.172770e-10	-5.511141e-02	-2.766548e+01
1.850000e-06	3.892498e-08	-2.949344e-10	2.699205e-01	-2.608021e+01
1.860000e-06	8.581513e-08	-2.722428e-10	5.950746e-01	-2.445023e+01
1.870000e-06	1.327951e-07	-2.477904e-10	9.208512e-01	-2.277515e+01
1.880000e-06	1.797820e-07	-2.227938e-10	1.246676e+00	-2.105484e+01
1.890000e-06	2.267046e-07	-1.980199e-10	1.572055e+00	-1.928946e+01
1.900000e-06	2.736436e-07	-1.721000e-10	1.897548e+00	-1.747943e+01
1.910000e-06	3.205842e-07	-1.448387e-10	2.223052e+00	-1.562551e+01
1.920000e-06	3.674192e-07	-1.158817e-10	2.547823e+00	-1.372873e+01
1.930000e-06	4.142008e-07	-8.783496e-11	2.872225e+00	-1.179042e+01
1.940000e-06	4.610085e-07	-6.216861e-11	3.196807e+00	-9.812226e+00
1.950000e-06	5.077323e-07	-3.732064e-11	3.520808e+00	-7.796073e+00
1.960000e-06	5.543761e-07	-1.195335e-11	3.844253e+00	-5.744172e+00
1.970000e-06	6.009791e-07	1.402140e-11	4.167416e+00	-3.658998e+00
1.980000e-06	6.474635e-07	4.169518e-11	4.489757e+00	-1.543279e+00
1.990000e-06	6.938560e-07	7.325763e-11	4.811460e+00	6.000282e-01
2.000000e-06	7.402956e-07	1.073908e-10	5.133490e+00	2.767760e+00
2.010000e-06	7.867947e-07	1.402332e-10	5.455932e+00	4.956571e+00
2.020000e-06	8.332204e-07	1.723085e-10	5.777865e+00	7.162960e+00
2.030000e-06	8.795293e-07	2.028469e-10	6.098989e+00	9.383301e+00
2.040000e-06	9.257921e-07	2.307253e-10	6.419792e+00	1.161387e+01
2.050000e-06	9.720486e-07	2.573998e-10	6.740552e+00	1.385089e+01
2.060000e-06	1.018222e-06	2.859110e-10	7.060737e+00	1.609052e+01
2.070000e-06	1.064260e-06	3.159760e-10	7.379978e+00	1.832896e+01
2.080000e-06	1.110198e-06	3.465587e-10	7.698534e+00	2.056240e+01
2.090000e-06	1.156031e-06	3.790184e-10	8.016354e+00	2.278711e+01
2.100000e-06	1.201795e-06	4.113818e-10	8.333698e+00	2.499944e+01
2.110000e-06	1.247526e-06	4.408818e-10	8.650817e+00	2.719586e+01
2.120000e-06	1.293198e-06	4.674813e-10	8.967524e+00	2.937295e+01
2.130000e-06	1.338757e-06	4.953394e-10	9.283448e+00	3.152749e+01
2.140000e-06	1.384225e-06	5.219106e-10	9.598741e+00	3.365643e+01
2.150000e-06	1.429641e-06	5.448888e-10	9.913670e+00	3.575689e+01
2.160000e-06	1.474998e-06	5.686546e-10	1.022819e+01	3.782625e+01
2.170000e-06	1.520237e-06	5.940548e-10	1.054190e+01	3.986208e+01
2.180000e-06	1.565349e-06	6.194415e-10	1.085472e+01	4.186220e+01
2.190000e-06	1.610353e-06	6.460563e-10	1.116680e+01	4.382468e+01
2.200000e-06	1.655203e-06	6.746770e-10	1.147781e+01	4.574781e+01
2.210000e-06	1.699943e-06	7.033717e-10	1.178805e+01	4.763016e+01
2.220000e-06	1.744543e-06	7.287144e-10	1.209732e+01	4.947052e+01
2.230000e-06	1.788945e-06	7.521021e-10	1.240522e+01	5.126793e+01
2.240000e-06	1.833214e-06	7.727983e-10	1.271220e+01	5.302166e+01
2.250000e-06	1.877383e-06	7.899288e-10	1.301848e+01	5.473120e+01
2.260000e-06	1.921432e-06	8.072734e-10	1.332394e+01	5.639627e+01
2.270000e-06	1.965407e-06	8.278276e-10	1.362887e+01	5.801679e+01
2.280000e-06	2.009326e-06	8.499327e-10	1.393343e+01	5.959286e+01
2.290000e-06	2.053176e-06	8.714722e-10	1.423750e+01	6.112477e+01
2.300000e-06	2.096980e-06	8.957704e-10	1.454125e+01	6.261296e+01
2.310000e-06	2.140710e-06	9.189618e-10	1.484449e+01	6.405803e+01
2.320000e-06	2.184369e-06	9.389199e-10	1.514724e+01	6.546069e+01
2.330000e-06	2.227991e-06	9.544070e-10	1.544973e+01	6.682178e+01
2.340000e-06	2.271504e-06	9.666620e-10	1.575147e+01	6.814223e+01
2.350000e-06	2.314848e-06	9.794675e-10	1.605203e+01	6.942308e+01
2.360000e-06	2.358039e-06	9.959299e-10	1.635153e+01	7.066540e+01
2.370000e-06	2.400929e-06	1.016504e-09	1.664895e+01	7.187033e+01
2.380000e-06	2.443474e-06	1.036218e-09	1.694397e+01	7.303907e+01
2.390000e-06	2.485758e-06	1.053009e-09	1.723719e+01	7.417281e+01
2.400000e-06	2.527650e-06	1.067167e-09	1.752768e+01	7.527280e+01
2.410000e-06	2.569166e-06	1.078782e-09	1.781557e+01	7.634026e+01
2.420000e-06	2.610450e-06	1.090626e-09	1.810185e+01	7.737641e+01
2.430000e-06	2.651417e-06	1.104087e-09	1.838593e+01	7.838248e+01
2.440000e-06	2.692036e-06	1.118282e-09	1.866759e+01	7.935966e+01
2.450000e-06	2.732386e-06	1.133492e-09	1.894740e+01	8.030910e+01
2.460000e-06	2.772536e-06	1.148696e-09	1.922581e+01	8.123194e+01
2.470000e-06	2.812523e-06	1.160921e-09	1.950310e+01	8.212926e+01
2.480000e-06	2.852414e-06	1.171261e-09	1.977972e+01	8.300211e+01
2.490000e-06	2.892177e-06	1.183923e-09	2.005545e+01	8.385148e+01
2.500000e-06	2.931796e-06	1.196068e-09	2.033018e+01	8.467832e+01
2.510000e-06	2.971344e-06	1.209170e-09	2.060442e+01	8.548351e+01
2.520000e-06	3.010740e-06	1.221677e-09	2.087761e+01	8.626788e+01
2.530000e-06	3.049914e-06	1.234907e-09	2.114925e+01	8.703222e+01
2.540000e-06	3.088870e-06	1.248877e-09	2.141939e+01	8.777724e+01
2.550000e-06	3.127574e-06	1.259180e-09	2.168778e+01	8.850361e+01
2.560000e-06	3.166029e-06	1.265402e-09	2.195444e+01	8.921192e+01
2.570000e-06	3.204293e-06	1.271775e-09	2.221978e+01	8.990274e+01
2.580000e-06	3.242359e-06	1.280304e-09	2.248374e+01	9.057656e+01
2.590000e-06	3.280217e-06	1.290476e-09	2.274627e+01	9.123381e+01
2.600000e-06	3.317911e-06	1.304213e-09	2.300765e+01	9.187490e+01
2.610000e-06	3.355417e-06	1.319684e-09	2.326773e+01	9.250017e+01
2.620000e-06	3.392609e-06	1.334429e-09	2.352563e+01	9.310992e+01
2.630000e-06	3.429546e-06	1.342565e-09	2.378177e+01	9.370440e+01
2.640000e-06	3.466223e-06	1.345778e-09	2.403610e+01	9.428383e+01
2.650000e-06	3.502604e-06	1.350153e-09	2.428838e+01	9.484841e+01
2.660000e-06	3.538832e-06	1.355646e-09	2.453960e+01	9.539827e+01
2.670000e-06	3.574882e-06	1.361752e-09	2.478958e+01	9.593355e+01
2.680000e-06	3.610738e-06	1.369357e-09	2.503822e+01	9.645435e+01
2.690000e-06	3.646486e-06	1.380092e-09	2.528611e+01	9.696076e+01
2.700000e-06	3.682119e-06	1.391271e-09	2.553320e+01	9.745286e+01
2.710000e-06	3.717538e-06	1.398554e-09	2.577881e+01	9.793070e+01
2.720000e-06	3.752719e-06	1.402342e-09	2.602277e+01	9.839435e+01
2.730000e-06	3.787672e-06	1.404523e-09	2.626515e+01	9.884388e+01
2.740000e-06	3.822256e-06	1.408995e-09	2.650497e+01	9.927936e+01
2.750000e-06	3.856352e-06	1.413945e-09	2.674140e+01	9.970086e+01
2.760000e-06	3.889895e-06	1.418373e-09	2.697400e+01	1.001085e+02
2.770000e-06	3.922942e-06	1.424343e-09	2.720316e+01	1.005023e+02
2.780000e-06	3.955543e-06	1.432174e-09	2.742923e+01	1.008826e+02
2.790000e-06	3.987764e-06	1.439818e-09	2.765266e+01	1.012493e+02
2.800000e-06	4.019777e-06	1.446726e-09	2.787465e+01	1.016028e+02
2.810000e-06	4.051638e-06	1.452766e-09	2.809559e+01	1.019432e+02
2.820000e-06	4.083396e-06	1.457485e-09	2.831581e+01	1.022708e+02
2.830000e-06	4.114978e-06	1.462172e-09	2.853481e+01	1.025858e+02
2.840000e-06	4.146292e-06	1.466589e-09	2.875195e+01	1.028885e+02
2.850000e-06	4.177373e-06	1.471484e-09	2.896748e+01	1.031793e+02
2.860000e-06	4.208150e-06	1.476644e-09	2.918090e+01	1.034586e+02
2.870000e-06	4.238534e-06	1.482142e-09	2.939160e+01	1.037267e+02
2.880000e-06	4.268585e-06	1.486132e-09	2.959998e+01	1.039840e+02
2.890000e-06	4.298402e-06	1.488235e-09	2.980675e+01	1.042310e+02
2.900000e-06	4.327939e-06	1.492369e-09	3.001156e+01	1.044680e+02
