# Temperatura_=_-8.1
# Concentracion g/m^3_=_1620.0
# C_Vs_to_Am_M_A/Vsm_=_65563218390.804596
# pendiente_HvsI_1/m_=_3716.3
# ordenada_HvsI_A/m_=_1297.0
# frecuencia_Hz_=_135111.37568096758

Tiempo_(s)	Campo_(V.s)	Magnetizacion_(V.s)	Campo_(kA/m)	Magnetizacion_(A/m)
0.000000e+00	-5.515364e-06	-1.415651e-09	-3.837104e+01	-9.215419e+01
1.000000e-08	-5.515545e-06	-1.413597e-09	-3.837229e+01	-9.208083e+01
2.000000e-08	-5.515495e-06	-1.415440e-09	-3.837195e+01	-9.200932e+01
3.000000e-08	-5.515199e-06	-1.417475e-09	-3.836988e+01	-9.193983e+01
4.000000e-08	-5.514535e-06	-1.417848e-09	-3.836527e+01	-9.187249e+01
5.000000e-08	-5.513300e-06	-1.414170e-09	-3.835668e+01	-9.180734e+01
6.000000e-08	-5.511496e-06	-1.399422e-09	-3.834412e+01	-9.174437e+01
7.000000e-08	-5.509232e-06	-1.379076e-09	-3.832837e+01	-9.168353e+01
8.000000e-08	-5.506364e-06	-1.390222e-09	-3.830842e+01	-9.162468e+01
9.000000e-08	-5.502881e-06	-1.443835e-09	-3.828419e+01	-9.156761e+01
1.000000e-07	-5.498869e-06	-1.480959e-09	-3.825628e+01	-9.151206e+01
1.100000e-07	-5.494468e-06	-1.425961e-09	-3.822566e+01	-9.145772e+01
1.200000e-07	-5.489925e-06	-1.350717e-09	-3.819405e+01	-9.140420e+01
1.300000e-07	-5.485264e-06	-1.349103e-09	-3.816163e+01	-9.135107e+01
1.400000e-07	-5.480205e-06	-1.402041e-09	-3.812643e+01	-9.129784e+01
1.500000e-07	-5.474680e-06	-1.413696e-09	-3.808799e+01	-9.124401e+01
1.600000e-07	-5.468851e-06	-1.379458e-09	-3.804744e+01	-9.118901e+01
1.700000e-07	-5.462701e-06	-1.383920e-09	-3.800465e+01	-9.113229e+01
1.800000e-07	-5.456033e-06	-1.421916e-09	-3.795826e+01	-9.107324e+01
1.900000e-07	-5.448859e-06	-1.402646e-09	-3.790835e+01	-9.101128e+01
2.000000e-07	-5.441399e-06	-1.389192e-09	-3.785645e+01	-9.094583e+01
2.100000e-07	-5.433745e-06	-1.375519e-09	-3.780320e+01	-9.087631e+01
2.200000e-07	-5.425875e-06	-1.408774e-09	-3.774845e+01	-9.080219e+01
2.300000e-07	-5.417734e-06	-1.396275e-09	-3.769181e+01	-9.072296e+01
2.400000e-07	-5.409275e-06	-1.399041e-09	-3.763296e+01	-9.063816e+01
2.500000e-07	-5.400277e-06	-1.396512e-09	-3.757036e+01	-9.054738e+01
2.600000e-07	-5.390460e-06	-1.395468e-09	-3.750206e+01	-9.045028e+01
2.700000e-07	-5.379900e-06	-1.380570e-09	-3.742860e+01	-9.034658e+01
2.800000e-07	-5.368923e-06	-1.382072e-09	-3.735223e+01	-9.023608e+01
2.900000e-07	-5.357562e-06	-1.391045e-09	-3.727318e+01	-9.011867e+01
3.000000e-07	-5.345829e-06	-1.394589e-09	-3.719156e+01	-8.999430e+01
3.100000e-07	-5.333723e-06	-1.394005e-09	-3.710734e+01	-8.986303e+01
3.200000e-07	-5.321112e-06	-1.375448e-09	-3.701960e+01	-8.972497e+01
3.300000e-07	-5.307989e-06	-1.378084e-09	-3.692830e+01	-8.958035e+01
3.400000e-07	-5.294539e-06	-1.370211e-09	-3.683473e+01	-8.942946e+01
3.500000e-07	-5.280762e-06	-1.377284e-09	-3.673888e+01	-8.927267e+01
3.600000e-07	-5.266594e-06	-1.367772e-09	-3.664031e+01	-8.911042e+01
3.700000e-07	-5.252088e-06	-1.391644e-09	-3.653939e+01	-8.894322e+01
3.800000e-07	-5.237103e-06	-1.385722e-09	-3.643514e+01	-8.877162e+01
3.900000e-07	-5.221544e-06	-1.373842e-09	-3.632690e+01	-8.859623e+01
4.000000e-07	-5.205360e-06	-1.365313e-09	-3.621430e+01	-8.841770e+01
4.100000e-07	-5.188755e-06	-1.382749e-09	-3.609878e+01	-8.823670e+01
4.200000e-07	-5.171829e-06	-1.361345e-09	-3.598102e+01	-8.805390e+01
4.300000e-07	-5.154567e-06	-1.351015e-09	-3.586093e+01	-8.787000e+01
4.400000e-07	-5.137067e-06	-1.368978e-09	-3.573917e+01	-8.768567e+01
4.500000e-07	-5.119280e-06	-1.388832e-09	-3.561543e+01	-8.750157e+01
4.600000e-07	-5.101001e-06	-1.359596e-09	-3.548826e+01	-8.731833e+01
4.700000e-07	-5.082178e-06	-1.356584e-09	-3.535731e+01	-8.713654e+01
4.800000e-07	-5.062980e-06	-1.370698e-09	-3.522374e+01	-8.695674e+01
4.900000e-07	-5.043460e-06	-1.366228e-09	-3.508794e+01	-8.677940e+01
5.000000e-07	-5.023698e-06	-1.342407e-09	-3.495045e+01	-8.660493e+01
5.100000e-07	-5.003802e-06	-1.343362e-09	-3.481204e+01	-8.643367e+01
5.200000e-07	-4.983709e-06	-1.334693e-09	-3.467224e+01	-8.626589e+01
5.300000e-07	-4.963208e-06	-1.326991e-09	-3.452962e+01	-8.610176e+01
5.400000e-07	-4.942354e-06	-1.339751e-09	-3.438453e+01	-8.594139e+01
5.500000e-07	-4.921265e-06	-1.351638e-09	-3.423782e+01	-8.578478e+01
5.600000e-07	-4.899790e-06	-1.336360e-09	-3.408841e+01	-8.563187e+01
5.700000e-07	-4.877893e-06	-1.332645e-09	-3.393607e+01	-8.548251e+01
5.800000e-07	-4.855690e-06	-1.337669e-09	-3.378161e+01	-8.533649e+01
5.900000e-07	-4.833129e-06	-1.323555e-09	-3.362465e+01	-8.519352e+01
6.000000e-07	-4.810125e-06	-1.312347e-09	-3.346461e+01	-8.505323e+01
6.100000e-07	-4.786817e-06	-1.311877e-09	-3.330244e+01	-8.491523e+01
6.200000e-07	-4.763273e-06	-1.305311e-09	-3.313865e+01	-8.477904e+01
6.300000e-07	-4.739505e-06	-1.296257e-09	-3.297329e+01	-8.464419e+01
6.400000e-07	-4.715554e-06	-1.306578e-09	-3.280666e+01	-8.451015e+01
6.500000e-07	-4.691362e-06	-1.308198e-09	-3.263836e+01	-8.437637e+01
6.600000e-07	-4.666827e-06	-1.306128e-09	-3.246766e+01	-8.424231e+01
6.700000e-07	-4.641883e-06	-1.304151e-09	-3.229413e+01	-8.410741e+01
6.800000e-07	-4.616464e-06	-1.302056e-09	-3.211728e+01	-8.397114e+01
6.900000e-07	-4.590416e-06	-1.284549e-09	-3.193606e+01	-8.383297e+01
7.000000e-07	-4.563743e-06	-1.280949e-09	-3.175050e+01	-8.369240e+01
7.100000e-07	-4.536657e-06	-1.276339e-09	-3.156206e+01	-8.354898e+01
7.200000e-07	-4.509289e-06	-1.274155e-09	-3.137165e+01	-8.340229e+01
7.300000e-07	-4.481632e-06	-1.276735e-09	-3.117924e+01	-8.325195e+01
7.400000e-07	-4.453768e-06	-1.285840e-09	-3.098539e+01	-8.309763e+01
7.500000e-07	-4.425719e-06	-1.276391e-09	-3.079024e+01	-8.293905e+01
7.600000e-07	-4.397503e-06	-1.271813e-09	-3.059394e+01	-8.277601e+01
7.700000e-07	-4.369092e-06	-1.268647e-09	-3.039629e+01	-8.260832e+01
7.800000e-07	-4.340276e-06	-1.258938e-09	-3.019581e+01	-8.243588e+01
7.900000e-07	-4.310972e-06	-1.248186e-09	-2.999194e+01	-8.225862e+01
8.000000e-07	-4.281358e-06	-1.253763e-09	-2.978591e+01	-8.207652e+01
8.100000e-07	-4.251552e-06	-1.250255e-09	-2.957854e+01	-8.188961e+01
8.200000e-07	-4.221438e-06	-1.238292e-09	-2.936904e+01	-8.169795e+01
8.300000e-07	-4.190997e-06	-1.233654e-09	-2.915726e+01	-8.150165e+01
8.400000e-07	-4.160252e-06	-1.232330e-09	-2.894336e+01	-8.130083e+01
8.500000e-07	-4.129285e-06	-1.226006e-09	-2.872792e+01	-8.109565e+01
8.600000e-07	-4.098117e-06	-1.227666e-09	-2.851108e+01	-8.088626e+01
8.700000e-07	-4.066654e-06	-1.231292e-09	-2.829219e+01	-8.067285e+01
8.800000e-07	-4.034978e-06	-1.224220e-09	-2.807182e+01	-8.045558e+01
8.900000e-07	-4.003139e-06	-1.216863e-09	-2.785031e+01	-8.023464e+01
9.000000e-07	-3.971106e-06	-1.211100e-09	-2.762745e+01	-8.001019e+01
9.100000e-07	-3.938862e-06	-1.200874e-09	-2.740312e+01	-7.978239e+01
9.200000e-07	-3.906387e-06	-1.188563e-09	-2.717719e+01	-7.955138e+01
9.300000e-07	-3.873601e-06	-1.187708e-09	-2.694910e+01	-7.931729e+01
9.400000e-07	-3.840440e-06	-1.187526e-09	-2.671839e+01	-7.908021e+01
9.500000e-07	-3.806798e-06	-1.186767e-09	-2.648434e+01	-7.884023e+01
9.600000e-07	-3.772673e-06	-1.184958e-09	-2.624693e+01	-7.859741e+01
9.700000e-07	-3.738152e-06	-1.182792e-09	-2.600676e+01	-7.835178e+01
9.800000e-07	-3.703160e-06	-1.173929e-09	-2.576332e+01	-7.810336e+01
9.900000e-07	-3.667760e-06	-1.168299e-09	-2.551704e+01	-7.785215e+01
1.000000e-06	-3.632152e-06	-1.163124e-09	-2.526930e+01	-7.759814e+01
1.010000e-06	-3.596407e-06	-1.157113e-09	-2.502063e+01	-7.734129e+01
1.020000e-06	-3.560533e-06	-1.148859e-09	-2.477105e+01	-7.708157e+01
1.030000e-06	-3.524525e-06	-1.145487e-09	-2.452053e+01	-7.681893e+01
1.040000e-06	-3.488304e-06	-1.141792e-09	-2.426854e+01	-7.655333e+01
1.050000e-06	-3.451860e-06	-1.141378e-09	-2.401499e+01	-7.628473e+01
1.060000e-06	-3.415174e-06	-1.140504e-09	-2.375976e+01	-7.601310e+01
1.070000e-06	-3.378239e-06	-1.137064e-09	-2.350280e+01	-7.573840e+01
1.080000e-06	-3.341107e-06	-1.128746e-09	-2.324447e+01	-7.546062e+01
1.090000e-06	-3.303729e-06	-1.121815e-09	-2.298443e+01	-7.517977e+01
1.100000e-06	-3.266091e-06	-1.112545e-09	-2.272258e+01	-7.489586e+01
1.110000e-06	-3.228192e-06	-1.103323e-09	-2.245891e+01	-7.460891e+01
1.120000e-06	-3.190024e-06	-1.095810e-09	-2.219337e+01	-7.431899e+01
1.130000e-06	-3.151703e-06	-1.088413e-09	-2.192677e+01	-7.402614e+01
1.140000e-06	-3.113210e-06	-1.080434e-09	-2.165897e+01	-7.373045e+01
1.150000e-06	-3.074429e-06	-1.079511e-09	-2.138916e+01	-7.343199e+01
1.160000e-06	-3.035463e-06	-1.083133e-09	-2.111807e+01	-7.313086e+01
1.170000e-06	-2.996365e-06	-1.081088e-09	-2.084606e+01	-7.282715e+01
1.180000e-06	-2.957033e-06	-1.075891e-09	-2.057242e+01	-7.252094e+01
1.190000e-06	-2.917510e-06	-1.069756e-09	-2.029746e+01	-7.221231e+01
1.200000e-06	-2.877844e-06	-1.060524e-09	-2.002150e+01	-7.190132e+01
1.210000e-06	-2.838012e-06	-1.048737e-09	-1.974438e+01	-7.158802e+01
1.220000e-06	-2.798033e-06	-1.040439e-09	-1.946624e+01	-7.127241e+01
1.230000e-06	-2.757855e-06	-1.033242e-09	-1.918672e+01	-7.095448e+01
1.240000e-06	-2.717495e-06	-1.028792e-09	-1.890593e+01	-7.063415e+01
1.250000e-06	-2.677036e-06	-1.025591e-09	-1.862445e+01	-7.031133e+01
1.260000e-06	-2.636416e-06	-1.023243e-09	-1.834185e+01	-6.998585e+01
1.270000e-06	-2.595558e-06	-1.017948e-09	-1.805760e+01	-6.965751e+01
1.280000e-06	-2.554504e-06	-1.010558e-09	-1.777198e+01	-6.932603e+01
1.290000e-06	-2.513262e-06	-9.999935e-10	-1.748506e+01	-6.899109e+01
1.300000e-06	-2.471703e-06	-9.899295e-10	-1.719593e+01	-6.865230e+01
1.310000e-06	-2.429823e-06	-9.803323e-10	-1.690456e+01	-6.830923e+01
1.320000e-06	-2.387716e-06	-9.727809e-10	-1.661162e+01	-6.796136e+01
1.330000e-06	-2.345276e-06	-9.657678e-10	-1.631636e+01	-6.760815e+01
1.340000e-06	-2.302479e-06	-9.598444e-10	-1.601862e+01	-6.724900e+01
1.350000e-06	-2.259394e-06	-9.556679e-10	-1.571887e+01	-6.688327e+01
1.360000e-06	-2.216114e-06	-9.534933e-10	-1.541776e+01	-6.651026e+01
1.370000e-06	-2.172717e-06	-9.504215e-10	-1.511585e+01	-6.612929e+01
1.380000e-06	-2.129143e-06	-9.450012e-10	-1.481270e+01	-6.573962e+01
1.390000e-06	-2.085463e-06	-9.343457e-10	-1.450881e+01	-6.534051e+01
1.400000e-06	-2.041711e-06	-9.196943e-10	-1.420442e+01	-6.493123e+01
1.410000e-06	-1.997783e-06	-9.047639e-10	-1.389881e+01	-6.451105e+01
1.420000e-06	-1.953752e-06	-8.917202e-10	-1.359248e+01	-6.407926e+01
1.430000e-06	-1.909748e-06	-8.812287e-10	-1.328634e+01	-6.363518e+01
1.440000e-06	-1.865659e-06	-8.739987e-10	-1.297961e+01	-6.317818e+01
1.450000e-06	-1.821477e-06	-8.695927e-10	-1.267223e+01	-6.270765e+01
1.460000e-06	-1.777263e-06	-8.663620e-10	-1.236462e+01	-6.222305e+01
1.470000e-06	-1.732924e-06	-8.620932e-10	-1.205616e+01	-6.172391e+01
1.480000e-06	-1.688439e-06	-8.556019e-10	-1.174667e+01	-6.120980e+01
1.490000e-06	-1.643774e-06	-8.462679e-10	-1.143593e+01	-6.068036e+01
1.500000e-06	-1.598928e-06	-8.325197e-10	-1.112393e+01	-6.013532e+01
1.510000e-06	-1.553935e-06	-8.161180e-10	-1.081091e+01	-5.957446e+01
1.520000e-06	-1.508798e-06	-8.007634e-10	-1.049688e+01	-5.899762e+01
1.530000e-06	-1.463546e-06	-7.905938e-10	-1.018206e+01	-5.840471e+01
1.540000e-06	-1.418257e-06	-7.843652e-10	-9.866977e+00	-5.779570e+01
1.550000e-06	-1.372858e-06	-7.804211e-10	-9.551131e+00	-5.717059e+01
1.560000e-06	-1.327317e-06	-7.740305e-10	-9.234300e+00	-5.652943e+01
1.570000e-06	-1.281729e-06	-7.611375e-10	-8.917140e+00	-5.587230e+01
1.580000e-06	-1.236123e-06	-7.464552e-10	-8.599852e+00	-5.519928e+01
1.590000e-06	-1.190428e-06	-7.327299e-10	-8.281949e+00	-5.451046e+01
1.600000e-06	-1.144563e-06	-7.158541e-10	-7.962858e+00	-5.380593e+01
1.610000e-06	-1.098544e-06	-6.994745e-10	-7.642700e+00	-5.308573e+01
1.620000e-06	-1.052490e-06	-6.865158e-10	-7.322300e+00	-5.234988e+01
1.630000e-06	-1.006435e-06	-6.763876e-10	-7.001888e+00	-5.159832e+01
1.640000e-06	-9.602989e-07	-6.675414e-10	-6.680912e+00	-5.083095e+01
1.650000e-06	-9.140859e-07	-6.590343e-10	-6.359403e+00	-5.004757e+01
1.660000e-06	-8.678194e-07	-6.503097e-10	-6.037521e+00	-4.924789e+01
1.670000e-06	-8.214990e-07	-6.398630e-10	-5.715265e+00	-4.843154e+01
1.680000e-06	-7.751541e-07	-6.271909e-10	-5.392838e+00	-4.759800e+01
1.690000e-06	-7.287564e-07	-6.146760e-10	-5.070044e+00	-4.674668e+01
1.700000e-06	-6.823132e-07	-6.001619e-10	-4.746933e+00	-4.587682e+01
1.710000e-06	-6.358891e-07	-5.822344e-10	-4.423955e+00	-4.498759e+01
1.720000e-06	-5.895075e-07	-5.633123e-10	-4.101273e+00	-4.407801e+01
1.730000e-06	-5.430995e-07	-5.482290e-10	-3.778407e+00	-4.314701e+01
1.740000e-06	-4.965706e-07	-5.363811e-10	-3.454700e+00	-4.219338e+01
1.750000e-06	-4.499853e-07	-5.260289e-10	-3.130600e+00	-4.121585e+01
1.760000e-06	-4.033802e-07	-5.144338e-10	-2.806363e+00	-4.021305e+01
1.770000e-06	-3.566993e-07	-4.997684e-10	-2.481599e+00	-3.918355e+01
1.780000e-06	-3.099183e-07	-4.839206e-10	-2.156138e+00	-3.812585e+01
1.790000e-06	-2.631390e-07	-4.672864e-10	-1.830689e+00	-3.703844e+01
1.800000e-06	-2.163784e-07	-4.506212e-10	-1.505370e+00	-3.591981e+01
1.810000e-06	-1.695484e-07	-4.343445e-10	-1.179568e+00	-3.476844e+01
1.820000e-06	-1.227418e-07	-4.190149e-10	-8.539293e-01	-3.358286e+01
1.830000e-06	-7.605204e-08	-4.023526e-10	-5.291029e-01	-3.236166e+01
1.840000e-06	-2.935265e-08	-3.838377e-10	-2.042098e-01	-3.110353e+01
1.850000e-06	1.746792e-08	-3.642783e-10	1.215264e-01	-2.980727e+01
1.860000e-06	6.428394e-08	-3.462499e-10	4.472309e-01	-2.847182e+01
1.870000e-06	1.110359e-07	-3.296034e-10	7.724898e-01	-2.709627e+01
1.880000e-06	1.577251e-07	-3.132798e-10	1.097312e+00	-2.567991e+01
1.890000e-06	2.044109e-07	-2.949433e-10	1.422110e+00	-2.422223e+01
1.900000e-06	2.512215e-07	-2.732039e-10	1.747777e+00	-2.272293e+01
1.910000e-06	2.980705e-07	-2.485748e-10	2.073712e+00	-2.118198e+01
1.920000e-06	3.448410e-07	-2.239576e-10	2.399099e+00	-1.959957e+01
1.930000e-06	3.915723e-07	-1.998765e-10	2.724214e+00	-1.797617e+01
1.940000e-06	4.382977e-07	-1.767317e-10	3.049289e+00	-1.631251e+01
1.950000e-06	4.849118e-07	-1.554048e-10	3.373588e+00	-1.460958e+01
1.960000e-06	5.314099e-07	-1.349460e-10	3.697081e+00	-1.286866e+01
1.970000e-06	5.778645e-07	-1.145674e-10	4.020271e+00	-1.109127e+01
1.980000e-06	6.242197e-07	-9.175035e-11	4.342770e+00	-9.279221e+00
1.990000e-06	6.705252e-07	-6.373060e-11	4.664922e+00	-7.434540e+00
2.000000e-06	7.168264e-07	-3.342784e-11	4.987045e+00	-5.559497e+00
2.010000e-06	7.630966e-07	-3.826002e-12	5.308952e+00	-3.656579e+00
2.020000e-06	8.093561e-07	2.564088e-11	5.630785e+00	-1.728462e+00
2.030000e-06	8.556376e-07	5.470952e-11	5.952771e+00	2.220003e-01
2.040000e-06	9.018618e-07	8.200114e-11	6.274358e+00	2.191811e+00
2.050000e-06	9.480011e-07	1.082776e-10	6.595355e+00	4.177851e+00
2.060000e-06	9.940638e-07	1.347805e-10	6.915818e+00	6.176906e+00
2.070000e-06	1.040010e-06	1.603452e-10	7.235470e+00	8.185697e+00
2.080000e-06	1.085850e-06	1.852365e-10	7.554384e+00	1.020091e+01
2.090000e-06	1.131634e-06	2.121220e-10	7.872908e+00	1.221922e+01
2.100000e-06	1.177433e-06	2.419457e-10	8.191538e+00	1.423732e+01
2.110000e-06	1.223130e-06	2.723554e-10	8.509459e+00	1.625196e+01
2.120000e-06	1.268705e-06	3.023523e-10	8.826531e+00	1.825995e+01
2.130000e-06	1.314231e-06	3.321760e-10	9.143258e+00	2.025821e+01
2.140000e-06	1.359647e-06	3.610955e-10	9.459224e+00	2.224377e+01
2.150000e-06	1.404952e-06	3.850945e-10	9.774415e+00	2.421381e+01
2.160000e-06	1.450153e-06	4.055568e-10	1.008888e+01	2.616566e+01
2.170000e-06	1.495228e-06	4.265173e-10	1.040248e+01	2.809682e+01
2.180000e-06	1.540178e-06	4.497785e-10	1.071520e+01	3.000498e+01
2.190000e-06	1.585034e-06	4.765253e-10	1.102726e+01	3.188804e+01
2.200000e-06	1.629790e-06	5.069891e-10	1.133864e+01	3.374406e+01
2.210000e-06	1.674414e-06	5.373460e-10	1.164910e+01	3.557134e+01
2.220000e-06	1.718880e-06	5.646994e-10	1.195845e+01	3.736837e+01
2.230000e-06	1.763185e-06	5.887412e-10	1.226669e+01	3.913384e+01
2.240000e-06	1.807378e-06	6.110696e-10	1.257414e+01	4.086665e+01
2.250000e-06	1.851461e-06	6.303661e-10	1.288083e+01	4.256586e+01
2.260000e-06	1.895484e-06	6.454543e-10	1.318710e+01	4.423075e+01
2.270000e-06	1.939480e-06	6.604617e-10	1.349319e+01	4.586074e+01
2.280000e-06	1.983391e-06	6.778598e-10	1.379868e+01	4.745543e+01
2.290000e-06	2.027219e-06	6.990312e-10	1.410360e+01	4.901456e+01
2.300000e-06	2.070987e-06	7.247981e-10	1.440810e+01	5.053798e+01
2.310000e-06	2.114684e-06	7.521502e-10	1.471210e+01	5.202568e+01
2.320000e-06	2.158306e-06	7.755083e-10	1.501559e+01	5.347774e+01
2.330000e-06	2.201862e-06	7.936996e-10	1.531861e+01	5.489433e+01
2.340000e-06	2.245276e-06	8.084621e-10	1.562065e+01	5.627568e+01
2.350000e-06	2.288468e-06	8.214463e-10	1.592114e+01	5.762210e+01
2.360000e-06	2.331384e-06	8.362373e-10	1.621971e+01	5.893393e+01
2.370000e-06	2.374028e-06	8.545765e-10	1.651639e+01	6.021153e+01
2.380000e-06	2.416444e-06	8.745197e-10	1.681149e+01	6.145530e+01
2.390000e-06	2.458509e-06	8.934517e-10	1.710414e+01	6.266565e+01
2.400000e-06	2.500225e-06	9.104931e-10	1.739436e+01	6.384299e+01
2.410000e-06	2.541574e-06	9.260542e-10	1.768203e+01	6.498773e+01
2.420000e-06	2.582510e-06	9.399957e-10	1.796683e+01	6.610027e+01
2.430000e-06	2.623145e-06	9.540625e-10	1.824953e+01	6.718101e+01
2.440000e-06	2.663635e-06	9.694411e-10	1.853122e+01	6.823033e+01
2.450000e-06	2.704027e-06	9.855954e-10	1.881224e+01	6.924861e+01
2.460000e-06	2.744232e-06	1.000115e-09	1.909194e+01	7.023621e+01
2.470000e-06	2.784294e-06	1.013138e-09	1.937066e+01	7.119348e+01
2.480000e-06	2.824262e-06	1.024447e-09	1.964872e+01	7.212078e+01
2.490000e-06	2.864104e-06	1.034357e-09	1.992590e+01	7.301845e+01
2.500000e-06	2.903823e-06	1.045833e-09	2.020224e+01	7.388686e+01
2.510000e-06	2.943403e-06	1.058973e-09	2.047760e+01	7.472636e+01
2.520000e-06	2.982803e-06	1.071938e-09	2.075171e+01	7.553735e+01
2.530000e-06	3.021947e-06	1.084818e-09	2.102404e+01	7.632021e+01
2.540000e-06	3.060837e-06	1.099546e-09	2.129460e+01	7.707537e+01
2.550000e-06	3.099474e-06	1.114435e-09	2.156340e+01	7.780329e+01
2.560000e-06	3.137878e-06	1.124678e-09	2.183058e+01	7.850445e+01
2.570000e-06	3.176141e-06	1.128759e-09	2.209679e+01	7.917938e+01
2.580000e-06	3.214207e-06	1.131315e-09	2.236161e+01	7.982863e+01
2.590000e-06	3.252048e-06	1.136080e-09	2.262488e+01	8.045282e+01
2.600000e-06	3.289671e-06	1.143922e-09	2.288663e+01	8.105259e+01
2.610000e-06	3.327121e-06	1.156415e-09	2.314717e+01	8.162863e+01
2.620000e-06	3.364346e-06	1.173647e-09	2.340615e+01	8.218166e+01
2.630000e-06	3.401295e-06	1.189745e-09	2.366321e+01	8.271246e+01
2.640000e-06	3.438012e-06	1.200667e-09	2.391865e+01	8.322181e+01
2.650000e-06	3.474445e-06	1.207758e-09	2.417212e+01	8.371055e+01
2.660000e-06	3.510602e-06	1.211349e-09	2.442367e+01	8.417953e+01
2.670000e-06	3.546555e-06	1.211561e-09	2.467380e+01	8.462963e+01
2.680000e-06	3.582412e-06	1.211881e-09	2.492326e+01	8.506172e+01
2.690000e-06	3.618229e-06	1.216756e-09	2.517245e+01	8.547672e+01
2.700000e-06	3.653901e-06	1.226863e-09	2.542062e+01	8.587549e+01
2.710000e-06	3.689367e-06	1.238204e-09	2.566736e+01	8.625892e+01
2.720000e-06	3.724579e-06	1.247096e-09	2.591233e+01	8.662788e+01
2.730000e-06	3.759449e-06	1.252336e-09	2.615493e+01	8.698320e+01
2.740000e-06	3.793898e-06	1.254590e-09	2.639459e+01	8.732569e+01
2.750000e-06	3.827837e-06	1.255957e-09	2.663071e+01	8.765613e+01
2.760000e-06	3.861262e-06	1.257786e-09	2.686325e+01	8.797524e+01
2.770000e-06	3.894261e-06	1.262282e-09	2.709283e+01	8.828370e+01
2.780000e-06	3.926875e-06	1.268470e-09	2.731973e+01	8.858214e+01
2.790000e-06	3.959078e-06	1.274954e-09	2.754377e+01	8.887111e+01
2.800000e-06	3.991034e-06	1.281260e-09	2.776609e+01	8.915114e+01
2.810000e-06	4.022928e-06	1.287584e-09	2.798798e+01	8.942266e+01
2.820000e-06	4.054758e-06	1.293062e-09	2.820943e+01	8.968605e+01
2.830000e-06	4.086428e-06	1.297446e-09	2.842976e+01	8.994165e+01
2.840000e-06	4.117779e-06	1.302584e-09	2.864787e+01	9.018970e+01
2.850000e-06	4.148802e-06	1.307192e-09	2.886370e+01	9.043040e+01
2.860000e-06	4.179546e-06	1.310877e-09	2.907759e+01	9.066390e+01
2.870000e-06	4.209947e-06	1.315010e-09	2.928910e+01	9.089029e+01
2.880000e-06	4.240043e-06	1.317811e-09	2.949847e+01	9.110961e+01
2.890000e-06	4.269883e-06	1.317783e-09	2.970608e+01	9.132186e+01
2.900000e-06	4.299464e-06	1.318371e-09	2.991188e+01	9.152700e+01
