# Temperatura_=_-23.49
# Concentracion g/m^3_=_1620.0
# C_Vs_to_Am_M_A/Vsm_=_65563218390.804596
# pendiente_HvsI_1/m_=_3716.3
# ordenada_HvsI_A/m_=_1297.0
# frecuencia_Hz_=_135093.4255257613

Tiempo_(s)	Campo_(V.s)	Magnetizacion_(V.s)	Campo_(kA/m)	Magnetizacion_(A/m)
0.000000e+00	-5.523558e-06	-1.095269e-09	-3.838146e+01	-6.951371e+01
1.000000e-08	-5.523729e-06	-1.093001e-09	-3.838265e+01	-6.950969e+01
2.000000e-08	-5.523672e-06	-1.093488e-09	-3.838225e+01	-6.950417e+01
3.000000e-08	-5.523239e-06	-1.092863e-09	-3.837924e+01	-6.949719e+01
4.000000e-08	-5.522420e-06	-1.090347e-09	-3.837355e+01	-6.948881e+01
5.000000e-08	-5.521115e-06	-1.087472e-09	-3.836448e+01	-6.947913e+01
6.000000e-08	-5.519126e-06	-1.082515e-09	-3.835066e+01	-6.946828e+01
7.000000e-08	-5.516448e-06	-1.083335e-09	-3.833205e+01	-6.945643e+01
8.000000e-08	-5.513140e-06	-1.074329e-09	-3.830907e+01	-6.944377e+01
9.000000e-08	-5.509386e-06	-1.049601e-09	-3.828298e+01	-6.943053e+01
1.000000e-07	-5.505335e-06	-1.124013e-09	-3.825484e+01	-6.941696e+01
1.100000e-07	-5.501009e-06	-1.178652e-09	-3.822477e+01	-6.940333e+01
1.200000e-07	-5.496411e-06	-1.056854e-09	-3.819282e+01	-6.938993e+01
1.300000e-07	-5.491555e-06	-9.648263e-10	-3.815908e+01	-6.937707e+01
1.400000e-07	-5.486383e-06	-1.033250e-09	-3.812315e+01	-6.936505e+01
1.500000e-07	-5.480807e-06	-1.163681e-09	-3.808439e+01	-6.935418e+01
1.600000e-07	-5.474822e-06	-1.107610e-09	-3.804281e+01	-6.934476e+01
1.700000e-07	-5.468481e-06	-9.715387e-10	-3.799875e+01	-6.933710e+01
1.800000e-07	-5.461729e-06	-1.021241e-09	-3.795183e+01	-6.933147e+01
1.900000e-07	-5.454510e-06	-1.135109e-09	-3.790166e+01	-6.932813e+01
2.000000e-07	-5.446966e-06	-1.131675e-09	-3.784925e+01	-6.932732e+01
2.100000e-07	-5.439232e-06	-1.023338e-09	-3.779550e+01	-6.932923e+01
2.200000e-07	-5.431236e-06	-1.018757e-09	-3.773994e+01	-6.933403e+01
2.300000e-07	-5.422832e-06	-1.100851e-09	-3.768155e+01	-6.934185e+01
2.400000e-07	-5.414075e-06	-1.111019e-09	-3.762070e+01	-6.935279e+01
2.500000e-07	-5.404797e-06	-1.039678e-09	-3.755623e+01	-6.936688e+01
2.600000e-07	-5.394649e-06	-1.029805e-09	-3.748571e+01	-6.938412e+01
2.700000e-07	-5.383802e-06	-1.072819e-09	-3.741034e+01	-6.940448e+01
2.800000e-07	-5.372561e-06	-1.068464e-09	-3.733223e+01	-6.942786e+01
2.900000e-07	-5.360945e-06	-1.035221e-09	-3.725151e+01	-6.945413e+01
3.000000e-07	-5.348881e-06	-1.046219e-09	-3.716769e+01	-6.948313e+01
3.100000e-07	-5.336469e-06	-1.077174e-09	-3.708144e+01	-6.951464e+01
3.200000e-07	-5.323814e-06	-1.066303e-09	-3.699350e+01	-6.954843e+01
3.300000e-07	-5.310716e-06	-1.024158e-09	-3.690249e+01	-6.958421e+01
3.400000e-07	-5.297177e-06	-1.018455e-09	-3.680841e+01	-6.962169e+01
3.500000e-07	-5.283303e-06	-1.067903e-09	-3.671200e+01	-6.966056e+01
3.600000e-07	-5.268950e-06	-1.063066e-09	-3.661227e+01	-6.970048e+01
3.700000e-07	-5.253931e-06	-1.022864e-09	-3.650790e+01	-6.974112e+01
3.800000e-07	-5.238419e-06	-1.062574e-09	-3.640012e+01	-6.978211e+01
3.900000e-07	-5.222495e-06	-1.099618e-09	-3.628947e+01	-6.982314e+01
4.000000e-07	-5.205968e-06	-1.024525e-09	-3.617463e+01	-6.986385e+01
4.100000e-07	-5.188986e-06	-1.014625e-09	-3.605662e+01	-6.990394e+01
4.200000e-07	-5.171798e-06	-1.109499e-09	-3.593719e+01	-6.994309e+01
4.300000e-07	-5.154429e-06	-1.078048e-09	-3.581650e+01	-6.998104e+01
4.400000e-07	-5.136674e-06	-9.884360e-10	-3.569312e+01	-7.001754e+01
4.500000e-07	-5.118579e-06	-1.081986e-09	-3.556739e+01	-7.005236e+01
4.600000e-07	-5.100147e-06	-1.134896e-09	-3.543931e+01	-7.008532e+01
4.700000e-07	-5.081123e-06	-1.012718e-09	-3.530712e+01	-7.011627e+01
4.800000e-07	-5.061678e-06	-1.018939e-09	-3.517200e+01	-7.014510e+01
4.900000e-07	-5.042113e-06	-1.129524e-09	-3.503605e+01	-7.017173e+01
5.000000e-07	-5.022366e-06	-1.047445e-09	-3.489884e+01	-7.019613e+01
5.100000e-07	-5.002331e-06	-9.802369e-10	-3.475962e+01	-7.021829e+01
5.200000e-07	-4.982042e-06	-1.091666e-09	-3.461863e+01	-7.023825e+01
5.300000e-07	-4.961384e-06	-1.081421e-09	-3.447509e+01	-7.025607e+01
5.400000e-07	-4.940409e-06	-9.815125e-10	-3.432934e+01	-7.027186e+01
5.500000e-07	-4.919168e-06	-1.069752e-09	-3.418174e+01	-7.028572e+01
5.600000e-07	-4.897523e-06	-1.124259e-09	-3.403134e+01	-7.029782e+01
5.700000e-07	-4.875513e-06	-1.013342e-09	-3.387840e+01	-7.030830e+01
5.800000e-07	-4.853165e-06	-1.028828e-09	-3.372311e+01	-7.031734e+01
5.900000e-07	-4.830509e-06	-1.116736e-09	-3.356568e+01	-7.032513e+01
6.000000e-07	-4.807462e-06	-1.039308e-09	-3.340554e+01	-7.033184e+01
6.100000e-07	-4.784023e-06	-9.938194e-10	-3.324266e+01	-7.033766e+01
6.200000e-07	-4.760367e-06	-1.076632e-09	-3.307829e+01	-7.034277e+01
6.300000e-07	-4.736499e-06	-1.061106e-09	-3.291244e+01	-7.034733e+01
6.400000e-07	-4.712345e-06	-1.009803e-09	-3.274460e+01	-7.035149e+01
6.500000e-07	-4.687897e-06	-1.069282e-09	-3.257472e+01	-7.035538e+01
6.600000e-07	-4.663022e-06	-1.082071e-09	-3.240187e+01	-7.035911e+01
6.700000e-07	-4.637654e-06	-1.020312e-09	-3.222559e+01	-7.036275e+01
6.800000e-07	-4.611813e-06	-1.039326e-09	-3.204603e+01	-7.036635e+01
6.900000e-07	-4.585361e-06	-1.063532e-09	-3.186223e+01	-7.036995e+01
7.000000e-07	-4.558362e-06	-1.022644e-09	-3.167462e+01	-7.037352e+01
7.100000e-07	-4.531003e-06	-1.025275e-09	-3.148451e+01	-7.037703e+01
7.200000e-07	-4.503448e-06	-1.062861e-09	-3.129304e+01	-7.038041e+01
7.300000e-07	-4.475723e-06	-1.046939e-09	-3.110038e+01	-7.038355e+01
7.400000e-07	-4.447770e-06	-1.036575e-09	-3.090615e+01	-7.038633e+01
7.500000e-07	-4.419618e-06	-1.056920e-09	-3.071053e+01	-7.038858e+01
7.600000e-07	-4.391237e-06	-1.048823e-09	-3.051332e+01	-7.039013e+01
7.700000e-07	-4.362574e-06	-1.031886e-09	-3.031415e+01	-7.039078e+01
7.800000e-07	-4.333575e-06	-1.044728e-09	-3.011264e+01	-7.039031e+01
7.900000e-07	-4.304241e-06	-1.044751e-09	-2.990881e+01	-7.038849e+01
8.000000e-07	-4.274621e-06	-1.033807e-09	-2.970299e+01	-7.038509e+01
8.100000e-07	-4.244728e-06	-1.044059e-09	-2.949527e+01	-7.037987e+01
8.200000e-07	-4.214547e-06	-1.049324e-09	-2.928556e+01	-7.037259e+01
8.300000e-07	-4.184119e-06	-1.033278e-09	-2.907412e+01	-7.036302e+01
8.400000e-07	-4.153355e-06	-1.037155e-09	-2.886035e+01	-7.035095e+01
8.500000e-07	-4.122238e-06	-1.053071e-09	-2.864413e+01	-7.033618e+01
8.600000e-07	-4.090897e-06	-1.047305e-09	-2.842635e+01	-7.031851e+01
8.700000e-07	-4.059372e-06	-1.041426e-09	-2.820730e+01	-7.029780e+01
8.800000e-07	-4.027640e-06	-1.049565e-09	-2.798680e+01	-7.027392e+01
8.900000e-07	-3.995694e-06	-1.042403e-09	-2.776482e+01	-7.024677e+01
9.000000e-07	-3.963552e-06	-1.030637e-09	-2.754147e+01	-7.021627e+01
9.100000e-07	-3.931144e-06	-1.037682e-09	-2.731628e+01	-7.018241e+01
9.200000e-07	-3.898393e-06	-1.037107e-09	-2.708870e+01	-7.014519e+01
9.300000e-07	-3.865266e-06	-1.026439e-09	-2.685851e+01	-7.010466e+01
9.400000e-07	-3.831710e-06	-1.033541e-09	-2.662534e+01	-7.006089e+01
9.500000e-07	-3.797721e-06	-1.042450e-09	-2.638916e+01	-7.001400e+01
9.600000e-07	-3.763172e-06	-1.029422e-09	-2.614909e+01	-6.996415e+01
9.700000e-07	-3.728119e-06	-1.022629e-09	-2.590552e+01	-6.991151e+01
9.800000e-07	-3.692813e-06	-1.028497e-09	-2.566019e+01	-6.985631e+01
9.900000e-07	-3.657308e-06	-1.024002e-09	-2.541348e+01	-6.979877e+01
1.000000e-06	-3.621609e-06	-1.018651e-09	-2.516541e+01	-6.973916e+01
1.010000e-06	-3.585763e-06	-1.024755e-09	-2.491634e+01	-6.967775e+01
1.020000e-06	-3.549827e-06	-1.024216e-09	-2.466663e+01	-6.961483e+01
1.030000e-06	-3.513801e-06	-1.016547e-09	-2.441629e+01	-6.955069e+01
1.040000e-06	-3.477602e-06	-1.017481e-09	-2.416476e+01	-6.948563e+01
1.050000e-06	-3.441164e-06	-1.023256e-09	-2.391156e+01	-6.941992e+01
1.060000e-06	-3.404442e-06	-1.017989e-09	-2.365639e+01	-6.935383e+01
1.070000e-06	-3.367382e-06	-1.013050e-09	-2.339888e+01	-6.928763e+01
1.080000e-06	-3.329975e-06	-1.012394e-09	-2.313895e+01	-6.922154e+01
1.090000e-06	-3.292238e-06	-1.004327e-09	-2.287672e+01	-6.915574e+01
1.100000e-06	-3.254330e-06	-9.956550e-10	-2.261331e+01	-6.909041e+01
1.110000e-06	-3.216381e-06	-9.963677e-10	-2.234962e+01	-6.902565e+01
1.120000e-06	-3.178222e-06	-9.942634e-10	-2.208446e+01	-6.896153e+01
1.130000e-06	-3.139720e-06	-9.878727e-10	-2.181693e+01	-6.889807e+01
1.140000e-06	-3.101037e-06	-9.903033e-10	-2.154813e+01	-6.883523e+01
1.150000e-06	-3.062090e-06	-9.962089e-10	-2.127750e+01	-6.877292e+01
1.160000e-06	-3.022918e-06	-9.957843e-10	-2.100530e+01	-6.871096e+01
1.170000e-06	-2.983654e-06	-9.929769e-10	-2.073247e+01	-6.864916e+01
1.180000e-06	-2.944187e-06	-9.915931e-10	-2.045823e+01	-6.858723e+01
1.190000e-06	-2.904606e-06	-9.895764e-10	-2.018319e+01	-6.852482e+01
1.200000e-06	-2.864938e-06	-9.858305e-10	-1.990755e+01	-6.846155e+01
1.210000e-06	-2.825094e-06	-9.838329e-10	-1.963069e+01	-6.839695e+01
1.220000e-06	-2.785027e-06	-9.822308e-10	-1.935228e+01	-6.833053e+01
1.230000e-06	-2.744801e-06	-9.798194e-10	-1.907275e+01	-6.826172e+01
1.240000e-06	-2.704434e-06	-9.769284e-10	-1.879226e+01	-6.818993e+01
1.250000e-06	-2.663864e-06	-9.748357e-10	-1.851035e+01	-6.811452e+01
1.260000e-06	-2.623078e-06	-9.746693e-10	-1.822694e+01	-6.803483e+01
1.270000e-06	-2.582024e-06	-9.723363e-10	-1.794167e+01	-6.795018e+01
1.280000e-06	-2.540680e-06	-9.686220e-10	-1.765438e+01	-6.785986e+01
1.290000e-06	-2.499046e-06	-9.660652e-10	-1.736508e+01	-6.776317e+01
1.300000e-06	-2.457129e-06	-9.604040e-10	-1.707382e+01	-6.765940e+01
1.310000e-06	-2.415010e-06	-9.534494e-10	-1.678114e+01	-6.754785e+01
1.320000e-06	-2.372643e-06	-9.477762e-10	-1.648674e+01	-6.742786e+01
1.330000e-06	-2.329952e-06	-9.431317e-10	-1.619010e+01	-6.729878e+01
1.340000e-06	-2.287024e-06	-9.415121e-10	-1.589181e+01	-6.715999e+01
1.350000e-06	-2.243905e-06	-9.415625e-10	-1.559219e+01	-6.701093e+01
1.360000e-06	-2.200575e-06	-9.446176e-10	-1.529110e+01	-6.685108e+01
1.370000e-06	-2.156981e-06	-9.452775e-10	-1.498818e+01	-6.667998e+01
1.380000e-06	-2.113253e-06	-9.427752e-10	-1.468433e+01	-6.649724e+01
1.390000e-06	-2.069484e-06	-9.336477e-10	-1.438019e+01	-6.630252e+01
1.400000e-06	-2.025605e-06	-9.211078e-10	-1.407529e+01	-6.609555e+01
1.410000e-06	-1.981681e-06	-9.128499e-10	-1.377007e+01	-6.587614e+01
1.420000e-06	-1.937691e-06	-9.068554e-10	-1.346440e+01	-6.564418e+01
1.430000e-06	-1.893552e-06	-9.029231e-10	-1.315769e+01	-6.539960e+01
1.440000e-06	-1.849304e-06	-9.033486e-10	-1.285023e+01	-6.514243e+01
1.450000e-06	-1.805071e-06	-9.059712e-10	-1.254287e+01	-6.487275e+01
1.460000e-06	-1.760760e-06	-9.050262e-10	-1.223496e+01	-6.459068e+01
1.470000e-06	-1.716267e-06	-8.999615e-10	-1.192580e+01	-6.429644e+01
1.480000e-06	-1.671668e-06	-8.941360e-10	-1.161589e+01	-6.399025e+01
1.490000e-06	-1.626974e-06	-8.878447e-10	-1.130533e+01	-6.367238e+01
1.500000e-06	-1.582127e-06	-8.778766e-10	-1.099370e+01	-6.334314e+01
1.510000e-06	-1.537146e-06	-8.679347e-10	-1.068114e+01	-6.300285e+01
1.520000e-06	-1.492009e-06	-8.614147e-10	-1.036750e+01	-6.265180e+01
1.530000e-06	-1.446693e-06	-8.558317e-10	-1.005262e+01	-6.229033e+01
1.540000e-06	-1.401260e-06	-8.519336e-10	-9.736910e+00	-6.191871e+01
1.550000e-06	-1.355774e-06	-8.474518e-10	-9.420845e+00	-6.153719e+01
1.560000e-06	-1.310299e-06	-8.398430e-10	-9.104852e+00	-6.114599e+01
1.570000e-06	-1.264749e-06	-8.293508e-10	-8.788342e+00	-6.074523e+01
1.580000e-06	-1.219126e-06	-8.178986e-10	-8.471325e+00	-6.033500e+01
1.590000e-06	-1.173405e-06	-8.067535e-10	-8.153620e+00	-5.991528e+01
1.600000e-06	-1.127534e-06	-7.972187e-10	-7.834879e+00	-5.948596e+01
1.610000e-06	-1.081603e-06	-7.908888e-10	-7.515721e+00	-5.904683e+01
1.620000e-06	-1.035653e-06	-7.861280e-10	-7.196425e+00	-5.859755e+01
1.630000e-06	-9.895302e-07	-7.820795e-10	-6.875933e+00	-5.813769e+01
1.640000e-06	-9.432360e-07	-7.768476e-10	-6.554249e+00	-5.766668e+01
1.650000e-06	-8.969736e-07	-7.702668e-10	-6.232786e+00	-5.718380e+01
1.660000e-06	-8.507647e-07	-7.645441e-10	-5.911695e+00	-5.668824e+01
1.670000e-06	-8.044354e-07	-7.568623e-10	-5.589767e+00	-5.617904e+01
1.680000e-06	-7.579404e-07	-7.470261e-10	-5.266688e+00	-5.565511e+01
1.690000e-06	-7.114484e-07	-7.362744e-10	-4.943630e+00	-5.511524e+01
1.700000e-06	-6.650279e-07	-7.259003e-10	-4.621069e+00	-5.455814e+01
1.710000e-06	-6.185914e-07	-7.132075e-10	-4.298396e+00	-5.398236e+01
1.720000e-06	-5.720231e-07	-7.001552e-10	-3.974808e+00	-5.338639e+01
1.730000e-06	-5.254371e-07	-6.914553e-10	-3.651097e+00	-5.276864e+01
1.740000e-06	-4.788271e-07	-6.859511e-10	-3.327218e+00	-5.212745e+01
1.750000e-06	-4.320991e-07	-6.806667e-10	-3.002520e+00	-5.146110e+01
1.760000e-06	-3.853956e-07	-6.675929e-10	-2.677992e+00	-5.076786e+01
1.770000e-06	-3.387162e-07	-6.525922e-10	-2.353632e+00	-5.004596e+01
1.780000e-06	-2.920487e-07	-6.354521e-10	-2.029354e+00	-4.929367e+01
1.790000e-06	-2.453743e-07	-6.202093e-10	-1.705029e+00	-4.850926e+01
1.800000e-06	-1.984964e-07	-6.073162e-10	-1.379289e+00	-4.769106e+01
1.810000e-06	-1.514947e-07	-5.974451e-10	-1.052689e+00	-4.683747e+01
1.820000e-06	-1.045911e-07	-5.893247e-10	-7.267703e-01	-4.594697e+01
1.830000e-06	-5.772564e-08	-5.807934e-10	-4.011172e-01	-4.501817e+01
1.840000e-06	-1.085317e-08	-5.681155e-10	-7.541523e-02	-4.404980e+01
1.850000e-06	3.595668e-08	-5.515318e-10	2.498516e-01	-4.304073e+01
1.860000e-06	8.272806e-08	-5.353604e-10	5.748512e-01	-4.199000e+01
1.870000e-06	1.294826e-07	-5.189977e-10	8.997335e-01	-4.089683e+01
1.880000e-06	1.762475e-07	-5.059179e-10	1.224688e+00	-3.976065e+01
1.890000e-06	2.231328e-07	-4.935080e-10	1.550479e+00	-3.858106e+01
1.900000e-06	2.700572e-07	-4.786534e-10	1.876542e+00	-3.735793e+01
1.910000e-06	3.168574e-07	-4.604740e-10	2.201742e+00	-3.609129e+01
1.920000e-06	3.635376e-07	-4.412454e-10	2.526108e+00	-3.478144e+01
1.930000e-06	4.101971e-07	-4.225961e-10	2.850330e+00	-3.342891e+01
1.940000e-06	4.568459e-07	-4.036903e-10	3.174478e+00	-3.203443e+01
1.950000e-06	5.034795e-07	-3.840178e-10	3.498520e+00	-3.059898e+01
1.960000e-06	5.500849e-07	-3.648608e-10	3.822366e+00	-2.912378e+01
1.970000e-06	5.966045e-07	-3.459946e-10	4.145616e+00	-2.761022e+01
1.980000e-06	6.429968e-07	-3.289084e-10	4.467982e+00	-2.605994e+01
1.990000e-06	6.893013e-07	-3.098204e-10	4.789737e+00	-2.447476e+01
2.000000e-06	7.356510e-07	-2.894483e-10	5.111806e+00	-2.285667e+01
2.010000e-06	7.820029e-07	-2.667288e-10	5.433891e+00	-2.120785e+01
2.020000e-06	8.282887e-07	-2.387882e-10	5.755517e+00	-1.953062e+01
2.030000e-06	8.744827e-07	-2.077182e-10	6.076504e+00	-1.782743e+01
2.040000e-06	9.206132e-07	-1.808590e-10	6.397050e+00	-1.610086e+01
2.050000e-06	9.667620e-07	-1.573779e-10	6.717724e+00	-1.435358e+01
2.060000e-06	1.012863e-06	-1.364589e-10	7.038068e+00	-1.258832e+01
2.070000e-06	1.058847e-06	-1.192869e-10	7.357591e+00	-1.080790e+01
2.080000e-06	1.104734e-06	-1.029594e-10	7.676449e+00	-9.015164e+00
2.090000e-06	1.150528e-06	-8.195864e-11	7.994659e+00	-7.212963e+00
2.100000e-06	1.196271e-06	-5.366594e-11	8.312506e+00	-5.404161e+00
2.110000e-06	1.241888e-06	-2.192370e-11	8.629487e+00	-3.591602e+00
2.120000e-06	1.287467e-06	8.673061e-12	8.946203e+00	-1.778093e+00
2.130000e-06	1.333017e-06	3.596281e-11	9.262712e+00	3.360987e-02
2.140000e-06	1.378383e-06	5.764641e-11	9.577945e+00	1.840815e+00
2.150000e-06	1.423655e-06	7.397731e-11	9.892527e+00	3.640913e+00
2.160000e-06	1.468783e-06	8.961444e-11	1.020611e+01	5.431383e+00
2.170000e-06	1.513810e-06	1.080789e-10	1.051899e+01	7.209808e+00
2.180000e-06	1.558753e-06	1.339857e-10	1.083128e+01	8.973882e+00
2.190000e-06	1.603581e-06	1.653924e-10	1.114278e+01	1.072142e+01
2.200000e-06	1.648330e-06	1.969427e-10	1.145372e+01	1.245035e+01
2.210000e-06	1.692920e-06	2.262834e-10	1.176356e+01	1.415875e+01
2.220000e-06	1.737364e-06	2.510739e-10	1.207239e+01	1.584482e+01
2.230000e-06	1.781713e-06	2.708653e-10	1.238056e+01	1.750688e+01
2.240000e-06	1.825996e-06	2.862406e-10	1.268827e+01	1.914341e+01
2.250000e-06	1.870154e-06	2.991353e-10	1.299511e+01	2.075301e+01
2.260000e-06	1.914140e-06	3.151144e-10	1.330075e+01	2.233442e+01
2.270000e-06	1.958036e-06	3.370822e-10	1.360577e+01	2.388650e+01
2.280000e-06	2.001928e-06	3.626882e-10	1.391076e+01	2.540825e+01
2.290000e-06	2.045771e-06	3.877473e-10	1.421542e+01	2.689879e+01
2.300000e-06	2.089493e-06	4.105940e-10	1.451923e+01	2.835736e+01
2.310000e-06	2.133140e-06	4.311610e-10	1.482252e+01	2.978333e+01
2.320000e-06	2.176775e-06	4.495522e-10	1.512573e+01	3.117615e+01
2.330000e-06	2.220345e-06	4.651198e-10	1.542848e+01	3.253542e+01
2.340000e-06	2.263689e-06	4.812893e-10	1.572966e+01	3.386081e+01
2.350000e-06	2.306805e-06	4.989711e-10	1.602926e+01	3.515209e+01
2.360000e-06	2.349672e-06	5.157234e-10	1.632713e+01	3.640915e+01
2.370000e-06	2.392191e-06	5.319599e-10	1.662258e+01	3.763194e+01
2.380000e-06	2.434441e-06	5.486700e-10	1.691616e+01	3.882052e+01
2.390000e-06	2.476422e-06	5.647820e-10	1.720787e+01	3.997499e+01
2.400000e-06	2.518089e-06	5.799919e-10	1.749740e+01	4.109558e+01
2.410000e-06	2.559478e-06	5.944128e-10	1.778501e+01	4.218255e+01
2.420000e-06	2.600559e-06	6.081538e-10	1.807046e+01	4.323626e+01
2.430000e-06	2.641388e-06	6.211882e-10	1.835417e+01	4.425711e+01
2.440000e-06	2.681986e-06	6.344835e-10	1.863628e+01	4.524556e+01
2.450000e-06	2.722250e-06	6.473700e-10	1.891606e+01	4.620216e+01
2.460000e-06	2.762334e-06	6.600185e-10	1.919459e+01	4.712749e+01
2.470000e-06	2.802399e-06	6.728112e-10	1.947298e+01	4.802217e+01
2.480000e-06	2.842343e-06	6.844790e-10	1.975055e+01	4.888689e+01
2.490000e-06	2.882119e-06	6.961553e-10	2.002694e+01	4.972236e+01
2.500000e-06	2.921786e-06	7.076893e-10	2.030257e+01	5.052935e+01
2.510000e-06	2.961373e-06	7.221931e-10	2.057764e+01	5.130864e+01
2.520000e-06	3.000758e-06	7.350046e-10	2.085132e+01	5.206105e+01
2.530000e-06	3.039870e-06	7.459649e-10	2.112310e+01	5.278741e+01
2.540000e-06	3.078759e-06	7.591511e-10	2.139333e+01	5.348857e+01
2.550000e-06	3.117476e-06	7.698743e-10	2.166236e+01	5.416541e+01
2.560000e-06	3.155934e-06	7.755412e-10	2.192959e+01	5.481879e+01
2.570000e-06	3.194094e-06	7.791032e-10	2.219475e+01	5.544956e+01
2.580000e-06	3.232025e-06	7.829984e-10	2.245832e+01	5.605859e+01
2.590000e-06	3.269768e-06	7.885148e-10	2.272059e+01	5.664672e+01
2.600000e-06	3.307367e-06	7.990429e-10	2.298185e+01	5.721477e+01
2.610000e-06	3.344777e-06	8.138280e-10	2.324180e+01	5.776353e+01
2.620000e-06	3.381924e-06	8.286687e-10	2.349992e+01	5.829376e+01
2.630000e-06	3.418790e-06	8.393323e-10	2.375609e+01	5.880617e+01
2.640000e-06	3.455400e-06	8.458598e-10	2.401048e+01	5.930146e+01
2.650000e-06	3.491725e-06	8.485313e-10	2.426290e+01	5.978025e+01
2.660000e-06	3.527836e-06	8.486043e-10	2.451381e+01	6.024313e+01
2.670000e-06	3.563817e-06	8.506297e-10	2.476384e+01	6.069061e+01
2.680000e-06	3.599675e-06	8.567204e-10	2.501301e+01	6.112318e+01
2.690000e-06	3.635404e-06	8.649827e-10	2.526127e+01	6.154124e+01
2.700000e-06	3.670963e-06	8.756024e-10	2.550836e+01	6.194516e+01
2.710000e-06	3.706343e-06	8.827691e-10	2.575421e+01	6.233523e+01
2.720000e-06	3.741519e-06	8.850087e-10	2.599864e+01	6.271171e+01
2.730000e-06	3.776273e-06	8.857060e-10	2.624013e+01	6.307478e+01
2.740000e-06	3.810532e-06	8.860701e-10	2.647818e+01	6.342461e+01
2.750000e-06	3.844273e-06	8.866169e-10	2.671264e+01	6.376129e+01
2.760000e-06	3.877404e-06	8.888661e-10	2.694285e+01	6.408488e+01
2.770000e-06	3.910152e-06	8.954871e-10	2.717041e+01	6.439544e+01
2.780000e-06	3.942646e-06	9.043560e-10	2.739620e+01	6.469296e+01
2.790000e-06	3.974858e-06	9.132081e-10	2.762003e+01	6.497743e+01
2.800000e-06	4.006881e-06	9.207145e-10	2.784255e+01	6.524885e+01
2.810000e-06	4.038776e-06	9.249409e-10	2.806418e+01	6.550718e+01
2.820000e-06	4.070537e-06	9.254766e-10	2.828487e+01	6.575241e+01
2.830000e-06	4.102136e-06	9.266104e-10	2.850445e+01	6.598454e+01
2.840000e-06	4.133516e-06	9.297441e-10	2.872250e+01	6.620358e+01
2.850000e-06	4.164513e-06	9.329122e-10	2.893788e+01	6.640959e+01
2.860000e-06	4.195141e-06	9.375681e-10	2.915071e+01	6.660265e+01
2.870000e-06	4.225541e-06	9.443520e-10	2.936195e+01	6.678286e+01
2.880000e-06	4.255562e-06	9.495851e-10	2.957056e+01	6.695041e+01
2.890000e-06	4.285263e-06	9.531556e-10	2.977694e+01	6.710550e+01
2.900000e-06	4.314719e-06	9.555227e-10	2.998162e+01	6.724842e+01
