# Temperatura_=_-6.45
# Concentracion g/m^3_=_1620.0
# C_Vs_to_Am_M_A/Vsm_=_65563218390.804596
# pendiente_HvsI_1/m_=_3716.3
# ordenada_HvsI_A/m_=_1297.0
# frecuencia_Hz_=_135108.8991250949

Tiempo_(s)	Campo_(V.s)	Magnetizacion_(V.s)	Campo_(kA/m)	Magnetizacion_(A/m)
0.000000e+00	-5.518247e-06	-1.457230e-09	-3.838186e+01	-9.267173e+01
1.000000e-08	-5.518525e-06	-1.454919e-09	-3.838379e+01	-9.263108e+01
2.000000e-08	-5.518513e-06	-1.455972e-09	-3.838371e+01	-9.259401e+01
3.000000e-08	-5.518107e-06	-1.457859e-09	-3.838089e+01	-9.256020e+01
4.000000e-08	-5.517193e-06	-1.458956e-09	-3.837453e+01	-9.252928e+01
5.000000e-08	-5.515664e-06	-1.458361e-09	-3.836389e+01	-9.250079e+01
6.000000e-08	-5.513503e-06	-1.460420e-09	-3.834886e+01	-9.247421e+01
7.000000e-08	-5.510757e-06	-1.471600e-09	-3.832976e+01	-9.244898e+01
8.000000e-08	-5.507503e-06	-1.454882e-09	-3.830713e+01	-9.242447e+01
9.000000e-08	-5.503865e-06	-1.412442e-09	-3.828183e+01	-9.240002e+01
1.000000e-07	-5.499921e-06	-1.446029e-09	-3.825439e+01	-9.237494e+01
1.100000e-07	-5.495549e-06	-1.518698e-09	-3.822398e+01	-9.234853e+01
1.200000e-07	-5.490806e-06	-1.490975e-09	-3.819100e+01	-9.232007e+01
1.300000e-07	-5.485861e-06	-1.381159e-09	-3.815660e+01	-9.228884e+01
1.400000e-07	-5.480734e-06	-1.382606e-09	-3.812094e+01	-9.225414e+01
1.500000e-07	-5.475253e-06	-1.511086e-09	-3.808281e+01	-9.221530e+01
1.600000e-07	-5.469252e-06	-1.509822e-09	-3.804108e+01	-9.217168e+01
1.700000e-07	-5.462874e-06	-1.405308e-09	-3.799671e+01	-9.212269e+01
1.800000e-07	-5.456174e-06	-1.381059e-09	-3.795011e+01	-9.206779e+01
1.900000e-07	-5.449094e-06	-1.496984e-09	-3.790087e+01	-9.200652e+01
2.000000e-07	-5.441721e-06	-1.501522e-09	-3.784958e+01	-9.193846e+01
2.100000e-07	-5.434110e-06	-1.418108e-09	-3.779665e+01	-9.186329e+01
2.200000e-07	-5.426132e-06	-1.390405e-09	-3.774116e+01	-9.178078e+01
2.300000e-07	-5.417792e-06	-1.467237e-09	-3.768315e+01	-9.169076e+01
2.400000e-07	-5.409004e-06	-1.487737e-09	-3.762202e+01	-9.159317e+01
2.500000e-07	-5.399617e-06	-1.433538e-09	-3.755673e+01	-9.148801e+01
2.600000e-07	-5.389597e-06	-1.401073e-09	-3.748704e+01	-9.137539e+01
2.700000e-07	-5.378958e-06	-1.428098e-09	-3.741304e+01	-9.125549e+01
2.800000e-07	-5.367824e-06	-1.434929e-09	-3.733560e+01	-9.112857e+01
2.900000e-07	-5.356265e-06	-1.396625e-09	-3.725520e+01	-9.099494e+01
3.000000e-07	-5.344345e-06	-1.392289e-09	-3.717229e+01	-9.085500e+01
3.100000e-07	-5.332083e-06	-1.407688e-09	-3.708700e+01	-9.070918e+01
3.200000e-07	-5.319424e-06	-1.419406e-09	-3.699896e+01	-9.055797e+01
3.300000e-07	-5.306287e-06	-1.379749e-09	-3.690758e+01	-9.040188e+01
3.400000e-07	-5.292715e-06	-1.375697e-09	-3.681318e+01	-9.024147e+01
3.500000e-07	-5.278830e-06	-1.397587e-09	-3.671661e+01	-9.007727e+01
3.600000e-07	-5.264547e-06	-1.405390e-09	-3.661726e+01	-8.990984e+01
3.700000e-07	-5.249708e-06	-1.362030e-09	-3.651405e+01	-8.973972e+01
3.800000e-07	-5.234513e-06	-1.383963e-09	-3.640836e+01	-8.956743e+01
3.900000e-07	-5.218804e-06	-1.408892e-09	-3.629910e+01	-8.939346e+01
4.000000e-07	-5.202307e-06	-1.366685e-09	-3.618435e+01	-8.921826e+01
4.100000e-07	-5.185449e-06	-1.335920e-09	-3.606710e+01	-8.904223e+01
4.200000e-07	-5.168465e-06	-1.408882e-09	-3.594897e+01	-8.886572e+01
4.300000e-07	-5.151192e-06	-1.407320e-09	-3.582883e+01	-8.868900e+01
4.400000e-07	-5.133482e-06	-1.337714e-09	-3.570564e+01	-8.851232e+01
4.500000e-07	-5.115355e-06	-1.371874e-09	-3.557957e+01	-8.833583e+01
4.600000e-07	-5.096904e-06	-1.434962e-09	-3.545123e+01	-8.815961e+01
4.700000e-07	-5.078045e-06	-1.358638e-09	-3.532006e+01	-8.798370e+01
4.800000e-07	-5.058836e-06	-1.322085e-09	-3.518645e+01	-8.780807e+01
4.900000e-07	-5.039437e-06	-1.388294e-09	-3.505152e+01	-8.763261e+01
5.000000e-07	-5.019835e-06	-1.365132e-09	-3.491518e+01	-8.745717e+01
5.100000e-07	-4.999981e-06	-1.302592e-09	-3.477709e+01	-8.728157e+01
5.200000e-07	-4.979855e-06	-1.359618e-09	-3.463710e+01	-8.710556e+01
5.300000e-07	-4.959313e-06	-1.378498e-09	-3.449422e+01	-8.692888e+01
5.400000e-07	-4.938295e-06	-1.306575e-09	-3.434803e+01	-8.675124e+01
5.500000e-07	-4.916999e-06	-1.335336e-09	-3.419991e+01	-8.657233e+01
5.600000e-07	-4.895457e-06	-1.389017e-09	-3.405008e+01	-8.639185e+01
5.700000e-07	-4.873517e-06	-1.326608e-09	-3.389747e+01	-8.620950e+01
5.800000e-07	-4.851175e-06	-1.301176e-09	-3.374208e+01	-8.602499e+01
5.900000e-07	-4.828490e-06	-1.361471e-09	-3.358430e+01	-8.583806e+01
6.000000e-07	-4.805479e-06	-1.332856e-09	-3.342424e+01	-8.564848e+01
6.100000e-07	-4.782229e-06	-1.285768e-09	-3.326253e+01	-8.545607e+01
6.200000e-07	-4.758787e-06	-1.325369e-09	-3.309948e+01	-8.526067e+01
6.300000e-07	-4.735082e-06	-1.337753e-09	-3.293460e+01	-8.506218e+01
6.400000e-07	-4.711072e-06	-1.295094e-09	-3.276760e+01	-8.486057e+01
6.500000e-07	-4.686646e-06	-1.315861e-09	-3.259770e+01	-8.465584e+01
6.600000e-07	-4.661735e-06	-1.333979e-09	-3.242443e+01	-8.444805e+01
6.700000e-07	-4.636413e-06	-1.298568e-09	-3.224831e+01	-8.423733e+01
6.800000e-07	-4.610560e-06	-1.286479e-09	-3.206849e+01	-8.402383e+01
6.900000e-07	-4.584056e-06	-1.305077e-09	-3.188415e+01	-8.380778e+01
7.000000e-07	-4.557083e-06	-1.281177e-09	-3.169653e+01	-8.358942e+01
7.100000e-07	-4.529838e-06	-1.270184e-09	-3.150703e+01	-8.336904e+01
7.200000e-07	-4.502415e-06	-1.289550e-09	-3.131629e+01	-8.314695e+01
7.300000e-07	-4.474835e-06	-1.289260e-09	-3.112446e+01	-8.292348e+01
7.400000e-07	-4.447094e-06	-1.274138e-09	-3.093151e+01	-8.269898e+01
7.500000e-07	-4.419134e-06	-1.281814e-09	-3.073704e+01	-8.247378e+01
7.600000e-07	-4.390824e-06	-1.277184e-09	-3.054013e+01	-8.224820e+01
7.700000e-07	-4.362135e-06	-1.260628e-09	-3.034058e+01	-8.202256e+01
7.800000e-07	-4.333107e-06	-1.257980e-09	-3.013869e+01	-8.179713e+01
7.900000e-07	-4.303815e-06	-1.257121e-09	-2.993495e+01	-8.157215e+01
8.000000e-07	-4.274301e-06	-1.244119e-09	-2.972966e+01	-8.134781e+01
8.100000e-07	-4.244476e-06	-1.243923e-09	-2.952221e+01	-8.112426e+01
8.200000e-07	-4.214293e-06	-1.247582e-09	-2.931228e+01	-8.090157e+01
8.300000e-07	-4.183755e-06	-1.235547e-09	-2.909987e+01	-8.067978e+01
8.400000e-07	-4.152865e-06	-1.228296e-09	-2.888502e+01	-8.045883e+01
8.500000e-07	-4.121708e-06	-1.233546e-09	-2.866831e+01	-8.023861e+01
8.600000e-07	-4.090404e-06	-1.229671e-09	-2.845057e+01	-8.001896e+01
8.700000e-07	-4.058992e-06	-1.217980e-09	-2.823209e+01	-7.979962e+01
8.800000e-07	-4.027440e-06	-1.215449e-09	-2.801264e+01	-7.958032e+01
8.900000e-07	-3.995703e-06	-1.205635e-09	-2.779189e+01	-7.936068e+01
9.000000e-07	-3.963676e-06	-1.191266e-09	-2.756913e+01	-7.914032e+01
9.100000e-07	-3.931250e-06	-1.185708e-09	-2.734359e+01	-7.891879e+01
9.200000e-07	-3.898452e-06	-1.185303e-09	-2.711546e+01	-7.869562e+01
9.300000e-07	-3.865268e-06	-1.176215e-09	-2.688466e+01	-7.847031e+01
9.400000e-07	-3.831589e-06	-1.174181e-09	-2.665040e+01	-7.824237e+01
9.500000e-07	-3.797345e-06	-1.177033e-09	-2.641222e+01	-7.801127e+01
9.600000e-07	-3.762689e-06	-1.169742e-09	-2.617117e+01	-7.777653e+01
9.700000e-07	-3.727792e-06	-1.156703e-09	-2.592845e+01	-7.753767e+01
9.800000e-07	-3.692634e-06	-1.154076e-09	-2.568391e+01	-7.729424e+01
9.900000e-07	-3.657273e-06	-1.147317e-09	-2.543796e+01	-7.704583e+01
1.000000e-06	-3.621784e-06	-1.137539e-09	-2.519112e+01	-7.679209e+01
1.010000e-06	-3.586214e-06	-1.130659e-09	-2.494371e+01	-7.653272e+01
1.020000e-06	-3.550432e-06	-1.128957e-09	-2.469483e+01	-7.626746e+01
1.030000e-06	-3.514384e-06	-1.122806e-09	-2.444410e+01	-7.599616e+01
1.040000e-06	-3.478140e-06	-1.122715e-09	-2.419201e+01	-7.571869e+01
1.050000e-06	-3.441660e-06	-1.126423e-09	-2.393828e+01	-7.543504e+01
1.060000e-06	-3.404857e-06	-1.121391e-09	-2.368229e+01	-7.514522e+01
1.070000e-06	-3.367757e-06	-1.106906e-09	-2.342425e+01	-7.484936e+01
1.080000e-06	-3.330476e-06	-1.094073e-09	-2.316494e+01	-7.454760e+01
1.090000e-06	-3.292967e-06	-1.082552e-09	-2.290405e+01	-7.424019e+01
1.100000e-06	-3.255266e-06	-1.072122e-09	-2.264182e+01	-7.392739e+01
1.110000e-06	-3.217278e-06	-1.068475e-09	-2.237760e+01	-7.360952e+01
1.120000e-06	-3.178947e-06	-1.066916e-09	-2.211099e+01	-7.328693e+01
1.130000e-06	-3.140455e-06	-1.063141e-09	-2.184326e+01	-7.296000e+01
1.140000e-06	-3.101830e-06	-1.058663e-09	-2.157461e+01	-7.262911e+01
1.150000e-06	-3.062996e-06	-1.056249e-09	-2.130450e+01	-7.229464e+01
1.160000e-06	-3.023929e-06	-1.050484e-09	-2.103277e+01	-7.195696e+01
1.170000e-06	-2.984690e-06	-1.042299e-09	-2.075984e+01	-7.161641e+01
1.180000e-06	-2.945306e-06	-1.035156e-09	-2.048591e+01	-7.127330e+01
1.190000e-06	-2.905807e-06	-1.028902e-09	-2.021118e+01	-7.092789e+01
1.200000e-06	-2.866198e-06	-1.021365e-09	-1.993568e+01	-7.058039e+01
1.210000e-06	-2.826465e-06	-1.014986e-09	-1.965932e+01	-7.023093e+01
1.220000e-06	-2.786555e-06	-1.009688e-09	-1.938173e+01	-6.987957e+01
1.230000e-06	-2.746422e-06	-1.008212e-09	-1.910259e+01	-6.952631e+01
1.240000e-06	-2.706075e-06	-1.006124e-09	-1.882195e+01	-6.917105e+01
1.250000e-06	-2.665500e-06	-1.002778e-09	-1.853974e+01	-6.881361e+01
1.260000e-06	-2.624590e-06	-9.959833e-10	-1.825519e+01	-6.845373e+01
1.270000e-06	-2.583422e-06	-9.847933e-10	-1.796884e+01	-6.809107e+01
1.280000e-06	-2.542033e-06	-9.688830e-10	-1.768097e+01	-6.772521e+01
1.290000e-06	-2.500291e-06	-9.571347e-10	-1.739063e+01	-6.735566e+01
1.300000e-06	-2.458226e-06	-9.492046e-10	-1.709805e+01	-6.698186e+01
1.310000e-06	-2.415905e-06	-9.439540e-10	-1.680369e+01	-6.660321e+01
1.320000e-06	-2.373367e-06	-9.401117e-10	-1.650782e+01	-6.621906e+01
1.330000e-06	-2.330598e-06	-9.356034e-10	-1.621034e+01	-6.582871e+01
1.340000e-06	-2.287619e-06	-9.270830e-10	-1.591141e+01	-6.543146e+01
1.350000e-06	-2.244472e-06	-9.176926e-10	-1.561130e+01	-6.502660e+01
1.360000e-06	-2.201100e-06	-9.107712e-10	-1.530963e+01	-6.461341e+01
1.370000e-06	-2.157568e-06	-9.051644e-10	-1.500684e+01	-6.419121e+01
1.380000e-06	-2.114001e-06	-8.994871e-10	-1.470382e+01	-6.375933e+01
1.390000e-06	-2.070397e-06	-8.933842e-10	-1.440053e+01	-6.331715e+01
1.400000e-06	-2.026704e-06	-8.838014e-10	-1.409663e+01	-6.286412e+01
1.410000e-06	-1.982922e-06	-8.725742e-10	-1.379210e+01	-6.239972e+01
1.420000e-06	-1.939098e-06	-8.624381e-10	-1.348729e+01	-6.192352e+01
1.430000e-06	-1.895207e-06	-8.512587e-10	-1.318201e+01	-6.143516e+01
1.440000e-06	-1.851186e-06	-8.406049e-10	-1.287582e+01	-6.093436e+01
1.450000e-06	-1.807045e-06	-8.337080e-10	-1.256880e+01	-6.042091e+01
1.460000e-06	-1.762770e-06	-8.293503e-10	-1.226085e+01	-5.989471e+01
1.470000e-06	-1.718312e-06	-8.216640e-10	-1.195163e+01	-5.935570e+01
1.480000e-06	-1.673687e-06	-8.130898e-10	-1.164124e+01	-5.880391e+01
1.490000e-06	-1.628940e-06	-8.050715e-10	-1.133000e+01	-5.823943e+01
1.500000e-06	-1.584104e-06	-7.926953e-10	-1.101815e+01	-5.766240e+01
1.510000e-06	-1.539137e-06	-7.760213e-10	-1.070538e+01	-5.707301e+01
1.520000e-06	-1.493999e-06	-7.611423e-10	-1.039142e+01	-5.647147e+01
1.530000e-06	-1.448739e-06	-7.490665e-10	-1.007662e+01	-5.585802e+01
1.540000e-06	-1.403369e-06	-7.410189e-10	-9.761053e+00	-5.523289e+01
1.550000e-06	-1.357900e-06	-7.352923e-10	-9.444795e+00	-5.459627e+01
1.560000e-06	-1.312415e-06	-7.280039e-10	-9.128427e+00	-5.394835e+01
1.570000e-06	-1.266933e-06	-7.152448e-10	-8.812083e+00	-5.328925e+01
1.580000e-06	-1.221349e-06	-7.007167e-10	-8.495027e+00	-5.261901e+01
1.590000e-06	-1.175643e-06	-6.835778e-10	-8.177117e+00	-5.193762e+01
1.600000e-06	-1.129861e-06	-6.643558e-10	-7.858687e+00	-5.124493e+01
1.610000e-06	-1.083977e-06	-6.471073e-10	-7.539542e+00	-5.054069e+01
1.620000e-06	-1.038050e-06	-6.346216e-10	-7.220101e+00	-4.982454e+01
1.630000e-06	-9.920174e-07	-6.262077e-10	-6.899921e+00	-4.909595e+01
1.640000e-06	-9.458463e-07	-6.203586e-10	-6.578781e+00	-4.835429e+01
1.650000e-06	-8.995961e-07	-6.141116e-10	-6.257090e+00	-4.759876e+01
1.660000e-06	-8.532886e-07	-6.048812e-10	-5.935001e+00	-4.682840e+01
1.670000e-06	-8.069547e-07	-5.923817e-10	-5.612728e+00	-4.604212e+01
1.680000e-06	-7.606323e-07	-5.762885e-10	-5.290536e+00	-4.523868e+01
1.690000e-06	-7.142920e-07	-5.588542e-10	-4.968218e+00	-4.441671e+01
1.700000e-06	-6.678315e-07	-5.423117e-10	-4.645065e+00	-4.357471e+01
1.710000e-06	-6.213400e-07	-5.254156e-10	-4.321696e+00	-4.271106e+01
1.720000e-06	-5.748049e-07	-5.082612e-10	-3.998023e+00	-4.182407e+01
1.730000e-06	-5.281960e-07	-4.928826e-10	-3.673838e+00	-4.091194e+01
1.740000e-06	-4.816386e-07	-4.809353e-10	-3.350011e+00	-3.997283e+01
1.750000e-06	-4.350509e-07	-4.706557e-10	-3.025972e+00	-3.900486e+01
1.760000e-06	-3.883593e-07	-4.559085e-10	-2.701211e+00	-3.800616e+01
1.770000e-06	-3.416520e-07	-4.373316e-10	-2.376341e+00	-3.697484e+01
1.780000e-06	-2.949189e-07	-4.178121e-10	-2.051292e+00	-3.590908e+01
1.790000e-06	-2.481202e-07	-3.998743e-10	-1.725786e+00	-3.480713e+01
1.800000e-06	-2.012748e-07	-3.841269e-10	-1.399955e+00	-3.366732e+01
1.810000e-06	-1.544335e-07	-3.702320e-10	-1.074154e+00	-3.248812e+01
1.820000e-06	-1.076371e-07	-3.564100e-10	-7.486639e-01	-3.126813e+01
1.830000e-06	-6.079001e-08	-3.407772e-10	-4.228215e-01	-3.000613e+01
1.840000e-06	-1.389755e-08	-3.233102e-10	-9.666362e-02	-2.870111e+01
1.850000e-06	3.292986e-08	-3.057991e-10	2.290418e-01	-2.735224e+01
1.860000e-06	7.973349e-08	-2.891268e-10	5.545818e-01	-2.595896e+01
1.870000e-06	1.266276e-07	-2.710494e-10	8.807511e-01	-2.452093e+01
1.880000e-06	1.735968e-07	-2.512028e-10	1.207443e+00	-2.303809e+01
1.890000e-06	2.204629e-07	-2.300660e-10	1.533417e+00	-2.151063e+01
1.900000e-06	2.672977e-07	-2.069836e-10	1.859174e+00	-1.993902e+01
1.910000e-06	3.140594e-07	-1.835027e-10	2.184423e+00	-1.832401e+01
1.920000e-06	3.607261e-07	-1.590785e-10	2.509011e+00	-1.666664e+01
1.930000e-06	4.074577e-07	-1.348625e-10	2.834049e+00	-1.496818e+01
1.940000e-06	4.541293e-07	-1.124481e-10	3.158671e+00	-1.323022e+01
1.950000e-06	5.007016e-07	-9.136793e-11	3.482602e+00	-1.145455e+01
1.960000e-06	5.471592e-07	-6.935439e-11	3.805735e+00	-9.643235e+00
1.970000e-06	5.935529e-07	-4.546107e-11	4.128424e+00	-7.798545e+00
1.980000e-06	6.400244e-07	-2.070900e-11	4.451654e+00	-5.922962e+00
1.990000e-06	6.864578e-07	6.545350e-12	4.774619e+00	-4.019148e+00
2.000000e-06	7.327447e-07	3.597539e-11	5.096565e+00	-2.089929e+00
2.010000e-06	7.790071e-07	6.506708e-11	5.418340e+00	-1.382669e-01
2.020000e-06	8.252707e-07	9.311998e-11	5.740124e+00	1.832765e+00
2.030000e-06	8.714521e-07	1.204524e-10	6.061336e+00	3.820007e+00
2.040000e-06	9.175764e-07	1.475883e-10	6.382151e+00	5.820238e+00
2.050000e-06	9.636649e-07	1.746902e-10	6.702717e+00	7.830204e+00
2.060000e-06	1.009645e-06	2.005171e-10	7.022533e+00	9.846640e+00
2.070000e-06	1.055564e-06	2.271739e-10	7.341917e+00	1.186630e+01
2.080000e-06	1.101435e-06	2.522963e-10	7.660966e+00	1.388597e+01
2.090000e-06	1.147161e-06	2.790728e-10	7.979014e+00	1.590251e+01
2.100000e-06	1.192766e-06	3.086838e-10	8.296216e+00	1.791285e+01
2.110000e-06	1.238303e-06	3.393709e-10	8.612949e+00	1.991403e+01
2.120000e-06	1.283811e-06	3.695444e-10	8.929479e+00	2.190321e+01
2.130000e-06	1.329256e-06	3.985523e-10	9.245567e+00	2.387767e+01
2.140000e-06	1.374586e-06	4.252304e-10	9.560853e+00	2.583485e+01
2.150000e-06	1.419840e-06	4.458406e-10	9.875619e+00	2.777234e+01
2.160000e-06	1.465023e-06	4.652769e-10	1.018989e+01	2.968790e+01
2.170000e-06	1.510136e-06	4.870482e-10	1.050366e+01	3.157945e+01
2.180000e-06	1.555059e-06	5.130655e-10	1.081613e+01	3.344509e+01
2.190000e-06	1.599825e-06	5.432053e-10	1.112750e+01	3.528311e+01
2.200000e-06	1.644584e-06	5.741648e-10	1.143881e+01	3.709196e+01
2.210000e-06	1.689208e-06	6.050105e-10	1.174919e+01	3.887026e+01
2.220000e-06	1.733663e-06	6.318160e-10	1.205840e+01	4.061682e+01
2.230000e-06	1.778008e-06	6.533630e-10	1.236684e+01	4.233059e+01
2.240000e-06	1.822211e-06	6.721979e-10	1.267429e+01	4.401071e+01
2.250000e-06	1.866225e-06	6.870062e-10	1.298042e+01	4.565644e+01
2.260000e-06	1.910104e-06	7.056832e-10	1.328562e+01	4.726721e+01
2.270000e-06	1.953936e-06	7.287365e-10	1.359049e+01	4.884257e+01
2.280000e-06	1.997672e-06	7.546240e-10	1.389470e+01	5.038220e+01
2.290000e-06	2.041291e-06	7.804208e-10	1.419809e+01	5.188589e+01
2.300000e-06	2.084882e-06	8.027454e-10	1.450128e+01	5.335355e+01
2.310000e-06	2.128421e-06	8.226079e-10	1.480412e+01	5.478518e+01
2.320000e-06	2.171874e-06	8.387335e-10	1.510635e+01	5.618086e+01
2.330000e-06	2.215255e-06	8.531305e-10	1.540808e+01	5.754076e+01
2.340000e-06	2.258538e-06	8.682533e-10	1.570914e+01	5.886510e+01
2.350000e-06	2.301724e-06	8.857094e-10	1.600951e+01	6.015419e+01
2.360000e-06	2.344708e-06	9.043029e-10	1.630849e+01	6.140837e+01
2.370000e-06	2.387433e-06	9.224113e-10	1.660566e+01	6.262803e+01
2.380000e-06	2.429845e-06	9.397242e-10	1.690065e+01	6.381360e+01
2.390000e-06	2.471964e-06	9.551986e-10	1.719361e+01	6.496557e+01
2.400000e-06	2.513822e-06	9.701101e-10	1.748475e+01	6.608441e+01
2.410000e-06	2.555383e-06	9.858182e-10	1.777383e+01	6.717066e+01
2.420000e-06	2.596647e-06	9.989244e-10	1.806083e+01	6.822486e+01
2.430000e-06	2.637620e-06	1.011204e-09	1.834582e+01	6.924756e+01
2.440000e-06	2.678293e-06	1.025828e-09	1.862872e+01	7.023933e+01
2.450000e-06	2.718673e-06	1.038764e-09	1.890958e+01	7.120077e+01
2.460000e-06	2.758878e-06	1.048780e-09	1.918922e+01	7.213245e+01
2.470000e-06	2.798832e-06	1.059007e-09	1.946712e+01	7.303499e+01
2.480000e-06	2.838582e-06	1.070584e-09	1.974360e+01	7.390899e+01
2.490000e-06	2.878243e-06	1.083491e-09	2.001946e+01	7.475506e+01
2.500000e-06	2.917787e-06	1.095097e-09	2.029450e+01	7.557380e+01
2.510000e-06	2.957240e-06	1.107816e-09	2.056892e+01	7.636584e+01
2.520000e-06	2.996545e-06	1.119388e-09	2.084230e+01	7.713179e+01
2.530000e-06	3.035634e-06	1.130029e-09	2.111418e+01	7.787226e+01
2.540000e-06	3.074527e-06	1.141584e-09	2.138470e+01	7.858786e+01
2.550000e-06	3.113205e-06	1.149979e-09	2.165372e+01	7.927920e+01
2.560000e-06	3.151679e-06	1.154216e-09	2.192132e+01	7.994689e+01
2.570000e-06	3.189887e-06	1.155621e-09	2.218708e+01	8.059153e+01
2.580000e-06	3.227799e-06	1.158329e-09	2.245078e+01	8.121371e+01
2.590000e-06	3.265494e-06	1.165108e-09	2.271296e+01	8.181403e+01
2.600000e-06	3.302977e-06	1.176986e-09	2.297367e+01	8.239305e+01
2.610000e-06	3.340277e-06	1.191191e-09	2.323311e+01	8.295136e+01
2.620000e-06	3.377444e-06	1.204031e-09	2.349162e+01	8.348951e+01
2.630000e-06	3.414352e-06	1.213425e-09	2.374833e+01	8.400805e+01
2.640000e-06	3.450940e-06	1.219908e-09	2.400282e+01	8.450753e+01
2.650000e-06	3.487338e-06	1.224694e-09	2.425598e+01	8.498848e+01
2.660000e-06	3.523507e-06	1.228012e-09	2.450755e+01	8.545141e+01
2.670000e-06	3.559413e-06	1.231358e-09	2.475730e+01	8.589683e+01
2.680000e-06	3.595128e-06	1.235576e-09	2.500571e+01	8.632523e+01
2.690000e-06	3.630710e-06	1.242851e-09	2.525320e+01	8.673709e+01
2.700000e-06	3.666181e-06	1.252504e-09	2.549992e+01	8.713289e+01
2.710000e-06	3.701445e-06	1.258713e-09	2.574520e+01	8.751308e+01
2.720000e-06	3.736508e-06	1.262841e-09	2.598907e+01	8.787811e+01
2.730000e-06	3.771306e-06	1.265459e-09	2.623111e+01	8.822841e+01
2.740000e-06	3.805611e-06	1.267173e-09	2.646971e+01	8.856442e+01
2.750000e-06	3.839461e-06	1.268843e-09	2.670516e+01	8.888656e+01
2.760000e-06	3.872997e-06	1.271242e-09	2.693842e+01	8.919523e+01
2.770000e-06	3.906088e-06	1.276988e-09	2.716857e+01	8.949084e+01
2.780000e-06	3.938631e-06	1.283736e-09	2.739493e+01	8.977379e+01
2.790000e-06	3.970768e-06	1.289934e-09	2.761845e+01	9.004448e+01
2.800000e-06	4.002667e-06	1.296790e-09	2.784033e+01	9.030329e+01
2.810000e-06	4.034393e-06	1.303492e-09	2.806099e+01	9.055061e+01
2.820000e-06	4.065989e-06	1.307323e-09	2.828076e+01	9.078682e+01
2.830000e-06	4.097404e-06	1.309136e-09	2.849927e+01	9.101230e+01
2.840000e-06	4.128614e-06	1.311507e-09	2.871634e+01	9.122744e+01
2.850000e-06	4.159659e-06	1.314516e-09	2.893227e+01	9.143260e+01
2.860000e-06	4.190350e-06	1.320460e-09	2.914575e+01	9.162816e+01
2.870000e-06	4.220615e-06	1.328629e-09	2.935625e+01	9.181450e+01
2.880000e-06	4.250551e-06	1.333026e-09	2.956447e+01	9.199199e+01
2.890000e-06	4.280195e-06	1.334003e-09	2.977065e+01	9.216098e+01
2.900000e-06	4.309587e-06	1.336271e-09	2.997509e+01	9.232186e+01
