# Temperatura_=_-26.35
# Concentracion g/m^3_=_1620.0
# C_Vs_to_Am_M_A/Vsm_=_65563218390.804596
# pendiente_HvsI_1/m_=_3716.3
# ordenada_HvsI_A/m_=_1297.0
# frecuencia_Hz_=_135092.38094643885

Tiempo_(s)	Campo_(V.s)	Magnetizacion_(V.s)	Campo_(kA/m)	Magnetizacion_(A/m)
0.000000e+00	-5.520956e-06	-1.162106e-09	-3.837938e+01	-7.439081e+01
1.000000e-08	-5.521188e-06	-1.161003e-09	-3.838100e+01	-7.442448e+01
2.000000e-08	-5.521060e-06	-1.164624e-09	-3.838011e+01	-7.445591e+01
3.000000e-08	-5.520536e-06	-1.167190e-09	-3.837647e+01	-7.448502e+01
4.000000e-08	-5.519637e-06	-1.167287e-09	-3.837021e+01	-7.451174e+01
5.000000e-08	-5.518189e-06	-1.163955e-09	-3.836015e+01	-7.453603e+01
6.000000e-08	-5.516149e-06	-1.163341e-09	-3.834597e+01	-7.455789e+01
7.000000e-08	-5.513581e-06	-1.200574e-09	-3.832811e+01	-7.457732e+01
8.000000e-08	-5.510450e-06	-1.225158e-09	-3.830635e+01	-7.459436e+01
9.000000e-08	-5.506793e-06	-1.123188e-09	-3.828093e+01	-7.460907e+01
1.000000e-07	-5.502730e-06	-1.017730e-09	-3.825268e+01	-7.462155e+01
1.100000e-07	-5.498536e-06	-1.138908e-09	-3.822353e+01	-7.463188e+01
1.200000e-07	-5.494043e-06	-1.257510e-09	-3.819230e+01	-7.464022e+01
1.300000e-07	-5.489119e-06	-1.212318e-09	-3.815806e+01	-7.464669e+01
1.400000e-07	-5.483813e-06	-1.042901e-09	-3.812118e+01	-7.465146e+01
1.500000e-07	-5.478154e-06	-1.106128e-09	-3.808184e+01	-7.465471e+01
1.600000e-07	-5.472159e-06	-1.259987e-09	-3.804017e+01	-7.465663e+01
1.700000e-07	-5.465666e-06	-1.211437e-09	-3.799503e+01	-7.465740e+01
1.800000e-07	-5.458786e-06	-1.050416e-09	-3.794721e+01	-7.465722e+01
1.900000e-07	-5.451646e-06	-1.058337e-09	-3.789757e+01	-7.465628e+01
2.000000e-07	-5.444219e-06	-1.233864e-09	-3.784594e+01	-7.465478e+01
2.100000e-07	-5.436478e-06	-1.251185e-09	-3.779213e+01	-7.465289e+01
2.200000e-07	-5.428541e-06	-1.143037e-09	-3.773695e+01	-7.465079e+01
2.300000e-07	-5.420385e-06	-1.087458e-09	-3.768026e+01	-7.464864e+01
2.400000e-07	-5.411711e-06	-1.190666e-09	-3.761996e+01	-7.464657e+01
2.500000e-07	-5.402333e-06	-1.191876e-09	-3.755477e+01	-7.464471e+01
2.600000e-07	-5.392340e-06	-1.134289e-09	-3.748530e+01	-7.464316e+01
2.700000e-07	-5.381753e-06	-1.101921e-09	-3.741170e+01	-7.464199e+01
2.800000e-07	-5.370656e-06	-1.166628e-09	-3.733456e+01	-7.464125e+01
2.900000e-07	-5.359052e-06	-1.167486e-09	-3.725390e+01	-7.464098e+01
3.000000e-07	-5.347055e-06	-1.128567e-09	-3.717050e+01	-7.464117e+01
3.100000e-07	-5.334707e-06	-1.108655e-09	-3.708466e+01	-7.464181e+01
3.200000e-07	-5.321915e-06	-1.175904e-09	-3.699574e+01	-7.464286e+01
3.300000e-07	-5.308810e-06	-1.179821e-09	-3.690463e+01	-7.464424e+01
3.400000e-07	-5.295290e-06	-1.109003e-09	-3.681065e+01	-7.464588e+01
3.500000e-07	-5.281275e-06	-1.111519e-09	-3.671322e+01	-7.464767e+01
3.600000e-07	-5.266911e-06	-1.177088e-09	-3.661337e+01	-7.464949e+01
3.700000e-07	-5.252055e-06	-1.149648e-09	-3.651009e+01	-7.465122e+01
3.800000e-07	-5.236580e-06	-1.106723e-09	-3.640252e+01	-7.465272e+01
3.900000e-07	-5.220586e-06	-1.184299e-09	-3.629134e+01	-7.465384e+01
4.000000e-07	-5.204130e-06	-1.178828e-09	-3.617694e+01	-7.465445e+01
4.100000e-07	-5.187353e-06	-1.086685e-09	-3.606031e+01	-7.465440e+01
4.200000e-07	-5.170248e-06	-1.133262e-09	-3.594141e+01	-7.465356e+01
4.300000e-07	-5.152906e-06	-1.240093e-09	-3.582085e+01	-7.465179e+01
4.400000e-07	-5.135273e-06	-1.136351e-09	-3.569828e+01	-7.464898e+01
4.500000e-07	-5.117155e-06	-1.086268e-09	-3.557233e+01	-7.464503e+01
4.600000e-07	-5.098603e-06	-1.203213e-09	-3.544336e+01	-7.463985e+01
4.700000e-07	-5.079760e-06	-1.198446e-09	-3.531238e+01	-7.463338e+01
4.800000e-07	-5.060557e-06	-1.085900e-09	-3.517888e+01	-7.462555e+01
4.900000e-07	-5.040980e-06	-1.162092e-09	-3.504279e+01	-7.461635e+01
5.000000e-07	-5.021217e-06	-1.195506e-09	-3.490541e+01	-7.460576e+01
5.100000e-07	-5.001277e-06	-1.087348e-09	-3.476679e+01	-7.459380e+01
5.200000e-07	-4.980991e-06	-1.113809e-09	-3.462577e+01	-7.458049e+01
5.300000e-07	-4.960423e-06	-1.222027e-09	-3.448280e+01	-7.456588e+01
5.400000e-07	-4.939547e-06	-1.124944e-09	-3.433767e+01	-7.455004e+01
5.500000e-07	-4.918237e-06	-1.077376e-09	-3.418953e+01	-7.453304e+01
5.600000e-07	-4.896585e-06	-1.189530e-09	-3.403902e+01	-7.451499e+01
5.700000e-07	-4.874632e-06	-1.182603e-09	-3.388641e+01	-7.449596e+01
5.800000e-07	-4.852343e-06	-1.092012e-09	-3.373146e+01	-7.447608e+01
5.900000e-07	-4.829725e-06	-1.149615e-09	-3.357423e+01	-7.445543e+01
6.000000e-07	-4.806747e-06	-1.176257e-09	-3.341450e+01	-7.443413e+01
6.100000e-07	-4.783387e-06	-1.099347e-09	-3.325211e+01	-7.441228e+01
6.200000e-07	-4.759837e-06	-1.112633e-09	-3.308840e+01	-7.438997e+01
6.300000e-07	-4.736131e-06	-1.165638e-09	-3.292361e+01	-7.436726e+01
6.400000e-07	-4.712107e-06	-1.127017e-09	-3.275660e+01	-7.434423e+01
6.500000e-07	-4.687684e-06	-1.119957e-09	-3.258683e+01	-7.432091e+01
6.600000e-07	-4.662787e-06	-1.165300e-09	-3.241375e+01	-7.429734e+01
6.700000e-07	-4.637393e-06	-1.139509e-09	-3.223722e+01	-7.427352e+01
6.800000e-07	-4.611440e-06	-1.111502e-09	-3.205681e+01	-7.424941e+01
6.900000e-07	-4.584982e-06	-1.139289e-09	-3.187289e+01	-7.422498e+01
7.000000e-07	-4.558080e-06	-1.137570e-09	-3.168587e+01	-7.420016e+01
7.100000e-07	-4.530750e-06	-1.106085e-09	-3.149589e+01	-7.417484e+01
7.200000e-07	-4.503174e-06	-1.125495e-09	-3.130419e+01	-7.414891e+01
7.300000e-07	-4.475444e-06	-1.139918e-09	-3.111142e+01	-7.412222e+01
7.400000e-07	-4.447550e-06	-1.125950e-09	-3.091751e+01	-7.409462e+01
7.500000e-07	-4.419454e-06	-1.121207e-09	-3.072220e+01	-7.406592e+01
7.600000e-07	-4.391047e-06	-1.133262e-09	-3.052473e+01	-7.403594e+01
7.700000e-07	-4.362253e-06	-1.118711e-09	-3.032456e+01	-7.400445e+01
7.800000e-07	-4.333252e-06	-1.115947e-09	-3.012296e+01	-7.397126e+01
7.900000e-07	-4.304019e-06	-1.121291e-09	-2.991975e+01	-7.393615e+01
8.000000e-07	-4.274407e-06	-1.113152e-09	-2.971389e+01	-7.389890e+01
8.100000e-07	-4.244503e-06	-1.101067e-09	-2.950601e+01	-7.385931e+01
8.200000e-07	-4.214301e-06	-1.113687e-09	-2.929606e+01	-7.381718e+01
8.300000e-07	-4.183742e-06	-1.110002e-09	-2.908363e+01	-7.377233e+01
8.400000e-07	-4.152875e-06	-1.096482e-09	-2.886906e+01	-7.372459e+01
8.500000e-07	-4.121827e-06	-1.104758e-09	-2.865322e+01	-7.367382e+01
8.600000e-07	-4.090632e-06	-1.118177e-09	-2.843637e+01	-7.361991e+01
8.700000e-07	-4.059216e-06	-1.104374e-09	-2.821798e+01	-7.356278e+01
8.800000e-07	-4.027597e-06	-1.101539e-09	-2.799817e+01	-7.350237e+01
8.900000e-07	-3.995733e-06	-1.104511e-09	-2.777667e+01	-7.343867e+01
9.000000e-07	-3.963664e-06	-1.090564e-09	-2.755374e+01	-7.337169e+01
9.100000e-07	-3.931319e-06	-1.083397e-09	-2.732889e+01	-7.330148e+01
9.200000e-07	-3.898621e-06	-1.096915e-09	-2.710159e+01	-7.322813e+01
9.300000e-07	-3.865592e-06	-1.096575e-09	-2.687198e+01	-7.315177e+01
9.400000e-07	-3.832082e-06	-1.085600e-09	-2.663904e+01	-7.307255e+01
9.500000e-07	-3.798073e-06	-1.096424e-09	-2.640262e+01	-7.299066e+01
9.600000e-07	-3.763722e-06	-1.100204e-09	-2.616382e+01	-7.290632e+01
9.700000e-07	-3.728927e-06	-1.083487e-09	-2.592195e+01	-7.281976e+01
9.800000e-07	-3.693675e-06	-1.074695e-09	-2.567689e+01	-7.273125e+01
9.900000e-07	-3.658172e-06	-1.080806e-09	-2.543009e+01	-7.264106e+01
1.000000e-06	-3.622529e-06	-1.073611e-09	-2.518231e+01	-7.254948e+01
1.010000e-06	-3.586807e-06	-1.069996e-09	-2.493398e+01	-7.245679e+01
1.020000e-06	-3.550939e-06	-1.080009e-09	-2.468465e+01	-7.236330e+01
1.030000e-06	-3.514934e-06	-1.082038e-09	-2.443436e+01	-7.226927e+01
1.040000e-06	-3.478718e-06	-1.071645e-09	-2.418260e+01	-7.217498e+01
1.050000e-06	-3.442202e-06	-1.074423e-09	-2.392875e+01	-7.208069e+01
1.060000e-06	-3.405493e-06	-1.073371e-09	-2.367357e+01	-7.198661e+01
1.070000e-06	-3.368521e-06	-1.063761e-09	-2.341655e+01	-7.189294e+01
1.080000e-06	-3.331197e-06	-1.059465e-09	-2.315709e+01	-7.179984e+01
1.090000e-06	-3.293661e-06	-1.063932e-09	-2.289616e+01	-7.170744e+01
1.100000e-06	-3.255956e-06	-1.059737e-09	-2.263405e+01	-7.161581e+01
1.110000e-06	-3.218084e-06	-1.057218e-09	-2.237078e+01	-7.152499e+01
1.120000e-06	-3.179987e-06	-1.058159e-09	-2.210595e+01	-7.143494e+01
1.130000e-06	-3.141619e-06	-1.052082e-09	-2.183923e+01	-7.134560e+01
1.140000e-06	-3.102976e-06	-1.043089e-09	-2.157059e+01	-7.125684e+01
1.150000e-06	-3.064171e-06	-1.047265e-09	-2.130084e+01	-7.116848e+01
1.160000e-06	-3.025228e-06	-1.052745e-09	-2.103013e+01	-7.108030e+01
1.170000e-06	-2.986005e-06	-1.052700e-09	-2.075746e+01	-7.099199e+01
1.180000e-06	-2.946540e-06	-1.052952e-09	-2.048312e+01	-7.090323e+01
1.190000e-06	-2.906928e-06	-1.054755e-09	-2.020775e+01	-7.081364e+01
1.200000e-06	-2.867233e-06	-1.045881e-09	-1.993181e+01	-7.072278e+01
1.210000e-06	-2.827441e-06	-1.035136e-09	-1.965519e+01	-7.063019e+01
1.220000e-06	-2.787490e-06	-1.032320e-09	-1.937747e+01	-7.053537e+01
1.230000e-06	-2.747411e-06	-1.030023e-09	-1.909885e+01	-7.043778e+01
1.240000e-06	-2.707143e-06	-1.029071e-09	-1.881893e+01	-7.033686e+01
1.250000e-06	-2.666564e-06	-1.034866e-09	-1.853684e+01	-7.023204e+01
1.260000e-06	-2.625794e-06	-1.040333e-09	-1.825342e+01	-7.012274e+01
1.270000e-06	-2.584816e-06	-1.032358e-09	-1.796856e+01	-7.000835e+01
1.280000e-06	-2.543620e-06	-1.021812e-09	-1.768218e+01	-6.988829e+01
1.290000e-06	-2.502204e-06	-1.013649e-09	-1.739428e+01	-6.976196e+01
1.300000e-06	-2.460491e-06	-1.006978e-09	-1.710431e+01	-6.962880e+01
1.310000e-06	-2.418400e-06	-9.998482e-10	-1.681171e+01	-6.948824e+01
1.320000e-06	-2.375851e-06	-9.984159e-10	-1.651593e+01	-6.933975e+01
1.330000e-06	-2.332979e-06	-9.969095e-10	-1.621790e+01	-6.918283e+01
1.340000e-06	-2.289904e-06	-9.941806e-10	-1.591846e+01	-6.901700e+01
1.350000e-06	-2.246673e-06	-9.926017e-10	-1.561793e+01	-6.884184e+01
1.360000e-06	-2.203270e-06	-9.917008e-10	-1.531621e+01	-6.865694e+01
1.370000e-06	-2.159763e-06	-9.863161e-10	-1.501377e+01	-6.846195e+01
1.380000e-06	-2.116166e-06	-9.803344e-10	-1.471070e+01	-6.825656e+01
1.390000e-06	-2.072460e-06	-9.739805e-10	-1.440688e+01	-6.804051e+01
1.400000e-06	-2.028646e-06	-9.659379e-10	-1.410230e+01	-6.781355e+01
1.410000e-06	-1.984708e-06	-9.579570e-10	-1.379686e+01	-6.757552e+01
1.420000e-06	-1.940734e-06	-9.548263e-10	-1.349117e+01	-6.732627e+01
1.430000e-06	-1.896710e-06	-9.517902e-10	-1.318514e+01	-6.706570e+01
1.440000e-06	-1.852582e-06	-9.476056e-10	-1.287838e+01	-6.679373e+01
1.450000e-06	-1.808339e-06	-9.442623e-10	-1.257082e+01	-6.651034e+01
1.460000e-06	-1.763887e-06	-9.409080e-10	-1.226181e+01	-6.621549e+01
1.470000e-06	-1.719292e-06	-9.335026e-10	-1.195180e+01	-6.590920e+01
1.480000e-06	-1.674543e-06	-9.234538e-10	-1.164073e+01	-6.559150e+01
1.490000e-06	-1.629713e-06	-9.165067e-10	-1.132908e+01	-6.526240e+01
1.500000e-06	-1.584823e-06	-9.086064e-10	-1.101703e+01	-6.492193e+01
1.510000e-06	-1.539733e-06	-8.984219e-10	-1.070358e+01	-6.457013e+01
1.520000e-06	-1.494567e-06	-8.908861e-10	-1.038960e+01	-6.420699e+01
1.530000e-06	-1.449363e-06	-8.860216e-10	-1.007537e+01	-6.383253e+01
1.540000e-06	-1.404038e-06	-8.821734e-10	-9.760285e+00	-6.344669e+01
1.550000e-06	-1.358667e-06	-8.815670e-10	-9.444885e+00	-6.304941e+01
1.560000e-06	-1.313199e-06	-8.769754e-10	-9.128813e+00	-6.264059e+01
1.570000e-06	-1.267599e-06	-8.668763e-10	-8.811823e+00	-6.222007e+01
1.580000e-06	-1.221941e-06	-8.559736e-10	-8.494425e+00	-6.178765e+01
1.590000e-06	-1.176195e-06	-8.454986e-10	-8.176419e+00	-6.134306e+01
1.600000e-06	-1.130402e-06	-8.357306e-10	-7.858083e+00	-6.088599e+01
1.610000e-06	-1.084474e-06	-8.277502e-10	-7.538808e+00	-6.041604e+01
1.620000e-06	-1.038433e-06	-8.186758e-10	-7.218756e+00	-5.993276e+01
1.630000e-06	-9.923759e-07	-8.099750e-10	-6.898583e+00	-5.943562e+01
1.640000e-06	-9.461640e-07	-8.034597e-10	-6.577338e+00	-5.892403e+01
1.650000e-06	-8.998881e-07	-7.998566e-10	-6.255647e+00	-5.839732e+01
1.660000e-06	-8.536576e-07	-7.959380e-10	-5.934272e+00	-5.785474e+01
1.670000e-06	-8.073790e-07	-7.887323e-10	-5.612562e+00	-5.729550e+01
1.680000e-06	-7.610328e-07	-7.786765e-10	-5.290382e+00	-5.671870e+01
1.690000e-06	-7.146309e-07	-7.671239e-10	-4.967816e+00	-5.612342e+01
1.700000e-06	-6.681239e-07	-7.541934e-10	-4.644519e+00	-5.550866e+01
1.710000e-06	-6.215643e-07	-7.397078e-10	-4.320856e+00	-5.487336e+01
1.720000e-06	-5.750265e-07	-7.255091e-10	-3.997344e+00	-5.421643e+01
1.730000e-06	-5.285091e-07	-7.142203e-10	-3.673975e+00	-5.353675e+01
1.740000e-06	-4.819484e-07	-7.068053e-10	-3.350304e+00	-5.283313e+01
1.750000e-06	-4.353041e-07	-7.020425e-10	-3.026052e+00	-5.210441e+01
1.760000e-06	-3.885810e-07	-6.926156e-10	-2.701253e+00	-5.134938e+01
1.770000e-06	-3.417952e-07	-6.783761e-10	-2.376018e+00	-5.056685e+01
1.780000e-06	-2.950525e-07	-6.614941e-10	-2.051082e+00	-4.975562e+01
1.790000e-06	-2.482812e-07	-6.442842e-10	-1.725947e+00	-4.891454e+01
1.800000e-06	-2.014528e-07	-6.304932e-10	-1.400416e+00	-4.804248e+01
1.810000e-06	-1.545718e-07	-6.188036e-10	-1.074518e+00	-4.713834e+01
1.820000e-06	-1.076796e-07	-6.085777e-10	-7.485433e-01	-4.620110e+01
1.830000e-06	-6.086167e-08	-5.979789e-10	-4.230850e-01	-4.522980e+01
1.840000e-06	-1.395424e-08	-5.850318e-10	-9.700403e-02	-4.422356e+01
1.850000e-06	3.302405e-08	-5.717932e-10	2.295694e-01	-4.318159e+01
1.860000e-06	7.990356e-08	-5.569390e-10	5.554562e-01	-4.210320e+01
1.870000e-06	1.266882e-07	-5.406664e-10	8.806838e-01	-4.098783e+01
1.880000e-06	1.734176e-07	-5.248275e-10	1.205527e+00	-3.983502e+01
1.890000e-06	2.202574e-07	-5.080415e-10	1.531138e+00	-3.864447e+01
1.900000e-06	2.670661e-07	-4.889935e-10	1.856532e+00	-3.741599e+01
1.910000e-06	3.138218e-07	-4.693435e-10	2.181558e+00	-3.614955e+01
1.920000e-06	3.606688e-07	-4.506859e-10	2.507219e+00	-3.484529e+01
1.930000e-06	4.073740e-07	-4.300544e-10	2.831894e+00	-3.350348e+01
1.940000e-06	4.539247e-07	-4.101996e-10	3.155495e+00	-3.212457e+01
1.950000e-06	5.004683e-07	-3.908910e-10	3.479047e+00	-3.070917e+01
1.960000e-06	5.469898e-07	-3.721182e-10	3.802445e+00	-2.925806e+01
1.970000e-06	5.935017e-07	-3.529537e-10	4.125777e+00	-2.777217e+01
1.980000e-06	6.399194e-07	-3.335608e-10	4.448453e+00	-2.625261e+01
1.990000e-06	6.862781e-07	-3.121601e-10	4.770720e+00	-2.470064e+01
2.000000e-06	7.325810e-07	-2.879987e-10	5.092598e+00	-2.311769e+01
2.010000e-06	7.787526e-07	-2.636037e-10	5.413564e+00	-2.150531e+01
2.020000e-06	8.248609e-07	-2.389047e-10	5.734089e+00	-1.986524e+01
2.030000e-06	8.709762e-07	-2.121667e-10	6.054663e+00	-1.819931e+01
2.040000e-06	9.171683e-07	-1.857095e-10	6.375772e+00	-1.650949e+01
2.050000e-06	9.633278e-07	-1.618756e-10	6.696654e+00	-1.479789e+01
2.060000e-06	1.009348e-06	-1.402857e-10	7.016566e+00	-1.306668e+01
2.070000e-06	1.055238e-06	-1.185825e-10	7.335577e+00	-1.131816e+01
2.080000e-06	1.100996e-06	-9.616457e-11	7.653668e+00	-9.554687e+00
2.090000e-06	1.146633e-06	-7.179771e-11	7.970916e+00	-7.778692e+00
2.100000e-06	1.192254e-06	-4.421077e-11	8.288054e+00	-5.992653e+00
2.110000e-06	1.237921e-06	-1.593866e-11	8.605513e+00	-4.199088e+00
2.120000e-06	1.283526e-06	1.044061e-11	8.922535e+00	-2.400535e+00
2.130000e-06	1.329011e-06	3.595116e-11	9.238729e+00	-5.995400e-01
2.140000e-06	1.374398e-06	5.835531e-11	9.554242e+00	1.201356e+00
2.150000e-06	1.419663e-06	7.769541e-11	9.868904e+00	2.999633e+00
2.160000e-06	1.464816e-06	9.727821e-11	1.018279e+01	4.792808e+00
2.170000e-06	1.509905e-06	1.174542e-10	1.049623e+01	6.578442e+00
2.180000e-06	1.554859e-06	1.427004e-10	1.080873e+01	8.354161e+00
2.190000e-06	1.599677e-06	1.709944e-10	1.112028e+01	1.011766e+01
2.200000e-06	1.644437e-06	2.003793e-10	1.143144e+01	1.186672e+01
2.210000e-06	1.689017e-06	2.286967e-10	1.174134e+01	1.359921e+01
2.220000e-06	1.733472e-06	2.532501e-10	1.205037e+01	1.531312e+01
2.230000e-06	1.777861e-06	2.749526e-10	1.235895e+01	1.700652e+01
2.240000e-06	1.822174e-06	2.938747e-10	1.266699e+01	1.867762e+01
2.250000e-06	1.866398e-06	3.097317e-10	1.297442e+01	2.032476e+01
2.260000e-06	1.910441e-06	3.272046e-10	1.328059e+01	2.194638e+01
2.270000e-06	1.954407e-06	3.489895e-10	1.358622e+01	2.354109e+01
2.280000e-06	1.998326e-06	3.733341e-10	1.389153e+01	2.510759e+01
2.290000e-06	2.042128e-06	3.958790e-10	1.419602e+01	2.664476e+01
2.300000e-06	2.085842e-06	4.172907e-10	1.449991e+01	2.815159e+01
2.310000e-06	2.129462e-06	4.386154e-10	1.480313e+01	2.962720e+01
2.320000e-06	2.172982e-06	4.565272e-10	1.510566e+01	3.107086e+01
2.330000e-06	2.216369e-06	4.713917e-10	1.540728e+01	3.248196e+01
2.340000e-06	2.259607e-06	4.852108e-10	1.570784e+01	3.386002e+01
2.350000e-06	2.302682e-06	4.999034e-10	1.600729e+01	3.520468e+01
2.360000e-06	2.345485e-06	5.171423e-10	1.630484e+01	3.651569e+01
2.370000e-06	2.388008e-06	5.368340e-10	1.660044e+01	3.779292e+01
2.380000e-06	2.430367e-06	5.560345e-10	1.689490e+01	3.903635e+01
2.390000e-06	2.472459e-06	5.724047e-10	1.718751e+01	4.024604e+01
2.400000e-06	2.514165e-06	5.890851e-10	1.747742e+01	4.142215e+01
2.410000e-06	2.555580e-06	6.040316e-10	1.776533e+01	4.256493e+01
2.420000e-06	2.596728e-06	6.204732e-10	1.805137e+01	4.367470e+01
2.430000e-06	2.637588e-06	6.347201e-10	1.833541e+01	4.475185e+01
2.440000e-06	2.678206e-06	6.457226e-10	1.861777e+01	4.579684e+01
2.450000e-06	2.718671e-06	6.563376e-10	1.889907e+01	4.681017e+01
2.460000e-06	2.758947e-06	6.695337e-10	1.917905e+01	4.779240e+01
2.470000e-06	2.798966e-06	6.862586e-10	1.945724e+01	4.874413e+01
2.480000e-06	2.838892e-06	7.020204e-10	1.973480e+01	4.966600e+01
2.490000e-06	2.878669e-06	7.180918e-10	2.001130e+01	5.055866e+01
2.500000e-06	2.918251e-06	7.303028e-10	2.028646e+01	5.142279e+01
2.510000e-06	2.957768e-06	7.420315e-10	2.056117e+01	5.225911e+01
2.520000e-06	2.997112e-06	7.495320e-10	2.083467e+01	5.306833e+01
2.530000e-06	3.036230e-06	7.586541e-10	2.110660e+01	5.385117e+01
2.540000e-06	3.075101e-06	7.722178e-10	2.137682e+01	5.460834e+01
2.550000e-06	3.113749e-06	7.841023e-10	2.164549e+01	5.534059e+01
2.560000e-06	3.152179e-06	7.950634e-10	2.191263e+01	5.604863e+01
2.570000e-06	3.190431e-06	8.046638e-10	2.217855e+01	5.673317e+01
2.580000e-06	3.228479e-06	8.136728e-10	2.244304e+01	5.739491e+01
2.590000e-06	3.266247e-06	8.201569e-10	2.270559e+01	5.803455e+01
2.600000e-06	3.303799e-06	8.286182e-10	2.296663e+01	5.865276e+01
2.610000e-06	3.341125e-06	8.430515e-10	2.322611e+01	5.925019e+01
2.620000e-06	3.378240e-06	8.574224e-10	2.348412e+01	5.982749e+01
2.630000e-06	3.415160e-06	8.693296e-10	2.374077e+01	6.038527e+01
2.640000e-06	3.451879e-06	8.770669e-10	2.399602e+01	6.092414e+01
2.650000e-06	3.488379e-06	8.839996e-10	2.424975e+01	6.144467e+01
2.660000e-06	3.524664e-06	8.904234e-10	2.450200e+01	6.194740e+01
2.670000e-06	3.560773e-06	8.952357e-10	2.475301e+01	6.243289e+01
2.680000e-06	3.596672e-06	9.014358e-10	2.500256e+01	6.290162e+01
2.690000e-06	3.632338e-06	9.093411e-10	2.525050e+01	6.335409e+01
2.700000e-06	3.667787e-06	9.174369e-10	2.549692e+01	6.379075e+01
2.710000e-06	3.703009e-06	9.232712e-10	2.574178e+01	6.421205e+01
2.720000e-06	3.738020e-06	9.292821e-10	2.598516e+01	6.461840e+01
2.730000e-06	3.772724e-06	9.361358e-10	2.622641e+01	6.501020e+01
2.740000e-06	3.806962e-06	9.412221e-10	2.646441e+01	6.538781e+01
2.750000e-06	3.840849e-06	9.439002e-10	2.669998e+01	6.575160e+01
2.760000e-06	3.874329e-06	9.453095e-10	2.693272e+01	6.610190e+01
2.770000e-06	3.907304e-06	9.489406e-10	2.716195e+01	6.643901e+01
2.780000e-06	3.939880e-06	9.545031e-10	2.738840e+01	6.676325e+01
2.790000e-06	3.972160e-06	9.623134e-10	2.761280e+01	6.707490e+01
2.800000e-06	4.004261e-06	9.711011e-10	2.783595e+01	6.737424e+01
2.810000e-06	4.036143e-06	9.777345e-10	2.805759e+01	6.766151e+01
2.820000e-06	4.067829e-06	9.827142e-10	2.827785e+01	6.793699e+01
2.830000e-06	4.099280e-06	9.861033e-10	2.849648e+01	6.820090e+01
2.840000e-06	4.130438e-06	9.877663e-10	2.871308e+01	6.845349e+01
2.850000e-06	4.161247e-06	9.869707e-10	2.892726e+01	6.869499e+01
2.860000e-06	4.191819e-06	9.886132e-10	2.913978e+01	6.892564e+01
2.870000e-06	4.222216e-06	9.938265e-10	2.935108e+01	6.914566e+01
2.880000e-06	4.252209e-06	9.996215e-10	2.955959e+01	6.935529e+01
2.890000e-06	4.281851e-06	1.002675e-09	2.976565e+01	6.955478e+01
2.900000e-06	4.311272e-06	1.005466e-09	2.997017e+01	6.974435e+01
