# Temperatura_=_-14.79
# Concentracion g/m^3_=_1620.0
# C_Vs_to_Am_M_A/Vsm_=_65563218390.804596
# pendiente_HvsI_1/m_=_3716.3
# ordenada_HvsI_A/m_=_1297.0
# frecuencia_Hz_=_135097.9028768835

Tiempo_(s)	Campo_(V.s)	Magnetizacion_(V.s)	Campo_(kA/m)	Magnetizacion_(A/m)
0.000000e+00	-5.521934e-06	-1.277520e-09	-3.836851e+01	-8.200568e+01
1.000000e-08	-5.522199e-06	-1.275422e-09	-3.837035e+01	-8.199624e+01
2.000000e-08	-5.522254e-06	-1.276791e-09	-3.837074e+01	-8.198522e+01
3.000000e-08	-5.521967e-06	-1.280278e-09	-3.836874e+01	-8.197209e+01
4.000000e-08	-5.521264e-06	-1.282300e-09	-3.836385e+01	-8.195633e+01
5.000000e-08	-5.520147e-06	-1.279364e-09	-3.835610e+01	-8.193740e+01
6.000000e-08	-5.518442e-06	-1.266089e-09	-3.834425e+01	-8.191479e+01
7.000000e-08	-5.516121e-06	-1.243124e-09	-3.832812e+01	-8.188804e+01
8.000000e-08	-5.513248e-06	-1.253881e-09	-3.830815e+01	-8.185671e+01
9.000000e-08	-5.509857e-06	-1.325961e-09	-3.828459e+01	-8.182042e+01
1.000000e-07	-5.505977e-06	-1.356376e-09	-3.825764e+01	-8.177887e+01
1.100000e-07	-5.501681e-06	-1.269759e-09	-3.822778e+01	-8.173180e+01
1.200000e-07	-5.497236e-06	-1.218002e-09	-3.819690e+01	-8.167907e+01
1.300000e-07	-5.492632e-06	-1.247307e-09	-3.816491e+01	-8.162060e+01
1.400000e-07	-5.487686e-06	-1.310831e-09	-3.813054e+01	-8.155640e+01
1.500000e-07	-5.482264e-06	-1.258317e-09	-3.809287e+01	-8.148657e+01
1.600000e-07	-5.476414e-06	-1.223505e-09	-3.805222e+01	-8.141132e+01
1.700000e-07	-5.470202e-06	-1.288739e-09	-3.800906e+01	-8.133093e+01
1.800000e-07	-5.463457e-06	-1.307669e-09	-3.796219e+01	-8.124578e+01
1.900000e-07	-5.456293e-06	-1.251550e-09	-3.791241e+01	-8.115631e+01
2.000000e-07	-5.448902e-06	-1.187524e-09	-3.786106e+01	-8.106305e+01
2.100000e-07	-5.441205e-06	-1.236188e-09	-3.780758e+01	-8.096659e+01
2.200000e-07	-5.433280e-06	-1.261222e-09	-3.775251e+01	-8.086758e+01
2.300000e-07	-5.425220e-06	-1.257952e-09	-3.769650e+01	-8.076671e+01
2.400000e-07	-5.416911e-06	-1.227905e-09	-3.763877e+01	-8.066469e+01
2.500000e-07	-5.407950e-06	-1.227664e-09	-3.757650e+01	-8.056227e+01
2.600000e-07	-5.398063e-06	-1.209234e-09	-3.750781e+01	-8.046019e+01
2.700000e-07	-5.387519e-06	-1.214894e-09	-3.743455e+01	-8.035919e+01
2.800000e-07	-5.376605e-06	-1.216242e-09	-3.735871e+01	-8.025999e+01
2.900000e-07	-5.365266e-06	-1.228180e-09	-3.727992e+01	-8.016326e+01
3.000000e-07	-5.353398e-06	-1.228521e-09	-3.719746e+01	-8.006965e+01
3.100000e-07	-5.341147e-06	-1.225208e-09	-3.711233e+01	-7.997974e+01
3.200000e-07	-5.328548e-06	-1.208534e-09	-3.702479e+01	-7.989405e+01
3.300000e-07	-5.315461e-06	-1.193572e-09	-3.693386e+01	-7.981301e+01
3.400000e-07	-5.302064e-06	-1.207693e-09	-3.684077e+01	-7.973698e+01
3.500000e-07	-5.288418e-06	-1.203109e-09	-3.674595e+01	-7.966623e+01
3.600000e-07	-5.274330e-06	-1.193065e-09	-3.664806e+01	-7.960093e+01
3.700000e-07	-5.259670e-06	-1.210159e-09	-3.654620e+01	-7.954117e+01
3.800000e-07	-5.244344e-06	-1.218284e-09	-3.643971e+01	-7.948693e+01
3.900000e-07	-5.228486e-06	-1.183789e-09	-3.632952e+01	-7.943811e+01
4.000000e-07	-5.212245e-06	-1.189618e-09	-3.621667e+01	-7.939450e+01
4.100000e-07	-5.195649e-06	-1.213754e-09	-3.610136e+01	-7.935582e+01
4.200000e-07	-5.178705e-06	-1.189933e-09	-3.598362e+01	-7.932171e+01
4.300000e-07	-5.161447e-06	-1.171887e-09	-3.586371e+01	-7.929174e+01
4.400000e-07	-5.143938e-06	-1.233877e-09	-3.574205e+01	-7.926540e+01
4.500000e-07	-5.126116e-06	-1.222224e-09	-3.561821e+01	-7.924214e+01
4.600000e-07	-5.107774e-06	-1.168587e-09	-3.549077e+01	-7.922138e+01
4.700000e-07	-5.088881e-06	-1.187787e-09	-3.535949e+01	-7.920249e+01
4.800000e-07	-5.069698e-06	-1.226145e-09	-3.522620e+01	-7.918483e+01
4.900000e-07	-5.050282e-06	-1.176117e-09	-3.509129e+01	-7.916774e+01
5.000000e-07	-5.030614e-06	-1.182142e-09	-3.495463e+01	-7.915058e+01
5.100000e-07	-5.010790e-06	-1.220994e-09	-3.481689e+01	-7.913271e+01
5.200000e-07	-4.990735e-06	-1.185908e-09	-3.467754e+01	-7.911354e+01
5.300000e-07	-4.970341e-06	-1.155460e-09	-3.453583e+01	-7.909249e+01
5.400000e-07	-4.949598e-06	-1.215700e-09	-3.439170e+01	-7.906903e+01
5.500000e-07	-4.928477e-06	-1.205805e-09	-3.424494e+01	-7.904268e+01
5.600000e-07	-4.906955e-06	-1.153833e-09	-3.409540e+01	-7.901303e+01
5.700000e-07	-4.885079e-06	-1.186759e-09	-3.394340e+01	-7.897972e+01
5.800000e-07	-4.862943e-06	-1.214702e-09	-3.378959e+01	-7.894245e+01
5.900000e-07	-4.840403e-06	-1.166542e-09	-3.363297e+01	-7.890101e+01
6.000000e-07	-4.817455e-06	-1.172225e-09	-3.347352e+01	-7.885523e+01
6.100000e-07	-4.794191e-06	-1.201049e-09	-3.331187e+01	-7.880501e+01
6.200000e-07	-4.770618e-06	-1.165912e-09	-3.314808e+01	-7.875035e+01
6.300000e-07	-4.746870e-06	-1.151146e-09	-3.298307e+01	-7.869125e+01
6.400000e-07	-4.722953e-06	-1.182170e-09	-3.281689e+01	-7.862782e+01
6.500000e-07	-4.698782e-06	-1.174691e-09	-3.264894e+01	-7.856018e+01
6.600000e-07	-4.674269e-06	-1.156532e-09	-3.247861e+01	-7.848851e+01
6.700000e-07	-4.649295e-06	-1.180349e-09	-3.230508e+01	-7.841303e+01
6.800000e-07	-4.623725e-06	-1.174856e-09	-3.212741e+01	-7.833396e+01
6.900000e-07	-4.597520e-06	-1.150584e-09	-3.194533e+01	-7.825156e+01
7.000000e-07	-4.570854e-06	-1.155517e-09	-3.176004e+01	-7.816609e+01
7.100000e-07	-4.543772e-06	-1.166677e-09	-3.157187e+01	-7.807782e+01
7.200000e-07	-4.516269e-06	-1.154824e-09	-3.138076e+01	-7.798700e+01
7.300000e-07	-4.488564e-06	-1.164971e-09	-3.118826e+01	-7.789387e+01
7.400000e-07	-4.460762e-06	-1.175560e-09	-3.099508e+01	-7.779865e+01
7.500000e-07	-4.432792e-06	-1.166770e-09	-3.080073e+01	-7.770153e+01
7.600000e-07	-4.404556e-06	-1.155758e-09	-3.060454e+01	-7.760266e+01
7.700000e-07	-4.376067e-06	-1.159421e-09	-3.040659e+01	-7.750217e+01
7.800000e-07	-4.347277e-06	-1.150162e-09	-3.020654e+01	-7.740012e+01
7.900000e-07	-4.318152e-06	-1.145986e-09	-3.000417e+01	-7.729657e+01
8.000000e-07	-4.288736e-06	-1.154186e-09	-2.979978e+01	-7.719150e+01
8.100000e-07	-4.259002e-06	-1.159224e-09	-2.959317e+01	-7.708487e+01
8.200000e-07	-4.228860e-06	-1.149996e-09	-2.938373e+01	-7.697659e+01
8.300000e-07	-4.198357e-06	-1.154354e-09	-2.917179e+01	-7.686654e+01
8.400000e-07	-4.167608e-06	-1.154043e-09	-2.895814e+01	-7.675456e+01
8.500000e-07	-4.136580e-06	-1.146794e-09	-2.874254e+01	-7.664048e+01
8.600000e-07	-4.105325e-06	-1.145865e-09	-2.852537e+01	-7.652407e+01
8.700000e-07	-4.073915e-06	-1.151018e-09	-2.830712e+01	-7.640513e+01
8.800000e-07	-4.042308e-06	-1.142561e-09	-2.808750e+01	-7.628343e+01
8.900000e-07	-4.010496e-06	-1.134580e-09	-2.786646e+01	-7.615873e+01
9.000000e-07	-3.978549e-06	-1.137216e-09	-2.764448e+01	-7.603080e+01
9.100000e-07	-3.946383e-06	-1.135002e-09	-2.742098e+01	-7.589944e+01
9.200000e-07	-3.913786e-06	-1.127908e-09	-2.719448e+01	-7.576445e+01
9.300000e-07	-3.880756e-06	-1.129046e-09	-2.696498e+01	-7.562566e+01
9.400000e-07	-3.847332e-06	-1.128670e-09	-2.673274e+01	-7.548294e+01
9.500000e-07	-3.813455e-06	-1.117251e-09	-2.649734e+01	-7.533620e+01
9.600000e-07	-3.779119e-06	-1.115285e-09	-2.625877e+01	-7.518536e+01
9.700000e-07	-3.744309e-06	-1.117976e-09	-2.601689e+01	-7.503042e+01
9.800000e-07	-3.709095e-06	-1.113116e-09	-2.577221e+01	-7.487141e+01
9.900000e-07	-3.673619e-06	-1.109573e-09	-2.552571e+01	-7.470841e+01
1.000000e-06	-3.637974e-06	-1.116479e-09	-2.527803e+01	-7.454155e+01
1.010000e-06	-3.602260e-06	-1.112767e-09	-2.502988e+01	-7.437100e+01
1.020000e-06	-3.566455e-06	-1.102614e-09	-2.478109e+01	-7.419697e+01
1.030000e-06	-3.530480e-06	-1.097771e-09	-2.453113e+01	-7.401973e+01
1.040000e-06	-3.494269e-06	-1.096951e-09	-2.427952e+01	-7.383955e+01
1.050000e-06	-3.457805e-06	-1.091762e-09	-2.402615e+01	-7.365676e+01
1.060000e-06	-3.421070e-06	-1.093576e-09	-2.377090e+01	-7.347169e+01
1.070000e-06	-3.384070e-06	-1.093798e-09	-2.351381e+01	-7.328469e+01
1.080000e-06	-3.346903e-06	-1.088186e-09	-2.325556e+01	-7.309613e+01
1.090000e-06	-3.309547e-06	-1.080377e-09	-2.299600e+01	-7.290634e+01
1.100000e-06	-3.271913e-06	-1.077103e-09	-2.273450e+01	-7.271569e+01
1.110000e-06	-3.234007e-06	-1.068593e-09	-2.247112e+01	-7.252448e+01
1.120000e-06	-3.195891e-06	-1.058801e-09	-2.220627e+01	-7.233300e+01
1.130000e-06	-3.157596e-06	-1.051980e-09	-2.194019e+01	-7.214151e+01
1.140000e-06	-3.119128e-06	-1.049138e-09	-2.167290e+01	-7.195022e+01
1.150000e-06	-3.080360e-06	-1.047921e-09	-2.140352e+01	-7.175927e+01
1.160000e-06	-3.041339e-06	-1.051907e-09	-2.113239e+01	-7.156875e+01
1.170000e-06	-3.002136e-06	-1.053275e-09	-2.085999e+01	-7.137869e+01
1.180000e-06	-2.962723e-06	-1.047775e-09	-2.058614e+01	-7.118905e+01
1.190000e-06	-2.923205e-06	-1.040472e-09	-2.031155e+01	-7.099969e+01
1.200000e-06	-2.883574e-06	-1.034507e-09	-2.003617e+01	-7.081043e+01
1.210000e-06	-2.843788e-06	-1.028146e-09	-1.975973e+01	-7.062099e+01
1.220000e-06	-2.803919e-06	-1.022479e-09	-1.948270e+01	-7.043102e+01
1.230000e-06	-2.763962e-06	-1.021218e-09	-1.920506e+01	-7.024009e+01
1.240000e-06	-2.723890e-06	-1.018944e-09	-1.892663e+01	-7.004772e+01
1.250000e-06	-2.683674e-06	-1.015237e-09	-1.864719e+01	-6.985333e+01
1.260000e-06	-2.643126e-06	-1.011745e-09	-1.836545e+01	-6.965631e+01
1.270000e-06	-2.602198e-06	-1.008745e-09	-1.808107e+01	-6.945599e+01
1.280000e-06	-2.560987e-06	-1.000723e-09	-1.779472e+01	-6.925165e+01
1.290000e-06	-2.519436e-06	-9.922623e-10	-1.750601e+01	-6.904254e+01
1.300000e-06	-2.477675e-06	-9.874958e-10	-1.721584e+01	-6.882787e+01
1.310000e-06	-2.435697e-06	-9.845403e-10	-1.692415e+01	-6.860686e+01
1.320000e-06	-2.393337e-06	-9.793552e-10	-1.662982e+01	-6.837871e+01
1.330000e-06	-2.350642e-06	-9.760257e-10	-1.633316e+01	-6.814263e+01
1.340000e-06	-2.307671e-06	-9.729287e-10	-1.603458e+01	-6.789785e+01
1.350000e-06	-2.264449e-06	-9.705647e-10	-1.573426e+01	-6.764363e+01
1.360000e-06	-2.221052e-06	-9.680615e-10	-1.543272e+01	-6.737927e+01
1.370000e-06	-2.177522e-06	-9.648831e-10	-1.513025e+01	-6.710410e+01
1.380000e-06	-2.133858e-06	-9.588757e-10	-1.482686e+01	-6.681753e+01
1.390000e-06	-2.090110e-06	-9.512695e-10	-1.452289e+01	-6.651903e+01
1.400000e-06	-2.046321e-06	-9.422959e-10	-1.421862e+01	-6.620814e+01
1.410000e-06	-2.002512e-06	-9.347233e-10	-1.391422e+01	-6.588446e+01
1.420000e-06	-1.958612e-06	-9.273308e-10	-1.360919e+01	-6.554769e+01
1.430000e-06	-1.914628e-06	-9.205647e-10	-1.330357e+01	-6.519759e+01
1.440000e-06	-1.870582e-06	-9.160889e-10	-1.299752e+01	-6.483404e+01
1.450000e-06	-1.826465e-06	-9.098370e-10	-1.269098e+01	-6.445695e+01
1.460000e-06	-1.782200e-06	-9.014061e-10	-1.238340e+01	-6.406635e+01
1.470000e-06	-1.737759e-06	-8.944701e-10	-1.207462e+01	-6.366231e+01
1.480000e-06	-1.693185e-06	-8.871819e-10	-1.176490e+01	-6.324498e+01
1.490000e-06	-1.648501e-06	-8.809637e-10	-1.145442e+01	-6.281458e+01
1.500000e-06	-1.603756e-06	-8.735886e-10	-1.114351e+01	-6.237135e+01
1.510000e-06	-1.558784e-06	-8.649600e-10	-1.083103e+01	-6.191558e+01
1.520000e-06	-1.513618e-06	-8.547802e-10	-1.051720e+01	-6.144759e+01
1.530000e-06	-1.468448e-06	-8.461903e-10	-1.020334e+01	-6.096771e+01
1.540000e-06	-1.423180e-06	-8.399469e-10	-9.888796e+00	-6.047626e+01
1.550000e-06	-1.377755e-06	-8.337113e-10	-9.573172e+00	-5.997355e+01
1.560000e-06	-1.332269e-06	-8.269446e-10	-9.257113e+00	-5.945986e+01
1.570000e-06	-1.286714e-06	-8.185087e-10	-8.940578e+00	-5.893541e+01
1.580000e-06	-1.241044e-06	-8.082933e-10	-8.623249e+00	-5.840039e+01
1.590000e-06	-1.195304e-06	-7.959385e-10	-8.305430e+00	-5.785488e+01
1.600000e-06	-1.149495e-06	-7.828160e-10	-7.987134e+00	-5.729889e+01
1.610000e-06	-1.103653e-06	-7.704944e-10	-7.668601e+00	-5.673233e+01
1.620000e-06	-1.057754e-06	-7.597060e-10	-7.349682e+00	-5.615500e+01
1.630000e-06	-1.011754e-06	-7.500346e-10	-7.030057e+00	-5.556657e+01
1.640000e-06	-9.656466e-07	-7.445489e-10	-6.709682e+00	-5.496659e+01
1.650000e-06	-9.194205e-07	-7.392187e-10	-6.388485e+00	-5.435447e+01
1.660000e-06	-8.730879e-07	-7.349219e-10	-6.066549e+00	-5.372949e+01
1.670000e-06	-8.266440e-07	-7.272982e-10	-5.743839e+00	-5.309077e+01
1.680000e-06	-7.801732e-07	-7.170231e-10	-5.420942e+00	-5.243730e+01
1.690000e-06	-7.337066e-07	-7.045489e-10	-5.098074e+00	-5.176795e+01
1.700000e-06	-6.872104e-07	-6.900192e-10	-4.775001e+00	-5.108143e+01
1.710000e-06	-6.407307e-07	-6.743468e-10	-4.452042e+00	-5.037634e+01
1.720000e-06	-5.942857e-07	-6.599207e-10	-4.129324e+00	-4.965116e+01
1.730000e-06	-5.478173e-07	-6.488108e-10	-3.806444e+00	-4.890428e+01
1.740000e-06	-5.011859e-07	-6.406131e-10	-3.482432e+00	-4.813399e+01
1.750000e-06	-4.544223e-07	-6.297707e-10	-3.157500e+00	-4.733851e+01
1.760000e-06	-4.075554e-07	-6.153002e-10	-2.831851e+00	-4.651602e+01
1.770000e-06	-3.605881e-07	-5.993376e-10	-2.505504e+00	-4.566465e+01
1.780000e-06	-3.137405e-07	-5.828442e-10	-2.179989e+00	-4.478254e+01
1.790000e-06	-2.669811e-07	-5.660121e-10	-1.855087e+00	-4.386783e+01
1.800000e-06	-2.202013e-07	-5.510537e-10	-1.530043e+00	-4.291870e+01
1.810000e-06	-1.733324e-07	-5.391164e-10	-1.204380e+00	-4.193338e+01
1.820000e-06	-1.263911e-07	-5.302552e-10	-8.782136e-01	-4.091021e+01
1.830000e-06	-7.955114e-08	-5.206925e-10	-5.527518e-01	-3.984762e+01
1.840000e-06	-3.274416e-08	-5.062562e-10	-2.275190e-01	-3.874418e+01
1.850000e-06	1.415366e-08	-4.885087e-10	9.834502e-02	-3.759860e+01
1.860000e-06	6.108661e-08	-4.698282e-10	4.244532e-01	-3.640979e+01
1.870000e-06	1.080273e-07	-4.522570e-10	7.506148e-01	-3.517686e+01
1.880000e-06	1.549808e-07	-4.355861e-10	1.076866e+00	-3.389910e+01
1.890000e-06	2.019310e-07	-4.199662e-10	1.403094e+00	-3.257607e+01
1.900000e-06	2.488713e-07	-4.019045e-10	1.729253e+00	-3.120756e+01
1.910000e-06	2.957153e-07	-3.822042e-10	2.054743e+00	-2.979362e+01
1.920000e-06	3.424445e-07	-3.627675e-10	2.379435e+00	-2.833457e+01
1.930000e-06	3.892411e-07	-3.426280e-10	2.704596e+00	-2.683100e+01
1.940000e-06	4.360180e-07	-3.217951e-10	3.029620e+00	-2.528377e+01
1.950000e-06	4.826160e-07	-3.006188e-10	3.353401e+00	-2.369402e+01
1.960000e-06	5.291567e-07	-2.789138e-10	3.676783e+00	-2.206316e+01
1.970000e-06	5.756426e-07	-2.574727e-10	3.999785e+00	-2.039286e+01
1.980000e-06	6.221011e-07	-2.344517e-10	4.322596e+00	-1.868504e+01
1.990000e-06	6.685401e-07	-2.118843e-10	4.645273e+00	-1.694188e+01
2.000000e-06	7.148953e-07	-1.876506e-10	4.967366e+00	-1.516576e+01
2.010000e-06	7.611885e-07	-1.614225e-10	5.289029e+00	-1.335929e+01
2.020000e-06	8.075040e-07	-1.348931e-10	5.610847e+00	-1.152525e+01
2.030000e-06	8.538076e-07	-1.075161e-10	5.932582e+00	-9.666594e+00
2.040000e-06	9.000263e-07	-8.063549e-11	6.253727e+00	-7.786413e+00
2.050000e-06	9.461611e-07	-5.583288e-11	6.574289e+00	-5.887914e+00
2.060000e-06	9.922294e-07	-3.322046e-11	6.894389e+00	-3.974390e+00
2.070000e-06	1.038220e-06	-1.014234e-11	7.213948e+00	-2.049196e+00
2.080000e-06	1.084155e-06	1.386209e-11	7.533122e+00	-1.157160e-01
2.090000e-06	1.130067e-06	3.891791e-11	7.852136e+00	1.822658e+00
2.100000e-06	1.175905e-06	6.665002e-11	8.170638e+00	3.762560e+00
2.110000e-06	1.221610e-06	9.455849e-11	8.488216e+00	5.700671e+00
2.120000e-06	1.267248e-06	1.219919e-10	8.805324e+00	7.633749e+00
2.130000e-06	1.312811e-06	1.494379e-10	9.121912e+00	9.558651e+00
2.140000e-06	1.358234e-06	1.750703e-10	9.437526e+00	1.147235e+01
2.150000e-06	1.403567e-06	1.984437e-10	9.752524e+00	1.337198e+01
2.160000e-06	1.448782e-06	2.194625e-10	1.006669e+01	1.525481e+01
2.170000e-06	1.493881e-06	2.404284e-10	1.038005e+01	1.711829e+01
2.180000e-06	1.538932e-06	2.636301e-10	1.069309e+01	1.896006e+01
2.190000e-06	1.583945e-06	2.895288e-10	1.100586e+01	2.077798e+01
2.200000e-06	1.628802e-06	3.162534e-10	1.131754e+01	2.257008e+01
2.210000e-06	1.673493e-06	3.430977e-10	1.162807e+01	2.433461e+01
2.220000e-06	1.718092e-06	3.697008e-10	1.193796e+01	2.607005e+01
2.230000e-06	1.762496e-06	3.942170e-10	1.224650e+01	2.777507e+01
2.240000e-06	1.806685e-06	4.155811e-10	1.255354e+01	2.944855e+01
2.250000e-06	1.850778e-06	4.334862e-10	1.285992e+01	3.108958e+01
2.260000e-06	1.894784e-06	4.490044e-10	1.316568e+01	3.269743e+01
2.270000e-06	1.938751e-06	4.654117e-10	1.347118e+01	3.427156e+01
2.280000e-06	1.982689e-06	4.854051e-10	1.377648e+01	3.581160e+01
2.290000e-06	2.026522e-06	5.091509e-10	1.408105e+01	3.731734e+01
2.300000e-06	2.070265e-06	5.339138e-10	1.438499e+01	3.878869e+01
2.310000e-06	2.113929e-06	5.586207e-10	1.468839e+01	4.022573e+01
2.320000e-06	2.157555e-06	5.809893e-10	1.499152e+01	4.162860e+01
2.330000e-06	2.201118e-06	5.979013e-10	1.529421e+01	4.299756e+01
2.340000e-06	2.244499e-06	6.110747e-10	1.559564e+01	4.433296e+01
2.350000e-06	2.287725e-06	6.251399e-10	1.589599e+01	4.563520e+01
2.360000e-06	2.330795e-06	6.424769e-10	1.619525e+01	4.690471e+01
2.370000e-06	2.373622e-06	6.613330e-10	1.649283e+01	4.814198e+01
2.380000e-06	2.416200e-06	6.815607e-10	1.678868e+01	4.934751e+01
2.390000e-06	2.458371e-06	7.009485e-10	1.708170e+01	5.052181e+01
2.400000e-06	2.500173e-06	7.169616e-10	1.737216e+01	5.166538e+01
2.410000e-06	2.541687e-06	7.311549e-10	1.766061e+01	5.277873e+01
2.420000e-06	2.582885e-06	7.438469e-10	1.794687e+01	5.386233e+01
2.430000e-06	2.623898e-06	7.555336e-10	1.823185e+01	5.491664e+01
2.440000e-06	2.664653e-06	7.682747e-10	1.851503e+01	5.594209e+01
2.450000e-06	2.705081e-06	7.826734e-10	1.879594e+01	5.693910e+01
2.460000e-06	2.745335e-06	7.990984e-10	1.907564e+01	5.790802e+01
2.470000e-06	2.785425e-06	8.144341e-10	1.935420e+01	5.884923e+01
2.480000e-06	2.825375e-06	8.279253e-10	1.963179e+01	5.976304e+01
2.490000e-06	2.865219e-06	8.411413e-10	1.990864e+01	6.064977e+01
2.500000e-06	2.904896e-06	8.526902e-10	2.018433e+01	6.150970e+01
2.510000e-06	2.944484e-06	8.644118e-10	2.045940e+01	6.234313e+01
2.520000e-06	2.983892e-06	8.777153e-10	2.073322e+01	6.315033e+01
2.530000e-06	3.023036e-06	8.902175e-10	2.100521e+01	6.393159e+01
2.540000e-06	3.061945e-06	9.022467e-10	2.127556e+01	6.468721e+01
2.550000e-06	3.100605e-06	9.133688e-10	2.154419e+01	6.541749e+01
2.560000e-06	3.139142e-06	9.228650e-10	2.181196e+01	6.612278e+01
2.570000e-06	3.177406e-06	9.305588e-10	2.207783e+01	6.680343e+01
2.580000e-06	3.215366e-06	9.373452e-10	2.234159e+01	6.745984e+01
2.590000e-06	3.253255e-06	9.449885e-10	2.260486e+01	6.809245e+01
2.600000e-06	3.291021e-06	9.541393e-10	2.286727e+01	6.870174e+01
2.610000e-06	3.328552e-06	9.652391e-10	2.312805e+01	6.928820e+01
2.620000e-06	3.365808e-06	9.781691e-10	2.338692e+01	6.985241e+01
2.630000e-06	3.402789e-06	9.904705e-10	2.364388e+01	7.039496e+01
2.640000e-06	3.439498e-06	9.996096e-10	2.389895e+01	7.091649e+01
2.650000e-06	3.475999e-06	1.006486e-09	2.415257e+01	7.141767e+01
2.660000e-06	3.512291e-06	1.009799e-09	2.440474e+01	7.189922e+01
2.670000e-06	3.548354e-06	1.011850e-09	2.465532e+01	7.236186e+01
2.680000e-06	3.584224e-06	1.015182e-09	2.490456e+01	7.280634e+01
2.690000e-06	3.619975e-06	1.020355e-09	2.515297e+01	7.323344e+01
2.700000e-06	3.655611e-06	1.029009e-09	2.540058e+01	7.364392e+01
2.710000e-06	3.691141e-06	1.037197e-09	2.564746e+01	7.403856e+01
2.720000e-06	3.726498e-06	1.040314e-09	2.589313e+01	7.441811e+01
2.730000e-06	3.761464e-06	1.042407e-09	2.613609e+01	7.478331e+01
2.740000e-06	3.796073e-06	1.044923e-09	2.637656e+01	7.513487e+01
2.750000e-06	3.830275e-06	1.047176e-09	2.661422e+01	7.547348e+01
2.760000e-06	3.863920e-06	1.051693e-09	2.684800e+01	7.579976e+01
2.770000e-06	3.896975e-06	1.056349e-09	2.707767e+01	7.611430e+01
2.780000e-06	3.929568e-06	1.063814e-09	2.730414e+01	7.641763e+01
2.790000e-06	3.961877e-06	1.071012e-09	2.752864e+01	7.671023e+01
2.800000e-06	3.993998e-06	1.075524e-09	2.775183e+01	7.699251e+01
2.810000e-06	4.025972e-06	1.079753e-09	2.797400e+01	7.726483e+01
2.820000e-06	4.057773e-06	1.083512e-09	2.819496e+01	7.752747e+01
2.830000e-06	4.089425e-06	1.090451e-09	2.841489e+01	7.778066e+01
2.840000e-06	4.120898e-06	1.097407e-09	2.863358e+01	7.802458e+01
2.850000e-06	4.152054e-06	1.102977e-09	2.885006e+01	7.825932e+01
2.860000e-06	4.182812e-06	1.106339e-09	2.906378e+01	7.848497e+01
2.870000e-06	4.213189e-06	1.108890e-09	2.927485e+01	7.870154e+01
2.880000e-06	4.243237e-06	1.109903e-09	2.948364e+01	7.890902e+01
2.890000e-06	4.273026e-06	1.111241e-09	2.969062e+01	7.910737e+01
2.900000e-06	4.302563e-06	1.116730e-09	2.989586e+01	7.929652e+01
