# Temperatura_=_-11.7
# Concentracion g/m^3_=_1620.0
# C_Vs_to_Am_M_A/Vsm_=_65563218390.804596
# pendiente_HvsI_1/m_=_3716.3
# ordenada_HvsI_A/m_=_1297.0
# frecuencia_Hz_=_135106.12835004056

Tiempo_(s)	Campo_(V.s)	Magnetizacion_(V.s)	Campo_(kA/m)	Magnetizacion_(A/m)
0.000000e+00	-5.533372e-06	-1.358270e-09	-3.837005e+01	-8.647742e+01
1.000000e-08	-5.533606e-06	-1.352143e-09	-3.837167e+01	-8.642092e+01
2.000000e-08	-5.533611e-06	-1.350822e-09	-3.837171e+01	-8.636463e+01
3.000000e-08	-5.533306e-06	-1.350814e-09	-3.836959e+01	-8.630865e+01
4.000000e-08	-5.532592e-06	-1.349050e-09	-3.836464e+01	-8.625302e+01
5.000000e-08	-5.531430e-06	-1.348376e-09	-3.835658e+01	-8.619773e+01
6.000000e-08	-5.529759e-06	-1.350386e-09	-3.834500e+01	-8.614273e+01
7.000000e-08	-5.527429e-06	-1.342727e-09	-3.832884e+01	-8.608796e+01
8.000000e-08	-5.524438e-06	-1.320301e-09	-3.830810e+01	-8.603328e+01
9.000000e-08	-5.520925e-06	-1.322266e-09	-3.828374e+01	-8.597854e+01
1.000000e-07	-5.516985e-06	-1.393148e-09	-3.825642e+01	-8.592354e+01
1.100000e-07	-5.512670e-06	-1.428367e-09	-3.822650e+01	-8.586808e+01
1.200000e-07	-5.508062e-06	-1.350930e-09	-3.819455e+01	-8.581190e+01
1.300000e-07	-5.503275e-06	-1.241598e-09	-3.816135e+01	-8.575475e+01
1.400000e-07	-5.498227e-06	-1.298459e-09	-3.812634e+01	-8.569637e+01
1.500000e-07	-5.492730e-06	-1.382682e-09	-3.808823e+01	-8.563647e+01
1.600000e-07	-5.486815e-06	-1.370703e-09	-3.804721e+01	-8.557478e+01
1.700000e-07	-5.480603e-06	-1.278965e-09	-3.800414e+01	-8.551104e+01
1.800000e-07	-5.474021e-06	-1.304387e-09	-3.795849e+01	-8.544498e+01
1.900000e-07	-5.466844e-06	-1.378010e-09	-3.790873e+01	-8.537638e+01
2.000000e-07	-5.459276e-06	-1.360058e-09	-3.785625e+01	-8.530502e+01
2.100000e-07	-5.451572e-06	-1.284136e-09	-3.780282e+01	-8.523072e+01
2.200000e-07	-5.443582e-06	-1.291351e-09	-3.774742e+01	-8.515335e+01
2.300000e-07	-5.435269e-06	-1.369246e-09	-3.768978e+01	-8.507278e+01
2.400000e-07	-5.426731e-06	-1.373001e-09	-3.763057e+01	-8.498896e+01
2.500000e-07	-5.417755e-06	-1.317448e-09	-3.756833e+01	-8.490188e+01
2.600000e-07	-5.407958e-06	-1.286750e-09	-3.750039e+01	-8.481155e+01
2.700000e-07	-5.397385e-06	-1.328947e-09	-3.742708e+01	-8.471807e+01
2.800000e-07	-5.386367e-06	-1.326934e-09	-3.735068e+01	-8.462156e+01
2.900000e-07	-5.374975e-06	-1.310181e-09	-3.727168e+01	-8.452218e+01
3.000000e-07	-5.363158e-06	-1.305524e-09	-3.718974e+01	-8.442017e+01
3.100000e-07	-5.350962e-06	-1.335522e-09	-3.710517e+01	-8.431579e+01
3.200000e-07	-5.338395e-06	-1.306181e-09	-3.701803e+01	-8.420933e+01
3.300000e-07	-5.325445e-06	-1.272422e-09	-3.692822e+01	-8.410114e+01
3.400000e-07	-5.312065e-06	-1.262427e-09	-3.683544e+01	-8.399158e+01
3.500000e-07	-5.298301e-06	-1.290056e-09	-3.674000e+01	-8.388105e+01
3.600000e-07	-5.284137e-06	-1.270960e-09	-3.664179e+01	-8.376996e+01
3.700000e-07	-5.269477e-06	-1.273998e-09	-3.654013e+01	-8.365872e+01
3.800000e-07	-5.254338e-06	-1.306360e-09	-3.643515e+01	-8.354775e+01
3.900000e-07	-5.238580e-06	-1.318088e-09	-3.632588e+01	-8.343748e+01
4.000000e-07	-5.222142e-06	-1.265282e-09	-3.621189e+01	-8.332832e+01
4.100000e-07	-5.205309e-06	-1.264434e-09	-3.609516e+01	-8.322064e+01
4.200000e-07	-5.188275e-06	-1.298649e-09	-3.597704e+01	-8.311482e+01
4.300000e-07	-5.170891e-06	-1.269837e-09	-3.585650e+01	-8.301118e+01
4.400000e-07	-5.153136e-06	-1.239209e-09	-3.573338e+01	-8.291001e+01
4.500000e-07	-5.135200e-06	-1.289505e-09	-3.560901e+01	-8.281156e+01
4.600000e-07	-5.116922e-06	-1.315630e-09	-3.548226e+01	-8.271602e+01
4.700000e-07	-5.098108e-06	-1.259196e-09	-3.535180e+01	-8.262353e+01
4.800000e-07	-5.078899e-06	-1.262501e-09	-3.521860e+01	-8.253419e+01
4.900000e-07	-5.059495e-06	-1.299669e-09	-3.508405e+01	-8.244800e+01
5.000000e-07	-5.039883e-06	-1.270385e-09	-3.494805e+01	-8.236494e+01
5.100000e-07	-5.020015e-06	-1.235932e-09	-3.481029e+01	-8.228491e+01
5.200000e-07	-4.999854e-06	-1.272779e-09	-3.467048e+01	-8.220775e+01
5.300000e-07	-4.979354e-06	-1.262317e-09	-3.452833e+01	-8.213325e+01
5.400000e-07	-4.958504e-06	-1.231342e-09	-3.438375e+01	-8.206113e+01
5.500000e-07	-4.937352e-06	-1.260318e-09	-3.423707e+01	-8.199108e+01
5.600000e-07	-4.915845e-06	-1.285110e-09	-3.408794e+01	-8.192272e+01
5.700000e-07	-4.893932e-06	-1.239672e-09	-3.393599e+01	-8.185565e+01
5.800000e-07	-4.871679e-06	-1.244912e-09	-3.378167e+01	-8.178943e+01
5.900000e-07	-4.849046e-06	-1.276783e-09	-3.362473e+01	-8.172357e+01
6.000000e-07	-4.826046e-06	-1.253957e-09	-3.346524e+01	-8.165759e+01
6.100000e-07	-4.802787e-06	-1.223134e-09	-3.330396e+01	-8.159099e+01
6.200000e-07	-4.779298e-06	-1.244406e-09	-3.314108e+01	-8.152325e+01
6.300000e-07	-4.755559e-06	-1.236810e-09	-3.297647e+01	-8.145387e+01
6.400000e-07	-4.731578e-06	-1.217189e-09	-3.281017e+01	-8.138236e+01
6.500000e-07	-4.707302e-06	-1.232321e-09	-3.264184e+01	-8.130822e+01
6.600000e-07	-4.682569e-06	-1.248196e-09	-3.247033e+01	-8.123100e+01
6.700000e-07	-4.657389e-06	-1.233926e-09	-3.229572e+01	-8.115029e+01
6.800000e-07	-4.631760e-06	-1.237032e-09	-3.211800e+01	-8.106569e+01
6.900000e-07	-4.605533e-06	-1.241783e-09	-3.193614e+01	-8.097685e+01
7.000000e-07	-4.578792e-06	-1.226125e-09	-3.175071e+01	-8.088348e+01
7.100000e-07	-4.551685e-06	-1.214848e-09	-3.156274e+01	-8.078532e+01
7.200000e-07	-4.524234e-06	-1.218796e-09	-3.137239e+01	-8.068217e+01
7.300000e-07	-4.496503e-06	-1.217549e-09	-3.118009e+01	-8.057388e+01
7.400000e-07	-4.468626e-06	-1.215125e-09	-3.098679e+01	-8.046036e+01
7.500000e-07	-4.440566e-06	-1.219288e-09	-3.079221e+01	-8.034154e+01
7.600000e-07	-4.412282e-06	-1.217176e-09	-3.059608e+01	-8.021745e+01
7.700000e-07	-4.383721e-06	-1.213582e-09	-3.039803e+01	-8.008812e+01
7.800000e-07	-4.354780e-06	-1.208413e-09	-3.019734e+01	-7.995366e+01
7.900000e-07	-4.325436e-06	-1.201606e-09	-2.999386e+01	-7.981419e+01
8.000000e-07	-4.295842e-06	-1.195848e-09	-2.978865e+01	-7.966990e+01
8.100000e-07	-4.266053e-06	-1.198582e-09	-2.958209e+01	-7.952097e+01
8.200000e-07	-4.235983e-06	-1.192876e-09	-2.937357e+01	-7.936763e+01
8.300000e-07	-4.205625e-06	-1.187342e-09	-2.916306e+01	-7.921014e+01
8.400000e-07	-4.174987e-06	-1.187090e-09	-2.895060e+01	-7.904873e+01
8.500000e-07	-4.144046e-06	-1.191557e-09	-2.873605e+01	-7.888369e+01
8.600000e-07	-4.112722e-06	-1.188492e-09	-2.851884e+01	-7.871527e+01
8.700000e-07	-4.081154e-06	-1.190232e-09	-2.829994e+01	-7.854374e+01
8.800000e-07	-4.049504e-06	-1.188709e-09	-2.808047e+01	-7.836936e+01
8.900000e-07	-4.017705e-06	-1.182741e-09	-2.785996e+01	-7.819236e+01
9.000000e-07	-3.985678e-06	-1.175777e-09	-2.763788e+01	-7.801298e+01
9.100000e-07	-3.953344e-06	-1.173931e-09	-2.741367e+01	-7.783142e+01
9.200000e-07	-3.920667e-06	-1.163530e-09	-2.718708e+01	-7.764786e+01
9.300000e-07	-3.887582e-06	-1.154885e-09	-2.695765e+01	-7.746248e+01
9.400000e-07	-3.854073e-06	-1.154297e-09	-2.672529e+01	-7.727539e+01
9.500000e-07	-3.820110e-06	-1.156492e-09	-2.648978e+01	-7.708673e+01
9.600000e-07	-3.785651e-06	-1.151246e-09	-2.625083e+01	-7.689657e+01
9.700000e-07	-3.750741e-06	-1.147492e-09	-2.600876e+01	-7.670497e+01
9.800000e-07	-3.715513e-06	-1.145070e-09	-2.576447e+01	-7.651197e+01
9.900000e-07	-3.680076e-06	-1.141208e-09	-2.551875e+01	-7.631760e+01
1.000000e-06	-3.644433e-06	-1.138450e-09	-2.527159e+01	-7.612185e+01
1.010000e-06	-3.608662e-06	-1.136792e-09	-2.502354e+01	-7.592471e+01
1.020000e-06	-3.572766e-06	-1.130405e-09	-2.477463e+01	-7.572615e+01
1.030000e-06	-3.536658e-06	-1.120473e-09	-2.452424e+01	-7.552613e+01
1.040000e-06	-3.500341e-06	-1.115744e-09	-2.427241e+01	-7.532460e+01
1.050000e-06	-3.463866e-06	-1.114652e-09	-2.401948e+01	-7.512151e+01
1.060000e-06	-3.427111e-06	-1.113065e-09	-2.376461e+01	-7.491681e+01
1.070000e-06	-3.390024e-06	-1.110078e-09	-2.350744e+01	-7.471044e+01
1.080000e-06	-3.352687e-06	-1.107824e-09	-2.324853e+01	-7.450234e+01
1.090000e-06	-3.315144e-06	-1.101467e-09	-2.298820e+01	-7.429246e+01
1.100000e-06	-3.277414e-06	-1.094377e-09	-2.272657e+01	-7.408075e+01
1.110000e-06	-3.239401e-06	-1.086558e-09	-2.246297e+01	-7.386714e+01
1.120000e-06	-3.201144e-06	-1.076881e-09	-2.219769e+01	-7.365159e+01
1.130000e-06	-3.162758e-06	-1.064998e-09	-2.193151e+01	-7.343404e+01
1.140000e-06	-3.124127e-06	-1.059308e-09	-2.166363e+01	-7.321443e+01
1.150000e-06	-3.085243e-06	-1.058683e-09	-2.139400e+01	-7.299269e+01
1.160000e-06	-3.046159e-06	-1.061202e-09	-2.112298e+01	-7.276875e+01
1.170000e-06	-3.006826e-06	-1.062285e-09	-2.085023e+01	-7.254251e+01
1.180000e-06	-2.967362e-06	-1.064244e-09	-2.057657e+01	-7.231387e+01
1.190000e-06	-2.927802e-06	-1.061837e-09	-2.030226e+01	-7.208269e+01
1.200000e-06	-2.888108e-06	-1.055496e-09	-2.002700e+01	-7.184882e+01
1.210000e-06	-2.848275e-06	-1.045250e-09	-1.975079e+01	-7.161209e+01
1.220000e-06	-2.808276e-06	-1.035806e-09	-1.947342e+01	-7.137226e+01
1.230000e-06	-2.768097e-06	-1.027437e-09	-1.919481e+01	-7.112908e+01
1.240000e-06	-2.727788e-06	-1.021218e-09	-1.891530e+01	-7.088227e+01
1.250000e-06	-2.687341e-06	-1.015895e-09	-1.863483e+01	-7.063150e+01
1.260000e-06	-2.646670e-06	-1.012758e-09	-1.835280e+01	-7.037638e+01
1.270000e-06	-2.605745e-06	-1.010065e-09	-1.806901e+01	-7.011651e+01
1.280000e-06	-2.564506e-06	-1.006417e-09	-1.778305e+01	-6.985142e+01
1.290000e-06	-2.522833e-06	-1.001282e-09	-1.749408e+01	-6.958062e+01
1.300000e-06	-2.480811e-06	-9.927864e-10	-1.720268e+01	-6.930358e+01
1.310000e-06	-2.438507e-06	-9.821745e-10	-1.690933e+01	-6.901973e+01
1.320000e-06	-2.395958e-06	-9.712592e-10	-1.661429e+01	-6.872848e+01
1.330000e-06	-2.353175e-06	-9.615077e-10	-1.631762e+01	-6.842921e+01
1.340000e-06	-2.310152e-06	-9.550009e-10	-1.601929e+01	-6.812129e+01
1.350000e-06	-2.266952e-06	-9.526385e-10	-1.571972e+01	-6.780407e+01
1.360000e-06	-2.223556e-06	-9.512584e-10	-1.541880e+01	-6.747693e+01
1.370000e-06	-2.180080e-06	-9.495790e-10	-1.511732e+01	-6.713922e+01
1.380000e-06	-2.136550e-06	-9.468000e-10	-1.481548e+01	-6.679033e+01
1.390000e-06	-2.092863e-06	-9.422158e-10	-1.451254e+01	-6.642969e+01
1.400000e-06	-2.049007e-06	-9.314493e-10	-1.420843e+01	-6.605672e+01
1.410000e-06	-2.005092e-06	-9.179800e-10	-1.390391e+01	-6.567093e+01
1.420000e-06	-1.961132e-06	-9.047960e-10	-1.359907e+01	-6.527186e+01
1.430000e-06	-1.917032e-06	-8.946979e-10	-1.329327e+01	-6.485911e+01
1.440000e-06	-1.872836e-06	-8.887512e-10	-1.298680e+01	-6.443235e+01
1.450000e-06	-1.828565e-06	-8.850891e-10	-1.267981e+01	-6.399131e+01
1.460000e-06	-1.784142e-06	-8.813655e-10	-1.237177e+01	-6.353581e+01
1.470000e-06	-1.739568e-06	-8.774333e-10	-1.206268e+01	-6.306573e+01
1.480000e-06	-1.694863e-06	-8.713639e-10	-1.175269e+01	-6.258105e+01
1.490000e-06	-1.650059e-06	-8.642552e-10	-1.144200e+01	-6.208178e+01
1.500000e-06	-1.605129e-06	-8.532990e-10	-1.113045e+01	-6.156806e+01
1.510000e-06	-1.560036e-06	-8.387642e-10	-1.081776e+01	-6.104004e+01
1.520000e-06	-1.514827e-06	-8.254779e-10	-1.050426e+01	-6.049797e+01
1.530000e-06	-1.469597e-06	-8.163647e-10	-1.019062e+01	-5.994213e+01
1.540000e-06	-1.424306e-06	-8.088715e-10	-9.876566e+00	-5.937286e+01
1.550000e-06	-1.378843e-06	-8.022799e-10	-9.561309e+00	-5.879049e+01
1.560000e-06	-1.333289e-06	-7.940021e-10	-9.245422e+00	-5.819540e+01
1.570000e-06	-1.287642e-06	-7.843307e-10	-8.928891e+00	-5.758797e+01
1.580000e-06	-1.241878e-06	-7.743292e-10	-8.611555e+00	-5.696853e+01
1.590000e-06	-1.196004e-06	-7.656437e-10	-8.293452e+00	-5.633742e+01
1.600000e-06	-1.150045e-06	-7.561538e-10	-7.974756e+00	-5.569490e+01
1.610000e-06	-1.104019e-06	-7.434253e-10	-7.655599e+00	-5.504118e+01
1.620000e-06	-1.057895e-06	-7.304697e-10	-7.335760e+00	-5.437639e+01
1.630000e-06	-1.011677e-06	-7.191138e-10	-7.015268e+00	-5.370055e+01
1.640000e-06	-9.653555e-07	-7.090959e-10	-6.694063e+00	-5.301359e+01
1.650000e-06	-9.189588e-07	-6.996402e-10	-6.372334e+00	-5.231529e+01
1.660000e-06	-8.724902e-07	-6.918402e-10	-6.050107e+00	-5.160532e+01
1.670000e-06	-8.260136e-07	-6.823526e-10	-5.727825e+00	-5.088319e+01
1.680000e-06	-7.795640e-07	-6.709697e-10	-5.405729e+00	-5.014826e+01
1.690000e-06	-7.330942e-07	-6.598024e-10	-5.083494e+00	-4.939974e+01
1.700000e-06	-6.865233e-07	-6.486495e-10	-4.760558e+00	-4.863667e+01
1.710000e-06	-6.399086e-07	-6.325160e-10	-4.437317e+00	-4.785795e+01
1.720000e-06	-5.932862e-07	-6.134762e-10	-4.114024e+00	-4.706231e+01
1.730000e-06	-5.465288e-07	-5.952890e-10	-3.789794e+00	-4.624836e+01
1.740000e-06	-4.996576e-07	-5.804679e-10	-3.464775e+00	-4.541454e+01
1.750000e-06	-4.527734e-07	-5.679778e-10	-3.139666e+00	-4.455921e+01
1.760000e-06	-4.059339e-07	-5.548684e-10	-2.814867e+00	-4.368060e+01
1.770000e-06	-3.590664e-07	-5.433441e-10	-2.489873e+00	-4.277685e+01
1.780000e-06	-3.121623e-07	-5.330045e-10	-2.164626e+00	-4.184605e+01
1.790000e-06	-2.652345e-07	-5.227099e-10	-1.839215e+00	-4.088625e+01
1.800000e-06	-2.182246e-07	-5.107998e-10	-1.513235e+00	-3.989548e+01
1.810000e-06	-1.712616e-07	-4.929607e-10	-1.187579e+00	-3.887178e+01
1.820000e-06	-1.243146e-07	-4.710308e-10	-8.620345e-01	-3.781324e+01
1.830000e-06	-7.737455e-08	-4.496818e-10	-5.365382e-01	-3.671801e+01
1.840000e-06	-3.051077e-08	-4.318909e-10	-2.115708e-01	-3.558436e+01
1.850000e-06	1.638759e-08	-4.169473e-10	1.136365e-01	-3.441066e+01
1.860000e-06	6.337793e-08	-4.041936e-10	4.394815e-01	-3.319545e+01
1.870000e-06	1.104122e-07	-3.909370e-10	7.656314e-01	-3.193746e+01
1.880000e-06	1.574091e-07	-3.762314e-10	1.091522e+00	-3.063562e+01
1.890000e-06	2.044518e-07	-3.601271e-10	1.417730e+00	-2.928909e+01
1.900000e-06	2.515448e-07	-3.400288e-10	1.744287e+00	-2.789730e+01
1.910000e-06	2.985574e-07	-3.161453e-10	2.070286e+00	-2.645991e+01
1.920000e-06	3.455098e-07	-2.921767e-10	2.395868e+00	-2.497693e+01
1.930000e-06	3.924438e-07	-2.695982e-10	2.721322e+00	-2.344860e+01
1.940000e-06	4.393633e-07	-2.467326e-10	3.046676e+00	-2.187552e+01
1.950000e-06	4.862015e-07	-2.240730e-10	3.371466e+00	-2.025855e+01
1.960000e-06	5.329247e-07	-2.028057e-10	3.695459e+00	-1.859891e+01
1.970000e-06	5.795733e-07	-1.831420e-10	4.018934e+00	-1.689808e+01
1.980000e-06	6.262333e-07	-1.637025e-10	4.342488e+00	-1.515785e+01
1.990000e-06	6.728804e-07	-1.421690e-10	4.665953e+00	-1.338032e+01
2.000000e-06	7.193479e-07	-1.164631e-10	4.988173e+00	-1.156783e+01
2.010000e-06	7.657110e-07	-8.744972e-11	5.309669e+00	-9.722976e+00
2.020000e-06	8.120736e-07	-5.671553e-11	5.631161e+00	-7.848595e+00
2.030000e-06	8.583907e-07	-2.491832e-11	5.952337e+00	-5.947721e+00
2.040000e-06	9.046579e-07	5.730272e-12	6.273168e+00	-4.023567e+00
2.050000e-06	9.508895e-07	3.245375e-11	6.593752e+00	-2.079496e+00
2.060000e-06	9.970305e-07	5.548395e-11	6.913707e+00	-1.189887e-01
2.070000e-06	1.043071e-06	7.682213e-11	7.232966e+00	1.854388e+00
2.080000e-06	1.089022e-06	9.956113e-11	7.551602e+00	3.837014e+00
2.090000e-06	1.134910e-06	1.249962e-10	7.869802e+00	5.825245e+00
2.100000e-06	1.180740e-06	1.537765e-10	8.187605e+00	7.815448e+00
2.110000e-06	1.226464e-06	1.841938e-10	8.504666e+00	9.804033e+00
2.120000e-06	1.272103e-06	2.146952e-10	8.821144e+00	1.178748e+01
2.130000e-06	1.317730e-06	2.452791e-10	9.137535e+00	1.376237e+01
2.140000e-06	1.363299e-06	2.739407e-10	9.453525e+00	1.572541e+01
2.150000e-06	1.408798e-06	2.979289e-10	9.769027e+00	1.767347e+01
2.160000e-06	1.454231e-06	3.181114e-10	1.008407e+01	1.960356e+01
2.170000e-06	1.499507e-06	3.376968e-10	1.039803e+01	2.151291e+01
2.180000e-06	1.544588e-06	3.603677e-10	1.071063e+01	2.339895e+01
2.190000e-06	1.589563e-06	3.866019e-10	1.102251e+01	2.525932e+01
2.200000e-06	1.634470e-06	4.143373e-10	1.133390e+01	2.709190e+01
2.210000e-06	1.679162e-06	4.430052e-10	1.164381e+01	2.889478e+01
2.220000e-06	1.723655e-06	4.717354e-10	1.195234e+01	3.066631e+01
2.230000e-06	1.768084e-06	4.989053e-10	1.226042e+01	3.240505e+01
2.240000e-06	1.812423e-06	5.229339e-10	1.256788e+01	3.410982e+01
2.250000e-06	1.856580e-06	5.420659e-10	1.287408e+01	3.577963e+01
2.260000e-06	1.900690e-06	5.582424e-10	1.317995e+01	3.741373e+01
2.270000e-06	1.944784e-06	5.752980e-10	1.348571e+01	3.901156e+01
2.280000e-06	1.988743e-06	5.940102e-10	1.379053e+01	4.057276e+01
2.290000e-06	2.032599e-06	6.150169e-10	1.409464e+01	4.209714e+01
2.300000e-06	2.076384e-06	6.377865e-10	1.439827e+01	4.358466e+01
2.310000e-06	2.120106e-06	6.601484e-10	1.470145e+01	4.503543e+01
2.320000e-06	2.163747e-06	6.809962e-10	1.500407e+01	4.644970e+01
2.330000e-06	2.207313e-06	6.992181e-10	1.530617e+01	4.782779e+01
2.340000e-06	2.250757e-06	7.145211e-10	1.560742e+01	4.917013e+01
2.350000e-06	2.294093e-06	7.298908e-10	1.590793e+01	5.047724e+01
2.360000e-06	2.337308e-06	7.464926e-10	1.620759e+01	5.174966e+01
2.370000e-06	2.380266e-06	7.639204e-10	1.650548e+01	5.298798e+01
2.380000e-06	2.422906e-06	7.817262e-10	1.680116e+01	5.419283e+01
2.390000e-06	2.465217e-06	7.977155e-10	1.709455e+01	5.536485e+01
2.400000e-06	2.507180e-06	8.095819e-10	1.738553e+01	5.650465e+01
2.410000e-06	2.548774e-06	8.214215e-10	1.767396e+01	5.761288e+01
2.420000e-06	2.590068e-06	8.368673e-10	1.796030e+01	5.869013e+01
2.430000e-06	2.631071e-06	8.529131e-10	1.824463e+01	5.973701e+01
2.440000e-06	2.671827e-06	8.704411e-10	1.852725e+01	6.075406e+01
2.450000e-06	2.712317e-06	8.890213e-10	1.880801e+01	6.174183e+01
2.460000e-06	2.752493e-06	9.053897e-10	1.908660e+01	6.270081e+01
2.470000e-06	2.792496e-06	9.175221e-10	1.936400e+01	6.363150e+01
2.480000e-06	2.832386e-06	9.265311e-10	1.964061e+01	6.453433e+01
2.490000e-06	2.872201e-06	9.358483e-10	1.991670e+01	6.540975e+01
2.500000e-06	2.911986e-06	9.467150e-10	2.019258e+01	6.625816e+01
2.510000e-06	2.951686e-06	9.605613e-10	2.046787e+01	6.707995e+01
2.520000e-06	2.991224e-06	9.767643e-10	2.074204e+01	6.787553e+01
2.530000e-06	3.030570e-06	9.918601e-10	2.101487e+01	6.864527e+01
2.540000e-06	3.069683e-06	1.006679e-09	2.128610e+01	6.938958e+01
2.550000e-06	3.108554e-06	1.019876e-09	2.155564e+01	7.010886e+01
2.560000e-06	3.147151e-06	1.026938e-09	2.182329e+01	7.080352e+01
2.570000e-06	3.185457e-06	1.029625e-09	2.208891e+01	7.147401e+01
2.580000e-06	3.223647e-06	1.032956e-09	2.235373e+01	7.212080e+01
2.590000e-06	3.261733e-06	1.037806e-09	2.261783e+01	7.274438e+01
2.600000e-06	3.299560e-06	1.045660e-09	2.288013e+01	7.334528e+01
2.610000e-06	3.337100e-06	1.058836e-09	2.314045e+01	7.392405e+01
2.620000e-06	3.374390e-06	1.075379e-09	2.339902e+01	7.448130e+01
2.630000e-06	3.411378e-06	1.090864e-09	2.365551e+01	7.501765e+01
2.640000e-06	3.448057e-06	1.101580e-09	2.390986e+01	7.553376e+01
2.650000e-06	3.484501e-06	1.108102e-09	2.416257e+01	7.603032e+01
2.660000e-06	3.520717e-06	1.111584e-09	2.441370e+01	7.650804e+01
2.670000e-06	3.556747e-06	1.112958e-09	2.466354e+01	7.696766e+01
2.680000e-06	3.592598e-06	1.113955e-09	2.491215e+01	7.740993e+01
2.690000e-06	3.628330e-06	1.117862e-09	2.515992e+01	7.783559e+01
2.700000e-06	3.663982e-06	1.126321e-09	2.540714e+01	7.824543e+01
2.710000e-06	3.699484e-06	1.135679e-09	2.565333e+01	7.864018e+01
2.720000e-06	3.734750e-06	1.142345e-09	2.589787e+01	7.902060e+01
2.730000e-06	3.769680e-06	1.146905e-09	2.614009e+01	7.938742e+01
2.740000e-06	3.804270e-06	1.149895e-09	2.637994e+01	7.974133e+01
2.750000e-06	3.838481e-06	1.153131e-09	2.661717e+01	8.008300e+01
2.760000e-06	3.872145e-06	1.157577e-09	2.685061e+01	8.041307e+01
2.770000e-06	3.905294e-06	1.162972e-09	2.708047e+01	8.073211e+01
2.780000e-06	3.938092e-06	1.168352e-09	2.730790e+01	8.104067e+01
2.790000e-06	3.970540e-06	1.173006e-09	2.753291e+01	8.133924e+01
2.800000e-06	4.002671e-06	1.177737e-09	2.775572e+01	8.162823e+01
2.810000e-06	4.034589e-06	1.182422e-09	2.797704e+01	8.190803e+01
2.820000e-06	4.066360e-06	1.186248e-09	2.819736e+01	8.217895e+01
2.830000e-06	4.097983e-06	1.190724e-09	2.841663e+01	8.244125e+01
2.840000e-06	4.129432e-06	1.197007e-09	2.863471e+01	8.269512e+01
2.850000e-06	4.160683e-06	1.202354e-09	2.885142e+01	8.294072e+01
2.860000e-06	4.191627e-06	1.206821e-09	2.906599e+01	8.317813e+01
2.870000e-06	4.222213e-06	1.212145e-09	2.927808e+01	8.340741e+01
2.880000e-06	4.252452e-06	1.215196e-09	2.948777e+01	8.362857e+01
2.890000e-06	4.282342e-06	1.214149e-09	2.969504e+01	8.384159e+01
2.900000e-06	4.311918e-06	1.212338e-09	2.990013e+01	8.404642e+01
