# Temperatura_=_-6.6
# Concentracion g/m^3_=_1620.0
# C_Vs_to_Am_M_A/Vsm_=_65563218390.804596
# pendiente_HvsI_1/m_=_3716.3
# ordenada_HvsI_A/m_=_1297.0
# frecuencia_Hz_=_135109.57795378912

Tiempo_(s)	Campo_(V.s)	Magnetizacion_(V.s)	Campo_(kA/m)	Magnetizacion_(A/m)
0.000000e+00	-5.522642e-06	-1.393944e-09	-3.836481e+01	-9.192080e+01
1.000000e-08	-5.522821e-06	-1.394250e-09	-3.836605e+01	-9.179949e+01
2.000000e-08	-5.522699e-06	-1.396190e-09	-3.836520e+01	-9.167878e+01
3.000000e-08	-5.522150e-06	-1.398021e-09	-3.836139e+01	-9.155941e+01
4.000000e-08	-5.521126e-06	-1.394902e-09	-3.835428e+01	-9.144211e+01
5.000000e-08	-5.519419e-06	-1.384935e-09	-3.834242e+01	-9.132751e+01
6.000000e-08	-5.516961e-06	-1.365816e-09	-3.832534e+01	-9.121624e+01
7.000000e-08	-5.514010e-06	-1.358698e-09	-3.830484e+01	-9.110884e+01
8.000000e-08	-5.510710e-06	-1.397008e-09	-3.828192e+01	-9.100575e+01
9.000000e-08	-5.507002e-06	-1.439651e-09	-3.825616e+01	-9.090734e+01
1.000000e-07	-5.502864e-06	-1.418800e-09	-3.822741e+01	-9.081390e+01
1.100000e-07	-5.498429e-06	-1.362641e-09	-3.819660e+01	-9.072558e+01
1.200000e-07	-5.493762e-06	-1.352360e-09	-3.816418e+01	-9.064245e+01
1.300000e-07	-5.488837e-06	-1.357954e-09	-3.812997e+01	-9.056446e+01
1.400000e-07	-5.483537e-06	-1.391096e-09	-3.809315e+01	-9.049145e+01
1.500000e-07	-5.477830e-06	-1.364658e-09	-3.805351e+01	-9.042316e+01
1.600000e-07	-5.471786e-06	-1.372297e-09	-3.801152e+01	-9.035923e+01
1.700000e-07	-5.465274e-06	-1.363616e-09	-3.796628e+01	-9.029918e+01
1.800000e-07	-5.458231e-06	-1.366814e-09	-3.791735e+01	-9.024247e+01
1.900000e-07	-5.450891e-06	-1.378421e-09	-3.786636e+01	-9.018845e+01
2.000000e-07	-5.443325e-06	-1.365008e-09	-3.781381e+01	-9.013643e+01
2.100000e-07	-5.435556e-06	-1.376268e-09	-3.775984e+01	-9.008564e+01
2.200000e-07	-5.427554e-06	-1.384926e-09	-3.770425e+01	-9.003529e+01
2.300000e-07	-5.419217e-06	-1.427506e-09	-3.764633e+01	-8.998454e+01
2.400000e-07	-5.410446e-06	-1.420536e-09	-3.758540e+01	-8.993256e+01
2.500000e-07	-5.400994e-06	-1.414858e-09	-3.751974e+01	-8.987850e+01
2.600000e-07	-5.390738e-06	-1.387723e-09	-3.744849e+01	-8.982155e+01
2.700000e-07	-5.379871e-06	-1.401496e-09	-3.737301e+01	-8.976092e+01
2.800000e-07	-5.368579e-06	-1.387148e-09	-3.729456e+01	-8.969587e+01
2.900000e-07	-5.356914e-06	-1.401938e-09	-3.721353e+01	-8.962571e+01
3.000000e-07	-5.344934e-06	-1.402550e-09	-3.713030e+01	-8.954984e+01
3.100000e-07	-5.332509e-06	-1.407203e-09	-3.704398e+01	-8.946774e+01
3.200000e-07	-5.319621e-06	-1.389667e-09	-3.695446e+01	-8.937896e+01
3.300000e-07	-5.306360e-06	-1.393581e-09	-3.686233e+01	-8.928318e+01
3.400000e-07	-5.292753e-06	-1.390223e-09	-3.676781e+01	-8.918016e+01
3.500000e-07	-5.278783e-06	-1.387132e-09	-3.667077e+01	-8.906978e+01
3.600000e-07	-5.264327e-06	-1.395815e-09	-3.657034e+01	-8.895200e+01
3.700000e-07	-5.249389e-06	-1.396638e-09	-3.646656e+01	-8.882692e+01
3.800000e-07	-5.233940e-06	-1.375590e-09	-3.635925e+01	-8.869472e+01
3.900000e-07	-5.217898e-06	-1.375877e-09	-3.624780e+01	-8.855567e+01
4.000000e-07	-5.201441e-06	-1.387491e-09	-3.613348e+01	-8.841014e+01
4.100000e-07	-5.184711e-06	-1.358603e-09	-3.601726e+01	-8.825857e+01
4.200000e-07	-5.167652e-06	-1.351123e-09	-3.589876e+01	-8.810147e+01
4.300000e-07	-5.150247e-06	-1.381432e-09	-3.577784e+01	-8.793939e+01
4.400000e-07	-5.132492e-06	-1.387528e-09	-3.565451e+01	-8.777296e+01
4.500000e-07	-5.114424e-06	-1.349201e-09	-3.552899e+01	-8.760279e+01
4.600000e-07	-5.095958e-06	-1.370128e-09	-3.540071e+01	-8.742953e+01
4.700000e-07	-5.076975e-06	-1.369627e-09	-3.526884e+01	-8.725383e+01
4.800000e-07	-5.057651e-06	-1.334810e-09	-3.513460e+01	-8.707633e+01
4.900000e-07	-5.038110e-06	-1.325848e-09	-3.499885e+01	-8.689762e+01
5.000000e-07	-5.018348e-06	-1.359759e-09	-3.486157e+01	-8.671827e+01
5.100000e-07	-4.998351e-06	-1.324556e-09	-3.472265e+01	-8.653879e+01
5.200000e-07	-4.978008e-06	-1.315982e-09	-3.458133e+01	-8.635964e+01
5.300000e-07	-4.957254e-06	-1.351569e-09	-3.443716e+01	-8.618121e+01
5.400000e-07	-4.936133e-06	-1.353291e-09	-3.429044e+01	-8.600379e+01
5.500000e-07	-4.914745e-06	-1.314775e-09	-3.414185e+01	-8.582763e+01
5.600000e-07	-4.893070e-06	-1.335487e-09	-3.399128e+01	-8.565285e+01
5.700000e-07	-4.871045e-06	-1.333940e-09	-3.383828e+01	-8.547954e+01
5.800000e-07	-4.848678e-06	-1.300998e-09	-3.368290e+01	-8.530765e+01
5.900000e-07	-4.825986e-06	-1.304471e-09	-3.352526e+01	-8.513709e+01
6.000000e-07	-4.802953e-06	-1.325033e-09	-3.336525e+01	-8.496768e+01
6.100000e-07	-4.779575e-06	-1.293384e-09	-3.320286e+01	-8.479918e+01
6.200000e-07	-4.755984e-06	-1.287935e-09	-3.303897e+01	-8.463126e+01
6.300000e-07	-4.732221e-06	-1.312199e-09	-3.287390e+01	-8.446357e+01
6.400000e-07	-4.708194e-06	-1.303139e-09	-3.270698e+01	-8.429569e+01
6.500000e-07	-4.683798e-06	-1.290078e-09	-3.253751e+01	-8.412721e+01
6.600000e-07	-4.658893e-06	-1.304891e-09	-3.236450e+01	-8.395764e+01
6.700000e-07	-4.633461e-06	-1.298632e-09	-3.218783e+01	-8.378652e+01
6.800000e-07	-4.607433e-06	-1.272861e-09	-3.200702e+01	-8.361339e+01
6.900000e-07	-4.580750e-06	-1.275154e-09	-3.182165e+01	-8.343779e+01
7.000000e-07	-4.553598e-06	-1.276490e-09	-3.163304e+01	-8.325929e+01
7.100000e-07	-4.526186e-06	-1.268475e-09	-3.144261e+01	-8.307749e+01
7.200000e-07	-4.498650e-06	-1.271871e-09	-3.125132e+01	-8.289202e+01
7.300000e-07	-4.470982e-06	-1.284326e-09	-3.105912e+01	-8.270258e+01
7.400000e-07	-4.443099e-06	-1.275162e-09	-3.086542e+01	-8.250891e+01
7.500000e-07	-4.414956e-06	-1.270558e-09	-3.066991e+01	-8.231082e+01
7.600000e-07	-4.386540e-06	-1.267023e-09	-3.047251e+01	-8.210816e+01
7.700000e-07	-4.357757e-06	-1.259467e-09	-3.027256e+01	-8.190086e+01
7.800000e-07	-4.328668e-06	-1.244101e-09	-3.007048e+01	-8.168891e+01
7.900000e-07	-4.299402e-06	-1.246138e-09	-2.986718e+01	-8.147236e+01
8.000000e-07	-4.269783e-06	-1.243334e-09	-2.966142e+01	-8.125130e+01
8.100000e-07	-4.239758e-06	-1.237963e-09	-2.945284e+01	-8.102590e+01
8.200000e-07	-4.209505e-06	-1.232314e-09	-2.924268e+01	-8.079636e+01
8.300000e-07	-4.179018e-06	-1.234104e-09	-2.903089e+01	-8.056292e+01
8.400000e-07	-4.148238e-06	-1.228117e-09	-2.881707e+01	-8.032584e+01
8.500000e-07	-4.117182e-06	-1.230768e-09	-2.860133e+01	-8.008544e+01
8.600000e-07	-4.085848e-06	-1.233218e-09	-2.838366e+01	-7.984201e+01
8.700000e-07	-4.054268e-06	-1.227759e-09	-2.816428e+01	-7.959587e+01
8.800000e-07	-4.022564e-06	-1.215542e-09	-2.794403e+01	-7.934733e+01
8.900000e-07	-3.990698e-06	-1.210743e-09	-2.772266e+01	-7.909669e+01
9.000000e-07	-3.958567e-06	-1.202382e-09	-2.749946e+01	-7.884424e+01
9.100000e-07	-3.926208e-06	-1.192917e-09	-2.727466e+01	-7.859024e+01
9.200000e-07	-3.893500e-06	-1.190816e-09	-2.704745e+01	-7.833489e+01
9.300000e-07	-3.860293e-06	-1.192022e-09	-2.681677e+01	-7.807840e+01
9.400000e-07	-3.826568e-06	-1.188453e-09	-2.658249e+01	-7.782090e+01
9.500000e-07	-3.792386e-06	-1.184734e-09	-2.634503e+01	-7.756250e+01
9.600000e-07	-3.757761e-06	-1.180946e-09	-2.610449e+01	-7.730324e+01
9.700000e-07	-3.722725e-06	-1.170918e-09	-2.586111e+01	-7.704316e+01
9.800000e-07	-3.687428e-06	-1.162123e-09	-2.561590e+01	-7.678220e+01
9.900000e-07	-3.651977e-06	-1.158951e-09	-2.536963e+01	-7.652030e+01
1.000000e-06	-3.616395e-06	-1.153660e-09	-2.512245e+01	-7.625734e+01
1.010000e-06	-3.580721e-06	-1.144877e-09	-2.487463e+01	-7.599317e+01
1.020000e-06	-3.544947e-06	-1.142392e-09	-2.462612e+01	-7.572763e+01
1.030000e-06	-3.508937e-06	-1.140995e-09	-2.437596e+01	-7.546051e+01
1.040000e-06	-3.472566e-06	-1.140501e-09	-2.412329e+01	-7.519159e+01
1.050000e-06	-3.435870e-06	-1.139370e-09	-2.386838e+01	-7.492066e+01
1.060000e-06	-3.398944e-06	-1.140622e-09	-2.361186e+01	-7.464748e+01
1.070000e-06	-3.361745e-06	-1.129080e-09	-2.335344e+01	-7.437183e+01
1.080000e-06	-3.324249e-06	-1.116390e-09	-2.309296e+01	-7.409349e+01
1.090000e-06	-3.286558e-06	-1.104295e-09	-2.283113e+01	-7.381225e+01
1.100000e-06	-3.248687e-06	-1.097327e-09	-2.256805e+01	-7.352793e+01
1.110000e-06	-3.210652e-06	-1.086875e-09	-2.230383e+01	-7.324036e+01
1.120000e-06	-3.172462e-06	-1.082470e-09	-2.203853e+01	-7.294940e+01
1.130000e-06	-3.134006e-06	-1.079557e-09	-2.177138e+01	-7.265494e+01
1.140000e-06	-3.095269e-06	-1.076424e-09	-2.150228e+01	-7.235689e+01
1.150000e-06	-3.056303e-06	-1.077571e-09	-2.123159e+01	-7.205518e+01
1.160000e-06	-3.017148e-06	-1.077266e-09	-2.095959e+01	-7.174978e+01
1.170000e-06	-2.977825e-06	-1.068111e-09	-2.068642e+01	-7.144066e+01
1.180000e-06	-2.938323e-06	-1.055901e-09	-2.041200e+01	-7.112783e+01
1.190000e-06	-2.898713e-06	-1.046632e-09	-2.013684e+01	-7.081128e+01
1.200000e-06	-2.859017e-06	-1.037043e-09	-1.986108e+01	-7.049105e+01
1.210000e-06	-2.819200e-06	-1.027259e-09	-1.958448e+01	-7.016713e+01
1.220000e-06	-2.779247e-06	-1.024798e-09	-1.930693e+01	-6.983954e+01
1.230000e-06	-2.739055e-06	-1.024752e-09	-1.902773e+01	-6.950828e+01
1.240000e-06	-2.698685e-06	-1.019702e-09	-1.874728e+01	-6.917331e+01
1.250000e-06	-2.658117e-06	-1.012216e-09	-1.846546e+01	-6.883460e+01
1.260000e-06	-2.617271e-06	-1.003903e-09	-1.818172e+01	-6.849204e+01
1.270000e-06	-2.576141e-06	-9.930200e-10	-1.789599e+01	-6.814552e+01
1.280000e-06	-2.534708e-06	-9.786501e-10	-1.760816e+01	-6.779487e+01
1.290000e-06	-2.492920e-06	-9.682381e-10	-1.731787e+01	-6.743989e+01
1.300000e-06	-2.450755e-06	-9.613877e-10	-1.702496e+01	-6.708030e+01
1.310000e-06	-2.408267e-06	-9.567783e-10	-1.672980e+01	-6.671581e+01
1.320000e-06	-2.365527e-06	-9.535429e-10	-1.643290e+01	-6.634604e+01
1.330000e-06	-2.322648e-06	-9.501334e-10	-1.613502e+01	-6.597060e+01
1.340000e-06	-2.279608e-06	-9.444320e-10	-1.583603e+01	-6.558903e+01
1.350000e-06	-2.236404e-06	-9.393796e-10	-1.553590e+01	-6.520083e+01
1.360000e-06	-2.193050e-06	-9.344686e-10	-1.523473e+01	-6.480548e+01
1.370000e-06	-2.149511e-06	-9.277827e-10	-1.493227e+01	-6.440241e+01
1.380000e-06	-2.105881e-06	-9.186957e-10	-1.462918e+01	-6.399104e+01
1.390000e-06	-2.062192e-06	-9.101022e-10	-1.432568e+01	-6.357078e+01
1.400000e-06	-2.018381e-06	-8.987484e-10	-1.402133e+01	-6.314101e+01
1.410000e-06	-1.974522e-06	-8.861874e-10	-1.371665e+01	-6.270115e+01
1.420000e-06	-1.930614e-06	-8.752600e-10	-1.341163e+01	-6.225061e+01
1.430000e-06	-1.886609e-06	-8.681949e-10	-1.310594e+01	-6.178881e+01
1.440000e-06	-1.842543e-06	-8.640036e-10	-1.279982e+01	-6.131522e+01
1.450000e-06	-1.798355e-06	-8.617947e-10	-1.249285e+01	-6.082934e+01
1.460000e-06	-1.753999e-06	-8.561188e-10	-1.218471e+01	-6.033072e+01
1.470000e-06	-1.709565e-06	-8.462329e-10	-1.187604e+01	-5.981893e+01
1.480000e-06	-1.664954e-06	-8.343285e-10	-1.156614e+01	-5.929364e+01
1.490000e-06	-1.620109e-06	-8.216463e-10	-1.125461e+01	-5.875452e+01
1.500000e-06	-1.575111e-06	-8.065759e-10	-1.094201e+01	-5.820134e+01
1.510000e-06	-1.530003e-06	-7.937262e-10	-1.062866e+01	-5.763389e+01
1.520000e-06	-1.484799e-06	-7.852319e-10	-1.031463e+01	-5.705205e+01
1.530000e-06	-1.439466e-06	-7.782947e-10	-9.999716e+00	-5.645571e+01
1.540000e-06	-1.394121e-06	-7.729368e-10	-9.684709e+00	-5.584482e+01
1.550000e-06	-1.348683e-06	-7.680718e-10	-9.369063e+00	-5.521935e+01
1.560000e-06	-1.303137e-06	-7.593113e-10	-9.052660e+00	-5.457930e+01
1.570000e-06	-1.257544e-06	-7.458771e-10	-8.735931e+00	-5.392467e+01
1.580000e-06	-1.211822e-06	-7.314998e-10	-8.418310e+00	-5.325546e+01
1.590000e-06	-1.165972e-06	-7.158342e-10	-8.099797e+00	-5.257167e+01
1.600000e-06	-1.120035e-06	-6.997147e-10	-7.780685e+00	-5.187325e+01
1.610000e-06	-1.074029e-06	-6.868349e-10	-7.461085e+00	-5.116012e+01
1.620000e-06	-1.027903e-06	-6.785727e-10	-7.140658e+00	-5.043213e+01
1.630000e-06	-9.817270e-07	-6.732081e-10	-6.819882e+00	-4.968906e+01
1.640000e-06	-9.355573e-07	-6.691361e-10	-6.499149e+00	-4.893063e+01
1.650000e-06	-8.893267e-07	-6.610242e-10	-6.177994e+00	-4.815643e+01
1.660000e-06	-8.429872e-07	-6.477306e-10	-5.856082e+00	-4.736596e+01
1.670000e-06	-7.965639e-07	-6.320602e-10	-5.533587e+00	-4.655862e+01
1.680000e-06	-7.501579e-07	-6.152951e-10	-5.211213e+00	-4.573367e+01
1.690000e-06	-7.037264e-07	-5.979310e-10	-4.888662e+00	-4.489026e+01
1.700000e-06	-6.572055e-07	-5.806378e-10	-4.565490e+00	-4.402741e+01
1.710000e-06	-6.106036e-07	-5.633834e-10	-4.241754e+00	-4.314404e+01
1.720000e-06	-5.639303e-07	-5.473419e-10	-3.917523e+00	-4.223891e+01
1.730000e-06	-5.172214e-07	-5.321326e-10	-3.593044e+00	-4.131072e+01
1.740000e-06	-4.704564e-07	-5.200584e-10	-3.268177e+00	-4.035804e+01
1.750000e-06	-4.236551e-07	-5.075272e-10	-2.943057e+00	-3.937936e+01
1.760000e-06	-3.768222e-07	-4.920986e-10	-2.617717e+00	-3.837313e+01
1.770000e-06	-3.299457e-07	-4.755213e-10	-2.292074e+00	-3.733771e+01
1.780000e-06	-2.830600e-07	-4.578832e-10	-1.966367e+00	-3.627146e+01
1.790000e-06	-2.362497e-07	-4.396997e-10	-1.641184e+00	-3.517273e+01
1.800000e-06	-1.894619e-07	-4.213351e-10	-1.316158e+00	-3.403987e+01
1.810000e-06	-1.426362e-07	-4.034583e-10	-9.908686e-01	-3.287130e+01
1.820000e-06	-9.578332e-08	-3.864888e-10	-6.653897e-01	-3.166551e+01
1.830000e-06	-4.890753e-08	-3.700926e-10	-3.397519e-01	-3.042107e+01
1.840000e-06	-2.003224e-09	-3.542804e-10	-1.391604e-02	-2.913669e+01
1.850000e-06	4.496455e-08	-3.370391e-10	3.123607e-01	-2.781122e+01
1.860000e-06	9.185790e-08	-3.179345e-10	6.381204e-01	-2.644369e+01
1.870000e-06	1.386803e-07	-2.978257e-10	9.633871e-01	-2.503334e+01
1.880000e-06	1.855281e-07	-2.766440e-10	1.288831e+00	-2.357962e+01
1.890000e-06	2.323475e-07	-2.534294e-10	1.614077e+00	-2.208220e+01
1.900000e-06	2.791477e-07	-2.281074e-10	1.939189e+00	-2.054105e+01
1.910000e-06	3.259202e-07	-2.036824e-10	2.264110e+00	-1.895636e+01
1.920000e-06	3.726810e-07	-1.800728e-10	2.588949e+00	-1.732864e+01
1.930000e-06	4.194572e-07	-1.587639e-10	2.913894e+00	-1.565866e+01
1.940000e-06	4.662349e-07	-1.400522e-10	3.238850e+00	-1.394747e+01
1.950000e-06	5.129411e-07	-1.202530e-10	3.563310e+00	-1.219644e+01
1.960000e-06	5.594932e-07	-9.768054e-11	3.886700e+00	-1.040718e+01
1.970000e-06	6.060280e-07	-7.313467e-11	4.209969e+00	-8.581602e+00
1.980000e-06	6.526153e-07	-4.615129e-11	4.533602e+00	-6.721866e+00
1.990000e-06	6.990983e-07	-1.623877e-11	4.856511e+00	-4.830379e+00
2.000000e-06	7.454287e-07	1.377692e-11	5.178360e+00	-2.909771e+00
2.010000e-06	7.916946e-07	4.128501e-11	5.499761e+00	-9.628818e-01
2.020000e-06	8.379786e-07	6.814020e-11	5.821288e+00	1.007273e+00
2.030000e-06	8.842313e-07	9.490455e-11	6.142597e+00	2.997522e+00
2.040000e-06	9.303994e-07	1.224223e-10	6.463319e+00	5.004566e+00
2.050000e-06	9.765186e-07	1.507676e-10	6.783700e+00	7.025011e+00
2.060000e-06	1.022541e-06	1.803115e-10	7.103408e+00	9.055392e+00
2.070000e-06	1.068456e-06	2.087071e-10	7.422372e+00	1.109221e+01
2.080000e-06	1.114285e-06	2.346755e-10	7.740742e+00	1.313195e+01
2.090000e-06	1.160049e-06	2.613648e-10	8.058655e+00	1.517114e+01
2.100000e-06	1.205758e-06	2.908089e-10	8.376183e+00	1.720633e+01
2.110000e-06	1.251393e-06	3.231963e-10	8.693205e+00	1.923416e+01
2.120000e-06	1.296892e-06	3.560535e-10	9.009280e+00	2.125139e+01
2.130000e-06	1.342257e-06	3.861654e-10	9.324418e+00	2.325487e+01
2.140000e-06	1.387568e-06	4.108617e-10	9.639187e+00	2.524162e+01
2.150000e-06	1.432852e-06	4.308459e-10	9.953765e+00	2.720883e+01
2.160000e-06	1.478089e-06	4.506727e-10	1.026802e+01	2.915384e+01
2.170000e-06	1.523201e-06	4.749721e-10	1.058141e+01	3.107422e+01
2.180000e-06	1.568156e-06	5.038887e-10	1.089370e+01	3.296772e+01
2.190000e-06	1.612997e-06	5.343533e-10	1.120520e+01	3.483230e+01
2.200000e-06	1.657673e-06	5.636558e-10	1.151556e+01	3.666613e+01
2.210000e-06	1.702160e-06	5.901210e-10	1.182460e+01	3.846761e+01
2.220000e-06	1.746528e-06	6.129847e-10	1.213282e+01	4.023532e+01
2.230000e-06	1.790855e-06	6.341578e-10	1.244075e+01	4.196809e+01
2.240000e-06	1.835096e-06	6.536576e-10	1.274808e+01	4.366491e+01
2.250000e-06	1.879164e-06	6.709075e-10	1.305422e+01	4.532498e+01
2.260000e-06	1.923091e-06	6.892761e-10	1.335937e+01	4.694770e+01
2.270000e-06	1.966946e-06	7.109665e-10	1.366402e+01	4.853262e+01
2.280000e-06	2.010760e-06	7.339336e-10	1.396839e+01	5.007945e+01
2.290000e-06	2.054529e-06	7.571188e-10	1.427245e+01	5.158806e+01
2.300000e-06	2.098285e-06	7.812333e-10	1.457641e+01	5.305842e+01
2.310000e-06	2.141985e-06	8.035959e-10	1.487999e+01	5.449067e+01
2.320000e-06	2.185518e-06	8.216654e-10	1.518240e+01	5.588500e+01
2.330000e-06	2.228953e-06	8.367782e-10	1.548414e+01	5.724174e+01
2.340000e-06	2.272276e-06	8.509724e-10	1.578510e+01	5.856125e+01
2.350000e-06	2.315348e-06	8.668450e-10	1.608431e+01	5.984400e+01
2.360000e-06	2.358216e-06	8.834344e-10	1.638211e+01	6.109048e+01
2.370000e-06	2.400892e-06	9.004493e-10	1.667857e+01	6.230124e+01
2.380000e-06	2.443330e-06	9.177226e-10	1.697338e+01	6.347688e+01
2.390000e-06	2.485409e-06	9.346127e-10	1.726569e+01	6.461799e+01
2.400000e-06	2.527118e-06	9.514641e-10	1.755544e+01	6.572521e+01
2.410000e-06	2.568555e-06	9.683598e-10	1.784330e+01	6.679919e+01
2.420000e-06	2.609638e-06	9.836890e-10	1.812869e+01	6.784059e+01
2.430000e-06	2.650361e-06	9.968851e-10	1.841159e+01	6.885007e+01
2.440000e-06	2.690872e-06	1.009651e-09	1.869301e+01	6.982829e+01
2.450000e-06	2.731208e-06	1.020611e-09	1.897321e+01	7.077594e+01
2.460000e-06	2.771352e-06	1.030348e-09	1.925209e+01	7.169369e+01
2.470000e-06	2.811287e-06	1.040673e-09	1.952951e+01	7.258222e+01
2.480000e-06	2.851085e-06	1.055033e-09	1.980598e+01	7.344221e+01
2.490000e-06	2.890783e-06	1.071410e-09	2.008176e+01	7.427434e+01
2.500000e-06	2.930384e-06	1.087497e-09	2.035686e+01	7.507930e+01
2.510000e-06	2.969864e-06	1.104534e-09	2.063112e+01	7.585779e+01
2.520000e-06	3.009130e-06	1.114808e-09	2.090389e+01	7.661051e+01
2.530000e-06	3.048218e-06	1.121820e-09	2.117543e+01	7.733815e+01
2.540000e-06	3.087052e-06	1.130929e-09	2.144520e+01	7.804143e+01
2.550000e-06	3.125624e-06	1.139053e-09	2.171315e+01	7.872106e+01
2.560000e-06	3.164002e-06	1.146422e-09	2.197976e+01	7.937776e+01
2.570000e-06	3.202178e-06	1.153613e-09	2.224496e+01	8.001225e+01
2.580000e-06	3.240132e-06	1.161207e-09	2.250862e+01	8.062525e+01
2.590000e-06	3.277863e-06	1.169873e-09	2.277073e+01	8.121748e+01
2.600000e-06	3.315405e-06	1.181526e-09	2.303153e+01	8.178965e+01
2.610000e-06	3.352763e-06	1.196132e-09	2.329105e+01	8.234248e+01
2.620000e-06	3.389890e-06	1.211157e-09	2.354896e+01	8.287665e+01
2.630000e-06	3.426705e-06	1.220336e-09	2.380471e+01	8.339285e+01
2.640000e-06	3.463218e-06	1.224181e-09	2.405836e+01	8.389174e+01
2.650000e-06	3.499545e-06	1.225124e-09	2.431071e+01	8.437396e+01
2.660000e-06	3.535680e-06	1.225328e-09	2.456174e+01	8.484012e+01
2.670000e-06	3.571571e-06	1.226628e-09	2.481107e+01	8.529081e+01
2.680000e-06	3.607330e-06	1.230530e-09	2.505948e+01	8.572658e+01
2.690000e-06	3.643005e-06	1.239324e-09	2.530731e+01	8.614794e+01
2.700000e-06	3.678572e-06	1.251159e-09	2.555438e+01	8.655537e+01
2.710000e-06	3.713952e-06	1.259644e-09	2.580016e+01	8.694931e+01
2.720000e-06	3.749024e-06	1.263723e-09	2.604380e+01	8.733015e+01
2.730000e-06	3.783718e-06	1.264905e-09	2.628481e+01	8.769824e+01
2.740000e-06	3.817954e-06	1.265810e-09	2.652265e+01	8.805391e+01
2.750000e-06	3.851656e-06	1.268143e-09	2.675677e+01	8.839741e+01
2.760000e-06	3.884900e-06	1.271409e-09	2.698770e+01	8.872899e+01
2.770000e-06	3.917771e-06	1.279121e-09	2.721605e+01	8.904885e+01
2.780000e-06	3.950255e-06	1.285907e-09	2.744171e+01	8.935713e+01
2.790000e-06	3.982367e-06	1.291545e-09	2.766479e+01	8.965399e+01
2.800000e-06	4.014256e-06	1.298105e-09	2.788632e+01	8.993952e+01
2.810000e-06	4.046038e-06	1.303403e-09	2.810710e+01	9.021381e+01
2.820000e-06	4.077699e-06	1.307125e-09	2.832705e+01	9.047693e+01
2.830000e-06	4.109185e-06	1.309729e-09	2.854577e+01	9.072894e+01
2.840000e-06	4.140367e-06	1.313296e-09	2.876239e+01	9.096987e+01
2.850000e-06	4.171280e-06	1.314155e-09	2.897714e+01	9.119979e+01
2.860000e-06	4.201938e-06	1.314338e-09	2.919011e+01	9.141874e+01
2.870000e-06	4.232228e-06	1.317189e-09	2.940053e+01	9.162677e+01
2.880000e-06	4.262196e-06	1.319438e-09	2.960872e+01	9.182396e+01
2.890000e-06	4.291925e-06	1.323390e-09	2.981523e+01	9.201038e+01
2.900000e-06	4.321410e-06	1.330884e-09	3.002006e+01	9.218613e+01
