# Temperatura_=_-16.96
# Concentracion g/m^3_=_1620.0
# C_Vs_to_Am_M_A/Vsm_=_65563218390.804596
# pendiente_HvsI_1/m_=_3716.3
# ordenada_HvsI_A/m_=_1297.0
# frecuencia_Hz_=_135094.57234668106

Tiempo_(s)	Campo_(V.s)	Magnetizacion_(V.s)	Campo_(kA/m)	Magnetizacion_(A/m)
0.000000e+00	-5.529628e-06	-1.175997e-09	-3.837447e+01	-7.689151e+01
1.000000e-08	-5.529912e-06	-1.175868e-09	-3.837644e+01	-7.686703e+01
2.000000e-08	-5.529875e-06	-1.178208e-09	-3.837618e+01	-7.683901e+01
3.000000e-08	-5.529527e-06	-1.180913e-09	-3.837376e+01	-7.680732e+01
4.000000e-08	-5.528712e-06	-1.182962e-09	-3.836811e+01	-7.677190e+01
5.000000e-08	-5.527336e-06	-1.183922e-09	-3.835856e+01	-7.673272e+01
6.000000e-08	-5.525357e-06	-1.180044e-09	-3.834483e+01	-7.668983e+01
7.000000e-08	-5.522739e-06	-1.176400e-09	-3.832666e+01	-7.664332e+01
8.000000e-08	-5.519666e-06	-1.159277e-09	-3.830533e+01	-7.659335e+01
9.000000e-08	-5.516198e-06	-1.148147e-09	-3.828127e+01	-7.654015e+01
1.000000e-07	-5.512303e-06	-1.238909e-09	-3.825423e+01	-7.648399e+01
1.100000e-07	-5.507920e-06	-1.284360e-09	-3.822381e+01	-7.642518e+01
1.200000e-07	-5.503258e-06	-1.144243e-09	-3.819146e+01	-7.636412e+01
1.300000e-07	-5.498475e-06	-1.062850e-09	-3.815827e+01	-7.630120e+01
1.400000e-07	-5.493400e-06	-1.128877e-09	-3.812305e+01	-7.623689e+01
1.500000e-07	-5.487902e-06	-1.270760e-09	-3.808490e+01	-7.617167e+01
1.600000e-07	-5.481979e-06	-1.197400e-09	-3.804379e+01	-7.610602e+01
1.700000e-07	-5.475689e-06	-1.097391e-09	-3.800014e+01	-7.604047e+01
1.800000e-07	-5.469001e-06	-1.148547e-09	-3.795373e+01	-7.597551e+01
1.900000e-07	-5.461840e-06	-1.232516e-09	-3.790403e+01	-7.591165e+01
2.000000e-07	-5.454338e-06	-1.175473e-09	-3.785197e+01	-7.584938e+01
2.100000e-07	-5.446603e-06	-1.069620e-09	-3.779829e+01	-7.578914e+01
2.200000e-07	-5.438650e-06	-1.102123e-09	-3.774310e+01	-7.573136e+01
2.300000e-07	-5.430405e-06	-1.185002e-09	-3.768588e+01	-7.567642e+01
2.400000e-07	-5.421708e-06	-1.191617e-09	-3.762552e+01	-7.562465e+01
2.500000e-07	-5.412520e-06	-1.116045e-09	-3.756176e+01	-7.557631e+01
2.600000e-07	-5.402593e-06	-1.114291e-09	-3.749287e+01	-7.553163e+01
2.700000e-07	-5.391942e-06	-1.139684e-09	-3.741896e+01	-7.549074e+01
2.800000e-07	-5.380903e-06	-1.156719e-09	-3.734234e+01	-7.545373e+01
2.900000e-07	-5.369485e-06	-1.127706e-09	-3.726310e+01	-7.542061e+01
3.000000e-07	-5.357605e-06	-1.135796e-09	-3.718066e+01	-7.539132e+01
3.100000e-07	-5.345358e-06	-1.159795e-09	-3.709567e+01	-7.536574e+01
3.200000e-07	-5.332776e-06	-1.176229e-09	-3.700836e+01	-7.534369e+01
3.300000e-07	-5.319703e-06	-1.123250e-09	-3.691763e+01	-7.532492e+01
3.400000e-07	-5.306145e-06	-1.112835e-09	-3.682354e+01	-7.530913e+01
3.500000e-07	-5.292217e-06	-1.153569e-09	-3.672688e+01	-7.529598e+01
3.600000e-07	-5.277912e-06	-1.161976e-09	-3.662761e+01	-7.528508e+01
3.700000e-07	-5.262889e-06	-1.114663e-09	-3.652335e+01	-7.527602e+01
3.800000e-07	-5.247333e-06	-1.155743e-09	-3.641540e+01	-7.526836e+01
3.900000e-07	-5.231475e-06	-1.184357e-09	-3.630535e+01	-7.526163e+01
4.000000e-07	-5.215032e-06	-1.111419e-09	-3.619124e+01	-7.525538e+01
4.100000e-07	-5.198221e-06	-1.101996e-09	-3.607457e+01	-7.524915e+01
4.200000e-07	-5.181279e-06	-1.184618e-09	-3.595700e+01	-7.524249e+01
4.300000e-07	-5.164029e-06	-1.144354e-09	-3.583729e+01	-7.523498e+01
4.400000e-07	-5.146351e-06	-1.068520e-09	-3.571460e+01	-7.522622e+01
4.500000e-07	-5.128346e-06	-1.166384e-09	-3.558965e+01	-7.521584e+01
4.600000e-07	-5.109869e-06	-1.201530e-09	-3.546143e+01	-7.520354e+01
4.700000e-07	-5.090933e-06	-1.085983e-09	-3.533001e+01	-7.518904e+01
4.800000e-07	-5.071724e-06	-1.096023e-09	-3.519671e+01	-7.517211e+01
4.900000e-07	-5.052302e-06	-1.190618e-09	-3.506192e+01	-7.515260e+01
5.000000e-07	-5.032703e-06	-1.107693e-09	-3.492591e+01	-7.513038e+01
5.100000e-07	-5.012797e-06	-1.064267e-09	-3.478777e+01	-7.510540e+01
5.200000e-07	-4.992619e-06	-1.161241e-09	-3.464774e+01	-7.507767e+01
5.300000e-07	-4.972032e-06	-1.140193e-09	-3.450487e+01	-7.504724e+01
5.400000e-07	-4.950952e-06	-1.056777e-09	-3.435858e+01	-7.501422e+01
5.500000e-07	-4.929684e-06	-1.142844e-09	-3.421098e+01	-7.497875e+01
5.600000e-07	-4.908141e-06	-1.168509e-09	-3.406147e+01	-7.494103e+01
5.700000e-07	-4.886181e-06	-1.071019e-09	-3.390908e+01	-7.490129e+01
5.800000e-07	-4.863822e-06	-1.094354e-09	-3.375391e+01	-7.485978e+01
5.900000e-07	-4.841121e-06	-1.172585e-09	-3.359637e+01	-7.481679e+01
6.000000e-07	-4.818177e-06	-1.102976e-09	-3.343715e+01	-7.477261e+01
6.100000e-07	-4.794941e-06	-1.078200e-09	-3.327589e+01	-7.472753e+01
6.200000e-07	-4.771441e-06	-1.140438e-09	-3.311281e+01	-7.468186e+01
6.300000e-07	-4.747751e-06	-1.114727e-09	-3.294840e+01	-7.463589e+01
6.400000e-07	-4.723790e-06	-1.070254e-09	-3.278212e+01	-7.458989e+01
6.500000e-07	-4.699461e-06	-1.120483e-09	-3.261328e+01	-7.454411e+01
6.600000e-07	-4.674668e-06	-1.127269e-09	-3.244122e+01	-7.449878e+01
6.700000e-07	-4.649315e-06	-1.088162e-09	-3.226528e+01	-7.445408e+01
6.800000e-07	-4.623469e-06	-1.110867e-09	-3.208591e+01	-7.441016e+01
6.900000e-07	-4.597070e-06	-1.127860e-09	-3.190271e+01	-7.436713e+01
7.000000e-07	-4.570116e-06	-1.092004e-09	-3.171565e+01	-7.432506e+01
7.100000e-07	-4.542840e-06	-1.092334e-09	-3.152637e+01	-7.428395e+01
7.200000e-07	-4.515357e-06	-1.114561e-09	-3.133563e+01	-7.424377e+01
7.300000e-07	-4.487696e-06	-1.100607e-09	-3.114368e+01	-7.420445e+01
7.400000e-07	-4.459878e-06	-1.099810e-09	-3.095062e+01	-7.416586e+01
7.500000e-07	-4.431888e-06	-1.120640e-09	-3.075638e+01	-7.412784e+01
7.600000e-07	-4.403597e-06	-1.115450e-09	-3.056005e+01	-7.409018e+01
7.700000e-07	-4.374897e-06	-1.100813e-09	-3.036087e+01	-7.405264e+01
7.800000e-07	-4.345842e-06	-1.106553e-09	-3.015924e+01	-7.401495e+01
7.900000e-07	-4.316471e-06	-1.097521e-09	-2.995541e+01	-7.397681e+01
8.000000e-07	-4.286838e-06	-1.088061e-09	-2.974976e+01	-7.393793e+01
8.100000e-07	-4.256995e-06	-1.098373e-09	-2.954266e+01	-7.389797e+01
8.200000e-07	-4.226912e-06	-1.104794e-09	-2.933389e+01	-7.385660e+01
8.300000e-07	-4.196472e-06	-1.090583e-09	-2.912264e+01	-7.381350e+01
8.400000e-07	-4.165671e-06	-1.094930e-09	-2.890889e+01	-7.376835e+01
8.500000e-07	-4.134636e-06	-1.105173e-09	-2.869351e+01	-7.372085e+01
8.600000e-07	-4.103263e-06	-1.101172e-09	-2.847579e+01	-7.367071e+01
8.700000e-07	-4.071695e-06	-1.095229e-09	-2.825672e+01	-7.361767e+01
8.800000e-07	-4.040120e-06	-1.101457e-09	-2.803759e+01	-7.356152e+01
8.900000e-07	-4.008364e-06	-1.092096e-09	-2.781721e+01	-7.350204e+01
9.000000e-07	-3.976362e-06	-1.082687e-09	-2.759512e+01	-7.343909e+01
9.100000e-07	-3.944069e-06	-1.087020e-09	-2.737102e+01	-7.337256e+01
9.200000e-07	-3.911372e-06	-1.088822e-09	-2.714411e+01	-7.330236e+01
9.300000e-07	-3.878146e-06	-1.080821e-09	-2.691352e+01	-7.322847e+01
9.400000e-07	-3.844412e-06	-1.087346e-09	-2.667942e+01	-7.315090e+01
9.500000e-07	-3.810298e-06	-1.094087e-09	-2.644268e+01	-7.306970e+01
9.600000e-07	-3.775747e-06	-1.081578e-09	-2.620290e+01	-7.298496e+01
9.700000e-07	-3.740818e-06	-1.071529e-09	-2.596049e+01	-7.289679e+01
9.800000e-07	-3.705639e-06	-1.075827e-09	-2.571637e+01	-7.280537e+01
9.900000e-07	-3.670214e-06	-1.073058e-09	-2.547052e+01	-7.271086e+01
1.000000e-06	-3.634663e-06	-1.069538e-09	-2.522380e+01	-7.261349e+01
1.010000e-06	-3.599048e-06	-1.078638e-09	-2.497664e+01	-7.251347e+01
1.020000e-06	-3.563283e-06	-1.080064e-09	-2.472844e+01	-7.241103e+01
1.030000e-06	-3.527303e-06	-1.068935e-09	-2.447875e+01	-7.230641e+01
1.040000e-06	-3.490987e-06	-1.063746e-09	-2.422672e+01	-7.219986e+01
1.050000e-06	-3.454405e-06	-1.065551e-09	-2.397285e+01	-7.209159e+01
1.060000e-06	-3.417634e-06	-1.058042e-09	-2.371767e+01	-7.198183e+01
1.070000e-06	-3.380605e-06	-1.052428e-09	-2.346070e+01	-7.187076e+01
1.080000e-06	-3.343383e-06	-1.052992e-09	-2.320238e+01	-7.175856e+01
1.090000e-06	-3.305899e-06	-1.051164e-09	-2.294225e+01	-7.164537e+01
1.100000e-06	-3.268130e-06	-1.046490e-09	-2.268014e+01	-7.153129e+01
1.110000e-06	-3.230159e-06	-1.047113e-09	-2.241663e+01	-7.141637e+01
1.120000e-06	-3.191981e-06	-1.042087e-09	-2.215168e+01	-7.130065e+01
1.130000e-06	-3.153595e-06	-1.032707e-09	-2.188529e+01	-7.118409e+01
1.140000e-06	-3.114897e-06	-1.027526e-09	-2.161673e+01	-7.106661e+01
1.150000e-06	-3.075937e-06	-1.028904e-09	-2.134636e+01	-7.094809e+01
1.160000e-06	-3.036828e-06	-1.025535e-09	-2.107495e+01	-7.082836e+01
1.170000e-06	-2.997548e-06	-1.024445e-09	-2.080236e+01	-7.070720e+01
1.180000e-06	-2.958114e-06	-1.027742e-09	-2.052870e+01	-7.058432e+01
1.190000e-06	-2.918573e-06	-1.027581e-09	-2.025429e+01	-7.045941e+01
1.200000e-06	-2.878946e-06	-1.020737e-09	-1.997929e+01	-7.033210e+01
1.210000e-06	-2.839136e-06	-1.013222e-09	-1.970301e+01	-7.020201e+01
1.220000e-06	-2.799166e-06	-1.007009e-09	-1.942563e+01	-7.006868e+01
1.230000e-06	-2.759039e-06	-1.000090e-09	-1.914716e+01	-6.993166e+01
1.240000e-06	-2.718589e-06	-9.956769e-10	-1.886644e+01	-6.979044e+01
1.250000e-06	-2.677981e-06	-9.959795e-10	-1.858463e+01	-6.964450e+01
1.260000e-06	-2.637226e-06	-9.980884e-10	-1.830180e+01	-6.949333e+01
1.270000e-06	-2.596031e-06	-9.993681e-10	-1.801591e+01	-6.933638e+01
1.280000e-06	-2.554580e-06	-9.973842e-10	-1.772825e+01	-6.917311e+01
1.290000e-06	-2.512898e-06	-9.912090e-10	-1.743899e+01	-6.900299e+01
1.300000e-06	-2.470911e-06	-9.816759e-10	-1.714761e+01	-6.882549e+01
1.310000e-06	-2.428622e-06	-9.736609e-10	-1.685413e+01	-6.864010e+01
1.320000e-06	-2.385978e-06	-9.676634e-10	-1.655819e+01	-6.844634e+01
1.330000e-06	-2.343047e-06	-9.614885e-10	-1.626026e+01	-6.824374e+01
1.340000e-06	-2.299952e-06	-9.606235e-10	-1.596119e+01	-6.803188e+01
1.350000e-06	-2.256739e-06	-9.638199e-10	-1.566130e+01	-6.781036e+01
1.360000e-06	-2.213384e-06	-9.654797e-10	-1.536043e+01	-6.757885e+01
1.370000e-06	-2.169887e-06	-9.647856e-10	-1.505856e+01	-6.733704e+01
1.380000e-06	-2.126256e-06	-9.626958e-10	-1.475577e+01	-6.708466e+01
1.390000e-06	-2.082580e-06	-9.541660e-10	-1.445267e+01	-6.682150e+01
1.400000e-06	-2.038841e-06	-9.426453e-10	-1.414913e+01	-6.654741e+01
1.410000e-06	-1.995049e-06	-9.346122e-10	-1.384523e+01	-6.626227e+01
1.420000e-06	-1.951097e-06	-9.294326e-10	-1.354020e+01	-6.596601e+01
1.430000e-06	-1.907009e-06	-9.242936e-10	-1.323424e+01	-6.565861e+01
1.440000e-06	-1.862960e-06	-9.228487e-10	-1.292856e+01	-6.534009e+01
1.450000e-06	-1.818821e-06	-9.227362e-10	-1.262224e+01	-6.501051e+01
1.460000e-06	-1.774484e-06	-9.198618e-10	-1.231455e+01	-6.466996e+01
1.470000e-06	-1.729941e-06	-9.132850e-10	-1.200543e+01	-6.431856e+01
1.480000e-06	-1.685226e-06	-9.064301e-10	-1.169512e+01	-6.395645e+01
1.490000e-06	-1.640395e-06	-9.007864e-10	-1.138400e+01	-6.358379e+01
1.500000e-06	-1.595448e-06	-8.928128e-10	-1.107207e+01	-6.320073e+01
1.510000e-06	-1.550425e-06	-8.818457e-10	-1.075962e+01	-6.280744e+01
1.520000e-06	-1.505298e-06	-8.727935e-10	-1.044645e+01	-6.240406e+01
1.530000e-06	-1.460014e-06	-8.677363e-10	-1.013220e+01	-6.199072e+01
1.540000e-06	-1.414550e-06	-8.643936e-10	-9.816680e+00	-6.156751e+01
1.550000e-06	-1.368972e-06	-8.589902e-10	-9.500379e+00	-6.113449e+01
1.560000e-06	-1.323432e-06	-8.511177e-10	-9.184344e+00	-6.069168e+01
1.570000e-06	-1.277787e-06	-8.401385e-10	-8.867575e+00	-6.023900e+01
1.580000e-06	-1.232013e-06	-8.280053e-10	-8.549913e+00	-5.977636e+01
1.590000e-06	-1.186222e-06	-8.172508e-10	-8.232134e+00	-5.930354e+01
1.600000e-06	-1.140322e-06	-8.089086e-10	-7.913599e+00	-5.882027e+01
1.610000e-06	-1.094333e-06	-7.990672e-10	-7.594445e+00	-5.832618e+01
1.620000e-06	-1.048368e-06	-7.915458e-10	-7.275452e+00	-5.782079e+01
1.630000e-06	-1.002259e-06	-7.862870e-10	-6.955471e+00	-5.730354e+01
1.640000e-06	-9.559258e-07	-7.775332e-10	-6.633926e+00	-5.677374e+01
1.650000e-06	-9.095217e-07	-7.668922e-10	-6.311891e+00	-5.623060e+01
1.660000e-06	-8.631129e-07	-7.570752e-10	-5.989824e+00	-5.567323e+01
1.670000e-06	-8.166764e-07	-7.498040e-10	-5.667564e+00	-5.510062e+01
1.680000e-06	-7.701322e-07	-7.415715e-10	-5.344557e+00	-5.451165e+01
1.690000e-06	-7.235967e-07	-7.334642e-10	-5.021610e+00	-5.390510e+01
1.700000e-06	-6.771728e-07	-7.229297e-10	-4.699438e+00	-5.327965e+01
1.710000e-06	-6.307221e-07	-7.093515e-10	-4.377080e+00	-5.263391e+01
1.720000e-06	-5.841489e-07	-6.932987e-10	-4.053872e+00	-5.196639e+01
1.730000e-06	-5.374854e-07	-6.774549e-10	-3.730036e+00	-5.127553e+01
1.740000e-06	-4.907987e-07	-6.653727e-10	-3.406041e+00	-5.055973e+01
1.750000e-06	-4.440493e-07	-6.561447e-10	-3.081610e+00	-4.981731e+01
1.760000e-06	-3.972187e-07	-6.471505e-10	-2.756615e+00	-4.904662e+01
1.770000e-06	-3.503418e-07	-6.372923e-10	-2.431299e+00	-4.824595e+01
1.780000e-06	-3.034679e-07	-6.253921e-10	-2.106004e+00	-4.741362e+01
1.790000e-06	-2.565413e-07	-6.123261e-10	-1.780343e+00	-4.654797e+01
1.800000e-06	-2.095841e-07	-5.981055e-10	-1.454470e+00	-4.564739e+01
1.810000e-06	-1.626713e-07	-5.839473e-10	-1.128905e+00	-4.471034e+01
1.820000e-06	-1.157227e-07	-5.697299e-10	-8.030912e-01	-4.373535e+01
1.830000e-06	-6.875674e-08	-5.552137e-10	-4.771575e-01	-4.272107e+01
1.840000e-06	-2.171422e-08	-5.410552e-10	-1.506922e-01	-4.166626e+01
1.850000e-06	2.521876e-08	-5.277897e-10	1.750129e-01	-4.056985e+01
1.860000e-06	7.202046e-08	-5.152253e-10	4.998070e-01	-3.943090e+01
1.870000e-06	1.189331e-07	-5.026162e-10	8.253708e-01	-3.824867e+01
1.880000e-06	1.658344e-07	-4.878299e-10	1.150856e+00	-3.702260e+01
1.890000e-06	2.126856e-07	-4.689545e-10	1.475994e+00	-3.575234e+01
1.900000e-06	2.595853e-07	-4.475351e-10	1.801468e+00	-3.443778e+01
1.910000e-06	3.064210e-07	-4.251733e-10	2.126498e+00	-3.307900e+01
1.920000e-06	3.531867e-07	-4.040082e-10	2.451042e+00	-3.167635e+01
1.930000e-06	4.000762e-07	-3.846929e-10	2.776446e+00	-3.023039e+01
1.940000e-06	4.469047e-07	-3.659241e-10	3.101425e+00	-2.874196e+01
1.950000e-06	4.935740e-07	-3.484059e-10	3.425301e+00	-2.721211e+01
1.960000e-06	5.402293e-07	-3.307792e-10	3.749079e+00	-2.564215e+01
1.970000e-06	5.869113e-07	-3.109378e-10	4.073042e+00	-2.403361e+01
1.980000e-06	6.336431e-07	-2.884156e-10	4.397351e+00	-2.238826e+01
1.990000e-06	6.803216e-07	-2.630533e-10	4.721290e+00	-2.070808e+01
2.000000e-06	7.268889e-07	-2.376101e-10	5.044457e+00	-1.899524e+01
2.010000e-06	7.733614e-07	-2.143277e-10	5.366967e+00	-1.725212e+01
2.020000e-06	8.197644e-07	-1.912041e-10	5.688994e+00	-1.548127e+01
2.030000e-06	8.660939e-07	-1.665940e-10	6.010511e+00	-1.368538e+01
2.040000e-06	9.123573e-07	-1.424913e-10	6.331569e+00	-1.186727e+01
2.050000e-06	9.584901e-07	-1.189500e-10	6.651721e+00	-1.002988e+01
2.060000e-06	1.004515e-06	-9.539830e-11	6.971122e+00	-8.176230e+00
2.070000e-06	1.050479e-06	-7.172017e-11	7.290104e+00	-6.309418e+00
2.080000e-06	1.096322e-06	-4.899973e-11	7.608249e+00	-4.432567e+00
2.090000e-06	1.142088e-06	-2.529149e-11	7.925854e+00	-2.548823e+00
2.100000e-06	1.187834e-06	1.893416e-12	8.243323e+00	-6.613236e-01
2.110000e-06	1.233549e-06	2.981010e-11	8.560573e+00	1.226822e+00
2.120000e-06	1.279120e-06	5.667430e-11	8.876827e+00	3.112557e+00
2.130000e-06	1.324589e-06	8.513368e-11	9.192371e+00	4.992899e+00
2.140000e-06	1.370033e-06	1.114724e-10	9.507745e+00	6.864956e+00
2.150000e-06	1.415428e-06	1.331642e-10	9.822779e+00	8.725947e+00
2.160000e-06	1.460772e-06	1.524907e-10	1.013745e+01	1.057322e+01
2.170000e-06	1.505999e-06	1.731278e-10	1.045132e+01	1.240426e+01
2.180000e-06	1.551009e-06	1.971609e-10	1.076368e+01	1.421670e+01
2.190000e-06	1.595882e-06	2.242268e-10	1.107509e+01	1.600836e+01
2.200000e-06	1.640738e-06	2.520939e-10	1.138638e+01	1.777719e+01
2.210000e-06	1.685483e-06	2.797706e-10	1.169690e+01	1.952136e+01
2.220000e-06	1.730109e-06	3.062941e-10	1.200660e+01	2.123919e+01
2.230000e-06	1.774482e-06	3.308772e-10	1.231454e+01	2.292918e+01
2.240000e-06	1.818621e-06	3.507646e-10	1.262085e+01	2.459003e+01
2.250000e-06	1.862723e-06	3.665075e-10	1.292691e+01	2.622059e+01
2.260000e-06	1.906791e-06	3.834383e-10	1.323273e+01	2.781991e+01
2.270000e-06	1.950764e-06	4.025459e-10	1.353789e+01	2.938718e+01
2.280000e-06	1.994570e-06	4.228751e-10	1.384190e+01	3.092175e+01
2.290000e-06	2.038316e-06	4.446341e-10	1.414549e+01	3.242314e+01
2.300000e-06	2.082049e-06	4.687304e-10	1.444899e+01	3.389099e+01
2.310000e-06	2.125708e-06	4.923399e-10	1.475197e+01	3.532507e+01
2.320000e-06	2.169300e-06	5.132467e-10	1.505449e+01	3.672526e+01
2.330000e-06	2.212797e-06	5.297774e-10	1.535635e+01	3.809155e+01
2.340000e-06	2.256228e-06	5.428590e-10	1.565775e+01	3.942404e+01
2.350000e-06	2.299548e-06	5.564889e-10	1.595839e+01	4.072289e+01
2.360000e-06	2.342673e-06	5.721064e-10	1.625766e+01	4.198833e+01
2.370000e-06	2.385667e-06	5.893978e-10	1.655603e+01	4.322067e+01
2.380000e-06	2.428380e-06	6.076908e-10	1.685245e+01	4.442025e+01
2.390000e-06	2.470689e-06	6.249940e-10	1.714607e+01	4.558747e+01
2.400000e-06	2.512639e-06	6.404166e-10	1.743719e+01	4.672275e+01
2.410000e-06	2.554235e-06	6.543324e-10	1.772586e+01	4.782653e+01
2.420000e-06	2.595452e-06	6.683502e-10	1.801190e+01	4.889929e+01
2.430000e-06	2.636382e-06	6.833265e-10	1.829594e+01	4.994151e+01
2.440000e-06	2.677106e-06	6.997762e-10	1.857856e+01	5.095369e+01
2.450000e-06	2.717616e-06	7.166680e-10	1.885969e+01	5.193633e+01
2.460000e-06	2.757841e-06	7.327899e-10	1.913884e+01	5.288994e+01
2.470000e-06	2.797864e-06	7.465101e-10	1.941659e+01	5.381502e+01
2.480000e-06	2.837767e-06	7.583349e-10	1.969351e+01	5.471210e+01
2.490000e-06	2.877499e-06	7.697866e-10	1.996925e+01	5.558168e+01
2.500000e-06	2.917122e-06	7.803933e-10	2.024422e+01	5.642429e+01
2.510000e-06	2.956601e-06	7.921385e-10	2.051820e+01	5.724045e+01
2.520000e-06	2.995929e-06	8.044850e-10	2.079112e+01	5.803069e+01
2.530000e-06	3.035166e-06	8.170696e-10	2.106342e+01	5.879555e+01
2.540000e-06	3.074203e-06	8.312141e-10	2.133433e+01	5.953555e+01
2.550000e-06	3.112957e-06	8.436218e-10	2.160328e+01	6.025126e+01
2.560000e-06	3.151367e-06	8.511743e-10	2.186983e+01	6.094323e+01
2.570000e-06	3.189489e-06	8.559358e-10	2.213439e+01	6.161201e+01
2.580000e-06	3.227452e-06	8.615914e-10	2.239784e+01	6.225820e+01
2.590000e-06	3.265269e-06	8.669813e-10	2.266029e+01	6.288236e+01
2.600000e-06	3.302937e-06	8.745938e-10	2.292169e+01	6.348510e+01
2.610000e-06	3.340418e-06	8.870885e-10	2.318180e+01	6.406699e+01
2.620000e-06	3.377616e-06	9.017106e-10	2.343995e+01	6.462865e+01
2.630000e-06	3.414519e-06	9.128789e-10	2.369605e+01	6.517067e+01
2.640000e-06	3.451203e-06	9.186689e-10	2.395063e+01	6.569364e+01
2.650000e-06	3.487657e-06	9.241106e-10	2.420361e+01	6.619817e+01
2.660000e-06	3.523814e-06	9.281862e-10	2.445453e+01	6.668483e+01
2.670000e-06	3.559712e-06	9.314018e-10	2.470366e+01	6.715420e+01
2.680000e-06	3.595491e-06	9.364972e-10	2.495196e+01	6.760685e+01
2.690000e-06	3.631119e-06	9.435804e-10	2.519921e+01	6.804329e+01
2.700000e-06	3.666651e-06	9.526369e-10	2.544579e+01	6.846406e+01
2.710000e-06	3.702071e-06	9.584248e-10	2.569160e+01	6.886964e+01
2.720000e-06	3.737343e-06	9.604479e-10	2.593638e+01	6.926050e+01
2.730000e-06	3.772340e-06	9.617685e-10	2.617925e+01	6.963706e+01
2.740000e-06	3.806931e-06	9.652362e-10	2.641931e+01	6.999973e+01
2.750000e-06	3.841094e-06	9.705191e-10	2.665639e+01	7.034886e+01
2.760000e-06	3.874697e-06	9.758033e-10	2.688959e+01	7.068480e+01
2.770000e-06	3.907823e-06	9.823332e-10	2.711948e+01	7.100783e+01
2.780000e-06	3.940527e-06	9.877630e-10	2.734644e+01	7.131822e+01
2.790000e-06	3.972872e-06	9.931325e-10	2.757090e+01	7.161621e+01
2.800000e-06	4.004922e-06	9.985417e-10	2.779333e+01	7.190199e+01
2.810000e-06	4.036757e-06	1.003396e-09	2.801425e+01	7.217576e+01
2.820000e-06	4.068504e-06	1.006643e-09	2.823457e+01	7.243766e+01
2.830000e-06	4.100083e-06	1.009141e-09	2.845372e+01	7.268784e+01
2.840000e-06	4.131426e-06	1.012714e-09	2.867124e+01	7.292643e+01
2.850000e-06	4.162570e-06	1.015766e-09	2.888737e+01	7.315356e+01
2.860000e-06	4.193447e-06	1.018736e-09	2.910165e+01	7.336935e+01
2.870000e-06	4.223903e-06	1.023309e-09	2.931301e+01	7.357394e+01
2.880000e-06	4.253983e-06	1.027213e-09	2.952176e+01	7.376746e+01
2.890000e-06	4.283807e-06	1.028124e-09	2.972873e+01	7.395007e+01
2.900000e-06	4.313337e-06	1.028357e-09	2.993366e+01	7.412196e+01
