# Temperatura_=_12.3
# Concentracion g/m^3_=_1620.0
# C_Vs_to_Am_M_A/Vsm_=_65563218390.804596
# pendiente_HvsI_1/m_=_3716.3
# ordenada_HvsI_A/m_=_1297.0
# frecuencia_Hz_=_135107.05686437397

Tiempo_(s)	Campo_(V.s)	Magnetizacion_(V.s)	Campo_(kA/m)	Magnetizacion_(A/m)
0.000000e+00	-5.517380e-06	-1.795231e-09	-3.836309e+01	-1.164936e+02
1.000000e-08	-5.517610e-06	-1.794275e-09	-3.836469e+01	-1.164519e+02
2.000000e-08	-5.517584e-06	-1.794649e-09	-3.836451e+01	-1.164070e+02
3.000000e-08	-5.517257e-06	-1.795459e-09	-3.836223e+01	-1.163586e+02
4.000000e-08	-5.516525e-06	-1.794841e-09	-3.835714e+01	-1.163067e+02
5.000000e-08	-5.515267e-06	-1.791555e-09	-3.834840e+01	-1.162510e+02
6.000000e-08	-5.513422e-06	-1.782989e-09	-3.833557e+01	-1.161913e+02
7.000000e-08	-5.511001e-06	-1.793969e-09	-3.831873e+01	-1.161276e+02
8.000000e-08	-5.507998e-06	-1.844331e-09	-3.829785e+01	-1.160597e+02
9.000000e-08	-5.504439e-06	-1.835922e-09	-3.827310e+01	-1.159874e+02
1.000000e-07	-5.500430e-06	-1.741104e-09	-3.824523e+01	-1.159108e+02
1.100000e-07	-5.496182e-06	-1.743668e-09	-3.821570e+01	-1.158296e+02
1.200000e-07	-5.491704e-06	-1.836033e-09	-3.818456e+01	-1.157440e+02
1.300000e-07	-5.486907e-06	-1.827264e-09	-3.815121e+01	-1.156537e+02
1.400000e-07	-5.481797e-06	-1.722412e-09	-3.811568e+01	-1.155589e+02
1.500000e-07	-5.476370e-06	-1.688908e-09	-3.807794e+01	-1.154596e+02
1.600000e-07	-5.470569e-06	-1.842346e-09	-3.803760e+01	-1.153557e+02
1.700000e-07	-5.464201e-06	-1.857542e-09	-3.799333e+01	-1.152472e+02
1.800000e-07	-5.457403e-06	-1.759840e-09	-3.794606e+01	-1.151343e+02
1.900000e-07	-5.450368e-06	-1.707053e-09	-3.789715e+01	-1.150170e+02
2.000000e-07	-5.443020e-06	-1.799371e-09	-3.784605e+01	-1.148953e+02
2.100000e-07	-5.435311e-06	-1.816859e-09	-3.779245e+01	-1.147692e+02
2.200000e-07	-5.427344e-06	-1.762608e-09	-3.773705e+01	-1.146390e+02
2.300000e-07	-5.419178e-06	-1.740777e-09	-3.768028e+01	-1.145046e+02
2.400000e-07	-5.410556e-06	-1.796248e-09	-3.762033e+01	-1.143660e+02
2.500000e-07	-5.401191e-06	-1.802943e-09	-3.755521e+01	-1.142234e+02
2.600000e-07	-5.391224e-06	-1.744102e-09	-3.748591e+01	-1.140768e+02
2.700000e-07	-5.380825e-06	-1.725547e-09	-3.741360e+01	-1.139263e+02
2.800000e-07	-5.369891e-06	-1.744198e-09	-3.733757e+01	-1.137718e+02
2.900000e-07	-5.358432e-06	-1.762736e-09	-3.725790e+01	-1.136135e+02
3.000000e-07	-5.346561e-06	-1.717598e-09	-3.717536e+01	-1.134513e+02
3.100000e-07	-5.334361e-06	-1.706252e-09	-3.709053e+01	-1.132853e+02
3.200000e-07	-5.321789e-06	-1.724692e-09	-3.700312e+01	-1.131155e+02
3.300000e-07	-5.308774e-06	-1.760326e-09	-3.691262e+01	-1.129418e+02
3.400000e-07	-5.295316e-06	-1.701191e-09	-3.681904e+01	-1.127644e+02
3.500000e-07	-5.281447e-06	-1.690835e-09	-3.672261e+01	-1.125832e+02
3.600000e-07	-5.267187e-06	-1.727168e-09	-3.662346e+01	-1.123981e+02
3.700000e-07	-5.252516e-06	-1.740306e-09	-3.652145e+01	-1.122092e+02
3.800000e-07	-5.237201e-06	-1.673640e-09	-3.641496e+01	-1.120165e+02
3.900000e-07	-5.221336e-06	-1.725982e-09	-3.630465e+01	-1.118200e+02
4.000000e-07	-5.205197e-06	-1.763216e-09	-3.619244e+01	-1.116197e+02
4.100000e-07	-5.188648e-06	-1.677767e-09	-3.607737e+01	-1.114155e+02
4.200000e-07	-5.171635e-06	-1.638947e-09	-3.595908e+01	-1.112076e+02
4.300000e-07	-5.154299e-06	-1.750451e-09	-3.583853e+01	-1.109959e+02
4.400000e-07	-5.136579e-06	-1.722178e-09	-3.571533e+01	-1.107805e+02
4.500000e-07	-5.118511e-06	-1.619263e-09	-3.558970e+01	-1.105615e+02
4.600000e-07	-5.100160e-06	-1.697684e-09	-3.546210e+01	-1.103388e+02
4.700000e-07	-5.081386e-06	-1.762512e-09	-3.533156e+01	-1.101127e+02
4.800000e-07	-5.062205e-06	-1.642455e-09	-3.519820e+01	-1.098831e+02
4.900000e-07	-5.042776e-06	-1.632688e-09	-3.506310e+01	-1.096503e+02
5.000000e-07	-5.023188e-06	-1.727683e-09	-3.492690e+01	-1.094143e+02
5.100000e-07	-5.003355e-06	-1.647324e-09	-3.478900e+01	-1.091753e+02
5.200000e-07	-4.983188e-06	-1.588601e-09	-3.464878e+01	-1.089334e+02
5.300000e-07	-4.962650e-06	-1.699340e-09	-3.450597e+01	-1.086888e+02
5.400000e-07	-4.941766e-06	-1.689348e-09	-3.436077e+01	-1.084417e+02
5.500000e-07	-4.920498e-06	-1.579547e-09	-3.421289e+01	-1.081923e+02
5.600000e-07	-4.898956e-06	-1.651220e-09	-3.406310e+01	-1.079407e+02
5.700000e-07	-4.877194e-06	-1.698101e-09	-3.391179e+01	-1.076870e+02
5.800000e-07	-4.855065e-06	-1.599190e-09	-3.375792e+01	-1.074316e+02
5.900000e-07	-4.832504e-06	-1.598639e-09	-3.360105e+01	-1.071745e+02
6.000000e-07	-4.809531e-06	-1.676116e-09	-3.344132e+01	-1.069159e+02
6.100000e-07	-4.786252e-06	-1.608809e-09	-3.327945e+01	-1.066560e+02
6.200000e-07	-4.762803e-06	-1.570961e-09	-3.311641e+01	-1.063948e+02
6.300000e-07	-4.739159e-06	-1.627503e-09	-3.295201e+01	-1.061325e+02
6.400000e-07	-4.715157e-06	-1.615082e-09	-3.278512e+01	-1.058692e+02
6.500000e-07	-4.690820e-06	-1.566949e-09	-3.261591e+01	-1.056048e+02
6.600000e-07	-4.666147e-06	-1.611654e-09	-3.244435e+01	-1.053394e+02
6.700000e-07	-4.640986e-06	-1.614698e-09	-3.226940e+01	-1.050730e+02
6.800000e-07	-4.615273e-06	-1.569389e-09	-3.209062e+01	-1.048055e+02
6.900000e-07	-4.589071e-06	-1.577461e-09	-3.190843e+01	-1.045369e+02
7.000000e-07	-4.562388e-06	-1.593235e-09	-3.172290e+01	-1.042670e+02
7.100000e-07	-4.535266e-06	-1.554853e-09	-3.153431e+01	-1.039957e+02
7.200000e-07	-4.507904e-06	-1.555766e-09	-3.134407e+01	-1.037227e+02
7.300000e-07	-4.480327e-06	-1.576780e-09	-3.115232e+01	-1.034478e+02
7.400000e-07	-4.452484e-06	-1.564531e-09	-3.095872e+01	-1.031708e+02
7.500000e-07	-4.424354e-06	-1.551931e-09	-3.076313e+01	-1.028913e+02
7.600000e-07	-4.395933e-06	-1.561620e-09	-3.056552e+01	-1.026091e+02
7.700000e-07	-4.367276e-06	-1.546307e-09	-3.036626e+01	-1.023238e+02
7.800000e-07	-4.338382e-06	-1.529397e-09	-3.016536e+01	-1.020351e+02
7.900000e-07	-4.309210e-06	-1.535350e-09	-2.996252e+01	-1.017425e+02
8.000000e-07	-4.279730e-06	-1.529439e-09	-2.975754e+01	-1.014458e+02
8.100000e-07	-4.249925e-06	-1.515004e-09	-2.955030e+01	-1.011445e+02
8.200000e-07	-4.219805e-06	-1.519634e-09	-2.934087e+01	-1.008383e+02
8.300000e-07	-4.189412e-06	-1.520634e-09	-2.912955e+01	-1.005267e+02
8.400000e-07	-4.158697e-06	-1.499212e-09	-2.891598e+01	-1.002096e+02
8.500000e-07	-4.127669e-06	-1.498230e-09	-2.870024e+01	-9.988653e+01
8.600000e-07	-4.096466e-06	-1.505919e-09	-2.848328e+01	-9.955724e+01
8.700000e-07	-4.065110e-06	-1.495920e-09	-2.826526e+01	-9.922149e+01
8.800000e-07	-4.033512e-06	-1.484905e-09	-2.804555e+01	-9.887907e+01
8.900000e-07	-4.001706e-06	-1.491911e-09	-2.782440e+01	-9.852982e+01
9.000000e-07	-3.969744e-06	-1.478358e-09	-2.760217e+01	-9.817364e+01
9.100000e-07	-3.937506e-06	-1.461975e-09	-2.737801e+01	-9.781046e+01
9.200000e-07	-3.904842e-06	-1.459642e-09	-2.715089e+01	-9.744028e+01
9.300000e-07	-3.871757e-06	-1.455995e-09	-2.692085e+01	-9.706316e+01
9.400000e-07	-3.838303e-06	-1.436849e-09	-2.668824e+01	-9.667919e+01
9.500000e-07	-3.804493e-06	-1.436856e-09	-2.645315e+01	-9.628853e+01
9.600000e-07	-3.770322e-06	-1.439400e-09	-2.621555e+01	-9.589141e+01
9.700000e-07	-3.735680e-06	-1.425922e-09	-2.597469e+01	-9.548807e+01
9.800000e-07	-3.700606e-06	-1.411567e-09	-2.573081e+01	-9.507882e+01
9.900000e-07	-3.665326e-06	-1.411928e-09	-2.548550e+01	-9.466401e+01
1.000000e-06	-3.629880e-06	-1.402770e-09	-2.523905e+01	-9.424402e+01
1.010000e-06	-3.594257e-06	-1.388731e-09	-2.499135e+01	-9.381924e+01
1.020000e-06	-3.558518e-06	-1.385826e-09	-2.474285e+01	-9.339010e+01
1.030000e-06	-3.522636e-06	-1.381593e-09	-2.449337e+01	-9.295704e+01
1.040000e-06	-3.486495e-06	-1.365981e-09	-2.424207e+01	-9.252047e+01
1.050000e-06	-3.450001e-06	-1.360444e-09	-2.398832e+01	-9.208083e+01
1.060000e-06	-3.413210e-06	-1.358977e-09	-2.373251e+01	-9.163853e+01
1.070000e-06	-3.376223e-06	-1.347383e-09	-2.347533e+01	-9.119394e+01
1.080000e-06	-3.339054e-06	-1.336758e-09	-2.321690e+01	-9.074741e+01
1.090000e-06	-3.301620e-06	-1.333704e-09	-2.295661e+01	-9.029924e+01
1.100000e-06	-3.263926e-06	-1.325733e-09	-2.269452e+01	-8.984967e+01
1.110000e-06	-3.225970e-06	-1.310439e-09	-2.243060e+01	-8.939890e+01
1.120000e-06	-3.187804e-06	-1.301720e-09	-2.216523e+01	-8.894703e+01
1.130000e-06	-3.149521e-06	-1.290985e-09	-2.189904e+01	-8.849411e+01
1.140000e-06	-3.110987e-06	-1.277845e-09	-2.163111e+01	-8.804012e+01
1.150000e-06	-3.072157e-06	-1.271929e-09	-2.136112e+01	-8.758495e+01
1.160000e-06	-3.033096e-06	-1.274006e-09	-2.108953e+01	-8.712838e+01
1.170000e-06	-2.993912e-06	-1.267629e-09	-2.081707e+01	-8.667016e+01
1.180000e-06	-2.954636e-06	-1.260061e-09	-2.054399e+01	-8.620992e+01
1.190000e-06	-2.915127e-06	-1.254410e-09	-2.026927e+01	-8.574723e+01
1.200000e-06	-2.875422e-06	-1.244022e-09	-1.999319e+01	-8.528156e+01
1.210000e-06	-2.835580e-06	-1.227441e-09	-1.971617e+01	-8.481235e+01
1.220000e-06	-2.795559e-06	-1.216232e-09	-1.943790e+01	-8.433894e+01
1.230000e-06	-2.755358e-06	-1.207191e-09	-1.915838e+01	-8.386064e+01
1.240000e-06	-2.715037e-06	-1.197942e-09	-1.887802e+01	-8.337671e+01
1.250000e-06	-2.674556e-06	-1.192682e-09	-1.859655e+01	-8.288637e+01
1.260000e-06	-2.633827e-06	-1.191284e-09	-1.831335e+01	-8.238881e+01
1.270000e-06	-2.592888e-06	-1.185869e-09	-1.802870e+01	-8.188324e+01
1.280000e-06	-2.551703e-06	-1.175770e-09	-1.774234e+01	-8.136883e+01
1.290000e-06	-2.510276e-06	-1.165351e-09	-1.745429e+01	-8.084480e+01
1.300000e-06	-2.468582e-06	-1.154721e-09	-1.716439e+01	-8.031036e+01
1.310000e-06	-2.426565e-06	-1.140142e-09	-1.687223e+01	-7.976478e+01
1.320000e-06	-2.384237e-06	-1.127069e-09	-1.657792e+01	-7.920737e+01
1.330000e-06	-2.341630e-06	-1.116588e-09	-1.628167e+01	-7.863750e+01
1.340000e-06	-2.298821e-06	-1.107222e-09	-1.598401e+01	-7.805462e+01
1.350000e-06	-2.255803e-06	-1.098995e-09	-1.568490e+01	-7.745823e+01
1.360000e-06	-2.212615e-06	-1.093061e-09	-1.538461e+01	-7.684793e+01
1.370000e-06	-2.169242e-06	-1.084713e-09	-1.508303e+01	-7.622341e+01
1.380000e-06	-2.125675e-06	-1.072898e-09	-1.478010e+01	-7.558444e+01
1.390000e-06	-2.081990e-06	-1.060156e-09	-1.447636e+01	-7.493089e+01
1.400000e-06	-2.038185e-06	-1.044831e-09	-1.417177e+01	-7.426271e+01
1.410000e-06	-1.994299e-06	-1.027973e-09	-1.386663e+01	-7.357995e+01
1.420000e-06	-1.950328e-06	-1.011801e-09	-1.356089e+01	-7.288274e+01
1.430000e-06	-1.906292e-06	-9.988132e-10	-1.325470e+01	-7.217129e+01
1.440000e-06	-1.862244e-06	-9.874111e-10	-1.294843e+01	-7.144587e+01
1.450000e-06	-1.818093e-06	-9.777940e-10	-1.264144e+01	-7.070681e+01
1.460000e-06	-1.773775e-06	-9.700837e-10	-1.233330e+01	-6.995449e+01
1.470000e-06	-1.729343e-06	-9.590891e-10	-1.202436e+01	-6.918931e+01
1.480000e-06	-1.684735e-06	-9.450279e-10	-1.171419e+01	-6.841171e+01
1.490000e-06	-1.639933e-06	-9.328164e-10	-1.140267e+01	-6.762210e+01
1.500000e-06	-1.595039e-06	-9.185792e-10	-1.109052e+01	-6.682090e+01
1.510000e-06	-1.550067e-06	-9.016812e-10	-1.077782e+01	-6.600847e+01
1.520000e-06	-1.505039e-06	-8.847645e-10	-1.046474e+01	-6.518516e+01
1.530000e-06	-1.459921e-06	-8.705358e-10	-1.015103e+01	-6.435120e+01
1.540000e-06	-1.414623e-06	-8.574668e-10	-9.836062e+00	-6.350679e+01
1.550000e-06	-1.369127e-06	-8.460501e-10	-9.519723e+00	-6.265200e+01
1.560000e-06	-1.323521e-06	-8.333448e-10	-9.202617e+00	-6.178679e+01
1.570000e-06	-1.277889e-06	-8.186764e-10	-8.885334e+00	-6.091099e+01
1.580000e-06	-1.232234e-06	-8.019416e-10	-8.567892e+00	-6.002431e+01
1.590000e-06	-1.186480e-06	-7.858905e-10	-8.249757e+00	-5.912630e+01
1.600000e-06	-1.140598e-06	-7.688988e-10	-7.930731e+00	-5.821637e+01
1.610000e-06	-1.094673e-06	-7.521757e-10	-7.611410e+00	-5.729375e+01
1.620000e-06	-1.048715e-06	-7.370405e-10	-7.291859e+00	-5.635753e+01
1.630000e-06	-1.002682e-06	-7.224153e-10	-6.971786e+00	-5.540666e+01
1.640000e-06	-9.565499e-07	-7.091918e-10	-6.651021e+00	-5.443989e+01
1.650000e-06	-9.103199e-07	-6.972876e-10	-6.329577e+00	-5.345587e+01
1.660000e-06	-8.640416e-07	-6.849243e-10	-6.007798e+00	-5.245308e+01
1.670000e-06	-8.177192e-07	-6.696053e-10	-5.685712e+00	-5.142991e+01
1.680000e-06	-7.714114e-07	-6.518442e-10	-5.363728e+00	-5.038461e+01
1.690000e-06	-7.250737e-07	-6.325435e-10	-5.041535e+00	-4.931536e+01
1.700000e-06	-6.785869e-07	-6.133000e-10	-4.718306e+00	-4.822025e+01
1.710000e-06	-6.320364e-07	-5.921067e-10	-4.394634e+00	-4.709735e+01
1.720000e-06	-5.854803e-07	-5.695356e-10	-4.070924e+00	-4.594467e+01
1.730000e-06	-5.389133e-07	-5.475053e-10	-3.747137e+00	-4.476023e+01
1.740000e-06	-4.923271e-07	-5.280102e-10	-3.423217e+00	-4.354209e+01
1.750000e-06	-4.457186e-07	-5.107761e-10	-3.099142e+00	-4.228834e+01
1.760000e-06	-3.989963e-07	-4.929867e-10	-2.774275e+00	-4.099715e+01
1.770000e-06	-3.522287e-07	-4.729460e-10	-2.449094e+00	-3.966681e+01
1.780000e-06	-3.055044e-07	-4.514281e-10	-2.124213e+00	-3.829570e+01
1.790000e-06	-2.586991e-07	-4.317856e-10	-1.798770e+00	-3.688240e+01
1.800000e-06	-2.119121e-07	-4.137824e-10	-1.473453e+00	-3.542563e+01
1.810000e-06	-1.652266e-07	-3.940528e-10	-1.148843e+00	-3.392433e+01
1.820000e-06	-1.184807e-07	-3.726428e-10	-8.238120e-01	-3.237765e+01
1.830000e-06	-7.164185e-08	-3.483046e-10	-4.981354e-01	-3.078496e+01
1.840000e-06	-2.483037e-08	-3.242241e-10	-1.726489e-01	-2.914592e+01
1.850000e-06	2.196159e-08	-3.025876e-10	1.527019e-01	-2.746040e+01
1.860000e-06	6.878656e-08	-2.829377e-10	4.782822e-01	-2.572858e+01
1.870000e-06	1.155909e-07	-2.630259e-10	8.037194e-01	-2.395091e+01
1.880000e-06	1.624000e-07	-2.419873e-10	1.129189e+00	-2.212811e+01
1.890000e-06	2.092499e-07	-2.190782e-10	1.454943e+00	-2.026118e+01
1.900000e-06	2.560584e-07	-1.924654e-10	1.780409e+00	-1.835140e+01
1.910000e-06	3.027905e-07	-1.638226e-10	2.105343e+00	-1.640032e+01
1.920000e-06	3.494899e-07	-1.335314e-10	2.430050e+00	-1.440974e+01
1.930000e-06	3.961781e-07	-1.026238e-10	2.754680e+00	-1.238173e+01
1.940000e-06	4.428849e-07	-7.292620e-11	3.079438e+00	-1.031856e+01
1.950000e-06	4.895250e-07	-4.655992e-11	3.403733e+00	-8.222736e+00
1.960000e-06	5.359952e-07	-2.070732e-11	3.726847e+00	-6.096950e+00
1.970000e-06	5.823839e-07	6.113748e-12	4.049394e+00	-3.944066e+00
1.980000e-06	6.288249e-07	3.146456e-11	4.372304e+00	-1.767099e+00
1.990000e-06	6.752624e-07	5.945049e-11	4.695190e+00	4.308142e-01
2.000000e-06	7.216089e-07	9.266365e-11	5.017444e+00	2.646433e+00
2.010000e-06	7.678890e-07	1.294396e-10	5.339236e+00	4.876446e+00
2.020000e-06	8.141129e-07	1.666376e-10	5.660636e+00	7.117491e+00
2.030000e-06	8.603234e-07	2.033661e-10	5.981944e+00	9.366184e+00
2.040000e-06	9.064828e-07	2.376976e-10	6.302897e+00	1.161914e+01
2.050000e-06	9.525438e-07	2.664666e-10	6.623165e+00	1.387302e+01
2.060000e-06	9.985078e-07	2.895406e-10	6.942759e+00	1.612450e+01
2.070000e-06	1.044345e-06	3.127559e-10	7.261471e+00	1.837034e+01
2.080000e-06	1.090089e-06	3.398198e-10	7.579537e+00	2.060742e+01
2.090000e-06	1.135860e-06	3.711721e-10	7.897786e+00	2.283269e+01
2.100000e-06	1.181641e-06	4.067090e-10	8.216111e+00	2.504324e+01
2.110000e-06	1.227324e-06	4.428355e-10	8.533751e+00	2.723631e+01
2.120000e-06	1.272885e-06	4.766876e-10	8.850540e+00	2.940928e+01
2.130000e-06	1.318346e-06	5.071623e-10	9.166639e+00	3.155970e+01
2.140000e-06	1.363777e-06	5.341343e-10	9.482524e+00	3.368527e+01
2.150000e-06	1.409145e-06	5.575275e-10	9.797974e+00	3.578390e+01
2.160000e-06	1.454356e-06	5.805185e-10	1.011234e+01	3.785364e+01
2.170000e-06	1.499450e-06	6.047240e-10	1.042588e+01	3.989276e+01
2.180000e-06	1.544438e-06	6.307638e-10	1.073869e+01	4.189968e+01
2.190000e-06	1.589320e-06	6.601515e-10	1.105076e+01	4.387302e+01
2.200000e-06	1.634042e-06	6.925688e-10	1.136171e+01	4.581155e+01
2.210000e-06	1.678537e-06	7.257807e-10	1.167110e+01	4.771423e+01
2.220000e-06	1.722938e-06	7.572525e-10	1.197982e+01	4.958019e+01
2.230000e-06	1.767254e-06	7.826635e-10	1.228796e+01	5.140869e+01
2.240000e-06	1.811459e-06	8.028458e-10	1.259532e+01	5.319917e+01
2.250000e-06	1.855575e-06	8.195170e-10	1.290206e+01	5.495118e+01
2.260000e-06	1.899579e-06	8.358749e-10	1.320803e+01	5.666444e+01
2.270000e-06	1.943479e-06	8.555375e-10	1.351327e+01	5.833875e+01
2.280000e-06	1.987279e-06	8.790201e-10	1.381782e+01	5.997407e+01
2.290000e-06	2.031031e-06	9.052348e-10	1.412203e+01	6.157042e+01
2.300000e-06	2.074807e-06	9.321566e-10	1.442641e+01	6.312796e+01
2.310000e-06	2.118563e-06	9.568199e-10	1.473065e+01	6.464690e+01
2.320000e-06	2.162223e-06	9.758911e-10	1.503423e+01	6.612757e+01
2.330000e-06	2.205752e-06	9.898563e-10	1.533689e+01	6.757033e+01
2.340000e-06	2.249147e-06	1.004336e-09	1.563863e+01	6.897563e+01
2.350000e-06	2.292329e-06	1.023407e-09	1.593887e+01	7.034400e+01
2.360000e-06	2.335340e-06	1.044180e-09	1.623793e+01	7.167598e+01
2.370000e-06	2.378159e-06	1.064534e-09	1.653566e+01	7.297218e+01
2.380000e-06	2.420582e-06	1.084510e-09	1.683063e+01	7.423327e+01
2.390000e-06	2.462621e-06	1.100231e-09	1.712293e+01	7.545993e+01
2.400000e-06	2.504332e-06	1.113293e-09	1.741296e+01	7.665290e+01
2.410000e-06	2.545671e-06	1.127511e-09	1.770039e+01	7.781293e+01
2.420000e-06	2.586770e-06	1.140926e-09	1.798616e+01	7.894081e+01
2.430000e-06	2.627641e-06	1.155760e-09	1.827034e+01	8.003737e+01
2.440000e-06	2.668209e-06	1.172944e-09	1.855241e+01	8.110342e+01
2.450000e-06	2.708607e-06	1.190452e-09	1.883331e+01	8.213983e+01
2.460000e-06	2.748786e-06	1.206787e-09	1.911268e+01	8.314747e+01
2.470000e-06	2.788804e-06	1.220140e-09	1.939093e+01	8.412722e+01
2.480000e-06	2.828748e-06	1.229746e-09	1.966867e+01	8.507996e+01
2.490000e-06	2.868581e-06	1.238905e-09	1.994563e+01	8.600660e+01
2.500000e-06	2.908299e-06	1.249587e-09	2.022180e+01	8.690802e+01
2.510000e-06	2.947854e-06	1.263736e-09	2.049682e+01	8.778513e+01
2.520000e-06	2.987231e-06	1.279258e-09	2.077062e+01	8.863879e+01
2.530000e-06	3.026417e-06	1.294163e-09	2.104309e+01	8.946989e+01
2.540000e-06	3.065317e-06	1.310421e-09	2.131356e+01	9.027929e+01
2.550000e-06	3.103919e-06	1.324216e-09	2.158196e+01	9.106781e+01
2.560000e-06	3.142298e-06	1.331772e-09	2.184882e+01	9.183627e+01
2.570000e-06	3.180502e-06	1.335447e-09	2.211446e+01	9.258544e+01
2.580000e-06	3.218538e-06	1.338902e-09	2.237893e+01	9.331607e+01
2.590000e-06	3.256410e-06	1.343934e-09	2.264226e+01	9.402886e+01
2.600000e-06	3.294128e-06	1.353290e-09	2.290452e+01	9.472448e+01
2.610000e-06	3.331635e-06	1.367162e-09	2.316531e+01	9.540354e+01
2.620000e-06	3.368880e-06	1.383275e-09	2.342428e+01	9.606660e+01
2.630000e-06	3.405817e-06	1.397434e-09	2.368111e+01	9.671418e+01
2.640000e-06	3.442451e-06	1.407169e-09	2.393582e+01	9.734673e+01
2.650000e-06	3.478837e-06	1.413220e-09	2.418882e+01	9.796466e+01
2.660000e-06	3.515014e-06	1.418024e-09	2.444037e+01	9.856832e+01
2.670000e-06	3.551051e-06	1.422136e-09	2.469093e+01	9.915800e+01
2.680000e-06	3.586964e-06	1.425369e-09	2.494064e+01	9.973394e+01
2.690000e-06	3.622764e-06	1.432036e-09	2.518956e+01	1.002963e+02
2.700000e-06	3.658443e-06	1.443294e-09	2.543765e+01	1.008453e+02
2.710000e-06	3.693919e-06	1.454018e-09	2.568432e+01	1.013810e+02
2.720000e-06	3.729072e-06	1.461834e-09	2.592874e+01	1.019034e+02
2.730000e-06	3.763906e-06	1.467438e-09	2.617095e+01	1.024125e+02
2.740000e-06	3.798464e-06	1.471759e-09	2.641123e+01	1.029085e+02
2.750000e-06	3.832508e-06	1.475895e-09	2.664795e+01	1.033911e+02
2.760000e-06	3.865945e-06	1.480616e-09	2.688044e+01	1.038605e+02
2.770000e-06	3.898874e-06	1.486566e-09	2.710939e+01	1.043165e+02
2.780000e-06	3.931380e-06	1.495015e-09	2.733542e+01	1.047590e+02
2.790000e-06	3.963573e-06	1.505052e-09	2.755926e+01	1.051882e+02
2.800000e-06	3.995557e-06	1.514939e-09	2.778165e+01	1.056038e+02
2.810000e-06	4.027407e-06	1.525190e-09	2.800310e+01	1.060059e+02
2.820000e-06	4.059124e-06	1.531697e-09	2.822364e+01	1.063945e+02
2.830000e-06	4.090708e-06	1.537344e-09	2.844324e+01	1.067698e+02
2.840000e-06	4.122066e-06	1.542531e-09	2.866128e+01	1.071316e+02
2.850000e-06	4.153075e-06	1.543839e-09	2.887689e+01	1.074803e+02
2.860000e-06	4.183719e-06	1.545404e-09	2.908996e+01	1.078159e+02
2.870000e-06	4.214067e-06	1.549485e-09	2.930097e+01	1.081388e+02
2.880000e-06	4.244115e-06	1.557545e-09	2.950990e+01	1.084491e+02
2.890000e-06	4.273963e-06	1.565702e-09	2.971744e+01	1.087473e+02
2.900000e-06	4.303648e-06	1.572121e-09	2.992384e+01	1.090336e+02
