# Temperatura_=_2.95
# Concentracion g/m^3_=_1620.0
# C_Vs_to_Am_M_A/Vsm_=_65563218390.804596
# pendiente_HvsI_1/m_=_3716.3
# ordenada_HvsI_A/m_=_1297.0
# frecuencia_Hz_=_135108.0351776799

Tiempo_(s)	Campo_(V.s)	Magnetizacion_(V.s)	Campo_(kA/m)	Magnetizacion_(A/m)
0.000000e+00	-5.522194e-06	-1.502592e-09	-3.836731e+01	-9.734290e+01
1.000000e-08	-5.522406e-06	-1.500452e-09	-3.836878e+01	-9.730828e+01
2.000000e-08	-5.522349e-06	-1.503368e-09	-3.836838e+01	-9.727147e+01
3.000000e-08	-5.521829e-06	-1.507377e-09	-3.836477e+01	-9.723246e+01
4.000000e-08	-5.520837e-06	-1.505842e-09	-3.835788e+01	-9.719128e+01
5.000000e-08	-5.519458e-06	-1.499710e-09	-3.834830e+01	-9.714796e+01
6.000000e-08	-5.517566e-06	-1.490378e-09	-3.833515e+01	-9.710255e+01
7.000000e-08	-5.515085e-06	-1.499966e-09	-3.831792e+01	-9.705510e+01
8.000000e-08	-5.512072e-06	-1.548546e-09	-3.829698e+01	-9.700570e+01
9.000000e-08	-5.508614e-06	-1.548125e-09	-3.827295e+01	-9.695441e+01
1.000000e-07	-5.504727e-06	-1.452500e-09	-3.824595e+01	-9.690134e+01
1.100000e-07	-5.500436e-06	-1.412389e-09	-3.821613e+01	-9.684658e+01
1.200000e-07	-5.495903e-06	-1.500092e-09	-3.818464e+01	-9.679023e+01
1.300000e-07	-5.491121e-06	-1.564705e-09	-3.815142e+01	-9.673238e+01
1.400000e-07	-5.485922e-06	-1.493280e-09	-3.811529e+01	-9.667315e+01
1.500000e-07	-5.480366e-06	-1.409317e-09	-3.807669e+01	-9.661261e+01
1.600000e-07	-5.474509e-06	-1.519445e-09	-3.803600e+01	-9.655087e+01
1.700000e-07	-5.468229e-06	-1.586433e-09	-3.799236e+01	-9.648799e+01
1.800000e-07	-5.461464e-06	-1.504668e-09	-3.794536e+01	-9.642405e+01
1.900000e-07	-5.454289e-06	-1.379294e-09	-3.789551e+01	-9.635909e+01
2.000000e-07	-5.446876e-06	-1.433095e-09	-3.784401e+01	-9.629316e+01
2.100000e-07	-5.439180e-06	-1.517733e-09	-3.779054e+01	-9.622626e+01
2.200000e-07	-5.431243e-06	-1.507447e-09	-3.773539e+01	-9.615840e+01
2.300000e-07	-5.423107e-06	-1.449273e-09	-3.767887e+01	-9.608956e+01
2.400000e-07	-5.414566e-06	-1.465814e-09	-3.761953e+01	-9.601969e+01
2.500000e-07	-5.405373e-06	-1.500000e-09	-3.755565e+01	-9.594874e+01
2.600000e-07	-5.395451e-06	-1.475779e-09	-3.748672e+01	-9.587663e+01
2.700000e-07	-5.384999e-06	-1.449806e-09	-3.741410e+01	-9.580325e+01
2.800000e-07	-5.374019e-06	-1.455790e-09	-3.733781e+01	-9.572849e+01
2.900000e-07	-5.362541e-06	-1.498604e-09	-3.725806e+01	-9.565221e+01
3.000000e-07	-5.350726e-06	-1.481881e-09	-3.717598e+01	-9.557426e+01
3.100000e-07	-5.338504e-06	-1.460647e-09	-3.709106e+01	-9.549448e+01
3.200000e-07	-5.325816e-06	-1.451261e-09	-3.700290e+01	-9.541270e+01
3.300000e-07	-5.312753e-06	-1.483962e-09	-3.691214e+01	-9.532872e+01
3.400000e-07	-5.299350e-06	-1.451246e-09	-3.681902e+01	-9.524237e+01
3.500000e-07	-5.285566e-06	-1.432690e-09	-3.672326e+01	-9.515346e+01
3.600000e-07	-5.271309e-06	-1.447881e-09	-3.662420e+01	-9.506178e+01
3.700000e-07	-5.256642e-06	-1.481491e-09	-3.652229e+01	-9.496716e+01
3.800000e-07	-5.241450e-06	-1.449725e-09	-3.641674e+01	-9.486942e+01
3.900000e-07	-5.225588e-06	-1.461406e-09	-3.630653e+01	-9.476837e+01
4.000000e-07	-5.209297e-06	-1.473469e-09	-3.619335e+01	-9.466386e+01
4.100000e-07	-5.192674e-06	-1.428690e-09	-3.607785e+01	-9.455574e+01
4.200000e-07	-5.175607e-06	-1.396173e-09	-3.595927e+01	-9.444387e+01
4.300000e-07	-5.158220e-06	-1.464346e-09	-3.583847e+01	-9.432815e+01
4.400000e-07	-5.140568e-06	-1.474559e-09	-3.571583e+01	-9.420847e+01
4.500000e-07	-5.122524e-06	-1.409538e-09	-3.559046e+01	-9.408476e+01
4.600000e-07	-5.104009e-06	-1.427083e-09	-3.546182e+01	-9.395698e+01
4.700000e-07	-5.085108e-06	-1.475253e-09	-3.533050e+01	-9.382510e+01
4.800000e-07	-5.065970e-06	-1.429002e-09	-3.519754e+01	-9.368911e+01
4.900000e-07	-5.046549e-06	-1.401204e-09	-3.506260e+01	-9.354903e+01
5.000000e-07	-5.026921e-06	-1.442785e-09	-3.492623e+01	-9.340491e+01
5.100000e-07	-5.007097e-06	-1.413315e-09	-3.478849e+01	-9.325682e+01
5.200000e-07	-4.986909e-06	-1.379686e-09	-3.464823e+01	-9.310485e+01
5.300000e-07	-4.966315e-06	-1.435014e-09	-3.450515e+01	-9.294910e+01
5.400000e-07	-4.945394e-06	-1.451570e-09	-3.435980e+01	-9.278972e+01
5.500000e-07	-4.924173e-06	-1.379244e-09	-3.421235e+01	-9.262684e+01
5.600000e-07	-4.902593e-06	-1.389562e-09	-3.406242e+01	-9.246063e+01
5.700000e-07	-4.880702e-06	-1.428654e-09	-3.391032e+01	-9.229127e+01
5.800000e-07	-4.858545e-06	-1.396147e-09	-3.375638e+01	-9.211895e+01
5.900000e-07	-4.836042e-06	-1.372659e-09	-3.360004e+01	-9.194386e+01
6.000000e-07	-4.813170e-06	-1.409722e-09	-3.344112e+01	-9.176619e+01
6.100000e-07	-4.789958e-06	-1.391345e-09	-3.327985e+01	-9.158615e+01
6.200000e-07	-4.766458e-06	-1.361519e-09	-3.311657e+01	-9.140394e+01
6.300000e-07	-4.742704e-06	-1.377655e-09	-3.295153e+01	-9.121974e+01
6.400000e-07	-4.718640e-06	-1.389648e-09	-3.278434e+01	-9.103373e+01
6.500000e-07	-4.694190e-06	-1.367854e-09	-3.261447e+01	-9.084610e+01
6.600000e-07	-4.669379e-06	-1.378378e-09	-3.244209e+01	-9.065699e+01
6.700000e-07	-4.644168e-06	-1.382516e-09	-3.226692e+01	-9.046654e+01
6.800000e-07	-4.618458e-06	-1.360033e-09	-3.208829e+01	-9.027486e+01
6.900000e-07	-4.592201e-06	-1.350711e-09	-3.190587e+01	-9.008205e+01
7.000000e-07	-4.565459e-06	-1.363065e-09	-3.172007e+01	-8.988818e+01
7.100000e-07	-4.538363e-06	-1.351367e-09	-3.153181e+01	-8.969327e+01
7.200000e-07	-4.510938e-06	-1.345628e-09	-3.134126e+01	-8.949735e+01
7.300000e-07	-4.483262e-06	-1.358338e-09	-3.114897e+01	-8.930039e+01
7.400000e-07	-4.455429e-06	-1.358965e-09	-3.095560e+01	-8.910233e+01
7.500000e-07	-4.427370e-06	-1.342095e-09	-3.076065e+01	-8.890309e+01
7.600000e-07	-4.399079e-06	-1.335622e-09	-3.056408e+01	-8.870255e+01
7.700000e-07	-4.370524e-06	-1.332662e-09	-3.036569e+01	-8.850057e+01
7.800000e-07	-4.341613e-06	-1.325685e-09	-3.016482e+01	-8.829697e+01
7.900000e-07	-4.312345e-06	-1.329287e-09	-2.996147e+01	-8.809155e+01
8.000000e-07	-4.282797e-06	-1.329686e-09	-2.975618e+01	-8.788408e+01
8.100000e-07	-4.253015e-06	-1.319315e-09	-2.954926e+01	-8.767431e+01
8.200000e-07	-4.222952e-06	-1.312592e-09	-2.934039e+01	-8.746197e+01
8.300000e-07	-4.192582e-06	-1.313275e-09	-2.912938e+01	-8.724677e+01
8.400000e-07	-4.161878e-06	-1.301976e-09	-2.891605e+01	-8.702843e+01
8.500000e-07	-4.130857e-06	-1.298590e-09	-2.870052e+01	-8.680665e+01
8.600000e-07	-4.099644e-06	-1.305527e-09	-2.848366e+01	-8.658111e+01
8.700000e-07	-4.068267e-06	-1.305149e-09	-2.826566e+01	-8.635152e+01
8.800000e-07	-4.036632e-06	-1.292452e-09	-2.804586e+01	-8.611759e+01
8.900000e-07	-4.004760e-06	-1.290621e-09	-2.782442e+01	-8.587905e+01
9.000000e-07	-3.972655e-06	-1.282151e-09	-2.760136e+01	-8.563562e+01
9.100000e-07	-3.940248e-06	-1.268320e-09	-2.737620e+01	-8.538709e+01
9.200000e-07	-3.907568e-06	-1.263686e-09	-2.714914e+01	-8.513324e+01
9.300000e-07	-3.874543e-06	-1.268120e-09	-2.691970e+01	-8.487390e+01
9.400000e-07	-3.841020e-06	-1.258656e-09	-2.668678e+01	-8.460892e+01
9.500000e-07	-3.807041e-06	-1.251692e-09	-2.645070e+01	-8.433821e+01
9.600000e-07	-3.772661e-06	-1.248628e-09	-2.621183e+01	-8.406170e+01
9.700000e-07	-3.737997e-06	-1.238737e-09	-2.597099e+01	-8.377938e+01
9.800000e-07	-3.703027e-06	-1.226165e-09	-2.572803e+01	-8.349127e+01
9.900000e-07	-3.667631e-06	-1.228969e-09	-2.548210e+01	-8.319745e+01
1.000000e-06	-3.631994e-06	-1.231903e-09	-2.523450e+01	-8.289802e+01
1.010000e-06	-3.596281e-06	-1.223957e-09	-2.498638e+01	-8.259315e+01
1.020000e-06	-3.560462e-06	-1.218069e-09	-2.473751e+01	-8.228302e+01
1.030000e-06	-3.524491e-06	-1.215589e-09	-2.448759e+01	-8.196786e+01
1.040000e-06	-3.488260e-06	-1.203546e-09	-2.423586e+01	-8.164793e+01
1.050000e-06	-3.451790e-06	-1.193052e-09	-2.398247e+01	-8.132352e+01
1.060000e-06	-3.415039e-06	-1.190849e-09	-2.372714e+01	-8.099494e+01
1.070000e-06	-3.377943e-06	-1.185429e-09	-2.346940e+01	-8.066249e+01
1.080000e-06	-3.340614e-06	-1.178803e-09	-2.321004e+01	-8.032649e+01
1.090000e-06	-3.303056e-06	-1.175618e-09	-2.294910e+01	-7.998728e+01
1.100000e-06	-3.265300e-06	-1.170994e-09	-2.268677e+01	-7.964516e+01
1.110000e-06	-3.227379e-06	-1.158785e-09	-2.242330e+01	-7.930042e+01
1.120000e-06	-3.189205e-06	-1.146026e-09	-2.215808e+01	-7.895333e+01
1.130000e-06	-3.150728e-06	-1.134306e-09	-2.189075e+01	-7.860412e+01
1.140000e-06	-3.112048e-06	-1.125720e-09	-2.162200e+01	-7.825298e+01
1.150000e-06	-3.073169e-06	-1.122502e-09	-2.135188e+01	-7.790004e+01
1.160000e-06	-3.034126e-06	-1.126978e-09	-2.108062e+01	-7.754540e+01
1.170000e-06	-2.995009e-06	-1.128174e-09	-2.080884e+01	-7.718908e+01
1.180000e-06	-2.955691e-06	-1.125607e-09	-2.053566e+01	-7.683103e+01
1.190000e-06	-2.916153e-06	-1.118933e-09	-2.026096e+01	-7.647115e+01
1.200000e-06	-2.876483e-06	-1.106954e-09	-1.998533e+01	-7.610926e+01
1.210000e-06	-2.836659e-06	-1.089663e-09	-1.970864e+01	-7.574509e+01
1.220000e-06	-2.796669e-06	-1.077976e-09	-1.943080e+01	-7.537833e+01
1.230000e-06	-2.756489e-06	-1.069349e-09	-1.915164e+01	-7.500858e+01
1.240000e-06	-2.716142e-06	-1.062761e-09	-1.887131e+01	-7.463538e+01
1.250000e-06	-2.675655e-06	-1.059368e-09	-1.859002e+01	-7.425818e+01
1.260000e-06	-2.634934e-06	-1.058380e-09	-1.830709e+01	-7.387643e+01
1.270000e-06	-2.593870e-06	-1.055035e-09	-1.802179e+01	-7.348947e+01
1.280000e-06	-2.552445e-06	-1.044117e-09	-1.773398e+01	-7.309664e+01
1.290000e-06	-2.510818e-06	-1.032329e-09	-1.744476e+01	-7.269723e+01
1.300000e-06	-2.468907e-06	-1.021790e-09	-1.715356e+01	-7.229051e+01
1.310000e-06	-2.426706e-06	-1.009541e-09	-1.686036e+01	-7.187574e+01
1.320000e-06	-2.384283e-06	-9.988615e-10	-1.656561e+01	-7.145219e+01
1.330000e-06	-2.341521e-06	-9.924637e-10	-1.626851e+01	-7.101913e+01
1.340000e-06	-2.298534e-06	-9.884730e-10	-1.596984e+01	-7.057585e+01
1.350000e-06	-2.255358e-06	-9.860422e-10	-1.566986e+01	-7.012169e+01
1.360000e-06	-2.212031e-06	-9.846928e-10	-1.536883e+01	-6.965603e+01
1.370000e-06	-2.168562e-06	-9.797038e-10	-1.506682e+01	-6.917829e+01
1.380000e-06	-2.124951e-06	-9.700556e-10	-1.476381e+01	-6.868797e+01
1.390000e-06	-2.081259e-06	-9.559299e-10	-1.446025e+01	-6.818464e+01
1.400000e-06	-2.037444e-06	-9.386289e-10	-1.415583e+01	-6.766795e+01
1.410000e-06	-1.993547e-06	-9.230671e-10	-1.385084e+01	-6.713763e+01
1.420000e-06	-1.949605e-06	-9.128457e-10	-1.354554e+01	-6.659349e+01
1.430000e-06	-1.905582e-06	-9.068741e-10	-1.323967e+01	-6.603543e+01
1.440000e-06	-1.861507e-06	-9.015197e-10	-1.293345e+01	-6.546344e+01
1.450000e-06	-1.817406e-06	-8.956746e-10	-1.262704e+01	-6.487759e+01
1.460000e-06	-1.773157e-06	-8.881475e-10	-1.231960e+01	-6.427802e+01
1.470000e-06	-1.728726e-06	-8.775931e-10	-1.201091e+01	-6.366495e+01
1.480000e-06	-1.684182e-06	-8.648986e-10	-1.170142e+01	-6.303866e+01
1.490000e-06	-1.639505e-06	-8.510738e-10	-1.139101e+01	-6.239947e+01
1.500000e-06	-1.594710e-06	-8.365735e-10	-1.107979e+01	-6.174774e+01
1.510000e-06	-1.549757e-06	-8.230645e-10	-1.076746e+01	-6.108385e+01
1.520000e-06	-1.504595e-06	-8.131626e-10	-1.045368e+01	-6.040819e+01
1.530000e-06	-1.459285e-06	-8.057261e-10	-1.013888e+01	-5.972115e+01
1.540000e-06	-1.413880e-06	-7.978081e-10	-9.823408e+00	-5.902307e+01
1.550000e-06	-1.368445e-06	-7.895691e-10	-9.507736e+00	-5.831427e+01
1.560000e-06	-1.322946e-06	-7.764376e-10	-9.191616e+00	-5.759499e+01
1.570000e-06	-1.277280e-06	-7.582587e-10	-8.874334e+00	-5.686539e+01
1.580000e-06	-1.231537e-06	-7.405207e-10	-8.556516e+00	-5.612556e+01
1.590000e-06	-1.185763e-06	-7.280438e-10	-8.238489e+00	-5.537544e+01
1.600000e-06	-1.139910e-06	-7.172432e-10	-7.919913e+00	-5.461488e+01
1.610000e-06	-1.093957e-06	-7.072545e-10	-7.600637e+00	-5.384359e+01
1.620000e-06	-1.047955e-06	-6.970601e-10	-7.281018e+00	-5.306111e+01
1.630000e-06	-1.001912e-06	-6.845089e-10	-6.961123e+00	-5.226684e+01
1.640000e-06	-9.557561e-07	-6.700941e-10	-6.640438e+00	-5.146003e+01
1.650000e-06	-9.094849e-07	-6.560926e-10	-6.318953e+00	-5.063977e+01
1.660000e-06	-8.631567e-07	-6.428783e-10	-5.997073e+00	-4.980497e+01
1.670000e-06	-8.168193e-07	-6.288900e-10	-5.675128e+00	-4.895439e+01
1.680000e-06	-7.704961e-07	-6.160450e-10	-5.353281e+00	-4.808666e+01
1.690000e-06	-7.241370e-07	-6.048166e-10	-5.031186e+00	-4.720026e+01
1.700000e-06	-6.776031e-07	-5.923975e-10	-4.707876e+00	-4.629352e+01
1.710000e-06	-6.309941e-07	-5.765763e-10	-4.384045e+00	-4.536470e+01
1.720000e-06	-5.844122e-07	-5.587784e-10	-4.060401e+00	-4.441193e+01
1.730000e-06	-5.378250e-07	-5.405537e-10	-3.736721e+00	-4.343330e+01
1.740000e-06	-4.912021e-07	-5.232453e-10	-3.412792e+00	-4.242684e+01
1.750000e-06	-4.445187e-07	-5.073347e-10	-3.088444e+00	-4.139054e+01
1.760000e-06	-3.978567e-07	-4.922776e-10	-2.764244e+00	-4.032242e+01
1.770000e-06	-3.511908e-07	-4.773871e-10	-2.440016e+00	-3.922051e+01
1.780000e-06	-3.044115e-07	-4.625702e-10	-2.115001e+00	-3.808292e+01
1.790000e-06	-2.575379e-07	-4.475705e-10	-1.789331e+00	-3.690783e+01
1.800000e-06	-2.107373e-07	-4.308296e-10	-1.464169e+00	-3.569354e+01
1.810000e-06	-1.639933e-07	-4.121865e-10	-1.139399e+00	-3.443850e+01
1.820000e-06	-1.171803e-07	-3.920525e-10	-8.141493e-01	-3.314132e+01
1.830000e-06	-7.040672e-08	-3.707035e-10	-4.891745e-01	-3.180081e+01
1.840000e-06	-2.369563e-08	-3.511812e-10	-1.646334e-01	-3.041600e+01
1.850000e-06	2.306691e-08	-3.345025e-10	1.602652e-01	-2.898614e+01
1.860000e-06	6.993915e-08	-3.188584e-10	4.859259e-01	-2.751076e+01
1.870000e-06	1.168388e-07	-3.012341e-10	8.117771e-01	-2.598964e+01
1.880000e-06	1.637053e-07	-2.816825e-10	1.137398e+00	-2.442285e+01
1.890000e-06	2.105299e-07	-2.597075e-10	1.462727e+00	-2.281075e+01
1.900000e-06	2.573491e-07	-2.341191e-10	1.788020e+00	-2.115400e+01
1.910000e-06	3.041192e-07	-2.065285e-10	2.112971e+00	-1.945353e+01
1.920000e-06	3.508336e-07	-1.797783e-10	2.437535e+00	-1.771060e+01
1.930000e-06	3.976091e-07	-1.546523e-10	2.762523e+00	-1.592671e+01
1.940000e-06	4.443913e-07	-1.324627e-10	3.087559e+00	-1.410368e+01
1.950000e-06	4.910801e-07	-1.128012e-10	3.411945e+00	-1.224355e+01
1.960000e-06	5.376523e-07	-9.164732e-11	3.735520e+00	-1.034864e+01
1.970000e-06	5.842173e-07	-6.799388e-11	4.059047e+00	-8.421486e+00
1.980000e-06	6.308112e-07	-4.285586e-11	4.382774e+00	-6.464815e+00
1.990000e-06	6.773410e-07	-1.498275e-11	4.706055e+00	-4.481547e+00
2.000000e-06	7.237278e-07	1.588510e-11	5.028343e+00	-2.474755e+00
2.010000e-06	7.700328e-07	4.674208e-11	5.350063e+00	-4.476366e-01
2.020000e-06	8.163050e-07	7.600101e-11	5.671554e+00	1.596510e+00
2.030000e-06	8.625656e-07	1.050428e-10	5.992965e+00	3.654318e+00
2.040000e-06	9.087979e-07	1.329058e-10	6.314180e+00	5.722376e+00
2.050000e-06	9.549080e-07	1.580326e-10	6.634546e+00	7.797263e+00
2.060000e-06	1.000977e-06	1.832138e-10	6.954625e+00	9.875571e+00
2.070000e-06	1.046978e-06	2.084606e-10	7.274236e+00	1.195393e+01
2.080000e-06	1.092887e-06	2.354571e-10	7.593202e+00	1.402905e+01
2.090000e-06	1.138764e-06	2.642476e-10	7.911945e+00	1.609772e+01
2.100000e-06	1.184512e-06	2.936065e-10	8.229794e+00	1.815684e+01
2.110000e-06	1.230170e-06	3.234258e-10	8.547020e+00	2.020344e+01
2.120000e-06	1.275781e-06	3.524231e-10	8.863920e+00	2.223471e+01
2.130000e-06	1.321318e-06	3.802806e-10	9.180303e+00	2.424798e+01
2.140000e-06	1.366746e-06	4.063056e-10	9.495932e+00	2.624077e+01
2.150000e-06	1.412041e-06	4.303589e-10	9.810631e+00	2.821078e+01
2.160000e-06	1.457263e-06	4.542608e-10	1.012483e+01	3.015589e+01
2.170000e-06	1.502411e-06	4.783513e-10	1.043851e+01	3.207416e+01
2.180000e-06	1.547400e-06	5.031579e-10	1.075108e+01	3.396388e+01
2.190000e-06	1.592151e-06	5.299069e-10	1.106201e+01	3.582348e+01
2.200000e-06	1.636830e-06	5.566206e-10	1.137243e+01	3.765160e+01
2.210000e-06	1.681466e-06	5.825401e-10	1.168255e+01	3.944707e+01
2.220000e-06	1.725902e-06	6.085062e-10	1.199128e+01	4.120886e+01
2.230000e-06	1.770232e-06	6.326237e-10	1.229929e+01	4.293614e+01
2.240000e-06	1.814500e-06	6.540517e-10	1.260685e+01	4.462820e+01
2.250000e-06	1.858625e-06	6.733349e-10	1.291342e+01	4.628450e+01
2.260000e-06	1.902606e-06	6.909520e-10	1.321900e+01	4.790461e+01
2.270000e-06	1.946516e-06	7.101769e-10	1.352408e+01	4.948823e+01
2.280000e-06	1.990377e-06	7.324898e-10	1.382881e+01	5.103515e+01
2.290000e-06	2.034220e-06	7.559216e-10	1.413343e+01	5.254529e+01
2.300000e-06	2.078017e-06	7.788895e-10	1.443773e+01	5.401861e+01
2.310000e-06	2.121737e-06	8.017048e-10	1.474148e+01	5.545518e+01
2.320000e-06	2.165399e-06	8.218862e-10	1.504484e+01	5.685513e+01
2.330000e-06	2.208957e-06	8.382051e-10	1.534748e+01	5.821861e+01
2.340000e-06	2.252360e-06	8.523159e-10	1.564903e+01	5.954588e+01
2.350000e-06	2.295534e-06	8.664000e-10	1.594899e+01	6.083718e+01
2.360000e-06	2.338544e-06	8.814966e-10	1.624782e+01	6.209283e+01
2.370000e-06	2.381405e-06	8.981544e-10	1.654561e+01	6.331316e+01
2.380000e-06	2.423906e-06	9.162539e-10	1.684090e+01	6.449854e+01
2.390000e-06	2.466071e-06	9.334227e-10	1.713386e+01	6.564937e+01
2.400000e-06	2.508009e-06	9.487635e-10	1.742524e+01	6.676607e+01
2.410000e-06	2.549672e-06	9.637645e-10	1.771471e+01	6.784910e+01
2.420000e-06	2.590941e-06	9.771838e-10	1.800144e+01	6.889893e+01
2.430000e-06	2.631883e-06	9.886242e-10	1.828589e+01	6.991607e+01
2.440000e-06	2.672576e-06	1.001961e-09	1.856862e+01	7.090106e+01
2.450000e-06	2.712996e-06	1.017419e-09	1.884946e+01	7.185448e+01
2.460000e-06	2.753233e-06	1.032824e-09	1.912901e+01	7.277692e+01
2.470000e-06	2.793308e-06	1.046205e-09	1.940745e+01	7.366904e+01
2.480000e-06	2.833221e-06	1.057868e-09	1.968476e+01	7.453151e+01
2.490000e-06	2.872978e-06	1.068725e-09	1.996098e+01	7.536504e+01
2.500000e-06	2.912682e-06	1.077323e-09	2.023684e+01	7.617038e+01
2.510000e-06	2.952313e-06	1.087327e-09	2.051219e+01	7.694834e+01
2.520000e-06	2.991717e-06	1.100005e-09	2.078596e+01	7.769973e+01
2.530000e-06	3.030965e-06	1.111862e-09	2.105866e+01	7.842542e+01
2.540000e-06	3.070086e-06	1.124918e-09	2.133046e+01	7.912628e+01
2.550000e-06	3.108937e-06	1.137370e-09	2.160039e+01	7.980325e+01
2.560000e-06	3.147553e-06	1.146513e-09	2.186869e+01	8.045724e+01
2.570000e-06	3.185896e-06	1.151687e-09	2.213509e+01	8.108922e+01
2.580000e-06	3.223973e-06	1.156878e-09	2.239964e+01	8.170015e+01
2.590000e-06	3.261845e-06	1.163270e-09	2.266277e+01	8.229099e+01
2.600000e-06	3.299504e-06	1.170478e-09	2.292442e+01	8.286269e+01
2.610000e-06	3.336997e-06	1.182867e-09	2.318491e+01	8.341621e+01
2.620000e-06	3.374220e-06	1.199585e-09	2.344353e+01	8.395246e+01
2.630000e-06	3.411194e-06	1.214376e-09	2.370042e+01	8.447235e+01
2.640000e-06	3.448003e-06	1.223622e-09	2.395617e+01	8.497673e+01
2.650000e-06	3.484509e-06	1.227706e-09	2.420980e+01	8.546642e+01
2.660000e-06	3.520696e-06	1.228950e-09	2.446123e+01	8.594219e+01
2.670000e-06	3.556727e-06	1.229888e-09	2.471156e+01	8.640474e+01
2.680000e-06	3.592654e-06	1.233907e-09	2.496117e+01	8.685472e+01
2.690000e-06	3.628475e-06	1.243084e-09	2.521005e+01	8.729272e+01
2.700000e-06	3.664186e-06	1.254783e-09	2.545817e+01	8.771923e+01
2.710000e-06	3.699612e-06	1.264516e-09	2.570430e+01	8.813472e+01
2.720000e-06	3.734680e-06	1.268698e-09	2.594795e+01	8.853953e+01
2.730000e-06	3.769465e-06	1.269818e-09	2.618963e+01	8.893397e+01
2.740000e-06	3.803838e-06	1.271018e-09	2.642845e+01	8.931826e+01
2.750000e-06	3.837774e-06	1.274020e-09	2.666423e+01	8.969256e+01
2.760000e-06	3.871239e-06	1.280233e-09	2.689674e+01	9.005695e+01
2.770000e-06	3.904212e-06	1.290336e-09	2.712583e+01	9.041149e+01
2.780000e-06	3.936926e-06	1.299864e-09	2.735312e+01	9.075613e+01
2.790000e-06	3.969382e-06	1.306589e-09	2.757862e+01	9.109083e+01
2.800000e-06	4.001486e-06	1.312550e-09	2.780168e+01	9.141549e+01
2.810000e-06	4.033381e-06	1.316797e-09	2.802328e+01	9.172996e+01
2.820000e-06	4.065129e-06	1.319115e-09	2.824385e+01	9.203411e+01
2.830000e-06	4.096698e-06	1.323585e-09	2.846319e+01	9.232776e+01
2.840000e-06	4.128045e-06	1.329399e-09	2.868099e+01	9.261076e+01
2.850000e-06	4.159124e-06	1.333391e-09	2.889692e+01	9.288296e+01
2.860000e-06	4.189849e-06	1.337944e-09	2.911039e+01	9.314420e+01
2.870000e-06	4.220207e-06	1.344924e-09	2.932131e+01	9.339437e+01
2.880000e-06	4.250261e-06	1.350363e-09	2.953012e+01	9.363339e+01
2.890000e-06	4.280090e-06	1.352172e-09	2.973737e+01	9.386120e+01
2.900000e-06	4.309735e-06	1.355055e-09	2.994334e+01	9.407782e+01
