# Temperatura_=_-23.02
# Concentracion g/m^3_=_1620.0
# C_Vs_to_Am_M_A/Vsm_=_65563218390.804596
# pendiente_HvsI_1/m_=_3716.3
# ordenada_HvsI_A/m_=_1297.0
# frecuencia_Hz_=_135090.93053385534

Tiempo_(s)	Campo_(V.s)	Magnetizacion_(V.s)	Campo_(kA/m)	Magnetizacion_(A/m)
0.000000e+00	-5.525376e-06	-1.144643e-09	-3.837650e+01	-7.391559e+01
1.000000e-08	-5.525637e-06	-1.144263e-09	-3.837831e+01	-7.393924e+01
2.000000e-08	-5.525667e-06	-1.146948e-09	-3.837852e+01	-7.396483e+01
3.000000e-08	-5.525340e-06	-1.148613e-09	-3.837625e+01	-7.399224e+01
4.000000e-08	-5.524478e-06	-1.149378e-09	-3.837027e+01	-7.402130e+01
5.000000e-08	-5.523029e-06	-1.149303e-09	-3.836020e+01	-7.405181e+01
6.000000e-08	-5.521031e-06	-1.139176e-09	-3.834632e+01	-7.408355e+01
7.000000e-08	-5.518461e-06	-1.141317e-09	-3.832847e+01	-7.411630e+01
8.000000e-08	-5.515286e-06	-1.171834e-09	-3.830642e+01	-7.414980e+01
9.000000e-08	-5.511657e-06	-1.171978e-09	-3.828122e+01	-7.418377e+01
1.000000e-07	-5.507603e-06	-1.143250e-09	-3.825306e+01	-7.421794e+01
1.100000e-07	-5.503226e-06	-1.145699e-09	-3.822266e+01	-7.425202e+01
1.200000e-07	-5.498632e-06	-1.130949e-09	-3.819075e+01	-7.428574e+01
1.300000e-07	-5.493830e-06	-1.133123e-09	-3.815740e+01	-7.431882e+01
1.400000e-07	-5.488599e-06	-1.104801e-09	-3.812107e+01	-7.435098e+01
1.500000e-07	-5.482946e-06	-1.144151e-09	-3.808180e+01	-7.438197e+01
1.600000e-07	-5.476977e-06	-1.180805e-09	-3.804035e+01	-7.441155e+01
1.700000e-07	-5.470562e-06	-1.153973e-09	-3.799579e+01	-7.443949e+01
1.800000e-07	-5.463664e-06	-1.118157e-09	-3.794788e+01	-7.446562e+01
1.900000e-07	-5.456365e-06	-1.133891e-09	-3.789719e+01	-7.448975e+01
2.000000e-07	-5.448834e-06	-1.174833e-09	-3.784488e+01	-7.451175e+01
2.100000e-07	-5.441087e-06	-1.169327e-09	-3.779107e+01	-7.453151e+01
2.200000e-07	-5.433101e-06	-1.163452e-09	-3.773561e+01	-7.454896e+01
2.300000e-07	-5.424868e-06	-1.174037e-09	-3.767842e+01	-7.456405e+01
2.400000e-07	-5.416156e-06	-1.184448e-09	-3.761791e+01	-7.457677e+01
2.500000e-07	-5.406836e-06	-1.154245e-09	-3.755318e+01	-7.458716e+01
2.600000e-07	-5.396848e-06	-1.147787e-09	-3.748381e+01	-7.459525e+01
2.700000e-07	-5.386097e-06	-1.141708e-09	-3.740914e+01	-7.460114e+01
2.800000e-07	-5.374830e-06	-1.151101e-09	-3.733088e+01	-7.460493e+01
2.900000e-07	-5.363261e-06	-1.153423e-09	-3.725053e+01	-7.460677e+01
3.000000e-07	-5.351310e-06	-1.153062e-09	-3.716753e+01	-7.460679e+01
3.100000e-07	-5.338963e-06	-1.137912e-09	-3.708177e+01	-7.460518e+01
3.200000e-07	-5.326183e-06	-1.149151e-09	-3.699301e+01	-7.460212e+01
3.300000e-07	-5.312957e-06	-1.151610e-09	-3.690115e+01	-7.459780e+01
3.400000e-07	-5.299353e-06	-1.136893e-09	-3.680666e+01	-7.459243e+01
3.500000e-07	-5.285345e-06	-1.129301e-09	-3.670937e+01	-7.458619e+01
3.600000e-07	-5.270931e-06	-1.161679e-09	-3.660926e+01	-7.457928e+01
3.700000e-07	-5.256037e-06	-1.151212e-09	-3.650581e+01	-7.457190e+01
3.800000e-07	-5.240586e-06	-1.136720e-09	-3.639849e+01	-7.456420e+01
3.900000e-07	-5.224624e-06	-1.156977e-09	-3.628763e+01	-7.455636e+01
4.000000e-07	-5.208242e-06	-1.161187e-09	-3.617385e+01	-7.454852e+01
4.100000e-07	-5.191548e-06	-1.117178e-09	-3.605790e+01	-7.454078e+01
4.200000e-07	-5.174454e-06	-1.132387e-09	-3.593917e+01	-7.453326e+01
4.300000e-07	-5.156869e-06	-1.177816e-09	-3.581704e+01	-7.452602e+01
4.400000e-07	-5.138963e-06	-1.137583e-09	-3.569267e+01	-7.451910e+01
4.500000e-07	-5.120765e-06	-1.118599e-09	-3.556627e+01	-7.451254e+01
4.600000e-07	-5.102236e-06	-1.169556e-09	-3.543758e+01	-7.450632e+01
4.700000e-07	-5.083290e-06	-1.159261e-09	-3.530600e+01	-7.450042e+01
4.800000e-07	-5.063992e-06	-1.102575e-09	-3.517196e+01	-7.449479e+01
4.900000e-07	-5.044477e-06	-1.146205e-09	-3.503642e+01	-7.448934e+01
5.000000e-07	-5.024750e-06	-1.166725e-09	-3.489940e+01	-7.448400e+01
5.100000e-07	-5.004801e-06	-1.104339e-09	-3.476085e+01	-7.447865e+01
5.200000e-07	-4.984539e-06	-1.112203e-09	-3.462011e+01	-7.447317e+01
5.300000e-07	-4.963908e-06	-1.177049e-09	-3.447683e+01	-7.446743e+01
5.400000e-07	-4.942938e-06	-1.132833e-09	-3.433118e+01	-7.446130e+01
5.500000e-07	-4.921659e-06	-1.109543e-09	-3.418339e+01	-7.445464e+01
5.600000e-07	-4.899958e-06	-1.166650e-09	-3.403266e+01	-7.444730e+01
5.700000e-07	-4.877920e-06	-1.160216e-09	-3.387960e+01	-7.443918e+01
5.800000e-07	-4.855564e-06	-1.109948e-09	-3.372432e+01	-7.443013e+01
5.900000e-07	-4.832880e-06	-1.149758e-09	-3.356677e+01	-7.442005e+01
6.000000e-07	-4.809817e-06	-1.160745e-09	-3.340658e+01	-7.440885e+01
6.100000e-07	-4.786412e-06	-1.109169e-09	-3.324403e+01	-7.439644e+01
6.200000e-07	-4.762849e-06	-1.119233e-09	-3.308037e+01	-7.438277e+01
6.300000e-07	-4.739089e-06	-1.157652e-09	-3.291535e+01	-7.436779e+01
6.400000e-07	-4.715051e-06	-1.127714e-09	-3.274839e+01	-7.435147e+01
6.500000e-07	-4.690613e-06	-1.123108e-09	-3.257866e+01	-7.433382e+01
6.600000e-07	-4.665699e-06	-1.156924e-09	-3.240561e+01	-7.431486e+01
6.700000e-07	-4.640346e-06	-1.140518e-09	-3.222953e+01	-7.429461e+01
6.800000e-07	-4.614465e-06	-1.118052e-09	-3.204977e+01	-7.427313e+01
6.900000e-07	-4.587998e-06	-1.141607e-09	-3.186595e+01	-7.425050e+01
7.000000e-07	-4.561032e-06	-1.141809e-09	-3.167865e+01	-7.422677e+01
7.100000e-07	-4.533675e-06	-1.115846e-09	-3.148864e+01	-7.420205e+01
7.200000e-07	-4.506110e-06	-1.129638e-09	-3.129719e+01	-7.417642e+01
7.300000e-07	-4.478379e-06	-1.146712e-09	-3.110458e+01	-7.414997e+01
7.400000e-07	-4.450490e-06	-1.131215e-09	-3.091088e+01	-7.412280e+01
7.500000e-07	-4.422383e-06	-1.125602e-09	-3.071566e+01	-7.409500e+01
7.600000e-07	-4.394049e-06	-1.137716e-09	-3.051887e+01	-7.406663e+01
7.700000e-07	-4.365355e-06	-1.126768e-09	-3.031958e+01	-7.403775e+01
7.800000e-07	-4.336256e-06	-1.119226e-09	-3.011747e+01	-7.400843e+01
7.900000e-07	-4.306843e-06	-1.130634e-09	-2.991318e+01	-7.397867e+01
8.000000e-07	-4.277151e-06	-1.133026e-09	-2.970696e+01	-7.394850e+01
8.100000e-07	-4.247107e-06	-1.121346e-09	-2.949828e+01	-7.391788e+01
8.200000e-07	-4.216782e-06	-1.127463e-09	-2.928766e+01	-7.388678e+01
8.300000e-07	-4.186349e-06	-1.128464e-09	-2.907629e+01	-7.385513e+01
8.400000e-07	-4.155506e-06	-1.121365e-09	-2.886207e+01	-7.382283e+01
8.500000e-07	-4.124286e-06	-1.127932e-09	-2.864523e+01	-7.378978e+01
8.600000e-07	-4.092883e-06	-1.141158e-09	-2.842712e+01	-7.375582e+01
8.700000e-07	-4.061312e-06	-1.133870e-09	-2.820784e+01	-7.372079e+01
8.800000e-07	-4.029624e-06	-1.129777e-09	-2.798776e+01	-7.368452e+01
8.900000e-07	-3.997797e-06	-1.132402e-09	-2.776670e+01	-7.364681e+01
9.000000e-07	-3.965750e-06	-1.122438e-09	-2.754412e+01	-7.360744e+01
9.100000e-07	-3.933460e-06	-1.112071e-09	-2.731985e+01	-7.356621e+01
9.200000e-07	-3.900900e-06	-1.119945e-09	-2.709370e+01	-7.352288e+01
9.300000e-07	-3.867820e-06	-1.122417e-09	-2.686395e+01	-7.347725e+01
9.400000e-07	-3.834254e-06	-1.118560e-09	-2.663081e+01	-7.342910e+01
9.500000e-07	-3.800303e-06	-1.122491e-09	-2.639500e+01	-7.337822e+01
9.600000e-07	-3.765838e-06	-1.124079e-09	-2.615563e+01	-7.332442e+01
9.700000e-07	-3.730862e-06	-1.110696e-09	-2.591270e+01	-7.326753e+01
9.800000e-07	-3.695550e-06	-1.104563e-09	-2.566745e+01	-7.320741e+01
9.900000e-07	-3.660055e-06	-1.108629e-09	-2.542091e+01	-7.314394e+01
1.000000e-06	-3.624400e-06	-1.104972e-09	-2.517327e+01	-7.307700e+01
1.010000e-06	-3.588573e-06	-1.100105e-09	-2.492444e+01	-7.300655e+01
1.020000e-06	-3.552629e-06	-1.103493e-09	-2.467478e+01	-7.293254e+01
1.030000e-06	-3.516623e-06	-1.101963e-09	-2.442471e+01	-7.285498e+01
1.040000e-06	-3.480391e-06	-1.095523e-09	-2.417306e+01	-7.277388e+01
1.050000e-06	-3.443941e-06	-1.101118e-09	-2.391990e+01	-7.268932e+01
1.060000e-06	-3.407156e-06	-1.103367e-09	-2.366441e+01	-7.260136e+01
1.070000e-06	-3.369977e-06	-1.095308e-09	-2.340618e+01	-7.251013e+01
1.080000e-06	-3.332601e-06	-1.090407e-09	-2.314658e+01	-7.241574e+01
1.090000e-06	-3.294946e-06	-1.089958e-09	-2.288505e+01	-7.231835e+01
1.100000e-06	-3.257024e-06	-1.080877e-09	-2.262166e+01	-7.221810e+01
1.110000e-06	-3.218992e-06	-1.072940e-09	-2.235751e+01	-7.211515e+01
1.120000e-06	-3.180859e-06	-1.072262e-09	-2.209265e+01	-7.200966e+01
1.130000e-06	-3.142455e-06	-1.070557e-09	-2.182592e+01	-7.190178e+01
1.140000e-06	-3.103702e-06	-1.065817e-09	-2.155677e+01	-7.179164e+01
1.150000e-06	-3.064751e-06	-1.071467e-09	-2.128623e+01	-7.167935e+01
1.160000e-06	-3.025652e-06	-1.074750e-09	-2.101467e+01	-7.156500e+01
1.170000e-06	-2.986376e-06	-1.069831e-09	-2.074188e+01	-7.144864e+01
1.180000e-06	-2.946929e-06	-1.064909e-09	-2.046790e+01	-7.133027e+01
1.190000e-06	-2.907277e-06	-1.063583e-09	-2.019249e+01	-7.120988e+01
1.200000e-06	-2.867496e-06	-1.057008e-09	-1.991619e+01	-7.108738e+01
1.210000e-06	-2.827617e-06	-1.049716e-09	-1.963922e+01	-7.096264e+01
1.220000e-06	-2.787670e-06	-1.047474e-09	-1.936176e+01	-7.083548e+01
1.230000e-06	-2.747631e-06	-1.045281e-09	-1.908367e+01	-7.070565e+01
1.240000e-06	-2.707438e-06	-1.041033e-09	-1.880451e+01	-7.057288e+01
1.250000e-06	-2.667075e-06	-1.041206e-09	-1.852417e+01	-7.043682e+01
1.260000e-06	-2.626366e-06	-1.042429e-09	-1.824143e+01	-7.029707e+01
1.270000e-06	-2.585239e-06	-1.038484e-09	-1.795578e+01	-7.015319e+01
1.280000e-06	-2.543988e-06	-1.031633e-09	-1.766927e+01	-7.000471e+01
1.290000e-06	-2.502524e-06	-1.026202e-09	-1.738128e+01	-6.985110e+01
1.300000e-06	-2.460722e-06	-1.020516e-09	-1.709094e+01	-6.969182e+01
1.310000e-06	-2.418556e-06	-1.013033e-09	-1.679808e+01	-6.952629e+01
1.320000e-06	-2.375998e-06	-1.009134e-09	-1.650249e+01	-6.935394e+01
1.330000e-06	-2.333235e-06	-1.007770e-09	-1.620549e+01	-6.917418e+01
1.340000e-06	-2.290217e-06	-1.007275e-09	-1.590670e+01	-6.898642e+01
1.350000e-06	-2.246908e-06	-1.010055e-09	-1.560590e+01	-6.879009e+01
1.360000e-06	-2.203425e-06	-1.012842e-09	-1.530389e+01	-6.858463e+01
1.370000e-06	-2.159843e-06	-1.008290e-09	-1.500119e+01	-6.836953e+01
1.380000e-06	-2.116155e-06	-1.000296e-09	-1.469775e+01	-6.814431e+01
1.390000e-06	-2.072425e-06	-9.899611e-10	-1.439403e+01	-6.790852e+01
1.400000e-06	-2.028590e-06	-9.794875e-10	-1.408957e+01	-6.766177e+01
1.410000e-06	-1.984659e-06	-9.708609e-10	-1.378445e+01	-6.740375e+01
1.420000e-06	-1.940730e-06	-9.658549e-10	-1.347934e+01	-6.713418e+01
1.430000e-06	-1.896739e-06	-9.630996e-10	-1.317380e+01	-6.685286e+01
1.440000e-06	-1.852616e-06	-9.618284e-10	-1.286735e+01	-6.655964e+01
1.450000e-06	-1.808282e-06	-9.613725e-10	-1.255943e+01	-6.625446e+01
1.460000e-06	-1.763797e-06	-9.592639e-10	-1.225046e+01	-6.593730e+01
1.470000e-06	-1.719233e-06	-9.525391e-10	-1.194094e+01	-6.560821e+01
1.480000e-06	-1.674515e-06	-9.464394e-10	-1.163035e+01	-6.526730e+01
1.490000e-06	-1.629726e-06	-9.408893e-10	-1.131926e+01	-6.491470e+01
1.500000e-06	-1.584772e-06	-9.314100e-10	-1.100703e+01	-6.455062e+01
1.510000e-06	-1.539658e-06	-9.218767e-10	-1.069370e+01	-6.417526e+01
1.520000e-06	-1.494514e-06	-9.146129e-10	-1.038015e+01	-6.378887e+01
1.530000e-06	-1.449158e-06	-9.084028e-10	-1.006513e+01	-6.339168e+01
1.540000e-06	-1.403664e-06	-9.045480e-10	-9.749149e+00	-6.298392e+01
1.550000e-06	-1.358095e-06	-9.002194e-10	-9.432648e+00	-6.256582e+01
1.560000e-06	-1.312451e-06	-8.929715e-10	-9.115630e+00	-6.213756e+01
1.570000e-06	-1.266803e-06	-8.807140e-10	-8.798579e+00	-6.169927e+01
1.580000e-06	-1.221108e-06	-8.676792e-10	-8.481206e+00	-6.125102e+01
1.590000e-06	-1.175320e-06	-8.564310e-10	-8.163188e+00	-6.079283e+01
1.600000e-06	-1.129458e-06	-8.455061e-10	-7.844648e+00	-6.032459e+01
1.610000e-06	-1.083464e-06	-8.347296e-10	-7.525198e+00	-5.984613e+01
1.620000e-06	-1.037383e-06	-8.254904e-10	-7.205143e+00	-5.935717e+01
1.630000e-06	-9.913408e-07	-8.188043e-10	-6.885358e+00	-5.885728e+01
1.640000e-06	-9.452020e-07	-8.102723e-10	-6.564901e+00	-5.834595e+01
1.650000e-06	-8.989437e-07	-8.023518e-10	-6.243614e+00	-5.782251e+01
1.660000e-06	-8.526213e-07	-7.964322e-10	-5.921881e+00	-5.728618e+01
1.670000e-06	-8.061555e-07	-7.896015e-10	-5.599153e+00	-5.673604e+01
1.680000e-06	-7.595983e-07	-7.786163e-10	-5.275790e+00	-5.617103e+01
1.690000e-06	-7.130880e-07	-7.676601e-10	-4.952753e+00	-5.559000e+01
1.700000e-06	-6.665977e-07	-7.556669e-10	-4.629855e+00	-5.499163e+01
1.710000e-06	-6.200883e-07	-7.423043e-10	-4.306824e+00	-5.437453e+01
1.720000e-06	-5.734493e-07	-7.295813e-10	-3.982892e+00	-5.373719e+01
1.730000e-06	-5.267853e-07	-7.185441e-10	-3.658787e+00	-5.307801e+01
1.740000e-06	-4.801841e-07	-7.112583e-10	-3.335119e+00	-5.239534e+01
1.750000e-06	-4.335194e-07	-7.036365e-10	-3.011009e+00	-5.168746e+01
1.760000e-06	-3.867105e-07	-6.924240e-10	-2.685898e+00	-5.095260e+01
1.770000e-06	-3.398381e-07	-6.785031e-10	-2.360346e+00	-5.018900e+01
1.780000e-06	-2.930747e-07	-6.645501e-10	-2.035550e+00	-4.939488e+01
1.790000e-06	-2.462739e-07	-6.515497e-10	-1.710496e+00	-4.856850e+01
1.800000e-06	-1.993539e-07	-6.370159e-10	-1.384612e+00	-4.770817e+01
1.810000e-06	-1.524783e-07	-6.245570e-10	-1.059038e+00	-4.681225e+01
1.820000e-06	-1.055782e-07	-6.110167e-10	-7.332936e-01	-4.587920e+01
1.830000e-06	-5.867957e-08	-5.971772e-10	-4.075590e-01	-4.490761e+01
1.840000e-06	-1.181064e-08	-5.848011e-10	-8.203080e-02	-4.389617e+01
1.850000e-06	3.513621e-08	-5.716278e-10	2.440386e-01	-4.284374e+01
1.860000e-06	8.210867e-08	-5.587827e-10	5.702858e-01	-4.174936e+01
1.870000e-06	1.290981e-07	-5.440180e-10	8.966507e-01	-4.061224e+01
1.880000e-06	1.759841e-07	-5.263870e-10	1.222298e+00	-3.943179e+01
1.890000e-06	2.228090e-07	-5.053734e-10	1.547520e+00	-3.820765e+01
1.900000e-06	2.696757e-07	-4.851250e-10	1.873033e+00	-3.693967e+01
1.910000e-06	3.165785e-07	-4.670688e-10	2.198796e+00	-3.562793e+01
1.920000e-06	3.635258e-07	-4.490669e-10	2.524869e+00	-3.427276e+01
1.930000e-06	4.103375e-07	-4.291637e-10	2.849999e+00	-3.287471e+01
1.940000e-06	4.570954e-07	-4.100104e-10	3.174756e+00	-3.143457e+01
1.950000e-06	5.038249e-07	-3.913442e-10	3.499316e+00	-2.995339e+01
1.960000e-06	5.505221e-07	-3.717807e-10	3.823652e+00	-2.843241e+01
1.970000e-06	5.971707e-07	-3.531090e-10	4.147650e+00	-2.687314e+01
1.980000e-06	6.436828e-07	-3.342490e-10	4.470699e+00	-2.527727e+01
1.990000e-06	6.902304e-07	-3.119069e-10	4.793996e+00	-2.364670e+01
2.000000e-06	7.367679e-07	-2.846783e-10	5.117222e+00	-2.198352e+01
2.010000e-06	7.832112e-07	-2.580281e-10	5.439794e+00	-2.028998e+01
2.020000e-06	8.295279e-07	-2.313403e-10	5.761486e+00	-1.856850e+01
2.030000e-06	8.757588e-07	-2.035416e-10	6.082584e+00	-1.682163e+01
2.040000e-06	9.219526e-07	-1.788339e-10	6.403422e+00	-1.505204e+01
2.050000e-06	9.680539e-07	-1.561291e-10	6.723619e+00	-1.326248e+01
2.060000e-06	1.014135e-06	-1.355250e-10	7.043677e+00	-1.145579e+01
2.070000e-06	1.060128e-06	-1.143048e-10	7.363120e+00	-9.634858e+00
2.080000e-06	1.106032e-06	-9.160916e-11	7.681945e+00	-7.802617e+00
2.090000e-06	1.151885e-06	-6.627150e-11	8.000415e+00	-5.962002e+00
2.100000e-06	1.197648e-06	-3.714926e-11	8.318262e+00	-4.115942e+00
2.110000e-06	1.243342e-06	-6.926025e-12	8.635633e+00	-2.267346e+00
2.120000e-06	1.288971e-06	1.963501e-11	8.952551e+00	-4.190739e-01
2.130000e-06	1.334464e-06	4.454900e-11	9.268520e+00	1.426072e+00
2.140000e-06	1.379752e-06	6.974553e-11	9.583067e+00	3.265368e+00
2.150000e-06	1.425019e-06	9.132591e-11	9.897468e+00	5.096179e+00
2.160000e-06	1.470232e-06	1.115432e-10	1.021149e+01	6.915975e+00
2.170000e-06	1.515339e-06	1.328835e-10	1.052479e+01	8.722341e+00
2.180000e-06	1.560394e-06	1.570109e-10	1.083771e+01	1.051298e+01
2.190000e-06	1.605216e-06	1.845959e-10	1.114903e+01	1.228575e+01
2.200000e-06	1.649852e-06	2.146045e-10	1.145905e+01	1.403861e+01
2.210000e-06	1.694396e-06	2.459729e-10	1.176843e+01	1.576969e+01
2.220000e-06	1.738802e-06	2.745111e-10	1.207685e+01	1.747727e+01
2.230000e-06	1.783082e-06	2.969935e-10	1.238440e+01	1.915975e+01
2.240000e-06	1.827205e-06	3.146034e-10	1.269085e+01	2.081570e+01
2.250000e-06	1.871263e-06	3.299855e-10	1.299686e+01	2.244384e+01
2.260000e-06	1.915342e-06	3.462485e-10	1.330301e+01	2.404302e+01
2.270000e-06	1.959348e-06	3.655739e-10	1.360865e+01	2.561223e+01
2.280000e-06	2.003236e-06	3.873030e-10	1.391348e+01	2.715063e+01
2.290000e-06	2.047049e-06	4.099582e-10	1.421778e+01	2.865746e+01
2.300000e-06	2.090793e-06	4.348469e-10	1.452160e+01	3.013214e+01
2.310000e-06	2.134447e-06	4.594689e-10	1.482480e+01	3.157417e+01
2.320000e-06	2.177967e-06	4.804609e-10	1.512707e+01	3.298319e+01
2.330000e-06	2.221422e-06	4.972464e-10	1.542889e+01	3.435894e+01
2.340000e-06	2.264684e-06	5.102367e-10	1.572936e+01	3.570125e+01
2.350000e-06	2.307684e-06	5.216943e-10	1.602802e+01	3.701005e+01
2.360000e-06	2.350561e-06	5.361685e-10	1.632582e+01	3.828538e+01
2.370000e-06	2.393223e-06	5.553095e-10	1.662213e+01	3.952732e+01
2.380000e-06	2.435567e-06	5.766680e-10	1.691623e+01	4.073606e+01
2.390000e-06	2.477580e-06	5.967483e-10	1.720804e+01	4.191182e+01
2.400000e-06	2.519247e-06	6.142631e-10	1.749743e+01	4.305491e+01
2.410000e-06	2.560554e-06	6.296011e-10	1.778433e+01	4.416568e+01
2.420000e-06	2.601480e-06	6.427294e-10	1.806858e+01	4.524454e+01
2.430000e-06	2.642230e-06	6.544077e-10	1.835161e+01	4.629193e+01
2.440000e-06	2.682887e-06	6.666850e-10	1.863399e+01	4.730834e+01
2.450000e-06	2.723317e-06	6.818090e-10	1.891480e+01	4.829429e+01
2.460000e-06	2.763543e-06	6.973715e-10	1.919419e+01	4.925032e+01
2.470000e-06	2.803595e-06	7.115409e-10	1.947237e+01	5.017700e+01
2.480000e-06	2.843513e-06	7.240929e-10	1.974962e+01	5.107495e+01
2.490000e-06	2.883295e-06	7.357141e-10	2.002592e+01	5.194476e+01
2.500000e-06	2.922909e-06	7.452737e-10	2.030107e+01	5.278707e+01
2.510000e-06	2.962396e-06	7.568516e-10	2.057533e+01	5.360251e+01
2.520000e-06	3.001788e-06	7.694854e-10	2.084892e+01	5.439175e+01
2.530000e-06	3.040953e-06	7.835154e-10	2.112094e+01	5.515542e+01
2.540000e-06	3.079894e-06	8.003453e-10	2.139141e+01	5.589420e+01
2.550000e-06	3.118558e-06	8.111632e-10	2.165995e+01	5.660873e+01
2.560000e-06	3.157035e-06	8.169474e-10	2.192719e+01	5.729968e+01
2.570000e-06	3.195359e-06	8.200535e-10	2.219336e+01	5.796769e+01
2.580000e-06	3.233304e-06	8.244116e-10	2.245691e+01	5.861342e+01
2.590000e-06	3.271022e-06	8.313328e-10	2.271888e+01	5.923750e+01
2.600000e-06	3.308603e-06	8.438417e-10	2.297990e+01	5.984055e+01
2.610000e-06	3.345910e-06	8.598307e-10	2.323902e+01	6.042319e+01
2.620000e-06	3.382946e-06	8.751723e-10	2.349626e+01	6.098601e+01
2.630000e-06	3.419837e-06	8.879637e-10	2.375248e+01	6.152960e+01
2.640000e-06	3.456489e-06	8.933594e-10	2.400704e+01	6.205453e+01
2.650000e-06	3.492841e-06	8.940892e-10	2.425953e+01	6.256133e+01
2.660000e-06	3.528989e-06	8.942941e-10	2.451060e+01	6.305053e+01
2.670000e-06	3.564973e-06	8.959251e-10	2.476052e+01	6.352265e+01
2.680000e-06	3.600817e-06	8.998817e-10	2.500948e+01	6.397815e+01
2.690000e-06	3.636541e-06	9.087977e-10	2.525760e+01	6.441750e+01
2.700000e-06	3.672109e-06	9.197173e-10	2.550463e+01	6.484114e+01
2.710000e-06	3.707559e-06	9.260467e-10	2.575085e+01	6.524949e+01
2.720000e-06	3.742758e-06	9.299004e-10	2.599533e+01	6.564294e+01
2.730000e-06	3.777570e-06	9.334163e-10	2.623711e+01	6.602187e+01
2.740000e-06	3.811892e-06	9.361320e-10	2.647550e+01	6.638663e+01
2.750000e-06	3.845678e-06	9.386394e-10	2.671016e+01	6.673756e+01
2.760000e-06	3.879060e-06	9.415425e-10	2.694202e+01	6.707498e+01
2.770000e-06	3.911946e-06	9.457307e-10	2.717042e+01	6.739919e+01
2.780000e-06	3.944392e-06	9.513923e-10	2.739577e+01	6.771049e+01
2.790000e-06	3.976580e-06	9.600030e-10	2.761934e+01	6.800915e+01
2.800000e-06	4.008564e-06	9.674841e-10	2.784149e+01	6.829544e+01
2.810000e-06	4.040354e-06	9.731365e-10	2.806228e+01	6.856964e+01
2.820000e-06	4.071994e-06	9.774543e-10	2.828204e+01	6.883199e+01
2.830000e-06	4.103443e-06	9.806337e-10	2.850046e+01	6.908275e+01
2.840000e-06	4.134615e-06	9.822894e-10	2.871697e+01	6.932218e+01
2.850000e-06	4.165524e-06	9.835607e-10	2.893165e+01	6.955054e+01
2.860000e-06	4.196159e-06	9.875211e-10	2.914443e+01	6.976808e+01
2.870000e-06	4.226490e-06	9.937117e-10	2.935509e+01	6.997508e+01
2.880000e-06	4.256544e-06	9.989893e-10	2.956383e+01	7.017180e+01
2.890000e-06	4.286369e-06	1.000209e-09	2.977098e+01	7.035853e+01
2.900000e-06	4.315888e-06	1.001929e-09	2.997600e+01	7.053557e+01
