# Temperatura_=_-8.3
# Concentracion g/m^3_=_1620.0
# C_Vs_to_Am_M_A/Vsm_=_65563218390.804596
# pendiente_HvsI_1/m_=_3716.3
# ordenada_HvsI_A/m_=_1297.0
# frecuencia_Hz_=_135109.62016076973

Tiempo_(s)	Campo_(V.s)	Magnetizacion_(V.s)	Campo_(kA/m)	Magnetizacion_(A/m)
0.000000e+00	-5.546878e-06	-1.422953e-09	-3.836378e+01	-9.145918e+01
1.000000e-08	-5.546954e-06	-1.419922e-09	-3.836431e+01	-9.137676e+01
2.000000e-08	-5.546778e-06	-1.420093e-09	-3.836309e+01	-9.129635e+01
3.000000e-08	-5.546348e-06	-1.419815e-09	-3.836011e+01	-9.121807e+01
4.000000e-08	-5.545459e-06	-1.418769e-09	-3.835397e+01	-9.114195e+01
5.000000e-08	-5.544046e-06	-1.412277e-09	-3.834420e+01	-9.106796e+01
6.000000e-08	-5.542094e-06	-1.395557e-09	-3.833070e+01	-9.099601e+01
7.000000e-08	-5.539529e-06	-1.380601e-09	-3.831296e+01	-9.092592e+01
8.000000e-08	-5.536347e-06	-1.397036e-09	-3.829095e+01	-9.085747e+01
9.000000e-08	-5.532557e-06	-1.464941e-09	-3.826474e+01	-9.079035e+01
1.000000e-07	-5.528371e-06	-1.522199e-09	-3.823578e+01	-9.072420e+01
1.100000e-07	-5.524026e-06	-1.445120e-09	-3.820573e+01	-9.065859e+01
1.200000e-07	-5.519588e-06	-1.335903e-09	-3.817503e+01	-9.059305e+01
1.300000e-07	-5.514894e-06	-1.345562e-09	-3.814257e+01	-9.052708e+01
1.400000e-07	-5.509691e-06	-1.444149e-09	-3.810658e+01	-9.046012e+01
1.500000e-07	-5.503994e-06	-1.448314e-09	-3.806719e+01	-9.039162e+01
1.600000e-07	-5.497951e-06	-1.360543e-09	-3.802539e+01	-9.032098e+01
1.700000e-07	-5.491532e-06	-1.370729e-09	-3.798099e+01	-9.024763e+01
1.800000e-07	-5.484612e-06	-1.453362e-09	-3.793313e+01	-9.017099e+01
1.900000e-07	-5.477248e-06	-1.453761e-09	-3.788220e+01	-9.009053e+01
2.000000e-07	-5.469669e-06	-1.348637e-09	-3.782978e+01	-9.000570e+01
2.100000e-07	-5.461903e-06	-1.342484e-09	-3.777607e+01	-8.991604e+01
2.200000e-07	-5.453824e-06	-1.422404e-09	-3.772019e+01	-8.982112e+01
2.300000e-07	-5.445482e-06	-1.467825e-09	-3.766250e+01	-8.972057e+01
2.400000e-07	-5.436762e-06	-1.404350e-09	-3.760219e+01	-8.961408e+01
2.500000e-07	-5.427382e-06	-1.372673e-09	-3.753732e+01	-8.950142e+01
2.600000e-07	-5.417175e-06	-1.392354e-09	-3.746672e+01	-8.938244e+01
2.700000e-07	-5.406268e-06	-1.404919e-09	-3.739128e+01	-8.925706e+01
2.800000e-07	-5.394940e-06	-1.379456e-09	-3.731293e+01	-8.912528e+01
2.900000e-07	-5.383225e-06	-1.373657e-09	-3.723191e+01	-8.898718e+01
3.000000e-07	-5.371177e-06	-1.396656e-09	-3.714858e+01	-8.884293e+01
3.100000e-07	-5.358800e-06	-1.396728e-09	-3.706298e+01	-8.869277e+01
3.200000e-07	-5.345900e-06	-1.362061e-09	-3.697376e+01	-8.853700e+01
3.300000e-07	-5.332508e-06	-1.342758e-09	-3.688114e+01	-8.837598e+01
3.400000e-07	-5.318807e-06	-1.367336e-09	-3.678638e+01	-8.821015e+01
3.500000e-07	-5.304772e-06	-1.366453e-09	-3.668931e+01	-8.803998e+01
3.600000e-07	-5.290284e-06	-1.344783e-09	-3.658910e+01	-8.786597e+01
3.700000e-07	-5.275298e-06	-1.352946e-09	-3.648546e+01	-8.768866e+01
3.800000e-07	-5.259759e-06	-1.380782e-09	-3.637799e+01	-8.750861e+01
3.900000e-07	-5.243679e-06	-1.346471e-09	-3.626677e+01	-8.732638e+01
4.000000e-07	-5.227166e-06	-1.327464e-09	-3.615256e+01	-8.714252e+01
4.100000e-07	-5.210342e-06	-1.357478e-09	-3.603620e+01	-8.695758e+01
4.200000e-07	-5.193227e-06	-1.355046e-09	-3.591783e+01	-8.677207e+01
4.300000e-07	-5.175770e-06	-1.304153e-09	-3.579709e+01	-8.658648e+01
4.400000e-07	-5.157995e-06	-1.338551e-09	-3.567416e+01	-8.640126e+01
4.500000e-07	-5.139927e-06	-1.383456e-09	-3.554919e+01	-8.621680e+01
4.600000e-07	-5.121348e-06	-1.340294e-09	-3.542070e+01	-8.603344e+01
4.700000e-07	-5.102250e-06	-1.303794e-09	-3.528861e+01	-8.585148e+01
4.800000e-07	-5.082893e-06	-1.355154e-09	-3.515473e+01	-8.567113e+01
4.900000e-07	-5.063289e-06	-1.347725e-09	-3.501915e+01	-8.549256e+01
5.000000e-07	-5.043435e-06	-1.299266e-09	-3.488183e+01	-8.531586e+01
5.100000e-07	-5.023354e-06	-1.318242e-09	-3.474294e+01	-8.514107e+01
5.200000e-07	-5.003010e-06	-1.339307e-09	-3.460224e+01	-8.496817e+01
5.300000e-07	-4.982255e-06	-1.297800e-09	-3.445869e+01	-8.479710e+01
5.400000e-07	-4.961110e-06	-1.315664e-09	-3.431244e+01	-8.462771e+01
5.500000e-07	-4.939652e-06	-1.356951e-09	-3.416403e+01	-8.445984e+01
5.600000e-07	-4.917818e-06	-1.316728e-09	-3.401302e+01	-8.429328e+01
5.700000e-07	-4.895675e-06	-1.286630e-09	-3.385988e+01	-8.412780e+01
5.800000e-07	-4.873278e-06	-1.328513e-09	-3.370497e+01	-8.396313e+01
5.900000e-07	-4.850531e-06	-1.325114e-09	-3.354765e+01	-8.379901e+01
6.000000e-07	-4.827340e-06	-1.286715e-09	-3.338726e+01	-8.363515e+01
6.100000e-07	-4.803852e-06	-1.303241e-09	-3.322480e+01	-8.347127e+01
6.200000e-07	-4.780145e-06	-1.310655e-09	-3.306084e+01	-8.330709e+01
6.300000e-07	-4.756210e-06	-1.278864e-09	-3.289530e+01	-8.314237e+01
6.400000e-07	-4.732037e-06	-1.281821e-09	-3.272811e+01	-8.297685e+01
6.500000e-07	-4.707527e-06	-1.303239e-09	-3.255859e+01	-8.281033e+01
6.600000e-07	-4.682566e-06	-1.282846e-09	-3.238595e+01	-8.264261e+01
6.700000e-07	-4.657073e-06	-1.273911e-09	-3.220964e+01	-8.247354e+01
6.800000e-07	-4.631015e-06	-1.283287e-09	-3.202941e+01	-8.230299e+01
6.900000e-07	-4.604407e-06	-1.268799e-09	-3.184538e+01	-8.213087e+01
7.000000e-07	-4.577329e-06	-1.249050e-09	-3.165810e+01	-8.195712e+01
7.100000e-07	-4.549834e-06	-1.258857e-09	-3.146794e+01	-8.178170e+01
7.200000e-07	-4.522100e-06	-1.256849e-09	-3.127613e+01	-8.160461e+01
7.300000e-07	-4.494264e-06	-1.249954e-09	-3.108360e+01	-8.142585e+01
7.400000e-07	-4.466330e-06	-1.253903e-09	-3.089040e+01	-8.124546e+01
7.500000e-07	-4.438146e-06	-1.251777e-09	-3.069548e+01	-8.106348e+01
7.600000e-07	-4.409651e-06	-1.236332e-09	-3.049840e+01	-8.087995e+01
7.700000e-07	-4.380853e-06	-1.234803e-09	-3.029922e+01	-8.069493e+01
7.800000e-07	-4.351666e-06	-1.228823e-09	-3.009736e+01	-8.050845e+01
7.900000e-07	-4.322119e-06	-1.220647e-09	-2.989300e+01	-8.032055e+01
8.000000e-07	-4.292373e-06	-1.222507e-09	-2.968727e+01	-8.013123e+01
8.100000e-07	-4.262462e-06	-1.223687e-09	-2.948040e+01	-7.994049e+01
8.200000e-07	-4.232243e-06	-1.207630e-09	-2.927140e+01	-7.974828e+01
8.300000e-07	-4.201617e-06	-1.200965e-09	-2.905957e+01	-7.955454e+01
8.400000e-07	-4.170576e-06	-1.203632e-09	-2.884489e+01	-7.935917e+01
8.500000e-07	-4.139232e-06	-1.199024e-09	-2.862810e+01	-7.916205e+01
8.600000e-07	-4.107738e-06	-1.195125e-09	-2.841028e+01	-7.896299e+01
8.700000e-07	-4.076104e-06	-1.196520e-09	-2.819149e+01	-7.876180e+01
8.800000e-07	-4.044244e-06	-1.189624e-09	-2.797114e+01	-7.855826e+01
8.900000e-07	-4.012162e-06	-1.178163e-09	-2.774925e+01	-7.835211e+01
9.000000e-07	-3.979915e-06	-1.174739e-09	-2.752622e+01	-7.814307e+01
9.100000e-07	-3.947350e-06	-1.168316e-09	-2.730099e+01	-7.793086e+01
9.200000e-07	-3.914372e-06	-1.156650e-09	-2.707291e+01	-7.771516e+01
9.300000e-07	-3.881060e-06	-1.153844e-09	-2.684251e+01	-7.749567e+01
9.400000e-07	-3.847298e-06	-1.157577e-09	-2.660900e+01	-7.727210e+01
9.500000e-07	-3.812968e-06	-1.152023e-09	-2.637157e+01	-7.704416e+01
9.600000e-07	-3.778171e-06	-1.144431e-09	-2.613090e+01	-7.681157e+01
9.700000e-07	-3.743006e-06	-1.139048e-09	-2.588769e+01	-7.657411e+01
9.800000e-07	-3.707586e-06	-1.131779e-09	-2.564271e+01	-7.633157e+01
9.900000e-07	-3.671955e-06	-1.121682e-09	-2.539628e+01	-7.608379e+01
1.000000e-06	-3.636157e-06	-1.121467e-09	-2.514869e+01	-7.583066e+01
1.010000e-06	-3.600266e-06	-1.118493e-09	-2.490046e+01	-7.557213e+01
1.020000e-06	-3.564213e-06	-1.110615e-09	-2.465111e+01	-7.530820e+01
1.030000e-06	-3.527958e-06	-1.106683e-09	-2.440036e+01	-7.503893e+01
1.040000e-06	-3.491514e-06	-1.107319e-09	-2.414830e+01	-7.476445e+01
1.050000e-06	-3.454800e-06	-1.100943e-09	-2.389437e+01	-7.448493e+01
1.060000e-06	-3.417789e-06	-1.095247e-09	-2.363840e+01	-7.420062e+01
1.070000e-06	-3.380563e-06	-1.090549e-09	-2.338093e+01	-7.391182e+01
1.080000e-06	-3.343068e-06	-1.084537e-09	-2.312161e+01	-7.361886e+01
1.090000e-06	-3.305288e-06	-1.076079e-09	-2.286031e+01	-7.332215e+01
1.100000e-06	-3.267345e-06	-1.071605e-09	-2.259788e+01	-7.302208e+01
1.110000e-06	-3.229247e-06	-1.066427e-09	-2.233439e+01	-7.271912e+01
1.120000e-06	-3.190832e-06	-1.058244e-09	-2.206870e+01	-7.241372e+01
1.130000e-06	-3.152158e-06	-1.052039e-09	-2.180122e+01	-7.210634e+01
1.140000e-06	-3.113282e-06	-1.047244e-09	-2.153234e+01	-7.179743e+01
1.150000e-06	-3.074192e-06	-1.044698e-09	-2.126198e+01	-7.148742e+01
1.160000e-06	-3.034927e-06	-1.041899e-09	-2.099042e+01	-7.117670e+01
1.170000e-06	-2.995495e-06	-1.039579e-09	-2.071769e+01	-7.086562e+01
1.180000e-06	-2.955887e-06	-1.035925e-09	-2.044375e+01	-7.055447e+01
1.190000e-06	-2.916112e-06	-1.030241e-09	-2.016866e+01	-7.024348e+01
1.200000e-06	-2.876241e-06	-1.023386e-09	-1.989290e+01	-6.993278e+01
1.210000e-06	-2.836256e-06	-1.015431e-09	-1.961635e+01	-6.962244e+01
1.220000e-06	-2.796117e-06	-1.006159e-09	-1.933874e+01	-6.931242e+01
1.230000e-06	-2.755813e-06	-1.000409e-09	-1.905998e+01	-6.900258e+01
1.240000e-06	-2.715324e-06	-9.947389e-10	-1.877995e+01	-6.869270e+01
1.250000e-06	-2.674624e-06	-9.891958e-10	-1.849845e+01	-6.838244e+01
1.260000e-06	-2.633656e-06	-9.870336e-10	-1.821511e+01	-6.807137e+01
1.270000e-06	-2.592377e-06	-9.859236e-10	-1.792962e+01	-6.775895e+01
1.280000e-06	-2.550782e-06	-9.786125e-10	-1.764193e+01	-6.744457e+01
1.290000e-06	-2.508911e-06	-9.698881e-10	-1.735234e+01	-6.712751e+01
1.300000e-06	-2.466677e-06	-9.615476e-10	-1.706024e+01	-6.680699e+01
1.310000e-06	-2.424094e-06	-9.521499e-10	-1.676572e+01	-6.648217e+01
1.320000e-06	-2.381368e-06	-9.414932e-10	-1.647022e+01	-6.615216e+01
1.330000e-06	-2.338376e-06	-9.338175e-10	-1.617287e+01	-6.581601e+01
1.340000e-06	-2.295056e-06	-9.279684e-10	-1.587325e+01	-6.547276e+01
1.350000e-06	-2.251546e-06	-9.222953e-10	-1.557233e+01	-6.512146e+01
1.360000e-06	-2.207885e-06	-9.202626e-10	-1.527036e+01	-6.476114e+01
1.370000e-06	-2.164113e-06	-9.187864e-10	-1.496762e+01	-6.439087e+01
1.380000e-06	-2.120276e-06	-9.116961e-10	-1.466443e+01	-6.400974e+01
1.390000e-06	-2.076372e-06	-8.987126e-10	-1.436078e+01	-6.361691e+01
1.400000e-06	-2.032359e-06	-8.841810e-10	-1.405637e+01	-6.321159e+01
1.410000e-06	-1.988249e-06	-8.705973e-10	-1.375129e+01	-6.279308e+01
1.420000e-06	-1.944079e-06	-8.593924e-10	-1.344580e+01	-6.236075e+01
1.430000e-06	-1.899821e-06	-8.515728e-10	-1.313970e+01	-6.191408e+01
1.440000e-06	-1.855472e-06	-8.468027e-10	-1.283297e+01	-6.145264e+01
1.450000e-06	-1.811001e-06	-8.432599e-10	-1.252539e+01	-6.097611e+01
1.460000e-06	-1.766391e-06	-8.382794e-10	-1.221686e+01	-6.048426e+01
1.470000e-06	-1.721683e-06	-8.302501e-10	-1.190764e+01	-5.997697e+01
1.480000e-06	-1.676831e-06	-8.211424e-10	-1.159744e+01	-5.945423e+01
1.490000e-06	-1.631768e-06	-8.109188e-10	-1.128577e+01	-5.891609e+01
1.500000e-06	-1.586573e-06	-7.988635e-10	-1.097319e+01	-5.836272e+01
1.510000e-06	-1.541298e-06	-7.867092e-10	-1.066005e+01	-5.779434e+01
1.520000e-06	-1.495902e-06	-7.761640e-10	-1.034608e+01	-5.721122e+01
1.530000e-06	-1.450391e-06	-7.661942e-10	-1.003132e+01	-5.661368e+01
1.540000e-06	-1.404781e-06	-7.568436e-10	-9.715866e+00	-5.600206e+01
1.550000e-06	-1.359152e-06	-7.467887e-10	-9.400284e+00	-5.537673e+01
1.560000e-06	-1.313519e-06	-7.350353e-10	-9.084671e+00	-5.473802e+01
1.570000e-06	-1.267781e-06	-7.202779e-10	-8.768334e+00	-5.408623e+01
1.580000e-06	-1.221897e-06	-7.052437e-10	-8.450989e+00	-5.342164e+01
1.590000e-06	-1.175912e-06	-6.921182e-10	-8.132939e+00	-5.274442e+01
1.600000e-06	-1.129805e-06	-6.801125e-10	-7.814054e+00	-5.205470e+01
1.610000e-06	-1.083617e-06	-6.691104e-10	-7.494605e+00	-5.135246e+01
1.620000e-06	-1.037390e-06	-6.594414e-10	-7.174884e+00	-5.063762e+01
1.630000e-06	-9.910862e-07	-6.500469e-10	-6.854633e+00	-4.990991e+01
1.640000e-06	-9.446813e-07	-6.395188e-10	-6.533684e+00	-4.916898e+01
1.650000e-06	-8.982294e-07	-6.281691e-10	-6.212409e+00	-4.841428e+01
1.660000e-06	-8.517569e-07	-6.182579e-10	-5.890992e+00	-4.764514e+01
1.670000e-06	-8.051634e-07	-6.084256e-10	-5.568739e+00	-4.686073e+01
1.680000e-06	-7.584669e-07	-5.960872e-10	-5.245772e+00	-4.606007e+01
1.690000e-06	-7.117537e-07	-5.839760e-10	-4.922690e+00	-4.524203e+01
1.700000e-06	-6.650275e-07	-5.691925e-10	-4.599519e+00	-4.440533e+01
1.710000e-06	-6.183046e-07	-5.512799e-10	-4.276370e+00	-4.354857e+01
1.720000e-06	-5.715516e-07	-5.358549e-10	-3.953013e+00	-4.267024e+01
1.730000e-06	-5.247208e-07	-5.233545e-10	-3.629118e+00	-4.176873e+01
1.740000e-06	-4.778326e-07	-5.126478e-10	-3.304826e+00	-4.084232e+01
1.750000e-06	-4.308381e-07	-5.002315e-10	-2.979798e+00	-3.988928e+01
1.760000e-06	-3.838057e-07	-4.849442e-10	-2.654509e+00	-3.890780e+01
1.770000e-06	-3.367900e-07	-4.681629e-10	-2.329335e+00	-3.789609e+01
1.780000e-06	-2.897080e-07	-4.508797e-10	-2.003703e+00	-3.685235e+01
1.790000e-06	-2.426477e-07	-4.362655e-10	-1.678221e+00	-3.577484e+01
1.800000e-06	-1.956059e-07	-4.226912e-10	-1.352866e+00	-3.466188e+01
1.810000e-06	-1.485286e-07	-4.067211e-10	-1.027266e+00	-3.351187e+01
1.820000e-06	-1.014397e-07	-3.883993e-10	-7.015858e-01	-3.232336e+01
1.830000e-06	-5.426908e-08	-3.701109e-10	-3.753404e-01	-3.109503e+01
1.840000e-06	-7.156328e-09	-3.534482e-10	-4.949520e-02	-2.982572e+01
1.850000e-06	3.986526e-08	-3.393957e-10	2.757194e-01	-2.851447e+01
1.860000e-06	8.694448e-08	-3.266793e-10	6.013327e-01	-2.716053e+01
1.870000e-06	1.339973e-07	-3.121680e-10	9.267633e-01	-2.576337e+01
1.880000e-06	1.810400e-07	-2.946533e-10	1.252124e+00	-2.432272e+01
1.890000e-06	2.281147e-07	-2.735847e-10	1.577706e+00	-2.283854e+01
1.900000e-06	2.751608e-07	-2.480550e-10	1.903090e+00	-2.131107e+01
1.910000e-06	3.222038e-07	-2.225158e-10	2.228453e+00	-1.974078e+01
1.920000e-06	3.691798e-07	-1.991567e-10	2.553352e+00	-1.812846e+01
1.930000e-06	4.160365e-07	-1.781789e-10	2.877426e+00	-1.647512e+01
1.940000e-06	4.628219e-07	-1.594932e-10	3.201008e+00	-1.478205e+01
1.950000e-06	5.096678e-07	-1.392562e-10	3.525007e+00	-1.305080e+01
1.960000e-06	5.565392e-07	-1.169289e-10	3.849183e+00	-1.128315e+01
1.970000e-06	6.032310e-07	-9.119300e-11	4.172116e+00	-9.481093e+00
1.980000e-06	6.498233e-07	-6.550454e-11	4.494363e+00	-7.646867e+00
1.990000e-06	6.964576e-07	-3.765815e-11	4.816899e+00	-5.782880e+00
2.000000e-06	7.431320e-07	-7.844248e-12	5.139712e+00	-3.891721e+00
2.010000e-06	7.897634e-07	2.053420e-11	5.462228e+00	-1.976129e+00
2.020000e-06	8.362673e-07	4.847797e-11	5.783862e+00	-3.896957e-02
2.030000e-06	8.826650e-07	7.604293e-11	6.104761e+00	1.916786e+00
2.040000e-06	9.290397e-07	1.034293e-10	6.425502e+00	3.888086e+00
2.050000e-06	9.753679e-07	1.316297e-10	6.745921e+00	5.871825e+00
2.060000e-06	1.021616e-06	1.599777e-10	7.065787e+00	7.864867e+00
2.070000e-06	1.067835e-06	1.891971e-10	7.385452e+00	9.864067e+00
2.080000e-06	1.113951e-06	2.166059e-10	7.704402e+00	1.186630e+01
2.090000e-06	1.159917e-06	2.415593e-10	8.022316e+00	1.386847e+01
2.100000e-06	1.205848e-06	2.689182e-10	8.339984e+00	1.586756e+01
2.110000e-06	1.251781e-06	2.982368e-10	8.657671e+00	1.786060e+01
2.120000e-06	1.297653e-06	3.273424e-10	8.974934e+00	1.984475e+01
2.130000e-06	1.343383e-06	3.557635e-10	9.291218e+00	2.181725e+01
2.140000e-06	1.388977e-06	3.851073e-10	9.606556e+00	2.377549e+01
2.150000e-06	1.434553e-06	4.127872e-10	9.921776e+00	2.571699e+01
2.160000e-06	1.480054e-06	4.370671e-10	1.023647e+01	2.763939e+01
2.170000e-06	1.525326e-06	4.588757e-10	1.054959e+01	2.954052e+01
2.180000e-06	1.570504e-06	4.816405e-10	1.086205e+01	3.141836e+01
2.190000e-06	1.615619e-06	5.072354e-10	1.117408e+01	3.327103e+01
2.200000e-06	1.660539e-06	5.357309e-10	1.148476e+01	3.509684e+01
2.210000e-06	1.705299e-06	5.661062e-10	1.179433e+01	3.689426e+01
2.220000e-06	1.749929e-06	5.952783e-10	1.210300e+01	3.866192e+01
2.230000e-06	1.794416e-06	6.194840e-10	1.241069e+01	4.039860e+01
2.240000e-06	1.838779e-06	6.396671e-10	1.271752e+01	4.210326e+01
2.250000e-06	1.883041e-06	6.573706e-10	1.302364e+01	4.377498e+01
2.260000e-06	1.927210e-06	6.759294e-10	1.332913e+01	4.541302e+01
2.270000e-06	1.971295e-06	6.966846e-10	1.363403e+01	4.701675e+01
2.280000e-06	2.015345e-06	7.202645e-10	1.393870e+01	4.858569e+01
2.290000e-06	2.059330e-06	7.453052e-10	1.424291e+01	5.011946e+01
2.300000e-06	2.103229e-06	7.689499e-10	1.454653e+01	5.161783e+01
2.310000e-06	2.147084e-06	7.907366e-10	1.484984e+01	5.308063e+01
2.320000e-06	2.190871e-06	8.093616e-10	1.515269e+01	5.450782e+01
2.330000e-06	2.234616e-06	8.242742e-10	1.545524e+01	5.589945e+01
2.340000e-06	2.278245e-06	8.387050e-10	1.575699e+01	5.725564e+01
2.350000e-06	2.321699e-06	8.555149e-10	1.605753e+01	5.857657e+01
2.360000e-06	2.364945e-06	8.738659e-10	1.635663e+01	5.986253e+01
2.370000e-06	2.407868e-06	8.919807e-10	1.665350e+01	6.111381e+01
2.380000e-06	2.450453e-06	9.096431e-10	1.694803e+01	6.233081e+01
2.390000e-06	2.492697e-06	9.259641e-10	1.724020e+01	6.351393e+01
2.400000e-06	2.534605e-06	9.398522e-10	1.753005e+01	6.466363e+01
2.410000e-06	2.576179e-06	9.526125e-10	1.781758e+01	6.578040e+01
2.420000e-06	2.617460e-06	9.643913e-10	1.810309e+01	6.686476e+01
2.430000e-06	2.658521e-06	9.778696e-10	1.838708e+01	6.791725e+01
2.440000e-06	2.699282e-06	9.936800e-10	1.866900e+01	6.893844e+01
2.450000e-06	2.739809e-06	1.010333e-09	1.894929e+01	6.992890e+01
2.460000e-06	2.780141e-06	1.026658e-09	1.922825e+01	7.088922e+01
2.470000e-06	2.820291e-06	1.039667e-09	1.950594e+01	7.181999e+01
2.480000e-06	2.860314e-06	1.050124e-09	1.978274e+01	7.272183e+01
2.490000e-06	2.900189e-06	1.060341e-09	2.005853e+01	7.359533e+01
2.500000e-06	2.939976e-06	1.069849e-09	2.033371e+01	7.444110e+01
2.510000e-06	2.979642e-06	1.082355e-09	2.060805e+01	7.525974e+01
2.520000e-06	3.019112e-06	1.094898e-09	2.088104e+01	7.605185e+01
2.530000e-06	3.058415e-06	1.106880e-09	2.115287e+01	7.681803e+01
2.540000e-06	3.097516e-06	1.119665e-09	2.142330e+01	7.755887e+01
2.550000e-06	3.136345e-06	1.129685e-09	2.169185e+01	7.827493e+01
2.560000e-06	3.174915e-06	1.136302e-09	2.195861e+01	7.896680e+01
2.570000e-06	3.213260e-06	1.142562e-09	2.222381e+01	7.963503e+01
2.580000e-06	3.251370e-06	1.149097e-09	2.248739e+01	8.028017e+01
2.590000e-06	3.289250e-06	1.155055e-09	2.274939e+01	8.090277e+01
2.600000e-06	3.326982e-06	1.165544e-09	2.301035e+01	8.150335e+01
2.610000e-06	3.364521e-06	1.180658e-09	2.326998e+01	8.208245e+01
2.620000e-06	3.401785e-06	1.196554e-09	2.352771e+01	8.264056e+01
2.630000e-06	3.438817e-06	1.208000e-09	2.378383e+01	8.317820e+01
2.640000e-06	3.475576e-06	1.215161e-09	2.403807e+01	8.369587e+01
2.650000e-06	3.511957e-06	1.220269e-09	2.428969e+01	8.419406e+01
2.660000e-06	3.548100e-06	1.223322e-09	2.453966e+01	8.467325e+01
2.670000e-06	3.584133e-06	1.225977e-09	2.478888e+01	8.513394e+01
2.680000e-06	3.620054e-06	1.230387e-09	2.503732e+01	8.557661e+01
2.690000e-06	3.655883e-06	1.239245e-09	2.528512e+01	8.600174e+01
2.700000e-06	3.691571e-06	1.250433e-09	2.553195e+01	8.640981e+01
2.710000e-06	3.727054e-06	1.258029e-09	2.577736e+01	8.680132e+01
2.720000e-06	3.762354e-06	1.263046e-09	2.602151e+01	8.717676e+01
2.730000e-06	3.797409e-06	1.266014e-09	2.626396e+01	8.753661e+01
2.740000e-06	3.832078e-06	1.267811e-09	2.650374e+01	8.788138e+01
2.750000e-06	3.866228e-06	1.270415e-09	2.673993e+01	8.821157e+01
2.760000e-06	3.899787e-06	1.274802e-09	2.697204e+01	8.852769e+01
2.770000e-06	3.932763e-06	1.281391e-09	2.720010e+01	8.883027e+01
2.780000e-06	3.965329e-06	1.288072e-09	2.742534e+01	8.911980e+01
2.790000e-06	3.997630e-06	1.293385e-09	2.764875e+01	8.939682e+01
2.800000e-06	4.029733e-06	1.299106e-09	2.787077e+01	8.966185e+01
2.810000e-06	4.061684e-06	1.305261e-09	2.809176e+01	8.991541e+01
2.820000e-06	4.093461e-06	1.310071e-09	2.831154e+01	9.015801e+01
2.830000e-06	4.125094e-06	1.313941e-09	2.853032e+01	9.039017e+01
2.840000e-06	4.156546e-06	1.317578e-09	2.874785e+01	9.061240e+01
2.850000e-06	4.187750e-06	1.322017e-09	2.896367e+01	9.082519e+01
2.860000e-06	4.218550e-06	1.327681e-09	2.917669e+01	9.102901e+01
2.870000e-06	4.248926e-06	1.333645e-09	2.938678e+01	9.122433e+01
2.880000e-06	4.278992e-06	1.337400e-09	2.959472e+01	9.141159e+01
2.890000e-06	4.308816e-06	1.339491e-09	2.980099e+01	9.159120e+01
2.900000e-06	4.338410e-06	1.342431e-09	3.000567e+01	9.176356e+01
