# Temperatura_=_-6.9
# Concentracion g/m^3_=_1620.0
# C_Vs_to_Am_M_A/Vsm_=_65563218390.804596
# pendiente_HvsI_1/m_=_3716.3
# ordenada_HvsI_A/m_=_1297.0
# frecuencia_Hz_=_135109.53552408228

Tiempo_(s)	Campo_(V.s)	Magnetizacion_(V.s)	Campo_(kA/m)	Magnetizacion_(A/m)
0.000000e+00	-5.516732e-06	-1.433237e-09	-3.836075e+01	-9.349961e+01
1.000000e-08	-5.516981e-06	-1.433176e-09	-3.836248e+01	-9.339967e+01
2.000000e-08	-5.516901e-06	-1.435363e-09	-3.836193e+01	-9.329831e+01
3.000000e-08	-5.516400e-06	-1.435915e-09	-3.835844e+01	-9.319561e+01
4.000000e-08	-5.515364e-06	-1.433073e-09	-3.835124e+01	-9.309164e+01
5.000000e-08	-5.513711e-06	-1.422939e-09	-3.833975e+01	-9.298647e+01
6.000000e-08	-5.511427e-06	-1.399147e-09	-3.832386e+01	-9.288020e+01
7.000000e-08	-5.508568e-06	-1.383854e-09	-3.830398e+01	-9.277290e+01
8.000000e-08	-5.505290e-06	-1.438506e-09	-3.828119e+01	-9.266469e+01
9.000000e-08	-5.501592e-06	-1.530674e-09	-3.825547e+01	-9.255566e+01
1.000000e-07	-5.497397e-06	-1.508668e-09	-3.822630e+01	-9.244592e+01
1.100000e-07	-5.492831e-06	-1.376620e-09	-3.819456e+01	-9.233557e+01
1.200000e-07	-5.488232e-06	-1.338921e-09	-3.816257e+01	-9.222470e+01
1.300000e-07	-5.483397e-06	-1.413118e-09	-3.812895e+01	-9.211342e+01
1.400000e-07	-5.478038e-06	-1.464052e-09	-3.809169e+01	-9.200179e+01
1.500000e-07	-5.472274e-06	-1.385842e-09	-3.805161e+01	-9.188990e+01
1.600000e-07	-5.466260e-06	-1.373370e-09	-3.800979e+01	-9.177779e+01
1.700000e-07	-5.459899e-06	-1.434255e-09	-3.796556e+01	-9.166551e+01
1.800000e-07	-5.453002e-06	-1.456567e-09	-3.791760e+01	-9.155307e+01
1.900000e-07	-5.445698e-06	-1.389283e-09	-3.786681e+01	-9.144046e+01
2.000000e-07	-5.438201e-06	-1.344805e-09	-3.781468e+01	-9.132767e+01
2.100000e-07	-5.430464e-06	-1.399642e-09	-3.776088e+01	-9.121464e+01
2.200000e-07	-5.422455e-06	-1.446346e-09	-3.770519e+01	-9.110131e+01
2.300000e-07	-5.414229e-06	-1.435115e-09	-3.764799e+01	-9.098756e+01
2.400000e-07	-5.405542e-06	-1.385546e-09	-3.758759e+01	-9.087328e+01
2.500000e-07	-5.396032e-06	-1.389977e-09	-3.752146e+01	-9.075834e+01
2.600000e-07	-5.385694e-06	-1.385258e-09	-3.744958e+01	-9.064255e+01
2.700000e-07	-5.374813e-06	-1.371383e-09	-3.737391e+01	-9.052575e+01
2.800000e-07	-5.363514e-06	-1.353347e-09	-3.729535e+01	-9.040773e+01
2.900000e-07	-5.351849e-06	-1.381292e-09	-3.721423e+01	-9.028829e+01
3.000000e-07	-5.339874e-06	-1.381638e-09	-3.713096e+01	-9.016720e+01
3.100000e-07	-5.327526e-06	-1.360210e-09	-3.704510e+01	-9.004425e+01
3.200000e-07	-5.314699e-06	-1.332609e-09	-3.695591e+01	-8.991921e+01
3.300000e-07	-5.301473e-06	-1.349120e-09	-3.686394e+01	-8.979186e+01
3.400000e-07	-5.287959e-06	-1.349399e-09	-3.676997e+01	-8.966199e+01
3.500000e-07	-5.273999e-06	-1.330362e-09	-3.667290e+01	-8.952940e+01
3.600000e-07	-5.259482e-06	-1.344727e-09	-3.657196e+01	-8.939390e+01
3.700000e-07	-5.244470e-06	-1.380732e-09	-3.646757e+01	-8.925534e+01
3.800000e-07	-5.228902e-06	-1.351010e-09	-3.635931e+01	-8.911357e+01
3.900000e-07	-5.212753e-06	-1.311984e-09	-3.624703e+01	-8.896847e+01
4.000000e-07	-5.196182e-06	-1.346324e-09	-3.613179e+01	-8.881996e+01
4.100000e-07	-5.179376e-06	-1.355785e-09	-3.601494e+01	-8.866799e+01
4.200000e-07	-5.162325e-06	-1.304469e-09	-3.589637e+01	-8.851254e+01
4.300000e-07	-5.144972e-06	-1.319972e-09	-3.577571e+01	-8.835361e+01
4.400000e-07	-5.127303e-06	-1.381092e-09	-3.565284e+01	-8.819126e+01
4.500000e-07	-5.109199e-06	-1.339566e-09	-3.552696e+01	-8.802556e+01
4.600000e-07	-5.090601e-06	-1.295937e-09	-3.539763e+01	-8.785663e+01
4.700000e-07	-5.071546e-06	-1.331224e-09	-3.526514e+01	-8.768460e+01
4.800000e-07	-5.052215e-06	-1.338141e-09	-3.513072e+01	-8.750965e+01
4.900000e-07	-5.032718e-06	-1.289407e-09	-3.499515e+01	-8.733198e+01
5.000000e-07	-5.013041e-06	-1.310979e-09	-3.485832e+01	-8.715179e+01
5.100000e-07	-4.993173e-06	-1.321468e-09	-3.472017e+01	-8.696934e+01
5.200000e-07	-4.972898e-06	-1.281594e-09	-3.457918e+01	-8.678487e+01
5.300000e-07	-4.952165e-06	-1.293765e-09	-3.443502e+01	-8.659864e+01
5.400000e-07	-4.931154e-06	-1.337390e-09	-3.428892e+01	-8.641093e+01
5.500000e-07	-4.909851e-06	-1.293321e-09	-3.414078e+01	-8.622199e+01
5.600000e-07	-4.888189e-06	-1.269055e-09	-3.399016e+01	-8.603210e+01
5.700000e-07	-4.866204e-06	-1.303740e-09	-3.383729e+01	-8.584150e+01
5.800000e-07	-4.843871e-06	-1.295499e-09	-3.368200e+01	-8.565045e+01
5.900000e-07	-4.821125e-06	-1.260797e-09	-3.352383e+01	-8.545917e+01
6.000000e-07	-4.798008e-06	-1.285308e-09	-3.336308e+01	-8.526786e+01
6.100000e-07	-4.774623e-06	-1.285264e-09	-3.320048e+01	-8.507670e+01
6.200000e-07	-4.751044e-06	-1.254274e-09	-3.303651e+01	-8.488586e+01
6.300000e-07	-4.727287e-06	-1.265167e-09	-3.287132e+01	-8.469545e+01
6.400000e-07	-4.703248e-06	-1.280067e-09	-3.270417e+01	-8.450556e+01
6.500000e-07	-4.678803e-06	-1.256271e-09	-3.253418e+01	-8.431626e+01
6.600000e-07	-4.653993e-06	-1.258993e-09	-3.236167e+01	-8.412757e+01
6.700000e-07	-4.628720e-06	-1.273159e-09	-3.218593e+01	-8.393948e+01
6.800000e-07	-4.602795e-06	-1.251696e-09	-3.200566e+01	-8.375194e+01
6.900000e-07	-4.576269e-06	-1.241966e-09	-3.182122e+01	-8.356489e+01
7.000000e-07	-4.549256e-06	-1.253196e-09	-3.163338e+01	-8.337821e+01
7.100000e-07	-4.521902e-06	-1.241687e-09	-3.144317e+01	-8.319176e+01
7.200000e-07	-4.494352e-06	-1.232615e-09	-3.125160e+01	-8.300538e+01
7.300000e-07	-4.466655e-06	-1.249932e-09	-3.105901e+01	-8.281888e+01
7.400000e-07	-4.438801e-06	-1.244056e-09	-3.086532e+01	-8.263206e+01
7.500000e-07	-4.410673e-06	-1.225170e-09	-3.066974e+01	-8.244467e+01
7.600000e-07	-4.382244e-06	-1.229894e-09	-3.047206e+01	-8.225649e+01
7.700000e-07	-4.353447e-06	-1.231632e-09	-3.027181e+01	-8.206725e+01
7.800000e-07	-4.324240e-06	-1.211627e-09	-3.006873e+01	-8.187670e+01
7.900000e-07	-4.294760e-06	-1.216031e-09	-2.986373e+01	-8.168458e+01
8.000000e-07	-4.265090e-06	-1.223524e-09	-2.965743e+01	-8.149062e+01
8.100000e-07	-4.235230e-06	-1.208795e-09	-2.944979e+01	-8.129458e+01
8.200000e-07	-4.205043e-06	-1.198989e-09	-2.923988e+01	-8.109620e+01
8.300000e-07	-4.174529e-06	-1.208056e-09	-2.902770e+01	-8.089526e+01
8.400000e-07	-4.143644e-06	-1.199357e-09	-2.881294e+01	-8.069153e+01
8.500000e-07	-4.112348e-06	-1.193793e-09	-2.859533e+01	-8.048482e+01
8.600000e-07	-4.080900e-06	-1.202922e-09	-2.837665e+01	-8.027496e+01
8.700000e-07	-4.049377e-06	-1.201523e-09	-2.815746e+01	-8.006178e+01
8.800000e-07	-4.017687e-06	-1.186670e-09	-2.793710e+01	-7.984517e+01
8.900000e-07	-3.985753e-06	-1.185987e-09	-2.771504e+01	-7.962501e+01
9.000000e-07	-3.953647e-06	-1.182981e-09	-2.749180e+01	-7.940123e+01
9.100000e-07	-3.921331e-06	-1.169447e-09	-2.726709e+01	-7.917380e+01
9.200000e-07	-3.888639e-06	-1.165196e-09	-2.703976e+01	-7.894268e+01
9.300000e-07	-3.855488e-06	-1.171372e-09	-2.680924e+01	-7.870790e+01
9.400000e-07	-3.821763e-06	-1.164542e-09	-2.657474e+01	-7.846948e+01
9.500000e-07	-3.787480e-06	-1.156773e-09	-2.633635e+01	-7.822750e+01
9.600000e-07	-3.752811e-06	-1.156262e-09	-2.609528e+01	-7.798205e+01
9.700000e-07	-3.717809e-06	-1.148303e-09	-2.585189e+01	-7.773323e+01
9.800000e-07	-3.682518e-06	-1.136621e-09	-2.560649e+01	-7.748118e+01
9.900000e-07	-3.647051e-06	-1.134815e-09	-2.535987e+01	-7.722605e+01
1.000000e-06	-3.611456e-06	-1.133688e-09	-2.511236e+01	-7.696801e+01
1.010000e-06	-3.575743e-06	-1.124056e-09	-2.486403e+01	-7.670723e+01
1.020000e-06	-3.539932e-06	-1.121848e-09	-2.461502e+01	-7.644389e+01
1.030000e-06	-3.504020e-06	-1.121878e-09	-2.436530e+01	-7.617820e+01
1.040000e-06	-3.467758e-06	-1.115295e-09	-2.411315e+01	-7.591034e+01
1.050000e-06	-3.431050e-06	-1.107886e-09	-2.385790e+01	-7.564049e+01
1.060000e-06	-3.394119e-06	-1.105452e-09	-2.360110e+01	-7.536884e+01
1.070000e-06	-3.356990e-06	-1.096472e-09	-2.334292e+01	-7.509556e+01
1.080000e-06	-3.319583e-06	-1.086338e-09	-2.308281e+01	-7.482080e+01
1.090000e-06	-3.281986e-06	-1.081425e-09	-2.282138e+01	-7.454470e+01
1.100000e-06	-3.244200e-06	-1.077432e-09	-2.255863e+01	-7.426736e+01
1.110000e-06	-3.206164e-06	-1.069016e-09	-2.229415e+01	-7.398886e+01
1.120000e-06	-3.167926e-06	-1.063520e-09	-2.202826e+01	-7.370926e+01
1.130000e-06	-3.129493e-06	-1.059504e-09	-2.176102e+01	-7.342857e+01
1.140000e-06	-3.090838e-06	-1.055318e-09	-2.149223e+01	-7.314677e+01
1.150000e-06	-3.051936e-06	-1.052227e-09	-2.122173e+01	-7.286380e+01
1.160000e-06	-3.012811e-06	-1.050883e-09	-2.094966e+01	-7.257954e+01
1.170000e-06	-2.973516e-06	-1.045766e-09	-2.067643e+01	-7.229386e+01
1.180000e-06	-2.934075e-06	-1.041625e-09	-2.040217e+01	-7.200655e+01
1.190000e-06	-2.894502e-06	-1.038795e-09	-2.012700e+01	-7.171737e+01
1.200000e-06	-2.854796e-06	-1.032141e-09	-1.985091e+01	-7.142602e+01
1.210000e-06	-2.814975e-06	-1.021790e-09	-1.957400e+01	-7.113219e+01
1.220000e-06	-2.775077e-06	-1.015463e-09	-1.929658e+01	-7.083547e+01
1.230000e-06	-2.735015e-06	-1.010659e-09	-1.901801e+01	-7.053546e+01
1.240000e-06	-2.694682e-06	-1.003304e-09	-1.873755e+01	-7.023168e+01
1.250000e-06	-2.654119e-06	-9.970750e-10	-1.845549e+01	-6.992364e+01
1.260000e-06	-2.613288e-06	-9.927180e-10	-1.817157e+01	-6.961081e+01
1.270000e-06	-2.572190e-06	-9.866241e-10	-1.788580e+01	-6.929262e+01
1.280000e-06	-2.530865e-06	-9.786236e-10	-1.759844e+01	-6.896850e+01
1.290000e-06	-2.489193e-06	-9.718106e-10	-1.730867e+01	-6.863784e+01
1.300000e-06	-2.447130e-06	-9.650572e-10	-1.701619e+01	-6.830004e+01
1.310000e-06	-2.404781e-06	-9.582908e-10	-1.672171e+01	-6.795447e+01
1.320000e-06	-2.362180e-06	-9.516843e-10	-1.642548e+01	-6.760054e+01
1.330000e-06	-2.319327e-06	-9.459754e-10	-1.612751e+01	-6.723763e+01
1.340000e-06	-2.276217e-06	-9.410636e-10	-1.582774e+01	-6.686518e+01
1.350000e-06	-2.232877e-06	-9.373572e-10	-1.552637e+01	-6.648260e+01
1.360000e-06	-2.189441e-06	-9.335915e-10	-1.522434e+01	-6.608939e+01
1.370000e-06	-2.145916e-06	-9.290732e-10	-1.492168e+01	-6.568504e+01
1.380000e-06	-2.102269e-06	-9.209575e-10	-1.461819e+01	-6.526910e+01
1.390000e-06	-2.058581e-06	-9.087321e-10	-1.431440e+01	-6.484117e+01
1.400000e-06	-2.014913e-06	-8.963069e-10	-1.401075e+01	-6.440091e+01
1.410000e-06	-1.971155e-06	-8.882317e-10	-1.370648e+01	-6.394800e+01
1.420000e-06	-1.927259e-06	-8.805197e-10	-1.340125e+01	-6.348221e+01
1.430000e-06	-1.883301e-06	-8.732643e-10	-1.309559e+01	-6.300336e+01
1.440000e-06	-1.839180e-06	-8.679739e-10	-1.278879e+01	-6.251132e+01
1.450000e-06	-1.794820e-06	-8.634179e-10	-1.248033e+01	-6.200602e+01
1.460000e-06	-1.750366e-06	-8.568617e-10	-1.217122e+01	-6.148744e+01
1.470000e-06	-1.705828e-06	-8.479643e-10	-1.186152e+01	-6.095560e+01
1.480000e-06	-1.661111e-06	-8.384831e-10	-1.155058e+01	-6.041060e+01
1.490000e-06	-1.616288e-06	-8.276779e-10	-1.123890e+01	-5.985252e+01
1.500000e-06	-1.571412e-06	-8.142669e-10	-1.092686e+01	-5.928150e+01
1.510000e-06	-1.526367e-06	-8.023396e-10	-1.061363e+01	-5.869769e+01
1.520000e-06	-1.481139e-06	-7.933107e-10	-1.029914e+01	-5.810125e+01
1.530000e-06	-1.435852e-06	-7.851625e-10	-9.984238e+00	-5.749234e+01
1.540000e-06	-1.390547e-06	-7.762437e-10	-9.669210e+00	-5.687108e+01
1.550000e-06	-1.345191e-06	-7.676364e-10	-9.353822e+00	-5.623759e+01
1.560000e-06	-1.299771e-06	-7.576988e-10	-9.037994e+00	-5.559193e+01
1.570000e-06	-1.254281e-06	-7.440630e-10	-8.721675e+00	-5.493410e+01
1.580000e-06	-1.208641e-06	-7.302688e-10	-8.404320e+00	-5.426405e+01
1.590000e-06	-1.162876e-06	-7.178203e-10	-8.086087e+00	-5.358164e+01
1.600000e-06	-1.117076e-06	-7.053300e-10	-7.767622e+00	-5.288664e+01
1.610000e-06	-1.071211e-06	-6.942237e-10	-7.448699e+00	-5.217871e+01
1.620000e-06	-1.025273e-06	-6.848552e-10	-7.129263e+00	-5.145742e+01
1.630000e-06	-9.793400e-07	-6.741779e-10	-6.809868e+00	-5.072220e+01
1.640000e-06	-9.333626e-07	-6.628549e-10	-6.490163e+00	-4.997236e+01
1.650000e-06	-8.872444e-07	-6.508721e-10	-6.169479e+00	-4.920711e+01
1.660000e-06	-8.410021e-07	-6.386775e-10	-5.847931e+00	-4.842548e+01
1.670000e-06	-7.947069e-07	-6.261679e-10	-5.526016e+00	-4.762642e+01
1.680000e-06	-7.483246e-07	-6.123313e-10	-5.203496e+00	-4.680873e+01
1.690000e-06	-7.018640e-07	-5.983352e-10	-4.880431e+00	-4.597110e+01
1.700000e-06	-6.555011e-07	-5.822485e-10	-4.558045e+00	-4.511210e+01
1.710000e-06	-6.091454e-07	-5.642150e-10	-4.235710e+00	-4.423020e+01
1.720000e-06	-5.626773e-07	-5.463495e-10	-3.912592e+00	-4.332380e+01
1.730000e-06	-5.161545e-07	-5.303654e-10	-3.589095e+00	-4.239120e+01
1.740000e-06	-4.695793e-07	-5.180654e-10	-3.265233e+00	-4.143068e+01
1.750000e-06	-4.229395e-07	-5.049571e-10	-2.940922e+00	-4.044045e+01
1.760000e-06	-3.762299e-07	-4.889569e-10	-2.616125e+00	-3.941873e+01
1.770000e-06	-3.294986e-07	-4.713590e-10	-2.291178e+00	-3.836375e+01
1.780000e-06	-2.826404e-07	-4.527672e-10	-1.965348e+00	-3.727377e+01
1.790000e-06	-2.356503e-07	-4.366725e-10	-1.638601e+00	-3.614709e+01
1.800000e-06	-1.887762e-07	-4.221132e-10	-1.312661e+00	-3.498213e+01
1.810000e-06	-1.419814e-07	-4.079774e-10	-9.872716e-01	-3.377739e+01
1.820000e-06	-9.514383e-08	-3.945426e-10	-6.615853e-01	-3.253152e+01
1.830000e-06	-4.829372e-08	-3.800456e-10	-3.358117e-01	-3.124331e+01
1.840000e-06	-1.455195e-09	-3.610727e-10	-1.011874e-02	-2.991177e+01
1.850000e-06	4.533439e-08	-3.386360e-10	3.152339e-01	-2.853607e+01
1.860000e-06	9.215185e-08	-3.177428e-10	6.407805e-01	-2.711563e+01
1.870000e-06	1.390137e-07	-2.967989e-10	9.666359e-01	-2.565009e+01
1.880000e-06	1.857751e-07	-2.781745e-10	1.291792e+00	-2.413938e+01
1.890000e-06	2.324708e-07	-2.610305e-10	1.616492e+00	-2.258365e+01
1.900000e-06	2.792021e-07	-2.413475e-10	1.941440e+00	-2.098336e+01
1.910000e-06	3.259228e-07	-2.193312e-10	2.266313e+00	-1.933924e+01
1.920000e-06	3.725436e-07	-1.937703e-10	2.590492e+00	-1.765231e+01
1.930000e-06	4.191076e-07	-1.664575e-10	2.914276e+00	-1.592386e+01
1.940000e-06	4.656957e-07	-1.407158e-10	3.238228e+00	-1.415547e+01
1.950000e-06	5.122403e-07	-1.170452e-10	3.561877e+00	-1.234899e+01
1.960000e-06	5.587435e-07	-9.445943e-11	3.885239e+00	-1.050651e+01
1.970000e-06	6.053004e-07	-7.204465e-11	4.208973e+00	-8.630392e+00
1.980000e-06	6.517930e-07	-4.976491e-11	4.532261e+00	-6.723199e+00
1.990000e-06	6.981479e-07	-2.442281e-11	4.854591e+00	-4.787708e+00
2.000000e-06	7.444054e-07	4.771417e-12	5.176244e+00	-2.826879e+00
2.010000e-06	7.906613e-07	3.336095e-11	5.497885e+00	-8.438241e-01
2.020000e-06	8.369845e-07	6.302647e-11	5.819995e+00	1.158213e+00
2.030000e-06	8.832372e-07	9.518112e-11	6.141615e+00	3.175887e+00
2.040000e-06	9.293762e-07	1.254221e-10	6.462444e+00	5.205784e+00
2.050000e-06	9.753967e-07	1.524223e-10	6.782448e+00	7.244446e+00
2.060000e-06	1.021299e-06	1.771549e-10	7.101628e+00	9.288404e+00
2.070000e-06	1.067111e-06	2.010595e-10	7.420183e+00	1.133421e+01
2.080000e-06	1.112856e-06	2.255665e-10	7.738278e+00	1.337845e+01
2.090000e-06	1.158576e-06	2.523618e-10	8.056188e+00	1.541780e+01
2.100000e-06	1.204272e-06	2.831950e-10	8.373936e+00	1.744903e+01
2.110000e-06	1.249922e-06	3.158365e-10	8.691369e+00	1.946903e+01
2.120000e-06	1.295452e-06	3.470912e-10	9.007962e+00	2.147485e+01
2.130000e-06	1.340843e-06	3.759673e-10	9.323588e+00	2.346368e+01
2.140000e-06	1.386181e-06	3.998676e-10	9.638850e+00	2.543291e+01
2.150000e-06	1.431399e-06	4.197558e-10	9.953270e+00	2.738012e+01
2.160000e-06	1.476465e-06	4.393475e-10	1.026664e+01	2.930310e+01
2.170000e-06	1.521478e-06	4.606962e-10	1.057964e+01	3.119985e+01
2.180000e-06	1.566352e-06	4.874310e-10	1.089167e+01	3.306858e+01
2.190000e-06	1.611126e-06	5.188439e-10	1.120301e+01	3.490774e+01
2.200000e-06	1.655805e-06	5.508999e-10	1.151369e+01	3.671597e+01
2.210000e-06	1.700279e-06	5.811179e-10	1.182294e+01	3.849214e+01
2.220000e-06	1.744578e-06	6.078214e-10	1.213097e+01	4.023532e+01
2.230000e-06	1.788780e-06	6.302746e-10	1.243833e+01	4.194479e+01
2.240000e-06	1.832915e-06	6.485812e-10	1.274522e+01	4.362000e+01
2.250000e-06	1.876919e-06	6.632126e-10	1.305121e+01	4.526058e+01
2.260000e-06	1.920872e-06	6.793535e-10	1.335684e+01	4.686631e+01
2.270000e-06	1.964750e-06	7.018777e-10	1.366195e+01	4.843713e+01
2.280000e-06	2.008471e-06	7.278198e-10	1.396596e+01	4.997309e+01
2.290000e-06	2.052139e-06	7.528779e-10	1.426960e+01	5.147434e+01
2.300000e-06	2.095792e-06	7.774375e-10	1.457315e+01	5.294116e+01
2.310000e-06	2.139392e-06	7.995248e-10	1.487632e+01	5.437387e+01
2.320000e-06	2.182929e-06	8.164334e-10	1.517906e+01	5.577285e+01
2.330000e-06	2.226330e-06	8.303550e-10	1.548085e+01	5.713856e+01
2.340000e-06	2.269552e-06	8.455685e-10	1.578139e+01	5.847144e+01
2.350000e-06	2.312675e-06	8.634999e-10	1.608125e+01	5.977199e+01
2.360000e-06	2.355567e-06	8.828988e-10	1.637950e+01	6.104069e+01
2.370000e-06	2.398186e-06	9.043107e-10	1.667585e+01	6.227801e+01
2.380000e-06	2.440620e-06	9.252633e-10	1.697092e+01	6.348444e+01
2.390000e-06	2.482716e-06	9.420480e-10	1.726364e+01	6.466042e+01
2.400000e-06	2.524430e-06	9.548345e-10	1.755369e+01	6.580637e+01
2.410000e-06	2.565832e-06	9.663752e-10	1.784158e+01	6.692270e+01
2.420000e-06	2.606969e-06	9.785913e-10	1.812763e+01	6.800978e+01
2.430000e-06	2.647762e-06	9.931170e-10	1.841129e+01	6.906795e+01
2.440000e-06	2.688218e-06	1.009604e-09	1.869260e+01	7.009752e+01
2.450000e-06	2.728471e-06	1.026333e-09	1.897250e+01	7.109880e+01
2.460000e-06	2.768518e-06	1.040885e-09	1.925097e+01	7.207205e+01
2.470000e-06	2.808417e-06	1.051591e-09	1.952840e+01	7.301754e+01
2.480000e-06	2.848238e-06	1.062279e-09	1.980530e+01	7.393552e+01
2.490000e-06	2.887928e-06	1.072778e-09	2.008128e+01	7.482623e+01
2.500000e-06	2.927472e-06	1.081403e-09	2.035626e+01	7.568993e+01
2.510000e-06	2.966880e-06	1.094347e-09	2.063028e+01	7.652687e+01
2.520000e-06	3.006130e-06	1.108008e-09	2.090321e+01	7.733735e+01
2.530000e-06	3.045194e-06	1.121056e-09	2.117484e+01	7.812164e+01
2.540000e-06	3.084109e-06	1.134061e-09	2.144544e+01	7.888008e+01
2.550000e-06	3.122804e-06	1.143959e-09	2.171450e+01	7.961302e+01
2.560000e-06	3.161147e-06	1.149866e-09	2.198112e+01	8.032084e+01
2.570000e-06	3.199224e-06	1.153910e-09	2.224589e+01	8.100396e+01
2.580000e-06	3.237054e-06	1.159430e-09	2.250894e+01	8.166284e+01
2.590000e-06	3.274678e-06	1.164934e-09	2.277057e+01	8.229798e+01
2.600000e-06	3.312187e-06	1.173761e-09	2.303138e+01	8.290990e+01
2.610000e-06	3.349544e-06	1.186910e-09	2.329115e+01	8.349916e+01
2.620000e-06	3.386716e-06	1.200735e-09	2.354963e+01	8.406637e+01
2.630000e-06	3.423623e-06	1.209451e-09	2.380626e+01	8.461215e+01
2.640000e-06	3.460200e-06	1.213425e-09	2.406060e+01	8.513713e+01
2.650000e-06	3.496442e-06	1.215126e-09	2.431261e+01	8.564198e+01
2.660000e-06	3.532399e-06	1.215522e-09	2.456264e+01	8.612737e+01
2.670000e-06	3.568193e-06	1.217307e-09	2.481153e+01	8.659399e+01
2.680000e-06	3.603880e-06	1.222179e-09	2.505968e+01	8.704251e+01
2.690000e-06	3.639498e-06	1.230398e-09	2.530735e+01	8.747360e+01
2.700000e-06	3.675005e-06	1.239808e-09	2.555425e+01	8.788792e+01
2.710000e-06	3.710313e-06	1.246082e-09	2.579976e+01	8.828611e+01
2.720000e-06	3.745388e-06	1.250346e-09	2.604366e+01	8.866878e+01
2.730000e-06	3.780134e-06	1.252740e-09	2.628527e+01	8.903652e+01
2.740000e-06	3.814510e-06	1.253687e-09	2.652430e+01	8.938989e+01
2.750000e-06	3.848423e-06	1.256056e-09	2.676011e+01	8.972939e+01
2.760000e-06	3.881807e-06	1.259269e-09	2.699225e+01	9.005551e+01
2.770000e-06	3.914719e-06	1.264199e-09	2.722111e+01	9.036868e+01
2.780000e-06	3.947191e-06	1.270396e-09	2.744690e+01	9.066931e+01
2.790000e-06	3.979320e-06	1.278003e-09	2.767031e+01	9.095774e+01
2.800000e-06	4.011175e-06	1.286552e-09	2.789182e+01	9.123430e+01
2.810000e-06	4.042883e-06	1.293516e-09	2.811230e+01	9.149927e+01
2.820000e-06	4.074462e-06	1.298633e-09	2.833188e+01	9.175290e+01
2.830000e-06	4.105836e-06	1.300437e-09	2.855004e+01	9.199542e+01
2.840000e-06	4.137012e-06	1.300251e-09	2.876683e+01	9.222702e+01
2.850000e-06	4.167941e-06	1.300155e-09	2.898189e+01	9.244789e+01
2.860000e-06	4.198537e-06	1.303836e-09	2.919465e+01	9.265819e+01
2.870000e-06	4.228807e-06	1.312505e-09	2.940513e+01	9.285810e+01
2.880000e-06	4.258716e-06	1.321648e-09	2.961310e+01	9.304776e+01
2.890000e-06	4.288277e-06	1.328413e-09	2.981866e+01	9.322734e+01
2.900000e-06	4.317633e-06	1.332632e-09	3.002279e+01	9.339703e+01
