# Temperatura_=_14.1
# Concentracion g/m^3_=_1620.0
# C_Vs_to_Am_M_A/Vsm_=_65563218390.804596
# pendiente_HvsI_1/m_=_3716.3
# ordenada_HvsI_A/m_=_1297.0
# frecuencia_Hz_=_135105.69955525183

Tiempo_(s)	Campo_(V.s)	Magnetizacion_(V.s)	Campo_(kA/m)	Magnetizacion_(A/m)
0.000000e+00	-5.534854e-06	-1.856666e-09	-3.836429e+01	-1.213002e+02
1.000000e-08	-5.534963e-06	-1.859803e-09	-3.836504e+01	-1.212511e+02
2.000000e-08	-5.534740e-06	-1.864648e-09	-3.836350e+01	-1.212001e+02
3.000000e-08	-5.534079e-06	-1.866788e-09	-3.835892e+01	-1.211474e+02
4.000000e-08	-5.532903e-06	-1.864865e-09	-3.835077e+01	-1.210936e+02
5.000000e-08	-5.531139e-06	-1.854148e-09	-3.833854e+01	-1.210389e+02
6.000000e-08	-5.528763e-06	-1.837710e-09	-3.832207e+01	-1.209837e+02
7.000000e-08	-5.525883e-06	-1.852851e-09	-3.830211e+01	-1.209282e+02
8.000000e-08	-5.522478e-06	-1.907643e-09	-3.827851e+01	-1.208727e+02
9.000000e-08	-5.518524e-06	-1.922270e-09	-3.825110e+01	-1.208174e+02
1.000000e-07	-5.514212e-06	-1.844120e-09	-3.822121e+01	-1.207624e+02
1.100000e-07	-5.509711e-06	-1.800044e-09	-3.819001e+01	-1.207077e+02
1.200000e-07	-5.505080e-06	-1.842887e-09	-3.815791e+01	-1.206535e+02
1.300000e-07	-5.500141e-06	-1.890467e-09	-3.812368e+01	-1.205995e+02
1.400000e-07	-5.494708e-06	-1.827918e-09	-3.808602e+01	-1.205457e+02
1.500000e-07	-5.488899e-06	-1.810838e-09	-3.804576e+01	-1.204918e+02
1.600000e-07	-5.482662e-06	-1.867688e-09	-3.800253e+01	-1.204375e+02
1.700000e-07	-5.475944e-06	-1.900288e-09	-3.795596e+01	-1.203826e+02
1.800000e-07	-5.468856e-06	-1.818976e-09	-3.790683e+01	-1.203265e+02
1.900000e-07	-5.461480e-06	-1.788397e-09	-3.785571e+01	-1.202688e+02
2.000000e-07	-5.453853e-06	-1.840363e-09	-3.780284e+01	-1.202091e+02
2.100000e-07	-5.445955e-06	-1.888437e-09	-3.774809e+01	-1.201466e+02
2.200000e-07	-5.437762e-06	-1.866305e-09	-3.769130e+01	-1.200809e+02
2.300000e-07	-5.429249e-06	-1.842400e-09	-3.763230e+01	-1.200114e+02
2.400000e-07	-5.420238e-06	-1.854374e-09	-3.756984e+01	-1.199374e+02
2.500000e-07	-5.410401e-06	-1.850334e-09	-3.750166e+01	-1.198583e+02
2.600000e-07	-5.399856e-06	-1.835822e-09	-3.742857e+01	-1.197735e+02
2.700000e-07	-5.388937e-06	-1.820783e-09	-3.735288e+01	-1.196824e+02
2.800000e-07	-5.377573e-06	-1.847772e-09	-3.727411e+01	-1.195845e+02
2.900000e-07	-5.365788e-06	-1.848934e-09	-3.719243e+01	-1.194793e+02
3.000000e-07	-5.353718e-06	-1.833322e-09	-3.710876e+01	-1.193663e+02
3.100000e-07	-5.341281e-06	-1.798943e-09	-3.702256e+01	-1.192451e+02
3.200000e-07	-5.328408e-06	-1.813674e-09	-3.693333e+01	-1.191155e+02
3.300000e-07	-5.315067e-06	-1.814777e-09	-3.684086e+01	-1.189771e+02
3.400000e-07	-5.301328e-06	-1.805101e-09	-3.674563e+01	-1.188298e+02
3.500000e-07	-5.287074e-06	-1.783216e-09	-3.664683e+01	-1.186735e+02
3.600000e-07	-5.272364e-06	-1.823184e-09	-3.654487e+01	-1.185083e+02
3.700000e-07	-5.257298e-06	-1.820332e-09	-3.644044e+01	-1.183341e+02
3.800000e-07	-5.241647e-06	-1.786246e-09	-3.633195e+01	-1.181511e+02
3.900000e-07	-5.225439e-06	-1.783676e-09	-3.621962e+01	-1.179595e+02
4.000000e-07	-5.208894e-06	-1.819648e-09	-3.610493e+01	-1.177598e+02
4.100000e-07	-5.192003e-06	-1.778914e-09	-3.598786e+01	-1.175521e+02
4.200000e-07	-5.174754e-06	-1.754808e-09	-3.586830e+01	-1.173369e+02
4.300000e-07	-5.157264e-06	-1.812112e-09	-3.574707e+01	-1.171148e+02
4.400000e-07	-5.139493e-06	-1.818174e-09	-3.562388e+01	-1.168862e+02
4.500000e-07	-5.121206e-06	-1.751869e-09	-3.549713e+01	-1.166516e+02
4.600000e-07	-5.102385e-06	-1.769129e-09	-3.536667e+01	-1.164117e+02
4.700000e-07	-5.083238e-06	-1.823462e-09	-3.523396e+01	-1.161669e+02
4.800000e-07	-5.063825e-06	-1.775641e-09	-3.509940e+01	-1.159179e+02
4.900000e-07	-5.044160e-06	-1.750064e-09	-3.496309e+01	-1.156653e+02
5.000000e-07	-5.024342e-06	-1.791384e-09	-3.482572e+01	-1.154095e+02
5.100000e-07	-5.004318e-06	-1.769421e-09	-3.468693e+01	-1.151510e+02
5.200000e-07	-4.983927e-06	-1.721611e-09	-3.454560e+01	-1.148905e+02
5.300000e-07	-4.963129e-06	-1.773869e-09	-3.440144e+01	-1.146282e+02
5.400000e-07	-4.941974e-06	-1.781435e-09	-3.425480e+01	-1.143646e+02
5.500000e-07	-4.920443e-06	-1.724565e-09	-3.410556e+01	-1.140999e+02
5.600000e-07	-4.898563e-06	-1.743570e-09	-3.395391e+01	-1.138345e+02
5.700000e-07	-4.876405e-06	-1.793855e-09	-3.380032e+01	-1.135686e+02
5.800000e-07	-4.853833e-06	-1.743981e-09	-3.364386e+01	-1.133022e+02
5.900000e-07	-4.830876e-06	-1.721454e-09	-3.348474e+01	-1.130354e+02
6.000000e-07	-4.807691e-06	-1.748098e-09	-3.332404e+01	-1.127683e+02
6.100000e-07	-4.784240e-06	-1.721467e-09	-3.316148e+01	-1.125008e+02
6.200000e-07	-4.760556e-06	-1.685244e-09	-3.299732e+01	-1.122327e+02
6.300000e-07	-4.736711e-06	-1.722515e-09	-3.283204e+01	-1.119640e+02
6.400000e-07	-4.712514e-06	-1.730091e-09	-3.266432e+01	-1.116942e+02
6.500000e-07	-4.687890e-06	-1.709536e-09	-3.249364e+01	-1.114233e+02
6.600000e-07	-4.662851e-06	-1.722317e-09	-3.232009e+01	-1.111509e+02
6.700000e-07	-4.637289e-06	-1.726701e-09	-3.214291e+01	-1.108766e+02
6.800000e-07	-4.611120e-06	-1.689452e-09	-3.196152e+01	-1.106001e+02
6.900000e-07	-4.584400e-06	-1.681347e-09	-3.177631e+01	-1.103211e+02
7.000000e-07	-4.557278e-06	-1.684891e-09	-3.158832e+01	-1.100390e+02
7.100000e-07	-4.529830e-06	-1.667235e-09	-3.139807e+01	-1.097536e+02
7.200000e-07	-4.502177e-06	-1.667808e-09	-3.120640e+01	-1.094645e+02
7.300000e-07	-4.474427e-06	-1.686703e-09	-3.101405e+01	-1.091712e+02
7.400000e-07	-4.446519e-06	-1.678499e-09	-3.082061e+01	-1.088734e+02
7.500000e-07	-4.418333e-06	-1.663582e-09	-3.062524e+01	-1.085707e+02
7.600000e-07	-4.389767e-06	-1.662416e-09	-3.042723e+01	-1.082628e+02
7.700000e-07	-4.360838e-06	-1.647668e-09	-3.022672e+01	-1.079494e+02
7.800000e-07	-4.331597e-06	-1.632970e-09	-3.002404e+01	-1.076303e+02
7.900000e-07	-4.302062e-06	-1.635170e-09	-2.981931e+01	-1.073051e+02
8.000000e-07	-4.272272e-06	-1.632299e-09	-2.961283e+01	-1.069737e+02
8.100000e-07	-4.242249e-06	-1.616852e-09	-2.940473e+01	-1.066358e+02
8.200000e-07	-4.211943e-06	-1.618209e-09	-2.919466e+01	-1.062914e+02
8.300000e-07	-4.181290e-06	-1.618158e-09	-2.898220e+01	-1.059403e+02
8.400000e-07	-4.150304e-06	-1.606682e-09	-2.876742e+01	-1.055823e+02
8.500000e-07	-4.119056e-06	-1.601851e-09	-2.855083e+01	-1.052175e+02
8.600000e-07	-4.087603e-06	-1.606593e-09	-2.833281e+01	-1.048458e+02
8.700000e-07	-4.055948e-06	-1.592217e-09	-2.811340e+01	-1.044671e+02
8.800000e-07	-4.024173e-06	-1.579719e-09	-2.789315e+01	-1.040815e+02
8.900000e-07	-3.992246e-06	-1.575122e-09	-2.767186e+01	-1.036889e+02
9.000000e-07	-3.960011e-06	-1.564148e-09	-2.744843e+01	-1.032896e+02
9.100000e-07	-3.927376e-06	-1.545037e-09	-2.722222e+01	-1.028834e+02
9.200000e-07	-3.894337e-06	-1.543293e-09	-2.699321e+01	-1.024704e+02
9.300000e-07	-3.860918e-06	-1.540677e-09	-2.676157e+01	-1.020508e+02
9.400000e-07	-3.826994e-06	-1.527338e-09	-2.652643e+01	-1.016247e+02
9.500000e-07	-3.792576e-06	-1.517699e-09	-2.628787e+01	-1.011921e+02
9.600000e-07	-3.757781e-06	-1.514052e-09	-2.604669e+01	-1.007532e+02
9.700000e-07	-3.722636e-06	-1.499816e-09	-2.580308e+01	-1.003081e+02
9.800000e-07	-3.687265e-06	-1.489268e-09	-2.555791e+01	-9.985694e+01
9.900000e-07	-3.651736e-06	-1.488143e-09	-2.531165e+01	-9.939989e+01
1.000000e-06	-3.616072e-06	-1.481600e-09	-2.506444e+01	-9.893710e+01
1.010000e-06	-3.580286e-06	-1.467558e-09	-2.481640e+01	-9.846874e+01
1.020000e-06	-3.544327e-06	-1.458878e-09	-2.456715e+01	-9.799499e+01
1.030000e-06	-3.508115e-06	-1.451683e-09	-2.431615e+01	-9.751602e+01
1.040000e-06	-3.471676e-06	-1.441497e-09	-2.406358e+01	-9.703203e+01
1.050000e-06	-3.434974e-06	-1.437028e-09	-2.380918e+01	-9.654323e+01
1.060000e-06	-3.397920e-06	-1.435413e-09	-2.355234e+01	-9.604981e+01
1.070000e-06	-3.360619e-06	-1.428448e-09	-2.329380e+01	-9.555197e+01
1.080000e-06	-3.323080e-06	-1.417467e-09	-2.303360e+01	-9.504994e+01
1.090000e-06	-3.285321e-06	-1.407306e-09	-2.277188e+01	-9.454392e+01
1.100000e-06	-3.247393e-06	-1.392360e-09	-2.250898e+01	-9.403410e+01
1.110000e-06	-3.209242e-06	-1.378046e-09	-2.224454e+01	-9.352068e+01
1.120000e-06	-3.170839e-06	-1.368287e-09	-2.197835e+01	-9.300385e+01
1.130000e-06	-3.132194e-06	-1.362477e-09	-2.171049e+01	-9.248377e+01
1.140000e-06	-3.093341e-06	-1.355104e-09	-2.144119e+01	-9.196059e+01
1.150000e-06	-3.054307e-06	-1.351828e-09	-2.117063e+01	-9.143442e+01
1.160000e-06	-3.015162e-06	-1.348637e-09	-2.089929e+01	-9.090537e+01
1.170000e-06	-2.975871e-06	-1.342297e-09	-2.062695e+01	-9.037348e+01
1.180000e-06	-2.936418e-06	-1.331409e-09	-2.035349e+01	-8.983877e+01
1.190000e-06	-2.896814e-06	-1.320118e-09	-2.007898e+01	-8.930122e+01
1.200000e-06	-2.857080e-06	-1.305556e-09	-1.980357e+01	-8.876075e+01
1.210000e-06	-2.817154e-06	-1.292766e-09	-1.952682e+01	-8.821724e+01
1.220000e-06	-2.777027e-06	-1.284463e-09	-1.924869e+01	-8.767052e+01
1.230000e-06	-2.736796e-06	-1.277903e-09	-1.896983e+01	-8.712035e+01
1.240000e-06	-2.696371e-06	-1.268888e-09	-1.868963e+01	-8.656643e+01
1.250000e-06	-2.655636e-06	-1.261891e-09	-1.840727e+01	-8.600844e+01
1.260000e-06	-2.614677e-06	-1.255943e-09	-1.812337e+01	-8.544597e+01
1.270000e-06	-2.573408e-06	-1.246789e-09	-1.783732e+01	-8.487856e+01
1.280000e-06	-2.531707e-06	-1.234283e-09	-1.754828e+01	-8.430572e+01
1.290000e-06	-2.489733e-06	-1.222072e-09	-1.725734e+01	-8.372689e+01
1.300000e-06	-2.447600e-06	-1.208415e-09	-1.696530e+01	-8.314149e+01
1.310000e-06	-2.405223e-06	-1.193561e-09	-1.667156e+01	-8.254889e+01
1.320000e-06	-2.362481e-06	-1.181025e-09	-1.637530e+01	-8.194844e+01
1.330000e-06	-2.319389e-06	-1.172361e-09	-1.607662e+01	-8.133948e+01
1.340000e-06	-2.276079e-06	-1.165125e-09	-1.577641e+01	-8.072131e+01
1.350000e-06	-2.232647e-06	-1.157805e-09	-1.547537e+01	-8.009326e+01
1.360000e-06	-2.189109e-06	-1.150694e-09	-1.517359e+01	-7.945465e+01
1.370000e-06	-2.145478e-06	-1.140996e-09	-1.487117e+01	-7.880481e+01
1.380000e-06	-2.101770e-06	-1.127352e-09	-1.456821e+01	-7.814310e+01
1.390000e-06	-2.058054e-06	-1.109834e-09	-1.426519e+01	-7.746891e+01
1.400000e-06	-2.014277e-06	-1.091903e-09	-1.396176e+01	-7.678169e+01
1.410000e-06	-1.970358e-06	-1.075894e-09	-1.365734e+01	-7.608090e+01
1.420000e-06	-1.926302e-06	-1.061835e-09	-1.335197e+01	-7.536608e+01
1.430000e-06	-1.882106e-06	-1.051101e-09	-1.304563e+01	-7.463681e+01
1.440000e-06	-1.837777e-06	-1.041168e-09	-1.273837e+01	-7.389275e+01
1.450000e-06	-1.793342e-06	-1.029061e-09	-1.243037e+01	-7.313360e+01
1.460000e-06	-1.748772e-06	-1.017767e-09	-1.212144e+01	-7.235914e+01
1.470000e-06	-1.704095e-06	-1.005301e-09	-1.181177e+01	-7.156919e+01
1.480000e-06	-1.659290e-06	-9.930091e-10	-1.150120e+01	-7.076364e+01
1.490000e-06	-1.614361e-06	-9.780310e-10	-1.118978e+01	-6.994242e+01
1.500000e-06	-1.569327e-06	-9.593004e-10	-1.087764e+01	-6.910550e+01
1.510000e-06	-1.524153e-06	-9.390992e-10	-1.056451e+01	-6.825291e+01
1.520000e-06	-1.478872e-06	-9.241437e-10	-1.025066e+01	-6.738468e+01
1.530000e-06	-1.433490e-06	-9.127035e-10	-9.936093e+00	-6.650084e+01
1.540000e-06	-1.388054e-06	-9.053502e-10	-9.621156e+00	-6.560145e+01
1.550000e-06	-1.342527e-06	-8.972749e-10	-9.305596e+00	-6.468654e+01
1.560000e-06	-1.296859e-06	-8.839250e-10	-8.989047e+00	-6.375612e+01
1.570000e-06	-1.251152e-06	-8.655833e-10	-8.672237e+00	-6.281013e+01
1.580000e-06	-1.205474e-06	-8.447873e-10	-8.355620e+00	-6.184850e+01
1.590000e-06	-1.159669e-06	-8.229835e-10	-8.038128e+00	-6.087105e+01
1.600000e-06	-1.113730e-06	-8.029041e-10	-7.719712e+00	-5.987753e+01
1.610000e-06	-1.067679e-06	-7.874106e-10	-7.400513e+00	-5.886760e+01
1.620000e-06	-1.021496e-06	-7.755408e-10	-7.080400e+00	-5.784081e+01
1.630000e-06	-9.752376e-07	-7.625543e-10	-6.759763e+00	-5.679660e+01
1.640000e-06	-9.289166e-07	-7.492424e-10	-6.438693e+00	-5.573428e+01
1.650000e-06	-8.826069e-07	-7.357007e-10	-6.117702e+00	-5.465305e+01
1.660000e-06	-8.362661e-07	-7.171976e-10	-5.796495e+00	-5.355197e+01
1.670000e-06	-7.898299e-07	-6.949738e-10	-5.474627e+00	-5.242999e+01
1.680000e-06	-7.433604e-07	-6.728182e-10	-5.152529e+00	-5.128592e+01
1.690000e-06	-6.968599e-07	-6.546558e-10	-4.830216e+00	-5.011846e+01
1.700000e-06	-6.502862e-07	-6.368287e-10	-4.507395e+00	-4.892623e+01
1.710000e-06	-6.036133e-07	-6.172071e-10	-4.183886e+00	-4.770773e+01
1.720000e-06	-5.568517e-07	-5.963330e-10	-3.859762e+00	-4.646138e+01
1.730000e-06	-5.100488e-07	-5.766208e-10	-3.535353e+00	-4.518558e+01
1.740000e-06	-4.632260e-07	-5.583080e-10	-3.210805e+00	-4.387864e+01
1.750000e-06	-4.163969e-07	-5.401965e-10	-2.886214e+00	-4.253890e+01
1.760000e-06	-3.694368e-07	-5.202692e-10	-2.560715e+00	-4.116468e+01
1.770000e-06	-3.224026e-07	-5.003613e-10	-2.234702e+00	-3.975435e+01
1.780000e-06	-2.754512e-07	-4.813955e-10	-1.909263e+00	-3.830632e+01
1.790000e-06	-2.285740e-07	-4.620704e-10	-1.584338e+00	-3.681911e+01
1.800000e-06	-1.816639e-07	-4.409463e-10	-1.259185e+00	-3.529134e+01
1.810000e-06	-1.346893e-07	-4.189261e-10	-9.335852e-01	-3.372180e+01
1.820000e-06	-8.772424e-08	-3.964513e-10	-6.080519e-01	-3.210941e+01
1.830000e-06	-4.079971e-08	-3.722706e-10	-2.827992e-01	-3.045331e+01
1.840000e-06	6.100617e-09	-3.473171e-10	4.228582e-02	-2.875285e+01
1.850000e-06	5.304211e-08	-3.258382e-10	3.676561e-01	-2.700761e+01
1.860000e-06	9.998832e-08	-3.062166e-10	6.930591e-01	-2.521744e+01
1.870000e-06	1.469020e-07	-2.843606e-10	1.018237e+00	-2.338246e+01
1.880000e-06	1.938680e-07	-2.589941e-10	1.343777e+00	-2.150307e+01
1.890000e-06	2.408151e-07	-2.303115e-10	1.669186e+00	-1.957995e+01
1.900000e-06	2.877189e-07	-2.000682e-10	1.994295e+00	-1.761410e+01
1.910000e-06	3.347123e-07	-1.703528e-10	2.320025e+00	-1.560682e+01
1.920000e-06	3.816860e-07	-1.400529e-10	2.645619e+00	-1.355968e+01
1.930000e-06	4.284991e-07	-1.103163e-10	2.970099e+00	-1.147456e+01
1.940000e-06	4.752134e-07	-8.256093e-11	3.293894e+00	-9.353628e+00
1.950000e-06	5.219092e-07	-5.548299e-11	3.617562e+00	-7.199302e+00
1.960000e-06	5.685954e-07	-2.764538e-11	3.941163e+00	-5.014253e+00
1.970000e-06	6.151870e-07	1.687415e-12	4.264108e+00	-2.801381e+00
1.980000e-06	6.617179e-07	3.355441e-11	4.586632e+00	-5.637897e-01
1.990000e-06	7.082886e-07	6.891562e-11	4.909432e+00	1.695242e+00
2.000000e-06	7.548067e-07	1.042688e-10	5.231868e+00	3.972284e+00
2.010000e-06	8.012902e-07	1.390405e-10	5.554063e+00	6.263788e+00
2.020000e-06	8.477616e-07	1.745782e-10	5.876175e+00	8.566119e+00
2.030000e-06	8.941383e-07	2.095727e-10	6.197631e+00	1.087559e+01
2.040000e-06	9.404435e-07	2.427728e-10	6.518591e+00	1.318848e+01
2.050000e-06	9.866722e-07	2.747659e-10	6.839020e+00	1.550109e+01
2.060000e-06	1.032807e-06	3.048624e-10	7.158797e+00	1.780977e+01
2.070000e-06	1.078856e-06	3.347348e-10	7.477985e+00	2.011092e+01
2.080000e-06	1.124738e-06	3.662267e-10	7.796008e+00	2.240105e+01
2.090000e-06	1.170527e-06	3.999216e-10	8.113392e+00	2.467681e+01
2.100000e-06	1.216237e-06	4.335412e-10	8.430224e+00	2.693499e+01
2.110000e-06	1.261793e-06	4.665641e-10	8.745996e+00	2.917256e+01
2.120000e-06	1.307329e-06	4.999807e-10	9.061620e+00	3.138669e+01
2.130000e-06	1.352811e-06	5.331486e-10	9.376877e+00	3.357474e+01
2.140000e-06	1.398194e-06	5.637391e-10	9.691440e+00	3.573433e+01
2.150000e-06	1.443488e-06	5.913239e-10	1.000539e+01	3.786327e+01
2.160000e-06	1.488655e-06	6.168117e-10	1.031846e+01	3.995964e+01
2.170000e-06	1.533834e-06	6.407346e-10	1.063162e+01	4.202176e+01
2.180000e-06	1.579030e-06	6.669491e-10	1.094489e+01	4.404817e+01
2.190000e-06	1.624065e-06	6.979245e-10	1.125704e+01	4.603769e+01
2.200000e-06	1.668861e-06	7.314164e-10	1.156755e+01	4.798932e+01
2.210000e-06	1.713499e-06	7.655224e-10	1.187695e+01	4.990232e+01
2.220000e-06	1.758018e-06	7.965859e-10	1.218553e+01	5.177617e+01
2.230000e-06	1.802446e-06	8.209528e-10	1.249348e+01	5.361052e+01
2.240000e-06	1.846748e-06	8.395446e-10	1.280055e+01	5.540523e+01
2.250000e-06	1.890894e-06	8.553155e-10	1.310654e+01	5.716031e+01
2.260000e-06	1.934932e-06	8.720896e-10	1.341179e+01	5.887594e+01
2.270000e-06	1.978851e-06	8.933916e-10	1.371621e+01	6.055242e+01
2.280000e-06	2.022678e-06	9.197435e-10	1.401999e+01	6.219018e+01
2.290000e-06	2.066446e-06	9.483305e-10	1.432336e+01	6.378974e+01
2.300000e-06	2.110188e-06	9.764991e-10	1.462656e+01	6.535169e+01
2.310000e-06	2.153866e-06	1.001037e-09	1.492931e+01	6.687671e+01
2.320000e-06	2.197426e-06	1.019770e-09	1.523124e+01	6.836550e+01
2.330000e-06	2.240856e-06	1.033118e-09	1.553227e+01	6.981881e+01
2.340000e-06	2.284155e-06	1.045558e-09	1.583240e+01	7.123740e+01
2.350000e-06	2.327354e-06	1.061122e-09	1.613182e+01	7.262204e+01
2.360000e-06	2.370346e-06	1.080708e-09	1.642982e+01	7.397348e+01
2.370000e-06	2.412992e-06	1.102385e-09	1.672542e+01	7.529249e+01
2.380000e-06	2.455398e-06	1.123008e-09	1.701935e+01	7.657978e+01
2.390000e-06	2.497612e-06	1.140550e-09	1.731195e+01	7.783605e+01
2.400000e-06	2.539498e-06	1.155724e-09	1.760228e+01	7.906198e+01
2.410000e-06	2.581080e-06	1.169641e-09	1.789050e+01	8.025820e+01
2.420000e-06	2.622391e-06	1.183254e-09	1.817685e+01	8.142532e+01
2.430000e-06	2.663263e-06	1.198059e-09	1.846015e+01	8.256389e+01
2.440000e-06	2.703778e-06	1.214081e-09	1.874097e+01	8.367446e+01
2.450000e-06	2.744176e-06	1.230556e-09	1.902098e+01	8.475751e+01
2.460000e-06	2.784418e-06	1.245282e-09	1.929991e+01	8.581354e+01
2.470000e-06	2.824447e-06	1.256402e-09	1.957738e+01	8.684298e+01
2.480000e-06	2.864353e-06	1.266224e-09	1.985398e+01	8.784627e+01
2.490000e-06	2.904156e-06	1.276005e-09	2.012987e+01	8.882382e+01
2.500000e-06	2.943829e-06	1.287845e-09	2.040486e+01	8.977604e+01
2.510000e-06	2.983328e-06	1.304906e-09	2.067865e+01	9.070332e+01
2.520000e-06	3.022628e-06	1.322509e-09	2.095104e+01	9.160605e+01
2.530000e-06	3.061797e-06	1.339933e-09	2.122254e+01	9.248464e+01
2.540000e-06	3.100798e-06	1.355411e-09	2.149287e+01	9.333949e+01
2.550000e-06	3.139514e-06	1.364505e-09	2.176123e+01	9.417101e+01
2.560000e-06	3.178006e-06	1.367398e-09	2.202803e+01	9.497961e+01
2.570000e-06	3.216272e-06	1.369878e-09	2.229327e+01	9.576574e+01
2.580000e-06	3.254263e-06	1.376864e-09	2.255660e+01	9.652983e+01
2.590000e-06	3.292046e-06	1.387856e-09	2.281849e+01	9.727236e+01
2.600000e-06	3.329594e-06	1.404200e-09	2.307875e+01	9.799380e+01
2.610000e-06	3.366911e-06	1.420879e-09	2.333741e+01	9.869464e+01
2.620000e-06	3.404027e-06	1.435161e-09	2.359468e+01	9.937537e+01
2.630000e-06	3.440888e-06	1.446641e-09	2.385017e+01	1.000365e+02
2.640000e-06	3.477491e-06	1.455766e-09	2.410388e+01	1.006786e+02
2.650000e-06	3.513825e-06	1.461651e-09	2.435573e+01	1.013022e+02
2.660000e-06	3.549899e-06	1.465249e-09	2.460577e+01	1.019077e+02
2.670000e-06	3.585811e-06	1.470743e-09	2.485469e+01	1.024958e+02
2.680000e-06	3.621599e-06	1.478347e-09	2.510275e+01	1.030670e+02
2.690000e-06	3.657243e-06	1.489249e-09	2.534981e+01	1.036218e+02
2.700000e-06	3.692722e-06	1.502280e-09	2.559573e+01	1.041607e+02
2.710000e-06	3.728060e-06	1.513438e-09	2.584068e+01	1.046843e+02
2.720000e-06	3.763216e-06	1.520489e-09	2.608436e+01	1.051931e+02
2.730000e-06	3.798087e-06	1.524392e-09	2.632606e+01	1.056876e+02
2.740000e-06	3.832529e-06	1.527978e-09	2.656480e+01	1.061682e+02
2.750000e-06	3.866501e-06	1.531224e-09	2.680027e+01	1.066356e+02
2.760000e-06	3.900051e-06	1.536729e-09	2.703281e+01	1.070901e+02
2.770000e-06	3.933077e-06	1.546767e-09	2.726173e+01	1.075322e+02
2.780000e-06	3.965614e-06	1.558557e-09	2.748726e+01	1.079624e+02
2.790000e-06	3.997845e-06	1.570087e-09	2.771066e+01	1.083811e+02
2.800000e-06	4.029837e-06	1.578472e-09	2.793242e+01	1.087888e+02
2.810000e-06	4.061642e-06	1.581927e-09	2.815287e+01	1.091858e+02
2.820000e-06	4.093269e-06	1.584029e-09	2.837209e+01	1.095726e+02
2.830000e-06	4.124705e-06	1.590342e-09	2.858998e+01	1.099496e+02
2.840000e-06	4.155954e-06	1.599096e-09	2.880658e+01	1.103171e+02
2.850000e-06	4.186878e-06	1.607435e-09	2.902093e+01	1.106756e+02
2.860000e-06	4.217472e-06	1.614676e-09	2.923299e+01	1.110254e+02
2.870000e-06	4.247689e-06	1.620696e-09	2.944243e+01	1.113668e+02
2.880000e-06	4.277565e-06	1.624273e-09	2.964952e+01	1.117003e+02
2.890000e-06	4.307257e-06	1.629181e-09	2.985532e+01	1.120262e+02
2.900000e-06	4.336723e-06	1.638169e-09	3.005957e+01	1.123448e+02
