# Temperatura_=_-7.0
# Concentracion g/m^3_=_1620.0
# C_Vs_to_Am_M_A/Vsm_=_65563218390.804596
# pendiente_HvsI_1/m_=_3716.3
# ordenada_HvsI_A/m_=_1297.0
# frecuencia_Hz_=_135111.0698152022

Tiempo_(s)	Campo_(V.s)	Magnetizacion_(V.s)	Campo_(kA/m)	Magnetizacion_(A/m)
0.000000e+00	-5.516324e-06	-1.423632e-09	-3.836521e+01	-9.356041e+01
1.000000e-08	-5.516466e-06	-1.421366e-09	-3.836620e+01	-9.346438e+01
2.000000e-08	-5.516321e-06	-1.420415e-09	-3.836519e+01	-9.336875e+01
3.000000e-08	-5.515789e-06	-1.419458e-09	-3.836149e+01	-9.327356e+01
4.000000e-08	-5.514695e-06	-1.417346e-09	-3.835388e+01	-9.317880e+01
5.000000e-08	-5.512958e-06	-1.408443e-09	-3.834180e+01	-9.308445e+01
6.000000e-08	-5.510623e-06	-1.395242e-09	-3.832556e+01	-9.299043e+01
7.000000e-08	-5.507701e-06	-1.409322e-09	-3.830524e+01	-9.289666e+01
8.000000e-08	-5.504295e-06	-1.430169e-09	-3.828155e+01	-9.280302e+01
9.000000e-08	-5.500469e-06	-1.421027e-09	-3.825494e+01	-9.270938e+01
1.000000e-07	-5.496354e-06	-1.426329e-09	-3.822632e+01	-9.261556e+01
1.100000e-07	-5.491999e-06	-1.452354e-09	-3.819604e+01	-9.252141e+01
1.200000e-07	-5.487375e-06	-1.383909e-09	-3.816387e+01	-9.242675e+01
1.300000e-07	-5.482456e-06	-1.354120e-09	-3.812966e+01	-9.233137e+01
1.400000e-07	-5.477153e-06	-1.365808e-09	-3.809279e+01	-9.223511e+01
1.500000e-07	-5.471452e-06	-1.440815e-09	-3.805313e+01	-9.213777e+01
1.600000e-07	-5.465281e-06	-1.405095e-09	-3.801021e+01	-9.203917e+01
1.700000e-07	-5.458769e-06	-1.348799e-09	-3.796492e+01	-9.193915e+01
1.800000e-07	-5.451837e-06	-1.390045e-09	-3.791671e+01	-9.183754e+01
1.900000e-07	-5.444397e-06	-1.459375e-09	-3.786497e+01	-9.173421e+01
2.000000e-07	-5.436747e-06	-1.437294e-09	-3.781177e+01	-9.162903e+01
2.100000e-07	-5.428965e-06	-1.365801e-09	-3.775764e+01	-9.152189e+01
2.200000e-07	-5.420840e-06	-1.380099e-09	-3.770113e+01	-9.141272e+01
2.300000e-07	-5.412262e-06	-1.423766e-09	-3.764148e+01	-9.130145e+01
2.400000e-07	-5.403242e-06	-1.432417e-09	-3.757874e+01	-9.118803e+01
2.500000e-07	-5.393616e-06	-1.377203e-09	-3.751180e+01	-9.107246e+01
2.600000e-07	-5.383332e-06	-1.379897e-09	-3.744027e+01	-9.095473e+01
2.700000e-07	-5.372439e-06	-1.390485e-09	-3.736452e+01	-9.083486e+01
2.800000e-07	-5.361022e-06	-1.392736e-09	-3.728511e+01	-9.071289e+01
2.900000e-07	-5.349290e-06	-1.360832e-09	-3.720351e+01	-9.058887e+01
3.000000e-07	-5.337282e-06	-1.372888e-09	-3.712000e+01	-9.046287e+01
3.100000e-07	-5.324804e-06	-1.374207e-09	-3.703322e+01	-9.033497e+01
3.200000e-07	-5.311871e-06	-1.378774e-09	-3.694327e+01	-9.020526e+01
3.300000e-07	-5.298545e-06	-1.348252e-09	-3.685059e+01	-9.007382e+01
3.400000e-07	-5.284798e-06	-1.353969e-09	-3.675498e+01	-8.994076e+01
3.500000e-07	-5.270691e-06	-1.375583e-09	-3.665687e+01	-8.980617e+01
3.600000e-07	-5.256116e-06	-1.377452e-09	-3.655550e+01	-8.967013e+01
3.700000e-07	-5.240875e-06	-1.334788e-09	-3.644951e+01	-8.953274e+01
3.800000e-07	-5.225159e-06	-1.361827e-09	-3.634020e+01	-8.939408e+01
3.900000e-07	-5.209193e-06	-1.396270e-09	-3.622916e+01	-8.925423e+01
4.000000e-07	-5.192779e-06	-1.348597e-09	-3.611501e+01	-8.911324e+01
4.100000e-07	-5.175872e-06	-1.324955e-09	-3.599742e+01	-8.897116e+01
4.200000e-07	-5.158689e-06	-1.388972e-09	-3.587792e+01	-8.882804e+01
4.300000e-07	-5.141248e-06	-1.377448e-09	-3.575662e+01	-8.868390e+01
4.400000e-07	-5.123460e-06	-1.304260e-09	-3.563290e+01	-8.853876e+01
4.500000e-07	-5.105252e-06	-1.362033e-09	-3.550627e+01	-8.839260e+01
4.600000e-07	-5.086605e-06	-1.406978e-09	-3.537658e+01	-8.824543e+01
4.700000e-07	-5.067556e-06	-1.321657e-09	-3.524410e+01	-8.809721e+01
4.800000e-07	-5.048247e-06	-1.308938e-09	-3.510980e+01	-8.794792e+01
4.900000e-07	-5.028758e-06	-1.390986e-09	-3.497426e+01	-8.779751e+01
5.000000e-07	-5.009059e-06	-1.330634e-09	-3.483726e+01	-8.764593e+01
5.100000e-07	-4.989096e-06	-1.275788e-09	-3.469842e+01	-8.749313e+01
5.200000e-07	-4.968789e-06	-1.352287e-09	-3.455719e+01	-8.733904e+01
5.300000e-07	-4.948106e-06	-1.356080e-09	-3.441334e+01	-8.718361e+01
5.400000e-07	-4.927014e-06	-1.274589e-09	-3.426665e+01	-8.702678e+01
5.500000e-07	-4.905589e-06	-1.332397e-09	-3.411764e+01	-8.686848e+01
5.600000e-07	-4.883872e-06	-1.364769e-09	-3.396660e+01	-8.670865e+01
5.700000e-07	-4.861741e-06	-1.278589e-09	-3.381268e+01	-8.654725e+01
5.800000e-07	-4.839245e-06	-1.279401e-09	-3.365622e+01	-8.638422e+01
5.900000e-07	-4.816490e-06	-1.347593e-09	-3.349797e+01	-8.621952e+01
6.000000e-07	-4.793418e-06	-1.289632e-09	-3.333751e+01	-8.605312e+01
6.100000e-07	-4.769997e-06	-1.259216e-09	-3.317462e+01	-8.588499e+01
6.200000e-07	-4.746360e-06	-1.313708e-09	-3.301022e+01	-8.571510e+01
6.300000e-07	-4.722601e-06	-1.297510e-09	-3.284499e+01	-8.554344e+01
6.400000e-07	-4.698581e-06	-1.253240e-09	-3.267793e+01	-8.537001e+01
6.500000e-07	-4.674158e-06	-1.295737e-09	-3.250807e+01	-8.519480e+01
6.600000e-07	-4.649147e-06	-1.302044e-09	-3.233412e+01	-8.501782e+01
6.700000e-07	-4.623517e-06	-1.261876e-09	-3.215587e+01	-8.483907e+01
6.800000e-07	-4.597391e-06	-1.276122e-09	-3.197417e+01	-8.465856e+01
6.900000e-07	-4.570743e-06	-1.292311e-09	-3.178884e+01	-8.447632e+01
7.000000e-07	-4.543622e-06	-1.260707e-09	-3.160021e+01	-8.429233e+01
7.100000e-07	-4.516250e-06	-1.261520e-09	-3.140985e+01	-8.410663e+01
7.200000e-07	-4.488746e-06	-1.279603e-09	-3.121856e+01	-8.391922e+01
7.300000e-07	-4.461061e-06	-1.260324e-09	-3.102601e+01	-8.373009e+01
7.400000e-07	-4.433195e-06	-1.255269e-09	-3.083221e+01	-8.353926e+01
7.500000e-07	-4.405096e-06	-1.270554e-09	-3.063678e+01	-8.334672e+01
7.600000e-07	-4.376645e-06	-1.261670e-09	-3.043891e+01	-8.315244e+01
7.700000e-07	-4.347790e-06	-1.246663e-09	-3.023823e+01	-8.295642e+01
7.800000e-07	-4.318608e-06	-1.253232e-09	-3.003527e+01	-8.275862e+01
7.900000e-07	-4.289188e-06	-1.245506e-09	-2.983066e+01	-8.255901e+01
8.000000e-07	-4.259536e-06	-1.237025e-09	-2.962443e+01	-8.235755e+01
8.100000e-07	-4.229595e-06	-1.241876e-09	-2.941621e+01	-8.215420e+01
8.200000e-07	-4.199369e-06	-1.241768e-09	-2.920599e+01	-8.194889e+01
8.300000e-07	-4.168856e-06	-1.227110e-09	-2.899377e+01	-8.174156e+01
8.400000e-07	-4.138027e-06	-1.231552e-09	-2.877936e+01	-8.153217e+01
8.500000e-07	-4.106895e-06	-1.237442e-09	-2.856284e+01	-8.132064e+01
8.600000e-07	-4.075493e-06	-1.229240e-09	-2.834445e+01	-8.110690e+01
8.700000e-07	-4.043920e-06	-1.219034e-09	-2.812486e+01	-8.089090e+01
8.800000e-07	-4.012187e-06	-1.220661e-09	-2.790416e+01	-8.067258e+01
8.900000e-07	-3.980224e-06	-1.210627e-09	-2.768187e+01	-8.045187e+01
9.000000e-07	-3.948010e-06	-1.203410e-09	-2.745782e+01	-8.022872e+01
9.100000e-07	-3.915548e-06	-1.207023e-09	-2.723206e+01	-8.000310e+01
9.200000e-07	-3.882688e-06	-1.205522e-09	-2.700352e+01	-7.977497e+01
9.300000e-07	-3.849349e-06	-1.193170e-09	-2.677165e+01	-7.954429e+01
9.400000e-07	-3.815582e-06	-1.191028e-09	-2.653680e+01	-7.931106e+01
9.500000e-07	-3.781300e-06	-1.189877e-09	-2.629838e+01	-7.907527e+01
9.600000e-07	-3.746607e-06	-1.177683e-09	-2.605709e+01	-7.883692e+01
9.700000e-07	-3.711659e-06	-1.171624e-09	-2.581403e+01	-7.859602e+01
9.800000e-07	-3.676453e-06	-1.177922e-09	-2.556918e+01	-7.835259e+01
9.900000e-07	-3.641015e-06	-1.177199e-09	-2.532271e+01	-7.810668e+01
1.000000e-06	-3.605426e-06	-1.173291e-09	-2.507520e+01	-7.785830e+01
1.010000e-06	-3.569724e-06	-1.171323e-09	-2.482690e+01	-7.760751e+01
1.020000e-06	-3.533872e-06	-1.164351e-09	-2.457755e+01	-7.735434e+01
1.030000e-06	-3.497813e-06	-1.151757e-09	-2.432677e+01	-7.709883e+01
1.040000e-06	-3.461500e-06	-1.147600e-09	-2.407422e+01	-7.684103e+01
1.050000e-06	-3.424979e-06	-1.148247e-09	-2.382022e+01	-7.658096e+01
1.060000e-06	-3.388221e-06	-1.141294e-09	-2.356457e+01	-7.631863e+01
1.070000e-06	-3.351139e-06	-1.137341e-09	-2.330667e+01	-7.605407e+01
1.080000e-06	-3.313786e-06	-1.135132e-09	-2.304689e+01	-7.578725e+01
1.090000e-06	-3.276174e-06	-1.127676e-09	-2.278530e+01	-7.551816e+01
1.100000e-06	-3.238361e-06	-1.117194e-09	-2.252232e+01	-7.524672e+01
1.110000e-06	-3.200339e-06	-1.110867e-09	-2.225788e+01	-7.497288e+01
1.120000e-06	-3.162044e-06	-1.102674e-09	-2.199155e+01	-7.469652e+01
1.130000e-06	-3.123459e-06	-1.093666e-09	-2.172319e+01	-7.441751e+01
1.140000e-06	-3.084666e-06	-1.085692e-09	-2.145339e+01	-7.413567e+01
1.150000e-06	-3.045741e-06	-1.084223e-09	-2.118267e+01	-7.385081e+01
1.160000e-06	-3.006645e-06	-1.082625e-09	-2.091077e+01	-7.356270e+01
1.170000e-06	-2.967414e-06	-1.081179e-09	-2.063792e+01	-7.327107e+01
1.180000e-06	-2.928037e-06	-1.077075e-09	-2.036406e+01	-7.297563e+01
1.190000e-06	-2.888537e-06	-1.071413e-09	-2.008934e+01	-7.267603e+01
1.200000e-06	-2.848910e-06	-1.060241e-09	-1.981374e+01	-7.237194e+01
1.210000e-06	-2.809104e-06	-1.048700e-09	-1.953690e+01	-7.206296e+01
1.220000e-06	-2.769157e-06	-1.038694e-09	-1.925907e+01	-7.174868e+01
1.230000e-06	-2.729061e-06	-1.032595e-09	-1.898021e+01	-7.142869e+01
1.240000e-06	-2.688783e-06	-1.029307e-09	-1.870008e+01	-7.110255e+01
1.250000e-06	-2.648228e-06	-1.027794e-09	-1.841803e+01	-7.076979e+01
1.260000e-06	-2.607420e-06	-1.024855e-09	-1.813422e+01	-7.042998e+01
1.270000e-06	-2.566325e-06	-1.017897e-09	-1.784840e+01	-7.008266e+01
1.280000e-06	-2.524799e-06	-1.006967e-09	-1.755960e+01	-6.972738e+01
1.290000e-06	-2.482978e-06	-9.955084e-10	-1.726874e+01	-6.936370e+01
1.300000e-06	-2.441007e-06	-9.840181e-10	-1.697684e+01	-6.899121e+01
1.310000e-06	-2.398806e-06	-9.765712e-10	-1.668333e+01	-6.860950e+01
1.320000e-06	-2.356248e-06	-9.725401e-10	-1.638735e+01	-6.821821e+01
1.330000e-06	-2.313369e-06	-9.678478e-10	-1.608913e+01	-6.781701e+01
1.340000e-06	-2.270283e-06	-9.615924e-10	-1.578948e+01	-6.740557e+01
1.350000e-06	-2.227050e-06	-9.551864e-10	-1.548880e+01	-6.698365e+01
1.360000e-06	-2.183671e-06	-9.483448e-10	-1.518711e+01	-6.655102e+01
1.370000e-06	-2.140127e-06	-9.400056e-10	-1.488427e+01	-6.610748e+01
1.380000e-06	-2.096463e-06	-9.326412e-10	-1.458059e+01	-6.565292e+01
1.390000e-06	-2.052748e-06	-9.243195e-10	-1.427656e+01	-6.518723e+01
1.400000e-06	-2.009001e-06	-9.155415e-10	-1.397230e+01	-6.471036e+01
1.410000e-06	-1.965220e-06	-9.046331e-10	-1.366781e+01	-6.422230e+01
1.420000e-06	-1.921347e-06	-8.939310e-10	-1.336268e+01	-6.372307e+01
1.430000e-06	-1.877382e-06	-8.849134e-10	-1.305692e+01	-6.321274e+01
1.440000e-06	-1.833309e-06	-8.784843e-10	-1.275039e+01	-6.269140e+01
1.450000e-06	-1.789054e-06	-8.725410e-10	-1.244260e+01	-6.215915e+01
1.460000e-06	-1.744672e-06	-8.668457e-10	-1.213393e+01	-6.161612e+01
1.470000e-06	-1.700167e-06	-8.584329e-10	-1.182441e+01	-6.106245e+01
1.480000e-06	-1.655442e-06	-8.487099e-10	-1.151335e+01	-6.049826e+01
1.490000e-06	-1.610521e-06	-8.372502e-10	-1.120094e+01	-5.992370e+01
1.500000e-06	-1.565487e-06	-8.226962e-10	-1.088773e+01	-5.933887e+01
1.510000e-06	-1.520411e-06	-8.093686e-10	-1.057423e+01	-5.874384e+01
1.520000e-06	-1.475290e-06	-8.008349e-10	-1.026042e+01	-5.813868e+01
1.530000e-06	-1.430051e-06	-7.928913e-10	-9.945793e+00	-5.752338e+01
1.540000e-06	-1.384713e-06	-7.851462e-10	-9.630473e+00	-5.689790e+01
1.550000e-06	-1.339320e-06	-7.764354e-10	-9.314773e+00	-5.626212e+01
1.560000e-06	-1.293821e-06	-7.657196e-10	-8.998333e+00	-5.561587e+01
1.570000e-06	-1.248208e-06	-7.503801e-10	-8.681099e+00	-5.495887e+01
1.580000e-06	-1.202554e-06	-7.369638e-10	-8.363587e+00	-5.429079e+01
1.590000e-06	-1.156816e-06	-7.255726e-10	-8.045481e+00	-5.361120e+01
1.600000e-06	-1.111005e-06	-7.128777e-10	-7.726874e+00	-5.291956e+01
1.610000e-06	-1.065118e-06	-7.016261e-10	-7.407735e+00	-5.221525e+01
1.620000e-06	-1.019090e-06	-6.910885e-10	-7.087621e+00	-5.149756e+01
1.630000e-06	-9.730297e-07	-6.810129e-10	-6.767277e+00	-5.076565e+01
1.640000e-06	-9.269055e-07	-6.715070e-10	-6.446490e+00	-5.001861e+01
1.650000e-06	-8.806606e-07	-6.623069e-10	-6.124863e+00	-4.925541e+01
1.660000e-06	-8.343640e-07	-6.516963e-10	-5.802877e+00	-4.847496e+01
1.670000e-06	-7.880277e-07	-6.388978e-10	-5.480615e+00	-4.767605e+01
1.680000e-06	-7.416960e-07	-6.233847e-10	-5.158385e+00	-4.685741e+01
1.690000e-06	-6.953343e-07	-6.078146e-10	-4.835947e+00	-4.601770e+01
1.700000e-06	-6.488558e-07	-5.907262e-10	-4.512696e+00	-4.515551e+01
1.710000e-06	-6.022741e-07	-5.733860e-10	-4.188727e+00	-4.426938e+01
1.720000e-06	-5.555975e-07	-5.577204e-10	-3.864098e+00	-4.335783e+01
1.730000e-06	-5.088716e-07	-5.434091e-10	-3.539126e+00	-4.241933e+01
1.740000e-06	-4.622029e-07	-5.298339e-10	-3.214553e+00	-4.145235e+01
1.750000e-06	-4.155517e-07	-5.148977e-10	-2.890100e+00	-4.045538e+01
1.760000e-06	-3.688560e-07	-4.964809e-10	-2.565338e+00	-3.942691e+01
1.770000e-06	-3.221321e-07	-4.775970e-10	-2.240381e+00	-3.836549e+01
1.780000e-06	-2.754176e-07	-4.605847e-10	-1.915488e+00	-3.726969e+01
1.790000e-06	-2.286045e-07	-4.457610e-10	-1.589910e+00	-3.613819e+01
1.800000e-06	-1.817401e-07	-4.306952e-10	-1.263975e+00	-3.496973e+01
1.810000e-06	-1.349485e-07	-4.137710e-10	-9.385466e-01	-3.376316e+01
1.820000e-06	-8.813206e-08	-3.950571e-10	-6.129453e-01	-3.251745e+01
1.830000e-06	-4.134412e-08	-3.747857e-10	-2.875422e-01	-3.123169e+01
1.840000e-06	5.367584e-09	-3.529469e-10	3.733075e-02	-2.990515e+01
1.850000e-06	5.213299e-08	-3.317554e-10	3.625772e-01	-2.853722e+01
1.860000e-06	9.898001e-08	-3.130400e-10	6.883912e-01	-2.712750e+01
1.870000e-06	1.457930e-07	-2.951724e-10	1.013968e+00	-2.567573e+01
1.880000e-06	1.926037e-07	-2.763722e-10	1.339530e+00	-2.418189e+01
1.890000e-06	2.393982e-07	-2.552152e-10	1.664979e+00	-2.264612e+01
1.900000e-06	2.861379e-07	-2.309354e-10	1.990046e+00	-2.106879e+01
1.910000e-06	3.328957e-07	-2.047055e-10	2.315240e+00	-1.945045e+01
1.920000e-06	3.796428e-07	-1.780619e-10	2.640359e+00	-1.779190e+01
1.930000e-06	4.262809e-07	-1.542545e-10	2.964720e+00	-1.609412e+01
1.940000e-06	4.728586e-07	-1.337991e-10	3.288661e+00	-1.435832e+01
1.950000e-06	5.194204e-07	-1.126140e-10	3.612491e+00	-1.258590e+01
1.960000e-06	5.659922e-07	-8.938273e-11	3.936391e+00	-1.077848e+01
1.970000e-06	6.125495e-07	-6.459567e-11	4.260191e+00	-8.937866e+00
1.980000e-06	6.590084e-07	-3.861175e-11	4.583305e+00	-7.066042e+00
1.990000e-06	7.054112e-07	-1.042207e-11	4.906030e+00	-5.165181e+00
2.000000e-06	7.517988e-07	1.913254e-11	5.228649e+00	-3.237615e+00
2.010000e-06	7.981213e-07	4.821772e-11	5.550814e+00	-1.285827e+00
2.020000e-06	8.443002e-07	7.620865e-11	5.871982e+00	6.875623e-01
2.030000e-06	8.903918e-07	1.033306e-10	6.192543e+00	2.679813e+00
2.040000e-06	9.364313e-07	1.297251e-10	6.512740e+00	4.688079e+00
2.050000e-06	9.824148e-07	1.559541e-10	6.832549e+00	6.709431e+00
2.060000e-06	1.028414e-06	1.829395e-10	7.152464e+00	8.740870e+00
2.070000e-06	1.074375e-06	2.104975e-10	7.472121e+00	1.077935e+01
2.080000e-06	1.120241e-06	2.389238e-10	7.791107e+00	1.282178e+01
2.090000e-06	1.165973e-06	2.689096e-10	8.109170e+00	1.486508e+01
2.100000e-06	1.211612e-06	2.985480e-10	8.426580e+00	1.690617e+01
2.110000e-06	1.257191e-06	3.275942e-10	8.743574e+00	1.894199e+01
2.120000e-06	1.302693e-06	3.553657e-10	9.060035e+00	2.096953e+01
2.130000e-06	1.348141e-06	3.822577e-10	9.376121e+00	2.298584e+01
2.140000e-06	1.393515e-06	4.076456e-10	9.691688e+00	2.498805e+01
2.150000e-06	1.438799e-06	4.312364e-10	1.000663e+01	2.697340e+01
2.160000e-06	1.483939e-06	4.549473e-10	1.032057e+01	2.893921e+01
2.170000e-06	1.528955e-06	4.789948e-10	1.063365e+01	3.088296e+01
2.180000e-06	1.573838e-06	5.046530e-10	1.094581e+01	3.280224e+01
2.190000e-06	1.618610e-06	5.316530e-10	1.125719e+01	3.469480e+01
2.200000e-06	1.663283e-06	5.592633e-10	1.156789e+01	3.655856e+01
2.210000e-06	1.707821e-06	5.870581e-10	1.187764e+01	3.839159e+01
2.220000e-06	1.752269e-06	6.127702e-10	1.218677e+01	4.019214e+01
2.230000e-06	1.796584e-06	6.350982e-10	1.249497e+01	4.195864e+01
2.240000e-06	1.840744e-06	6.548275e-10	1.280210e+01	4.368969e+01
2.250000e-06	1.884797e-06	6.728750e-10	1.310848e+01	4.538409e+01
2.260000e-06	1.928750e-06	6.913197e-10	1.341417e+01	4.704081e+01
2.270000e-06	1.972605e-06	7.116460e-10	1.371917e+01	4.865901e+01
2.280000e-06	2.016359e-06	7.326203e-10	1.402347e+01	5.023804e+01
2.290000e-06	2.060054e-06	7.552463e-10	1.432737e+01	5.177739e+01
2.300000e-06	2.103715e-06	7.784208e-10	1.463102e+01	5.327676e+01
2.310000e-06	2.147298e-06	8.009579e-10	1.493414e+01	5.473598e+01
2.320000e-06	2.190781e-06	8.204691e-10	1.523656e+01	5.615506e+01
2.330000e-06	2.234140e-06	8.352030e-10	1.553811e+01	5.753414e+01
2.340000e-06	2.277441e-06	8.486585e-10	1.583926e+01	5.887350e+01
2.350000e-06	2.320600e-06	8.634054e-10	1.613943e+01	6.017354e+01
2.360000e-06	2.363426e-06	8.812997e-10	1.643728e+01	6.143479e+01
2.370000e-06	2.405912e-06	9.007237e-10	1.673276e+01	6.265787e+01
2.380000e-06	2.448048e-06	9.217563e-10	1.702581e+01	6.384349e+01
2.390000e-06	2.489869e-06	9.405633e-10	1.731666e+01	6.499245e+01
2.400000e-06	2.531391e-06	9.558717e-10	1.760545e+01	6.610560e+01
2.410000e-06	2.572613e-06	9.668988e-10	1.789214e+01	6.718386e+01
2.420000e-06	2.613589e-06	9.758964e-10	1.817712e+01	6.822819e+01
2.430000e-06	2.654230e-06	9.870254e-10	1.845977e+01	6.923959e+01
2.440000e-06	2.694575e-06	1.001762e-09	1.874036e+01	7.021907e+01
2.450000e-06	2.734724e-06	1.019021e-09	1.901960e+01	7.116766e+01
2.460000e-06	2.774746e-06	1.035996e-09	1.929795e+01	7.208639e+01
2.470000e-06	2.814667e-06	1.051197e-09	1.957559e+01	7.297629e+01
2.480000e-06	2.854436e-06	1.064394e-09	1.985217e+01	7.383837e+01
2.490000e-06	2.894085e-06	1.073466e-09	2.012793e+01	7.467362e+01
2.500000e-06	2.933587e-06	1.080569e-09	2.040266e+01	7.548302e+01
2.510000e-06	2.972934e-06	1.088694e-09	2.067632e+01	7.626749e+01
2.520000e-06	3.012173e-06	1.096699e-09	2.094922e+01	7.702794e+01
2.530000e-06	3.051208e-06	1.108682e-09	2.122070e+01	7.776523e+01
2.540000e-06	3.089953e-06	1.125395e-09	2.149016e+01	7.848017e+01
2.550000e-06	3.128467e-06	1.139680e-09	2.175802e+01	7.917356e+01
2.560000e-06	3.166779e-06	1.147519e-09	2.202447e+01	7.984610e+01
2.570000e-06	3.204863e-06	1.153181e-09	2.228934e+01	8.049850e+01
2.580000e-06	3.242777e-06	1.157032e-09	2.255303e+01	8.113140e+01
2.590000e-06	3.280489e-06	1.160580e-09	2.281531e+01	8.174539e+01
2.600000e-06	3.317900e-06	1.168272e-09	2.307550e+01	8.234103e+01
2.610000e-06	3.355124e-06	1.182675e-09	2.333439e+01	8.291883e+01
2.620000e-06	3.392203e-06	1.199036e-09	2.359226e+01	8.347928e+01
2.630000e-06	3.429045e-06	1.211463e-09	2.384850e+01	8.402282e+01
2.640000e-06	3.465620e-06	1.218127e-09	2.410287e+01	8.454985e+01
2.650000e-06	3.501889e-06	1.220783e-09	2.435511e+01	8.506075e+01
2.660000e-06	3.537882e-06	1.221307e-09	2.460544e+01	8.555588e+01
2.670000e-06	3.573700e-06	1.222267e-09	2.485455e+01	8.603555e+01
2.680000e-06	3.609442e-06	1.226572e-09	2.510313e+01	8.650007e+01
2.690000e-06	3.645094e-06	1.235888e-09	2.535109e+01	8.694973e+01
2.700000e-06	3.680599e-06	1.246362e-09	2.559802e+01	8.738479e+01
2.710000e-06	3.715871e-06	1.253759e-09	2.584333e+01	8.780551e+01
2.720000e-06	3.750842e-06	1.257687e-09	2.608655e+01	8.821211e+01
2.730000e-06	3.785543e-06	1.258494e-09	2.632789e+01	8.860484e+01
2.740000e-06	3.819808e-06	1.257574e-09	2.656620e+01	8.898391e+01
2.750000e-06	3.853574e-06	1.258340e-09	2.680104e+01	8.934953e+01
2.760000e-06	3.886991e-06	1.262442e-09	2.703344e+01	8.970191e+01
2.770000e-06	3.919928e-06	1.269518e-09	2.726251e+01	9.004126e+01
2.780000e-06	3.952339e-06	1.278647e-09	2.748793e+01	9.036777e+01
2.790000e-06	3.984391e-06	1.287589e-09	2.771085e+01	9.068164e+01
2.800000e-06	4.016173e-06	1.294206e-09	2.793188e+01	9.098306e+01
2.810000e-06	4.047789e-06	1.295559e-09	2.815177e+01	9.127223e+01
2.820000e-06	4.079301e-06	1.295097e-09	2.837093e+01	9.154934e+01
2.830000e-06	4.110690e-06	1.296413e-09	2.858923e+01	9.181458e+01
2.840000e-06	4.141832e-06	1.299010e-09	2.880583e+01	9.206815e+01
2.850000e-06	4.172603e-06	1.304314e-09	2.901983e+01	9.231024e+01
2.860000e-06	4.203017e-06	1.312519e-09	2.923135e+01	9.254105e+01
2.870000e-06	4.233125e-06	1.320214e-09	2.944075e+01	9.276079e+01
2.880000e-06	4.262957e-06	1.324304e-09	2.964823e+01	9.296965e+01
2.890000e-06	4.292605e-06	1.326492e-09	2.985443e+01	9.316785e+01
2.900000e-06	4.322059e-06	1.327878e-09	3.005928e+01	9.335560e+01
