# Temperatura_=_7.15
# Concentracion g/m^3_=_1620.0
# C_Vs_to_Am_M_A/Vsm_=_65563218390.804596
# pendiente_HvsI_1/m_=_3716.3
# ordenada_HvsI_A/m_=_1297.0
# frecuencia_Hz_=_135111.45061927522

Tiempo_(s)	Campo_(V.s)	Magnetizacion_(V.s)	Campo_(kA/m)	Magnetizacion_(A/m)
0.000000e+00	-5.507166e-06	-1.613937e-09	-3.836774e+01	-1.050108e+02
1.000000e-08	-5.507191e-06	-1.612649e-09	-3.836791e+01	-1.049678e+02
2.000000e-08	-5.506962e-06	-1.613838e-09	-3.836632e+01	-1.049229e+02
3.000000e-08	-5.506345e-06	-1.614042e-09	-3.836202e+01	-1.048762e+02
4.000000e-08	-5.505225e-06	-1.610962e-09	-3.835422e+01	-1.048276e+02
5.000000e-08	-5.503559e-06	-1.604216e-09	-3.834261e+01	-1.047771e+02
6.000000e-08	-5.501319e-06	-1.595496e-09	-3.832700e+01	-1.047248e+02
7.000000e-08	-5.498509e-06	-1.603216e-09	-3.830742e+01	-1.046704e+02
8.000000e-08	-5.495181e-06	-1.626295e-09	-3.828424e+01	-1.046140e+02
9.000000e-08	-5.491386e-06	-1.626041e-09	-3.825780e+01	-1.045556e+02
1.000000e-07	-5.487231e-06	-1.616265e-09	-3.822885e+01	-1.044948e+02
1.100000e-07	-5.482903e-06	-1.610196e-09	-3.819870e+01	-1.044318e+02
1.200000e-07	-5.478334e-06	-1.588991e-09	-3.816687e+01	-1.043663e+02
1.300000e-07	-5.473451e-06	-1.539771e-09	-3.813285e+01	-1.042982e+02
1.400000e-07	-5.468201e-06	-1.573459e-09	-3.809628e+01	-1.042274e+02
1.500000e-07	-5.462465e-06	-1.619708e-09	-3.805631e+01	-1.041536e+02
1.600000e-07	-5.456326e-06	-1.633930e-09	-3.801354e+01	-1.040766e+02
1.700000e-07	-5.449766e-06	-1.555435e-09	-3.796784e+01	-1.039964e+02
1.800000e-07	-5.442798e-06	-1.533691e-09	-3.791930e+01	-1.039126e+02
1.900000e-07	-5.435458e-06	-1.563879e-09	-3.786816e+01	-1.038251e+02
2.000000e-07	-5.427804e-06	-1.587381e-09	-3.781483e+01	-1.037337e+02
2.100000e-07	-5.419999e-06	-1.578589e-09	-3.776046e+01	-1.036382e+02
2.200000e-07	-5.412049e-06	-1.575767e-09	-3.770507e+01	-1.035383e+02
2.300000e-07	-5.403747e-06	-1.600892e-09	-3.764723e+01	-1.034339e+02
2.400000e-07	-5.394911e-06	-1.597660e-09	-3.758567e+01	-1.033248e+02
2.500000e-07	-5.385394e-06	-1.578017e-09	-3.751937e+01	-1.032108e+02
2.600000e-07	-5.375165e-06	-1.545973e-09	-3.744811e+01	-1.030918e+02
2.700000e-07	-5.364310e-06	-1.561656e-09	-3.737248e+01	-1.029677e+02
2.800000e-07	-5.352958e-06	-1.570485e-09	-3.729339e+01	-1.028384e+02
2.900000e-07	-5.341205e-06	-1.576792e-09	-3.721151e+01	-1.027038e+02
3.000000e-07	-5.329111e-06	-1.550563e-09	-3.712725e+01	-1.025639e+02
3.100000e-07	-5.316682e-06	-1.559946e-09	-3.704066e+01	-1.024186e+02
3.200000e-07	-5.303826e-06	-1.552774e-09	-3.695109e+01	-1.022681e+02
3.300000e-07	-5.290524e-06	-1.540246e-09	-3.685842e+01	-1.021125e+02
3.400000e-07	-5.276818e-06	-1.510241e-09	-3.676293e+01	-1.019517e+02
3.500000e-07	-5.262813e-06	-1.542426e-09	-3.666536e+01	-1.017860e+02
3.600000e-07	-5.248371e-06	-1.560460e-09	-3.656475e+01	-1.016156e+02
3.700000e-07	-5.233427e-06	-1.550977e-09	-3.646064e+01	-1.014408e+02
3.800000e-07	-5.218041e-06	-1.535246e-09	-3.635344e+01	-1.012617e+02
3.900000e-07	-5.202086e-06	-1.549482e-09	-3.624229e+01	-1.010786e+02
4.000000e-07	-5.185653e-06	-1.518066e-09	-3.612780e+01	-1.008920e+02
4.100000e-07	-5.168882e-06	-1.497562e-09	-3.601096e+01	-1.007020e+02
4.200000e-07	-5.151716e-06	-1.537274e-09	-3.589136e+01	-1.005092e+02
4.300000e-07	-5.134300e-06	-1.547169e-09	-3.577003e+01	-1.003139e+02
4.400000e-07	-5.116550e-06	-1.502304e-09	-3.564637e+01	-1.001165e+02
4.500000e-07	-5.098366e-06	-1.514289e-09	-3.551968e+01	-9.991734e+01
4.600000e-07	-5.079818e-06	-1.553926e-09	-3.539046e+01	-9.971687e+01
4.700000e-07	-5.060827e-06	-1.502698e-09	-3.525815e+01	-9.951547e+01
4.800000e-07	-5.041444e-06	-1.482583e-09	-3.512311e+01	-9.931352e+01
4.900000e-07	-5.021871e-06	-1.527861e-09	-3.498675e+01	-9.911139e+01
5.000000e-07	-5.002137e-06	-1.509855e-09	-3.484927e+01	-9.890939e+01
5.100000e-07	-4.982105e-06	-1.449550e-09	-3.470970e+01	-9.870785e+01
5.200000e-07	-4.961812e-06	-1.499171e-09	-3.456833e+01	-9.850704e+01
5.300000e-07	-4.941247e-06	-1.522594e-09	-3.442505e+01	-9.830719e+01
5.400000e-07	-4.920326e-06	-1.466995e-09	-3.427930e+01	-9.810849e+01
5.500000e-07	-4.899012e-06	-1.470076e-09	-3.413081e+01	-9.791110e+01
5.600000e-07	-4.877329e-06	-1.522485e-09	-3.397975e+01	-9.771511e+01
5.700000e-07	-4.855307e-06	-1.477894e-09	-3.382632e+01	-9.752057e+01
5.800000e-07	-4.832837e-06	-1.455736e-09	-3.366978e+01	-9.732750e+01
5.900000e-07	-4.809979e-06	-1.495692e-09	-3.351052e+01	-9.713583e+01
6.000000e-07	-4.786848e-06	-1.481148e-09	-3.334937e+01	-9.694547e+01
6.100000e-07	-4.763469e-06	-1.432161e-09	-3.318650e+01	-9.675628e+01
6.200000e-07	-4.739884e-06	-1.463119e-09	-3.302218e+01	-9.656807e+01
6.300000e-07	-4.716062e-06	-1.473375e-09	-3.285621e+01	-9.638059e+01
6.400000e-07	-4.691980e-06	-1.440522e-09	-3.268844e+01	-9.619358e+01
6.500000e-07	-4.667639e-06	-1.450711e-09	-3.251886e+01	-9.600673e+01
6.600000e-07	-4.642849e-06	-1.472875e-09	-3.234615e+01	-9.581970e+01
6.700000e-07	-4.617496e-06	-1.439850e-09	-3.216952e+01	-9.563211e+01
6.800000e-07	-4.591667e-06	-1.429919e-09	-3.198957e+01	-9.544358e+01
6.900000e-07	-4.565296e-06	-1.447037e-09	-3.180585e+01	-9.525371e+01
7.000000e-07	-4.538401e-06	-1.428147e-09	-3.161848e+01	-9.506208e+01
7.100000e-07	-4.511117e-06	-1.412182e-09	-3.142839e+01	-9.486827e+01
7.200000e-07	-4.483543e-06	-1.435647e-09	-3.123629e+01	-9.467186e+01
7.300000e-07	-4.455774e-06	-1.439245e-09	-3.104282e+01	-9.447244e+01
7.400000e-07	-4.427801e-06	-1.416457e-09	-3.084794e+01	-9.426960e+01
7.500000e-07	-4.399660e-06	-1.414992e-09	-3.065188e+01	-9.406296e+01
7.600000e-07	-4.371326e-06	-1.412452e-09	-3.045448e+01	-9.385214e+01
7.700000e-07	-4.342653e-06	-1.397244e-09	-3.025472e+01	-9.363679e+01
7.800000e-07	-4.313589e-06	-1.394766e-09	-3.005224e+01	-9.341660e+01
7.900000e-07	-4.284205e-06	-1.402682e-09	-2.984752e+01	-9.319127e+01
8.000000e-07	-4.254565e-06	-1.390651e-09	-2.964103e+01	-9.296054e+01
8.100000e-07	-4.224672e-06	-1.384761e-09	-2.943276e+01	-9.272417e+01
8.200000e-07	-4.194522e-06	-1.383873e-09	-2.922271e+01	-9.248197e+01
8.300000e-07	-4.163983e-06	-1.372506e-09	-2.900995e+01	-9.223378e+01
8.400000e-07	-4.133063e-06	-1.360946e-09	-2.879453e+01	-9.197945e+01
8.500000e-07	-4.101927e-06	-1.370455e-09	-2.857762e+01	-9.171890e+01
8.600000e-07	-4.070582e-06	-1.371452e-09	-2.835924e+01	-9.145206e+01
8.700000e-07	-4.039031e-06	-1.364577e-09	-2.813942e+01	-9.117889e+01
8.800000e-07	-4.007338e-06	-1.361531e-09	-2.791863e+01	-9.089938e+01
8.900000e-07	-3.975490e-06	-1.358384e-09	-2.769674e+01	-9.061356e+01
9.000000e-07	-3.943372e-06	-1.337693e-09	-2.747298e+01	-9.032148e+01
9.100000e-07	-3.911018e-06	-1.327829e-09	-2.724758e+01	-9.002319e+01
9.200000e-07	-3.878383e-06	-1.326969e-09	-2.702021e+01	-8.971881e+01
9.300000e-07	-3.845292e-06	-1.322268e-09	-2.678967e+01	-8.940842e+01
9.400000e-07	-3.811749e-06	-1.318507e-09	-2.655598e+01	-8.909217e+01
9.500000e-07	-3.777700e-06	-1.324512e-09	-2.631876e+01	-8.877018e+01
9.600000e-07	-3.743263e-06	-1.318164e-09	-2.607885e+01	-8.844262e+01
9.700000e-07	-3.708430e-06	-1.304743e-09	-2.583617e+01	-8.810964e+01
9.800000e-07	-3.673133e-06	-1.298899e-09	-2.559026e+01	-8.777141e+01
9.900000e-07	-3.637609e-06	-1.292936e-09	-2.534277e+01	-8.742811e+01
1.000000e-06	-3.601944e-06	-1.279830e-09	-2.509430e+01	-8.707992e+01
1.010000e-06	-3.566130e-06	-1.272378e-09	-2.484478e+01	-8.672703e+01
1.020000e-06	-3.530229e-06	-1.272563e-09	-2.459466e+01	-8.636961e+01
1.030000e-06	-3.494267e-06	-1.266288e-09	-2.434413e+01	-8.600786e+01
1.040000e-06	-3.458116e-06	-1.261108e-09	-2.409226e+01	-8.564195e+01
1.050000e-06	-3.421726e-06	-1.262754e-09	-2.383874e+01	-8.527205e+01
1.060000e-06	-3.385053e-06	-1.257853e-09	-2.358324e+01	-8.489835e+01
1.070000e-06	-3.348001e-06	-1.244637e-09	-2.332511e+01	-8.452101e+01
1.080000e-06	-3.310644e-06	-1.237822e-09	-2.306485e+01	-8.414019e+01
1.090000e-06	-3.273111e-06	-1.229984e-09	-2.280335e+01	-8.375603e+01
1.100000e-06	-3.235426e-06	-1.220333e-09	-2.254081e+01	-8.336867e+01
1.110000e-06	-3.197482e-06	-1.213159e-09	-2.227646e+01	-8.297823e+01
1.120000e-06	-3.159245e-06	-1.209961e-09	-2.201007e+01	-8.258482e+01
1.130000e-06	-3.120786e-06	-1.201017e-09	-2.174213e+01	-8.218852e+01
1.140000e-06	-3.082117e-06	-1.195732e-09	-2.147272e+01	-8.178939e+01
1.150000e-06	-3.043245e-06	-1.194676e-09	-2.120191e+01	-8.138748e+01
1.160000e-06	-3.004210e-06	-1.189929e-09	-2.092996e+01	-8.098280e+01
1.170000e-06	-2.964956e-06	-1.179870e-09	-2.065648e+01	-8.057535e+01
1.180000e-06	-2.925523e-06	-1.175095e-09	-2.038175e+01	-8.016507e+01
1.190000e-06	-2.885974e-06	-1.168072e-09	-2.010622e+01	-7.975190e+01
1.200000e-06	-2.846271e-06	-1.157171e-09	-1.982962e+01	-7.933571e+01
1.210000e-06	-2.806442e-06	-1.147812e-09	-1.955213e+01	-7.891636e+01
1.220000e-06	-2.766464e-06	-1.141247e-09	-1.927361e+01	-7.849367e+01
1.230000e-06	-2.726348e-06	-1.130208e-09	-1.899412e+01	-7.806741e+01
1.240000e-06	-2.686109e-06	-1.120879e-09	-1.871379e+01	-7.763731e+01
1.250000e-06	-2.645673e-06	-1.116536e-09	-1.843207e+01	-7.720307e+01
1.260000e-06	-2.604934e-06	-1.112648e-09	-1.814825e+01	-7.676434e+01
1.270000e-06	-2.563913e-06	-1.104952e-09	-1.786246e+01	-7.632074e+01
1.280000e-06	-2.522674e-06	-1.096222e-09	-1.757516e+01	-7.587185e+01
1.290000e-06	-2.481173e-06	-1.087893e-09	-1.728602e+01	-7.541722e+01
1.300000e-06	-2.439435e-06	-1.076457e-09	-1.699524e+01	-7.495635e+01
1.310000e-06	-2.397440e-06	-1.064619e-09	-1.670267e+01	-7.448873e+01
1.320000e-06	-2.355119e-06	-1.054058e-09	-1.640782e+01	-7.401384e+01
1.330000e-06	-2.312411e-06	-1.042124e-09	-1.611028e+01	-7.353111e+01
1.340000e-06	-2.269417e-06	-1.030453e-09	-1.581074e+01	-7.303998e+01
1.350000e-06	-2.226163e-06	-1.023262e-09	-1.550940e+01	-7.253987e+01
1.360000e-06	-2.182687e-06	-1.019299e-09	-1.520651e+01	-7.203020e+01
1.370000e-06	-2.139201e-06	-1.015716e-09	-1.490355e+01	-7.151042e+01
1.380000e-06	-2.095654e-06	-1.008944e-09	-1.460016e+01	-7.097994e+01
1.390000e-06	-2.051954e-06	-9.959344e-10	-1.429571e+01	-7.043824e+01
1.400000e-06	-2.008172e-06	-9.770937e-10	-1.399069e+01	-6.988479e+01
1.410000e-06	-1.964364e-06	-9.609260e-10	-1.368548e+01	-6.931911e+01
1.420000e-06	-1.920442e-06	-9.492021e-10	-1.337948e+01	-6.874072e+01
1.430000e-06	-1.876443e-06	-9.424149e-10	-1.307295e+01	-6.814922e+01
1.440000e-06	-1.832419e-06	-9.381139e-10	-1.276624e+01	-6.754423e+01
1.450000e-06	-1.788301e-06	-9.339619e-10	-1.245887e+01	-6.692540e+01
1.460000e-06	-1.743997e-06	-9.247960e-10	-1.215021e+01	-6.629244e+01
1.470000e-06	-1.699558e-06	-9.120701e-10	-1.184061e+01	-6.564511e+01
1.480000e-06	-1.655082e-06	-8.989207e-10	-1.153075e+01	-6.498321e+01
1.490000e-06	-1.610515e-06	-8.869532e-10	-1.122025e+01	-6.430656e+01
1.500000e-06	-1.565835e-06	-8.733551e-10	-1.090898e+01	-6.361504e+01
1.510000e-06	-1.520985e-06	-8.597820e-10	-1.059651e+01	-6.290856e+01
1.520000e-06	-1.475965e-06	-8.483962e-10	-1.028286e+01	-6.218705e+01
1.530000e-06	-1.430760e-06	-8.370164e-10	-9.967927e+00	-6.145047e+01
1.540000e-06	-1.385381e-06	-8.250384e-10	-9.651778e+00	-6.069876e+01
1.550000e-06	-1.340005e-06	-8.135057e-10	-9.335646e+00	-5.993188e+01
1.560000e-06	-1.294648e-06	-7.994443e-10	-9.019651e+00	-5.914980e+01
1.570000e-06	-1.249170e-06	-7.845147e-10	-8.702812e+00	-5.835244e+01
1.580000e-06	-1.203516e-06	-7.700788e-10	-8.384749e+00	-5.753970e+01
1.590000e-06	-1.157706e-06	-7.554753e-10	-8.065596e+00	-5.671143e+01
1.600000e-06	-1.111861e-06	-7.400615e-10	-7.746194e+00	-5.586744e+01
1.610000e-06	-1.066074e-06	-7.263873e-10	-7.427202e+00	-5.500746e+01
1.620000e-06	-1.020231e-06	-7.137814e-10	-7.107820e+00	-5.413115e+01
1.630000e-06	-9.742559e-07	-7.019481e-10	-6.787519e+00	-5.323811e+01
1.640000e-06	-9.281950e-07	-6.927670e-10	-6.466619e+00	-5.232780e+01
1.650000e-06	-8.820763e-07	-6.815637e-10	-6.145316e+00	-5.139963e+01
1.660000e-06	-8.358659e-07	-6.687309e-10	-5.823374e+00	-5.045289e+01
1.670000e-06	-7.895575e-07	-6.548637e-10	-5.500749e+00	-4.948674e+01
1.680000e-06	-7.431756e-07	-6.399263e-10	-5.177611e+00	-4.850028e+01
1.690000e-06	-6.967552e-07	-6.229474e-10	-4.854206e+00	-4.749248e+01
1.700000e-06	-6.503052e-07	-6.043843e-10	-4.530596e+00	-4.646220e+01
1.710000e-06	-6.038735e-07	-5.850750e-10	-4.207111e+00	-4.540823e+01
1.720000e-06	-5.575386e-07	-5.659327e-10	-3.884302e+00	-4.432925e+01
1.730000e-06	-5.111531e-07	-5.480603e-10	-3.561140e+00	-4.322389e+01
1.740000e-06	-4.646541e-07	-5.340783e-10	-3.237188e+00	-4.209071e+01
1.750000e-06	-4.181429e-07	-5.199702e-10	-2.913150e+00	-4.092821e+01
1.760000e-06	-3.715735e-07	-5.030725e-10	-2.588706e+00	-3.973488e+01
1.770000e-06	-3.249869e-07	-4.851472e-10	-2.264144e+00	-3.850920e+01
1.780000e-06	-2.783931e-07	-4.678788e-10	-1.939530e+00	-3.724966e+01
1.790000e-06	-2.316410e-07	-4.501130e-10	-1.613814e+00	-3.595478e+01
1.800000e-06	-1.848240e-07	-4.316591e-10	-1.287646e+00	-3.462315e+01
1.810000e-06	-1.380660e-07	-4.117202e-10	-9.618885e-01	-3.325343e+01
1.820000e-06	-9.135627e-08	-3.904643e-10	-6.364678e-01	-3.184441e+01
1.830000e-06	-4.467704e-08	-3.698645e-10	-3.112593e-01	-3.039499e+01
1.840000e-06	2.130338e-09	-3.500774e-10	1.484180e-02	-2.890423e+01
1.850000e-06	4.890858e-08	-3.304524e-10	3.407400e-01	-2.737138e+01
1.860000e-06	9.556179e-08	-3.092072e-10	6.657671e-01	-2.579586e+01
1.870000e-06	1.422353e-07	-2.876282e-10	9.909355e-01	-2.417734e+01
1.880000e-06	1.889026e-07	-2.666776e-10	1.316061e+00	-2.251571e+01
1.890000e-06	2.355821e-07	-2.425540e-10	1.641271e+00	-2.081112e+01
1.900000e-06	2.822341e-07	-2.154614e-10	1.966290e+00	-1.906396e+01
1.910000e-06	3.287691e-07	-1.884756e-10	2.290493e+00	-1.727491e+01
1.920000e-06	3.752629e-07	-1.606035e-10	2.614410e+00	-1.544493e+01
1.930000e-06	4.217311e-07	-1.335819e-10	2.938148e+00	-1.357526e+01
1.940000e-06	4.681538e-07	-1.089705e-10	3.261569e+00	-1.166739e+01
1.950000e-06	5.145914e-07	-8.559794e-11	3.585094e+00	-9.723120e+00
1.960000e-06	5.609637e-07	-6.240837e-11	3.908164e+00	-7.744501e+00
1.970000e-06	6.073274e-07	-3.857458e-11	4.231174e+00	-5.733837e+00
1.980000e-06	6.536996e-07	-1.105834e-11	4.554244e+00	-3.693675e+00
1.990000e-06	6.999878e-07	2.134907e-11	4.876728e+00	-1.626780e+00
2.000000e-06	7.461960e-07	5.526086e-11	5.198655e+00	4.638791e-01
2.010000e-06	7.923287e-07	8.834224e-11	5.520055e+00	2.575159e+00
2.020000e-06	8.384541e-07	1.215519e-10	5.841405e+00	4.703763e+00
2.030000e-06	8.845548e-07	1.539475e-10	6.162583e+00	6.846274e+00
2.040000e-06	9.305851e-07	1.829179e-10	6.483270e+00	8.999178e+00
2.050000e-06	9.765361e-07	2.079687e-10	6.803405e+00	1.115890e+01
2.060000e-06	1.022368e-06	2.330405e-10	7.122713e+00	1.332182e+01
2.070000e-06	1.068142e-06	2.607049e-10	7.441610e+00	1.548434e+01
2.080000e-06	1.113835e-06	2.911024e-10	7.759948e+00	1.764286e+01
2.090000e-06	1.159481e-06	3.239452e-10	8.077959e+00	1.979387e+01
2.100000e-06	1.205116e-06	3.590714e-10	8.395891e+00	2.193391e+01
2.110000e-06	1.250621e-06	3.922613e-10	8.712920e+00	2.405968e+01
2.120000e-06	1.295981e-06	4.212636e-10	9.028939e+00	2.616798e+01
2.130000e-06	1.341220e-06	4.481205e-10	9.344112e+00	2.825578e+01
2.140000e-06	1.386398e-06	4.733663e-10	9.658861e+00	3.032026e+01
2.150000e-06	1.431545e-06	4.981808e-10	9.973394e+00	3.235877e+01
2.160000e-06	1.476595e-06	5.239143e-10	1.028726e+01	3.436888e+01
2.170000e-06	1.521530e-06	5.507255e-10	1.060031e+01	3.634840e+01
2.180000e-06	1.566272e-06	5.796388e-10	1.091202e+01	3.829536e+01
2.190000e-06	1.610921e-06	6.091858e-10	1.122309e+01	4.020805e+01
2.200000e-06	1.655519e-06	6.384037e-10	1.153380e+01	4.208496e+01
2.210000e-06	1.699974e-06	6.666745e-10	1.184350e+01	4.392487e+01
2.220000e-06	1.744313e-06	6.915688e-10	1.215241e+01	4.572676e+01
2.230000e-06	1.788516e-06	7.144276e-10	1.246037e+01	4.748984e+01
2.240000e-06	1.832586e-06	7.356911e-10	1.276740e+01	4.921357e+01
2.250000e-06	1.876591e-06	7.544854e-10	1.307397e+01	5.089757e+01
2.260000e-06	1.920564e-06	7.727460e-10	1.338033e+01	5.254170e+01
2.270000e-06	1.964449e-06	7.928558e-10	1.368607e+01	5.414595e+01
2.280000e-06	2.008246e-06	8.148517e-10	1.399120e+01	5.571049e+01
2.290000e-06	2.052004e-06	8.376906e-10	1.429606e+01	5.723565e+01
2.300000e-06	2.095707e-06	8.597641e-10	1.460053e+01	5.872186e+01
2.310000e-06	2.139329e-06	8.789746e-10	1.490444e+01	6.016966e+01
2.320000e-06	2.182870e-06	8.953207e-10	1.520778e+01	6.157967e+01
2.330000e-06	2.226219e-06	9.107620e-10	1.550979e+01	6.295259e+01
2.340000e-06	2.269417e-06	9.258735e-10	1.581075e+01	6.428917e+01
2.350000e-06	2.312472e-06	9.416145e-10	1.611071e+01	6.559018e+01
2.360000e-06	2.355290e-06	9.579697e-10	1.640901e+01	6.685643e+01
2.370000e-06	2.397780e-06	9.733948e-10	1.670503e+01	6.808871e+01
2.380000e-06	2.439862e-06	9.876993e-10	1.699822e+01	6.928784e+01
2.390000e-06	2.481588e-06	1.002992e-09	1.728892e+01	7.045458e+01
2.400000e-06	2.522954e-06	1.019622e-09	1.757711e+01	7.158971e+01
2.410000e-06	2.564040e-06	1.035430e-09	1.786335e+01	7.269395e+01
2.420000e-06	2.604899e-06	1.050057e-09	1.814801e+01	7.376800e+01
2.430000e-06	2.645486e-06	1.064393e-09	1.843077e+01	7.481252e+01
2.440000e-06	2.685820e-06	1.078163e-09	1.871177e+01	7.582812e+01
2.450000e-06	2.726034e-06	1.092372e-09	1.899194e+01	7.681540e+01
2.460000e-06	2.766100e-06	1.106070e-09	1.927108e+01	7.777490e+01
2.470000e-06	2.805983e-06	1.117276e-09	1.954893e+01	7.870713e+01
2.480000e-06	2.845770e-06	1.127783e-09	1.982613e+01	7.961259e+01
2.490000e-06	2.885453e-06	1.138219e-09	2.010259e+01	8.049176e+01
2.500000e-06	2.924986e-06	1.148906e-09	2.037801e+01	8.134507e+01
2.510000e-06	2.964369e-06	1.163416e-09	2.065239e+01	8.217299e+01
2.520000e-06	3.003552e-06	1.179195e-09	2.092537e+01	8.297595e+01
2.530000e-06	3.042514e-06	1.195446e-09	2.119682e+01	8.375440e+01
2.540000e-06	3.081251e-06	1.210101e-09	2.146669e+01	8.450879e+01
2.550000e-06	3.119731e-06	1.218594e-09	2.173478e+01	8.523961e+01
2.560000e-06	3.158013e-06	1.221191e-09	2.200148e+01	8.594734e+01
2.570000e-06	3.196055e-06	1.223246e-09	2.226652e+01	8.663250e+01
2.580000e-06	3.233853e-06	1.228826e-09	2.252985e+01	8.729563e+01
2.590000e-06	3.271455e-06	1.236970e-09	2.279182e+01	8.793732e+01
2.600000e-06	3.308890e-06	1.250806e-09	2.305262e+01	8.855815e+01
2.610000e-06	3.346153e-06	1.268066e-09	2.331223e+01	8.915878e+01
2.620000e-06	3.383151e-06	1.283780e-09	2.356999e+01	8.973987e+01
2.630000e-06	3.419840e-06	1.294261e-09	2.382560e+01	9.030209e+01
2.640000e-06	3.456257e-06	1.300357e-09	2.407931e+01	9.084617e+01
2.650000e-06	3.492459e-06	1.303830e-09	2.433152e+01	9.137284e+01
2.660000e-06	3.528471e-06	1.305840e-09	2.458242e+01	9.188285e+01
2.670000e-06	3.564324e-06	1.308439e-09	2.483220e+01	9.237693e+01
2.680000e-06	3.600042e-06	1.314642e-09	2.508104e+01	9.285585e+01
2.690000e-06	3.635617e-06	1.326497e-09	2.532889e+01	9.332035e+01
2.700000e-06	3.671050e-06	1.338641e-09	2.557575e+01	9.377115e+01
2.710000e-06	3.706322e-06	1.346555e-09	2.582149e+01	9.420898e+01
2.720000e-06	3.741333e-06	1.352129e-09	2.606540e+01	9.463451e+01
2.730000e-06	3.775878e-06	1.356061e-09	2.630607e+01	9.504840e+01
2.740000e-06	3.809898e-06	1.360347e-09	2.654309e+01	9.545124e+01
2.750000e-06	3.843502e-06	1.365803e-09	2.677720e+01	9.584360e+01
2.760000e-06	3.876723e-06	1.372204e-09	2.700865e+01	9.622600e+01
2.770000e-06	3.909514e-06	1.379118e-09	2.723710e+01	9.659890e+01
2.780000e-06	3.941886e-06	1.385453e-09	2.746263e+01	9.696268e+01
2.790000e-06	3.973923e-06	1.392053e-09	2.768582e+01	9.731769e+01
2.800000e-06	4.005759e-06	1.397823e-09	2.790762e+01	9.766421e+01
2.810000e-06	4.037475e-06	1.402572e-09	2.812859e+01	9.800247e+01
2.820000e-06	4.069047e-06	1.409218e-09	2.834855e+01	9.833262e+01
2.830000e-06	4.100423e-06	1.418111e-09	2.856714e+01	9.865478e+01
2.840000e-06	4.131492e-06	1.425328e-09	2.878359e+01	9.896900e+01
2.850000e-06	4.162234e-06	1.430024e-09	2.899777e+01	9.927529e+01
2.860000e-06	4.192689e-06	1.435714e-09	2.920994e+01	9.957361e+01
2.870000e-06	4.222808e-06	1.442503e-09	2.941978e+01	9.986389e+01
2.880000e-06	4.252647e-06	1.447022e-09	2.962766e+01	1.001460e+02
2.890000e-06	4.282273e-06	1.450631e-09	2.983406e+01	1.004199e+02
2.900000e-06	4.311684e-06	1.455649e-09	3.003897e+01	1.006854e+02
