# Temperatura_=_-9.22
# Concentracion g/m^3_=_1620.0
# C_Vs_to_Am_M_A/Vsm_=_65563218390.804596
# pendiente_HvsI_1/m_=_3716.3
# ordenada_HvsI_A/m_=_1297.0
# frecuencia_Hz_=_135109.3608557273

Tiempo_(s)	Campo_(V.s)	Magnetizacion_(V.s)	Campo_(kA/m)	Magnetizacion_(A/m)
0.000000e+00	-5.520590e-06	-1.372161e-09	-3.836610e+01	-8.837454e+01
1.000000e-08	-5.520670e-06	-1.369746e-09	-3.836665e+01	-8.829999e+01
2.000000e-08	-5.520508e-06	-1.368115e-09	-3.836552e+01	-8.822668e+01
3.000000e-08	-5.519944e-06	-1.368111e-09	-3.836161e+01	-8.815472e+01
4.000000e-08	-5.518909e-06	-1.365331e-09	-3.835442e+01	-8.808416e+01
5.000000e-08	-5.517348e-06	-1.360844e-09	-3.834357e+01	-8.801504e+01
6.000000e-08	-5.515200e-06	-1.365183e-09	-3.832864e+01	-8.794736e+01
7.000000e-08	-5.512453e-06	-1.390879e-09	-3.830954e+01	-8.788107e+01
8.000000e-08	-5.509117e-06	-1.387961e-09	-3.828636e+01	-8.781610e+01
9.000000e-08	-5.505352e-06	-1.322896e-09	-3.826020e+01	-8.775235e+01
1.000000e-07	-5.501272e-06	-1.316235e-09	-3.823184e+01	-8.768967e+01
1.100000e-07	-5.496933e-06	-1.388443e-09	-3.820169e+01	-8.762791e+01
1.200000e-07	-5.492342e-06	-1.396658e-09	-3.816978e+01	-8.756685e+01
1.300000e-07	-5.487386e-06	-1.319278e-09	-3.813534e+01	-8.750627e+01
1.400000e-07	-5.482028e-06	-1.270333e-09	-3.809810e+01	-8.744592e+01
1.500000e-07	-5.476395e-06	-1.380943e-09	-3.805896e+01	-8.738554e+01
1.600000e-07	-5.470427e-06	-1.416592e-09	-3.801748e+01	-8.732482e+01
1.700000e-07	-5.463966e-06	-1.333569e-09	-3.797258e+01	-8.726348e+01
1.800000e-07	-5.457021e-06	-1.265970e-09	-3.792432e+01	-8.720121e+01
1.900000e-07	-5.449759e-06	-1.341414e-09	-3.787385e+01	-8.713768e+01
2.000000e-07	-5.442241e-06	-1.392448e-09	-3.782160e+01	-8.707259e+01
2.100000e-07	-5.434415e-06	-1.346057e-09	-3.776721e+01	-8.700562e+01
2.200000e-07	-5.426329e-06	-1.301393e-09	-3.771101e+01	-8.693648e+01
2.300000e-07	-5.417885e-06	-1.341613e-09	-3.765234e+01	-8.686486e+01
2.400000e-07	-5.408900e-06	-1.371535e-09	-3.758989e+01	-8.679050e+01
2.500000e-07	-5.399310e-06	-1.335975e-09	-3.752324e+01	-8.671315e+01
2.600000e-07	-5.389148e-06	-1.310908e-09	-3.745262e+01	-8.663257e+01
2.700000e-07	-5.378499e-06	-1.316734e-09	-3.737861e+01	-8.654857e+01
2.800000e-07	-5.367308e-06	-1.336149e-09	-3.730084e+01	-8.646097e+01
2.900000e-07	-5.355633e-06	-1.307551e-09	-3.721971e+01	-8.636965e+01
3.000000e-07	-5.343581e-06	-1.293254e-09	-3.713595e+01	-8.627449e+01
3.100000e-07	-5.331147e-06	-1.296675e-09	-3.704954e+01	-8.617542e+01
3.200000e-07	-5.318327e-06	-1.328282e-09	-3.696044e+01	-8.607243e+01
3.300000e-07	-5.305067e-06	-1.300242e-09	-3.686829e+01	-8.596552e+01
3.400000e-07	-5.291429e-06	-1.282674e-09	-3.677351e+01	-8.585473e+01
3.500000e-07	-5.277400e-06	-1.298996e-09	-3.667602e+01	-8.574016e+01
3.600000e-07	-5.262902e-06	-1.325151e-09	-3.657526e+01	-8.562191e+01
3.700000e-07	-5.247911e-06	-1.277197e-09	-3.647108e+01	-8.550014e+01
3.800000e-07	-5.232372e-06	-1.280450e-09	-3.636308e+01	-8.537504e+01
3.900000e-07	-5.216303e-06	-1.312390e-09	-3.625141e+01	-8.524682e+01
4.000000e-07	-5.199878e-06	-1.284867e-09	-3.613727e+01	-8.511572e+01
4.100000e-07	-5.183160e-06	-1.240985e-09	-3.602108e+01	-8.498199e+01
4.200000e-07	-5.166144e-06	-1.308550e-09	-3.590282e+01	-8.484592e+01
4.300000e-07	-5.148789e-06	-1.327829e-09	-3.578221e+01	-8.470780e+01
4.400000e-07	-5.130991e-06	-1.248897e-09	-3.565853e+01	-8.456793e+01
4.500000e-07	-5.112785e-06	-1.260927e-09	-3.553200e+01	-8.442661e+01
4.600000e-07	-5.094181e-06	-1.330722e-09	-3.540271e+01	-8.428416e+01
4.700000e-07	-5.075183e-06	-1.276976e-09	-3.527068e+01	-8.414088e+01
4.800000e-07	-5.055897e-06	-1.228576e-09	-3.513665e+01	-8.399706e+01
4.900000e-07	-5.036423e-06	-1.292946e-09	-3.500131e+01	-8.385299e+01
5.000000e-07	-5.016698e-06	-1.279514e-09	-3.486423e+01	-8.370894e+01
5.100000e-07	-4.996619e-06	-1.217852e-09	-3.472469e+01	-8.356514e+01
5.200000e-07	-4.976201e-06	-1.267510e-09	-3.458279e+01	-8.342184e+01
5.300000e-07	-4.955433e-06	-1.300909e-09	-3.443846e+01	-8.327921e+01
5.400000e-07	-4.934391e-06	-1.224189e-09	-3.429223e+01	-8.313743e+01
5.500000e-07	-4.913103e-06	-1.239219e-09	-3.414429e+01	-8.299664e+01
5.600000e-07	-4.891472e-06	-1.300295e-09	-3.399396e+01	-8.285695e+01
5.700000e-07	-4.869461e-06	-1.256792e-09	-3.384099e+01	-8.271841e+01
5.800000e-07	-4.847128e-06	-1.218983e-09	-3.368578e+01	-8.258107e+01
5.900000e-07	-4.824488e-06	-1.271209e-09	-3.352844e+01	-8.244493e+01
6.000000e-07	-4.801462e-06	-1.252167e-09	-3.336842e+01	-8.230995e+01
6.100000e-07	-4.778103e-06	-1.205853e-09	-3.320608e+01	-8.217606e+01
6.200000e-07	-4.754530e-06	-1.231695e-09	-3.304226e+01	-8.204317e+01
6.300000e-07	-4.730736e-06	-1.247468e-09	-3.287690e+01	-8.191115e+01
6.400000e-07	-4.706633e-06	-1.210514e-09	-3.270939e+01	-8.177982e+01
6.500000e-07	-4.682151e-06	-1.228404e-09	-3.253925e+01	-8.164901e+01
6.600000e-07	-4.657291e-06	-1.248050e-09	-3.236648e+01	-8.151851e+01
6.700000e-07	-4.631898e-06	-1.220551e-09	-3.219001e+01	-8.138807e+01
6.800000e-07	-4.605900e-06	-1.210954e-09	-3.200933e+01	-8.125746e+01
6.900000e-07	-4.579427e-06	-1.226931e-09	-3.182536e+01	-8.112640e+01
7.000000e-07	-4.552536e-06	-1.205795e-09	-3.163848e+01	-8.099461e+01
7.100000e-07	-4.525385e-06	-1.196265e-09	-3.144978e+01	-8.086182e+01
7.200000e-07	-4.497991e-06	-1.215299e-09	-3.125941e+01	-8.072773e+01
7.300000e-07	-4.470271e-06	-1.216299e-09	-3.106676e+01	-8.059205e+01
7.400000e-07	-4.442306e-06	-1.204789e-09	-3.087241e+01	-8.045448e+01
7.500000e-07	-4.414157e-06	-1.210886e-09	-3.067679e+01	-8.031474e+01
7.600000e-07	-4.385731e-06	-1.208636e-09	-3.047924e+01	-8.017256e+01
7.700000e-07	-4.356951e-06	-1.197036e-09	-3.027923e+01	-8.002765e+01
7.800000e-07	-4.327899e-06	-1.200530e-09	-3.007733e+01	-7.987977e+01
7.900000e-07	-4.298554e-06	-1.200391e-09	-2.987339e+01	-7.972867e+01
8.000000e-07	-4.268908e-06	-1.189248e-09	-2.966736e+01	-7.957412e+01
8.100000e-07	-4.238981e-06	-1.188327e-09	-2.945938e+01	-7.941593e+01
8.200000e-07	-4.208693e-06	-1.193492e-09	-2.924889e+01	-7.925391e+01
8.300000e-07	-4.178179e-06	-1.182100e-09	-2.903683e+01	-7.908789e+01
8.400000e-07	-4.147442e-06	-1.179389e-09	-2.882322e+01	-7.891773e+01
8.500000e-07	-4.116329e-06	-1.188026e-09	-2.860699e+01	-7.874332e+01
8.600000e-07	-4.084932e-06	-1.188362e-09	-2.838880e+01	-7.856456e+01
8.700000e-07	-4.053393e-06	-1.175827e-09	-2.816961e+01	-7.838139e+01
8.800000e-07	-4.021753e-06	-1.173692e-09	-2.794973e+01	-7.819375e+01
8.900000e-07	-3.989904e-06	-1.163973e-09	-2.772838e+01	-7.800164e+01
9.000000e-07	-3.957766e-06	-1.147978e-09	-2.750504e+01	-7.780505e+01
9.100000e-07	-3.925239e-06	-1.141844e-09	-2.727899e+01	-7.760402e+01
9.200000e-07	-3.892295e-06	-1.146077e-09	-2.705003e+01	-7.739859e+01
9.300000e-07	-3.858995e-06	-1.140670e-09	-2.681862e+01	-7.718883e+01
9.400000e-07	-3.825302e-06	-1.139891e-09	-2.658446e+01	-7.697485e+01
9.500000e-07	-3.791123e-06	-1.142235e-09	-2.634693e+01	-7.675674e+01
9.600000e-07	-3.756457e-06	-1.135005e-09	-2.610602e+01	-7.653465e+01
9.700000e-07	-3.721436e-06	-1.119241e-09	-2.586263e+01	-7.630871e+01
9.800000e-07	-3.686180e-06	-1.115266e-09	-2.561761e+01	-7.607910e+01
9.900000e-07	-3.650721e-06	-1.112288e-09	-2.537119e+01	-7.584597e+01
1.000000e-06	-3.615064e-06	-1.104113e-09	-2.512338e+01	-7.560951e+01
1.010000e-06	-3.579261e-06	-1.097828e-09	-2.487457e+01	-7.536990e+01
1.020000e-06	-3.543302e-06	-1.097140e-09	-2.462467e+01	-7.512735e+01
1.030000e-06	-3.507186e-06	-1.092345e-09	-2.437367e+01	-7.488204e+01
1.040000e-06	-3.470863e-06	-1.088470e-09	-2.412124e+01	-7.463418e+01
1.050000e-06	-3.434294e-06	-1.091510e-09	-2.386710e+01	-7.438394e+01
1.060000e-06	-3.397504e-06	-1.089499e-09	-2.361142e+01	-7.413151e+01
1.070000e-06	-3.360507e-06	-1.080186e-09	-2.335431e+01	-7.387707e+01
1.080000e-06	-3.323270e-06	-1.071216e-09	-2.309552e+01	-7.362077e+01
1.090000e-06	-3.285805e-06	-1.062037e-09	-2.283516e+01	-7.336275e+01
1.100000e-06	-3.248037e-06	-1.050636e-09	-2.257268e+01	-7.310314e+01
1.110000e-06	-3.209857e-06	-1.045941e-09	-2.230734e+01	-7.284203e+01
1.120000e-06	-3.171455e-06	-1.043854e-09	-2.204046e+01	-7.257950e+01
1.130000e-06	-3.132997e-06	-1.040086e-09	-2.177319e+01	-7.231558e+01
1.140000e-06	-3.094401e-06	-1.036685e-09	-2.150497e+01	-7.205029e+01
1.150000e-06	-3.055604e-06	-1.039625e-09	-2.123534e+01	-7.178361e+01
1.160000e-06	-3.016579e-06	-1.036316e-09	-2.096413e+01	-7.151546e+01
1.170000e-06	-2.977334e-06	-1.028043e-09	-2.069139e+01	-7.124577e+01
1.180000e-06	-2.937960e-06	-1.019992e-09	-2.041776e+01	-7.097438e+01
1.190000e-06	-2.898444e-06	-1.014646e-09	-2.014313e+01	-7.070111e+01
1.200000e-06	-2.858730e-06	-1.006650e-09	-1.986714e+01	-7.042575e+01
1.210000e-06	-2.818866e-06	-1.002021e-09	-1.959009e+01	-7.014803e+01
1.220000e-06	-2.778801e-06	-9.992283e-10	-1.931166e+01	-6.986766e+01
1.230000e-06	-2.738506e-06	-9.941848e-10	-1.903162e+01	-6.958429e+01
1.240000e-06	-2.698059e-06	-9.862999e-10	-1.875053e+01	-6.929754e+01
1.250000e-06	-2.657455e-06	-9.811072e-10	-1.846835e+01	-6.900702e+01
1.260000e-06	-2.616639e-06	-9.761128e-10	-1.818469e+01	-6.871226e+01
1.270000e-06	-2.575586e-06	-9.705418e-10	-1.789939e+01	-6.841281e+01
1.280000e-06	-2.534222e-06	-9.657387e-10	-1.761192e+01	-6.810818e+01
1.290000e-06	-2.492544e-06	-9.622855e-10	-1.732228e+01	-6.779785e+01
1.300000e-06	-2.450556e-06	-9.575762e-10	-1.703047e+01	-6.748130e+01
1.310000e-06	-2.408207e-06	-9.513006e-10	-1.673616e+01	-6.715801e+01
1.320000e-06	-2.365681e-06	-9.429948e-10	-1.644062e+01	-6.682743e+01
1.330000e-06	-2.322912e-06	-9.349552e-10	-1.614339e+01	-6.648905e+01
1.340000e-06	-2.279774e-06	-9.299292e-10	-1.584360e+01	-6.614234e+01
1.350000e-06	-2.236477e-06	-9.268271e-10	-1.554270e+01	-6.578681e+01
1.360000e-06	-2.193063e-06	-9.254828e-10	-1.524099e+01	-6.542198e+01
1.370000e-06	-2.149528e-06	-9.226633e-10	-1.493844e+01	-6.504740e+01
1.380000e-06	-2.105865e-06	-9.176436e-10	-1.463500e+01	-6.466265e+01
1.390000e-06	-2.062080e-06	-9.084654e-10	-1.433071e+01	-6.426736e+01
1.400000e-06	-2.018235e-06	-8.969040e-10	-1.402600e+01	-6.386117e+01
1.410000e-06	-1.974363e-06	-8.855991e-10	-1.372111e+01	-6.344379e+01
1.420000e-06	-1.930482e-06	-8.756487e-10	-1.341615e+01	-6.301499e+01
1.430000e-06	-1.886448e-06	-8.681092e-10	-1.311013e+01	-6.257454e+01
1.440000e-06	-1.842283e-06	-8.631943e-10	-1.280320e+01	-6.212230e+01
1.450000e-06	-1.798054e-06	-8.579897e-10	-1.249582e+01	-6.165815e+01
1.460000e-06	-1.753707e-06	-8.541705e-10	-1.218763e+01	-6.118203e+01
1.470000e-06	-1.709236e-06	-8.482857e-10	-1.187857e+01	-6.069391e+01
1.480000e-06	-1.664604e-06	-8.411207e-10	-1.156839e+01	-6.019380e+01
1.490000e-06	-1.619789e-06	-8.326648e-10	-1.125695e+01	-5.968173e+01
1.500000e-06	-1.574889e-06	-8.202108e-10	-1.094490e+01	-5.915777e+01
1.510000e-06	-1.530000e-06	-8.049640e-10	-1.063294e+01	-5.862199e+01
1.520000e-06	-1.484995e-06	-7.914204e-10	-1.032018e+01	-5.807447e+01
1.530000e-06	-1.439812e-06	-7.825054e-10	-1.000617e+01	-5.751529e+01
1.540000e-06	-1.394453e-06	-7.780738e-10	-9.690943e+00	-5.694451e+01
1.550000e-06	-1.348963e-06	-7.740571e-10	-9.374805e+00	-5.636216e+01
1.560000e-06	-1.303440e-06	-7.664115e-10	-9.058436e+00	-5.576826e+01
1.570000e-06	-1.257844e-06	-7.519456e-10	-8.741562e+00	-5.516275e+01
1.580000e-06	-1.212149e-06	-7.360380e-10	-8.423995e+00	-5.454554e+01
1.590000e-06	-1.166358e-06	-7.216357e-10	-8.105763e+00	-5.391644e+01
1.600000e-06	-1.120516e-06	-7.075565e-10	-7.787179e+00	-5.327522e+01
1.610000e-06	-1.074581e-06	-6.946548e-10	-7.467946e+00	-5.262153e+01
1.620000e-06	-1.028564e-06	-6.845248e-10	-7.148149e+00	-5.195494e+01
1.630000e-06	-9.824331e-07	-6.781769e-10	-6.827553e+00	-5.127492e+01
1.640000e-06	-9.361788e-07	-6.721843e-10	-6.506103e+00	-5.058081e+01
1.650000e-06	-8.899314e-07	-6.633926e-10	-6.184700e+00	-4.987187e+01
1.660000e-06	-8.436293e-07	-6.516591e-10	-5.862917e+00	-4.914721e+01
1.670000e-06	-7.972173e-07	-6.370339e-10	-5.540371e+00	-4.840586e+01
1.680000e-06	-7.507502e-07	-6.209619e-10	-5.217442e+00	-4.764671e+01
1.690000e-06	-7.042686e-07	-6.069199e-10	-4.894411e+00	-4.686856e+01
1.700000e-06	-6.577593e-07	-5.925708e-10	-4.571188e+00	-4.607010e+01
1.710000e-06	-6.111474e-07	-5.758108e-10	-4.247253e+00	-4.524992e+01
1.720000e-06	-5.645063e-07	-5.589699e-10	-3.923114e+00	-4.440653e+01
1.730000e-06	-5.179433e-07	-5.443335e-10	-3.599518e+00	-4.353837e+01
1.740000e-06	-4.713070e-07	-5.317091e-10	-3.275412e+00	-4.264382e+01
1.750000e-06	-4.245264e-07	-5.192377e-10	-2.950305e+00	-4.172122e+01
1.760000e-06	-3.777025e-07	-5.035942e-10	-2.624895e+00	-4.076889e+01
1.770000e-06	-3.308678e-07	-4.868741e-10	-2.299411e+00	-3.978514e+01
1.780000e-06	-2.839884e-07	-4.708147e-10	-1.973616e+00	-3.876830e+01
1.790000e-06	-2.370508e-07	-4.558329e-10	-1.647417e+00	-3.771674e+01
1.800000e-06	-1.901060e-07	-4.409199e-10	-1.321168e+00	-3.662888e+01
1.810000e-06	-1.431567e-07	-4.239502e-10	-9.948872e-01	-3.550322e+01
1.820000e-06	-9.627070e-08	-4.061312e-10	-6.690464e-01	-3.433839e+01
1.830000e-06	-4.946971e-08	-3.904555e-10	-3.437965e-01	-3.313312e+01
1.840000e-06	-2.637778e-09	-3.752814e-10	-1.833160e-02	-3.188630e+01
1.850000e-06	4.425395e-08	-3.594962e-10	3.075489e-01	-3.059698e+01
1.860000e-06	9.109870e-08	-3.434564e-10	6.331029e-01	-2.926439e+01
1.870000e-06	1.378811e-07	-3.258897e-10	9.582237e-01	-2.788800e+01
1.880000e-06	1.847160e-07	-3.067820e-10	1.283709e+00	-2.646746e+01
1.890000e-06	2.315661e-07	-2.856730e-10	1.609300e+00	-2.500268e+01
1.900000e-06	2.784075e-07	-2.627285e-10	1.934831e+00	-2.349379e+01
1.910000e-06	3.251459e-07	-2.394563e-10	2.259646e+00	-2.194120e+01
1.920000e-06	3.718049e-07	-2.170885e-10	2.583909e+00	-2.034557e+01
1.930000e-06	4.184576e-07	-1.968920e-10	2.908128e+00	-1.870781e+01
1.940000e-06	4.651383e-07	-1.788572e-10	3.232543e+00	-1.702910e+01
1.950000e-06	5.117985e-07	-1.607425e-10	3.556814e+00	-1.531089e+01
1.960000e-06	5.584124e-07	-1.400699e-10	3.880763e+00	-1.355487e+01
1.970000e-06	6.050096e-07	-1.172120e-10	4.204597e+00	-1.176297e+01
1.980000e-06	6.515391e-07	-9.358761e-11	4.527960e+00	-9.937366e+00
1.990000e-06	6.980081e-07	-6.717712e-11	4.850903e+00	-8.080443e+00
2.000000e-06	7.443731e-07	-3.872497e-11	5.173123e+00	-6.194790e+00
2.010000e-06	7.906662e-07	-1.044188e-11	5.494843e+00	-4.283177e+00
2.020000e-06	8.368753e-07	1.849188e-11	5.815980e+00	-2.348536e+00
2.030000e-06	8.830737e-07	4.823181e-11	6.137042e+00	-3.939356e-01
2.040000e-06	9.292711e-07	7.636461e-11	6.458097e+00	1.577440e+00
2.050000e-06	9.753644e-07	1.006806e-10	6.778428e+00	3.562320e+00
2.060000e-06	1.021406e-06	1.227437e-10	7.098401e+00	5.557370e+00
2.070000e-06	1.067331e-06	1.463727e-10	7.417563e+00	7.559220e+00
2.080000e-06	1.113106e-06	1.720129e-10	7.735681e+00	9.564493e+00
2.090000e-06	1.158856e-06	2.001348e-10	8.053628e+00	1.156983e+01
2.100000e-06	1.204562e-06	2.304389e-10	8.371266e+00	1.357190e+01
2.110000e-06	1.250132e-06	2.603959e-10	8.687965e+00	1.556747e+01
2.120000e-06	1.295588e-06	2.888007e-10	9.003868e+00	1.755336e+01
2.130000e-06	1.341002e-06	3.171287e-10	9.319480e+00	1.952654e+01
2.140000e-06	1.386385e-06	3.430111e-10	9.634874e+00	2.148408e+01
2.150000e-06	1.431651e-06	3.658695e-10	9.949453e+00	2.342323e+01
2.160000e-06	1.476774e-06	3.887063e-10	1.026305e+01	2.534137e+01
2.170000e-06	1.521802e-06	4.122674e-10	1.057597e+01	2.723611e+01
2.180000e-06	1.566699e-06	4.379517e-10	1.088799e+01	2.910520e+01
2.190000e-06	1.611479e-06	4.667284e-10	1.119919e+01	3.094661e+01
2.200000e-06	1.656203e-06	4.976555e-10	1.151001e+01	3.275854e+01
2.210000e-06	1.700807e-06	5.269737e-10	1.181999e+01	3.453935e+01
2.220000e-06	1.745167e-06	5.525935e-10	1.212828e+01	3.628764e+01
2.230000e-06	1.789380e-06	5.746761e-10	1.243554e+01	3.800222e+01
2.240000e-06	1.833527e-06	5.930838e-10	1.274235e+01	3.968208e+01
2.250000e-06	1.877525e-06	6.091115e-10	1.304812e+01	4.132643e+01
2.260000e-06	1.921419e-06	6.263376e-10	1.335316e+01	4.293466e+01
2.270000e-06	1.965306e-06	6.467560e-10	1.365816e+01	4.450635e+01
2.280000e-06	2.009159e-06	6.686708e-10	1.396292e+01	4.604121e+01
2.290000e-06	2.052924e-06	6.911995e-10	1.426708e+01	4.753917e+01
2.300000e-06	2.096636e-06	7.151996e-10	1.457086e+01	4.900024e+01
2.310000e-06	2.140306e-06	7.375297e-10	1.487435e+01	5.042460e+01
2.320000e-06	2.183851e-06	7.562395e-10	1.517697e+01	5.181252e+01
2.330000e-06	2.227259e-06	7.723434e-10	1.547864e+01	5.316439e+01
2.340000e-06	2.270546e-06	7.863790e-10	1.577947e+01	5.448066e+01
2.350000e-06	2.313758e-06	8.002371e-10	1.607978e+01	5.576186e+01
2.360000e-06	2.356799e-06	8.156370e-10	1.637890e+01	5.700858e+01
2.370000e-06	2.399535e-06	8.337243e-10	1.667590e+01	5.822145e+01
2.380000e-06	2.441984e-06	8.525894e-10	1.697090e+01	5.940112e+01
2.390000e-06	2.484065e-06	8.695653e-10	1.726335e+01	6.054827e+01
2.400000e-06	2.525801e-06	8.849787e-10	1.755340e+01	6.166357e+01
2.410000e-06	2.567231e-06	8.990764e-10	1.784133e+01	6.274769e+01
2.420000e-06	2.608262e-06	9.112113e-10	1.812647e+01	6.380131e+01
2.430000e-06	2.648954e-06	9.237480e-10	1.840927e+01	6.482508e+01
2.440000e-06	2.689426e-06	9.377568e-10	1.869053e+01	6.581962e+01
2.450000e-06	2.729709e-06	9.515520e-10	1.897049e+01	6.678553e+01
2.460000e-06	2.769831e-06	9.661303e-10	1.924932e+01	6.772338e+01
2.470000e-06	2.809809e-06	9.799334e-10	1.952715e+01	6.863371e+01
2.480000e-06	2.849599e-06	9.917194e-10	1.980368e+01	6.951704e+01
2.490000e-06	2.889242e-06	1.002076e-09	2.007918e+01	7.037383e+01
2.500000e-06	2.928821e-06	1.011489e-09	2.035424e+01	7.120455e+01
2.510000e-06	2.968302e-06	1.023862e-09	2.062862e+01	7.200963e+01
2.520000e-06	3.007560e-06	1.035405e-09	2.090145e+01	7.278946e+01
2.530000e-06	3.046645e-06	1.047520e-09	2.117307e+01	7.354442e+01
2.540000e-06	3.085578e-06	1.061251e-09	2.144365e+01	7.427490e+01
2.550000e-06	3.124185e-06	1.070273e-09	2.171195e+01	7.498126e+01
2.560000e-06	3.162499e-06	1.074261e-09	2.197822e+01	7.566384e+01
2.570000e-06	3.200622e-06	1.077808e-09	2.224316e+01	7.632300e+01
2.580000e-06	3.238593e-06	1.083180e-09	2.250704e+01	7.695909e+01
2.590000e-06	3.276381e-06	1.088918e-09	2.276966e+01	7.757249e+01
2.600000e-06	3.313966e-06	1.097641e-09	2.303086e+01	7.816356e+01
2.610000e-06	3.351292e-06	1.109833e-09	2.329026e+01	7.873270e+01
2.620000e-06	3.388312e-06	1.123979e-09	2.354754e+01	7.928030e+01
2.630000e-06	3.425111e-06	1.134920e-09	2.380328e+01	7.980678e+01
2.640000e-06	3.461623e-06	1.142381e-09	2.405703e+01	8.031259e+01
2.650000e-06	3.497812e-06	1.146892e-09	2.430853e+01	8.079818e+01
2.660000e-06	3.533852e-06	1.149208e-09	2.455899e+01	8.126404e+01
2.670000e-06	3.569804e-06	1.151166e-09	2.480884e+01	8.171067e+01
2.680000e-06	3.605620e-06	1.153524e-09	2.505775e+01	8.213858e+01
2.690000e-06	3.641282e-06	1.158490e-09	2.530559e+01	8.254832e+01
2.700000e-06	3.676829e-06	1.166718e-09	2.555262e+01	8.294043e+01
2.710000e-06	3.712173e-06	1.174577e-09	2.579825e+01	8.331548e+01
2.720000e-06	3.747229e-06	1.180175e-09	2.604188e+01	8.367404e+01
2.730000e-06	3.782005e-06	1.183530e-09	2.628356e+01	8.401669e+01
2.740000e-06	3.816355e-06	1.184853e-09	2.652228e+01	8.434402e+01
2.750000e-06	3.850173e-06	1.186339e-09	2.675731e+01	8.465662e+01
2.760000e-06	3.883490e-06	1.189915e-09	2.698885e+01	8.495506e+01
2.770000e-06	3.916343e-06	1.195397e-09	2.721716e+01	8.523992e+01
2.780000e-06	3.948814e-06	1.202672e-09	2.744282e+01	8.551177e+01
2.790000e-06	3.980966e-06	1.210307e-09	2.766627e+01	8.577116e+01
2.800000e-06	4.012899e-06	1.216207e-09	2.788819e+01	8.601862e+01
2.810000e-06	4.044685e-06	1.220462e-09	2.810909e+01	8.625469e+01
2.820000e-06	4.076298e-06	1.224093e-09	2.832879e+01	8.647986e+01
2.830000e-06	4.107750e-06	1.230202e-09	2.854737e+01	8.669460e+01
2.840000e-06	4.138982e-06	1.236412e-09	2.876442e+01	8.689939e+01
2.850000e-06	4.169914e-06	1.240139e-09	2.897939e+01	8.709466e+01
2.860000e-06	4.200480e-06	1.244679e-09	2.919181e+01	8.728082e+01
2.870000e-06	4.230675e-06	1.247188e-09	2.940166e+01	8.745825e+01
2.880000e-06	4.260531e-06	1.246866e-09	2.960914e+01	8.762733e+01
2.890000e-06	4.290157e-06	1.246995e-09	2.981504e+01	8.778840e+01
2.900000e-06	4.319590e-06	1.250889e-09	3.001958e+01	8.794179e+01
