# Temperatura_=_-21.75
# Concentracion g/m^3_=_1620.0
# C_Vs_to_Am_M_A/Vsm_=_65563218390.804596
# pendiente_HvsI_1/m_=_3716.3
# ordenada_HvsI_A/m_=_1297.0
# frecuencia_Hz_=_135093.9764431534

Tiempo_(s)	Campo_(V.s)	Magnetizacion_(V.s)	Campo_(kA/m)	Magnetizacion_(A/m)
0.000000e+00	-5.520628e-06	-1.149617e-09	-3.837468e+01	-7.380668e+01
1.000000e-08	-5.520697e-06	-1.149707e-09	-3.837516e+01	-7.379495e+01
2.000000e-08	-5.520494e-06	-1.152879e-09	-3.837375e+01	-7.378196e+01
3.000000e-08	-5.519905e-06	-1.154432e-09	-3.836965e+01	-7.376812e+01
4.000000e-08	-5.518853e-06	-1.151951e-09	-3.836234e+01	-7.375392e+01
5.000000e-08	-5.517197e-06	-1.142009e-09	-3.835083e+01	-7.373985e+01
6.000000e-08	-5.514967e-06	-1.132235e-09	-3.833533e+01	-7.372641e+01
7.000000e-08	-5.512212e-06	-1.142043e-09	-3.831618e+01	-7.371413e+01
8.000000e-08	-5.508952e-06	-1.166431e-09	-3.829352e+01	-7.370350e+01
9.000000e-08	-5.505249e-06	-1.171439e-09	-3.826778e+01	-7.369502e+01
1.000000e-07	-5.501081e-06	-1.149983e-09	-3.823880e+01	-7.368915e+01
1.100000e-07	-5.496617e-06	-1.109350e-09	-3.820778e+01	-7.368630e+01
1.200000e-07	-5.492006e-06	-1.133259e-09	-3.817573e+01	-7.368686e+01
1.300000e-07	-5.487026e-06	-1.119214e-09	-3.814111e+01	-7.369115e+01
1.400000e-07	-5.481552e-06	-1.126887e-09	-3.810306e+01	-7.369941e+01
1.500000e-07	-5.475717e-06	-1.125155e-09	-3.806250e+01	-7.371182e+01
1.600000e-07	-5.469492e-06	-1.153255e-09	-3.801923e+01	-7.372851e+01
1.700000e-07	-5.462764e-06	-1.149690e-09	-3.797246e+01	-7.374948e+01
1.800000e-07	-5.455652e-06	-1.114451e-09	-3.792302e+01	-7.377469e+01
1.900000e-07	-5.448373e-06	-1.115025e-09	-3.787243e+01	-7.380399e+01
2.000000e-07	-5.440852e-06	-1.113711e-09	-3.782014e+01	-7.383717e+01
2.100000e-07	-5.432891e-06	-1.142541e-09	-3.776481e+01	-7.387390e+01
2.200000e-07	-5.424712e-06	-1.138328e-09	-3.770795e+01	-7.391383e+01
2.300000e-07	-5.416298e-06	-1.149800e-09	-3.764946e+01	-7.395650e+01
2.400000e-07	-5.407293e-06	-1.119201e-09	-3.758687e+01	-7.400140e+01
2.500000e-07	-5.397625e-06	-1.122325e-09	-3.751967e+01	-7.404797e+01
2.600000e-07	-5.387430e-06	-1.099997e-09	-3.744880e+01	-7.409559e+01
2.700000e-07	-5.376711e-06	-1.117824e-09	-3.737429e+01	-7.414363e+01
2.800000e-07	-5.365405e-06	-1.117048e-09	-3.729570e+01	-7.419143e+01
2.900000e-07	-5.353659e-06	-1.136395e-09	-3.721406e+01	-7.423830e+01
3.000000e-07	-5.341561e-06	-1.126002e-09	-3.712996e+01	-7.428358e+01
3.100000e-07	-5.329034e-06	-1.125320e-09	-3.704288e+01	-7.432661e+01
3.200000e-07	-5.315973e-06	-1.118763e-09	-3.695209e+01	-7.436676e+01
3.300000e-07	-5.302506e-06	-1.122904e-09	-3.685848e+01	-7.440345e+01
3.400000e-07	-5.288727e-06	-1.113117e-09	-3.676270e+01	-7.443612e+01
3.500000e-07	-5.274592e-06	-1.116923e-09	-3.666445e+01	-7.446431e+01
3.600000e-07	-5.260049e-06	-1.135852e-09	-3.656336e+01	-7.448759e+01
3.700000e-07	-5.245017e-06	-1.142923e-09	-3.645887e+01	-7.450564e+01
3.800000e-07	-5.229453e-06	-1.133573e-09	-3.635068e+01	-7.451818e+01
3.900000e-07	-5.213254e-06	-1.129605e-09	-3.623808e+01	-7.452506e+01
4.000000e-07	-5.196531e-06	-1.134094e-09	-3.612184e+01	-7.452619e+01
4.100000e-07	-5.179614e-06	-1.114763e-09	-3.600424e+01	-7.452159e+01
4.200000e-07	-5.162439e-06	-1.123787e-09	-3.588486e+01	-7.451134e+01
4.300000e-07	-5.144930e-06	-1.142616e-09	-3.576315e+01	-7.449565e+01
4.400000e-07	-5.127121e-06	-1.147443e-09	-3.563936e+01	-7.447476e+01
4.500000e-07	-5.108841e-06	-1.119116e-09	-3.551229e+01	-7.444904e+01
4.600000e-07	-5.090096e-06	-1.137509e-09	-3.538199e+01	-7.441888e+01
4.700000e-07	-5.071010e-06	-1.136235e-09	-3.524932e+01	-7.438477e+01
4.800000e-07	-5.051622e-06	-1.121871e-09	-3.511455e+01	-7.434723e+01
4.900000e-07	-5.031971e-06	-1.110929e-09	-3.497795e+01	-7.430682e+01
5.000000e-07	-5.012114e-06	-1.132324e-09	-3.483993e+01	-7.426414e+01
5.100000e-07	-4.992014e-06	-1.109261e-09	-3.470021e+01	-7.421980e+01
5.200000e-07	-4.971648e-06	-1.110371e-09	-3.455864e+01	-7.417441e+01
5.300000e-07	-4.950953e-06	-1.129971e-09	-3.441479e+01	-7.412858e+01
5.400000e-07	-4.929924e-06	-1.134305e-09	-3.426861e+01	-7.408289e+01
5.500000e-07	-4.908504e-06	-1.106933e-09	-3.411972e+01	-7.403791e+01
5.600000e-07	-4.886709e-06	-1.122538e-09	-3.396822e+01	-7.399415e+01
5.700000e-07	-4.864626e-06	-1.127050e-09	-3.381471e+01	-7.395206e+01
5.800000e-07	-4.842255e-06	-1.107598e-09	-3.365921e+01	-7.391207e+01
5.900000e-07	-4.819519e-06	-1.100516e-09	-3.350117e+01	-7.387450e+01
6.000000e-07	-4.796332e-06	-1.117549e-09	-3.334000e+01	-7.383963e+01
6.100000e-07	-4.772786e-06	-1.105131e-09	-3.317633e+01	-7.380763e+01
6.200000e-07	-4.749062e-06	-1.097193e-09	-3.301141e+01	-7.377863e+01
6.300000e-07	-4.725202e-06	-1.111710e-09	-3.284556e+01	-7.375264e+01
6.400000e-07	-4.701076e-06	-1.114565e-09	-3.267786e+01	-7.372961e+01
6.500000e-07	-4.676519e-06	-1.105877e-09	-3.250716e+01	-7.370942e+01
6.600000e-07	-4.651561e-06	-1.111127e-09	-3.233367e+01	-7.369186e+01
6.700000e-07	-4.626189e-06	-1.117151e-09	-3.215731e+01	-7.367666e+01
6.800000e-07	-4.600248e-06	-1.105746e-09	-3.197698e+01	-7.366348e+01
6.900000e-07	-4.573701e-06	-1.106762e-09	-3.179245e+01	-7.365193e+01
7.000000e-07	-4.546702e-06	-1.111099e-09	-3.160478e+01	-7.364157e+01
7.100000e-07	-4.519374e-06	-1.111333e-09	-3.141482e+01	-7.363194e+01
7.200000e-07	-4.491704e-06	-1.107843e-09	-3.122248e+01	-7.362252e+01
7.300000e-07	-4.463867e-06	-1.117431e-09	-3.102898e+01	-7.361280e+01
7.400000e-07	-4.435908e-06	-1.112752e-09	-3.083463e+01	-7.360225e+01
7.500000e-07	-4.407729e-06	-1.108056e-09	-3.063876e+01	-7.359036e+01
7.600000e-07	-4.379301e-06	-1.105303e-09	-3.044115e+01	-7.357661e+01
7.700000e-07	-4.350478e-06	-1.109210e-09	-3.024080e+01	-7.356052e+01
7.800000e-07	-4.321296e-06	-1.103386e-09	-3.003795e+01	-7.354165e+01
7.900000e-07	-4.291867e-06	-1.108295e-09	-2.983338e+01	-7.351957e+01
8.000000e-07	-4.262111e-06	-1.107432e-09	-2.962655e+01	-7.349392e+01
8.100000e-07	-4.232051e-06	-1.104380e-09	-2.941759e+01	-7.346440e+01
8.200000e-07	-4.201693e-06	-1.096857e-09	-2.920657e+01	-7.343074e+01
8.300000e-07	-4.171091e-06	-1.099409e-09	-2.899385e+01	-7.339276e+01
8.400000e-07	-4.140237e-06	-1.095964e-09	-2.877938e+01	-7.335033e+01
8.500000e-07	-4.109075e-06	-1.100289e-09	-2.856277e+01	-7.330337e+01
8.600000e-07	-4.077670e-06	-1.104883e-09	-2.834447e+01	-7.325189e+01
8.700000e-07	-4.046080e-06	-1.103287e-09	-2.812488e+01	-7.319594e+01
8.800000e-07	-4.014330e-06	-1.096068e-09	-2.790418e+01	-7.313564e+01
8.900000e-07	-3.982357e-06	-1.094353e-09	-2.768193e+01	-7.307116e+01
9.000000e-07	-3.950087e-06	-1.090574e-09	-2.745763e+01	-7.300270e+01
9.100000e-07	-3.917506e-06	-1.087090e-09	-2.723115e+01	-7.293052e+01
9.200000e-07	-3.884572e-06	-1.086758e-09	-2.700222e+01	-7.285492e+01
9.300000e-07	-3.851265e-06	-1.086649e-09	-2.677070e+01	-7.277621e+01
9.400000e-07	-3.817571e-06	-1.082268e-09	-2.653649e+01	-7.269472e+01
9.500000e-07	-3.783413e-06	-1.079622e-09	-2.629905e+01	-7.261081e+01
9.600000e-07	-3.748818e-06	-1.078558e-09	-2.605857e+01	-7.252482e+01
9.700000e-07	-3.713853e-06	-1.071508e-09	-2.581553e+01	-7.243709e+01
9.800000e-07	-3.678587e-06	-1.067340e-09	-2.557038e+01	-7.234796e+01
9.900000e-07	-3.643061e-06	-1.068312e-09	-2.532344e+01	-7.225773e+01
1.000000e-06	-3.607324e-06	-1.069885e-09	-2.507503e+01	-7.216669e+01
1.010000e-06	-3.571512e-06	-1.064285e-09	-2.482609e+01	-7.207508e+01
1.020000e-06	-3.535585e-06	-1.064074e-09	-2.457636e+01	-7.198312e+01
1.030000e-06	-3.499464e-06	-1.061728e-09	-2.432528e+01	-7.189097e+01
1.040000e-06	-3.463111e-06	-1.060712e-09	-2.407258e+01	-7.179875e+01
1.050000e-06	-3.426492e-06	-1.060853e-09	-2.381804e+01	-7.170654e+01
1.060000e-06	-3.389587e-06	-1.062933e-09	-2.356151e+01	-7.161435e+01
1.070000e-06	-3.352422e-06	-1.055943e-09	-2.330317e+01	-7.152216e+01
1.080000e-06	-3.315060e-06	-1.048523e-09	-2.304346e+01	-7.142989e+01
1.090000e-06	-3.277426e-06	-1.042582e-09	-2.278186e+01	-7.133740e+01
1.100000e-06	-3.239533e-06	-1.040922e-09	-2.251846e+01	-7.124454e+01
1.110000e-06	-3.201508e-06	-1.036840e-09	-2.225414e+01	-7.115108e+01
1.120000e-06	-3.163256e-06	-1.036496e-09	-2.198825e+01	-7.105675e+01
1.130000e-06	-3.124764e-06	-1.034915e-09	-2.172069e+01	-7.096127e+01
1.140000e-06	-3.086142e-06	-1.033970e-09	-2.145221e+01	-7.086432e+01
1.150000e-06	-3.047299e-06	-1.034329e-09	-2.118222e+01	-7.076554e+01
1.160000e-06	-3.008117e-06	-1.037373e-09	-2.090986e+01	-7.066456e+01
1.170000e-06	-2.968758e-06	-1.035346e-09	-2.063626e+01	-7.056099e+01
1.180000e-06	-2.929292e-06	-1.031293e-09	-2.036193e+01	-7.045443e+01
1.190000e-06	-2.889576e-06	-1.028441e-09	-2.008586e+01	-7.034448e+01
1.200000e-06	-2.849712e-06	-1.023922e-09	-1.980876e+01	-7.023073e+01
1.210000e-06	-2.809698e-06	-1.017087e-09	-1.953062e+01	-7.011278e+01
1.220000e-06	-2.769568e-06	-1.013478e-09	-1.925166e+01	-6.999024e+01
1.230000e-06	-2.729291e-06	-1.012350e-09	-1.897170e+01	-6.986273e+01
1.240000e-06	-2.688779e-06	-1.008299e-09	-1.869009e+01	-6.972988e+01
1.250000e-06	-2.648134e-06	-1.006536e-09	-1.840756e+01	-6.959133e+01
1.260000e-06	-2.607332e-06	-1.008432e-09	-1.812394e+01	-6.944676e+01
1.270000e-06	-2.566315e-06	-1.007028e-09	-1.783883e+01	-6.929586e+01
1.280000e-06	-2.524998e-06	-1.002054e-09	-1.755162e+01	-6.913833e+01
1.290000e-06	-2.483274e-06	-1.000675e-09	-1.726160e+01	-6.897392e+01
1.300000e-06	-2.441288e-06	-9.994229e-10	-1.696974e+01	-6.880238e+01
1.310000e-06	-2.399114e-06	-9.903496e-10	-1.667659e+01	-6.862349e+01
1.320000e-06	-2.356645e-06	-9.801698e-10	-1.638138e+01	-6.843704e+01
1.330000e-06	-2.313808e-06	-9.771784e-10	-1.608361e+01	-6.824286e+01
1.340000e-06	-2.270747e-06	-9.739264e-10	-1.578429e+01	-6.804077e+01
1.350000e-06	-2.227597e-06	-9.750735e-10	-1.548435e+01	-6.783063e+01
1.360000e-06	-2.184249e-06	-9.772851e-10	-1.518303e+01	-6.761231e+01
1.370000e-06	-2.140718e-06	-9.766873e-10	-1.488044e+01	-6.738566e+01
1.380000e-06	-2.097068e-06	-9.707432e-10	-1.457702e+01	-6.715059e+01
1.390000e-06	-2.053352e-06	-9.615829e-10	-1.427314e+01	-6.690697e+01
1.400000e-06	-2.009508e-06	-9.501271e-10	-1.396838e+01	-6.665471e+01
1.410000e-06	-1.965571e-06	-9.390154e-10	-1.366297e+01	-6.639368e+01
1.420000e-06	-1.921546e-06	-9.310491e-10	-1.335694e+01	-6.612378e+01
1.430000e-06	-1.877409e-06	-9.310584e-10	-1.305014e+01	-6.584490e+01
1.440000e-06	-1.833260e-06	-9.326342e-10	-1.274326e+01	-6.555691e+01
1.450000e-06	-1.789045e-06	-9.333808e-10	-1.243591e+01	-6.525969e+01
1.460000e-06	-1.744617e-06	-9.287731e-10	-1.212708e+01	-6.495309e+01
1.470000e-06	-1.699972e-06	-9.212663e-10	-1.181675e+01	-6.463696e+01
1.480000e-06	-1.655233e-06	-9.135049e-10	-1.150576e+01	-6.431113e+01
1.490000e-06	-1.610380e-06	-9.062661e-10	-1.119399e+01	-6.397541e+01
1.500000e-06	-1.565403e-06	-8.966703e-10	-1.088134e+01	-6.362959e+01
1.510000e-06	-1.520292e-06	-8.877248e-10	-1.056777e+01	-6.327344e+01
1.520000e-06	-1.474991e-06	-8.830347e-10	-1.025287e+01	-6.290671e+01
1.530000e-06	-1.429615e-06	-8.803885e-10	-9.937462e+00	-6.252910e+01
1.540000e-06	-1.384277e-06	-8.759906e-10	-9.622306e+00	-6.214033e+01
1.550000e-06	-1.338810e-06	-8.705878e-10	-9.306258e+00	-6.174003e+01
1.560000e-06	-1.293176e-06	-8.619811e-10	-8.989055e+00	-6.132785e+01
1.570000e-06	-1.247488e-06	-8.484724e-10	-8.671470e+00	-6.090338e+01
1.580000e-06	-1.201725e-06	-8.374571e-10	-8.353365e+00	-6.046617e+01
1.590000e-06	-1.155885e-06	-8.297697e-10	-8.034725e+00	-6.001574e+01
1.600000e-06	-1.109993e-06	-8.233169e-10	-7.715720e+00	-5.955156e+01
1.610000e-06	-1.063949e-06	-8.176787e-10	-7.395662e+00	-5.907308e+01
1.620000e-06	-1.017801e-06	-8.113066e-10	-7.074879e+00	-5.857968e+01
1.630000e-06	-9.716457e-07	-8.045990e-10	-6.754049e+00	-5.807072e+01
1.640000e-06	-9.254008e-07	-7.984812e-10	-6.432594e+00	-5.754548e+01
1.650000e-06	-8.791646e-07	-7.896072e-10	-6.111200e+00	-5.700323e+01
1.660000e-06	-8.328933e-07	-7.792775e-10	-5.789561e+00	-5.644317e+01
1.670000e-06	-7.864633e-07	-7.689436e-10	-5.466820e+00	-5.586447e+01
1.680000e-06	-7.399625e-07	-7.617508e-10	-5.143586e+00	-5.526623e+01
1.690000e-06	-6.934801e-07	-7.539899e-10	-4.820480e+00	-5.464753e+01
1.700000e-06	-6.469447e-07	-7.416166e-10	-4.497006e+00	-5.400739e+01
1.710000e-06	-6.003319e-07	-7.249997e-10	-4.172994e+00	-5.334483e+01
1.720000e-06	-5.537054e-07	-7.097509e-10	-3.848886e+00	-5.265878e+01
1.730000e-06	-5.071417e-07	-6.969749e-10	-3.525215e+00	-5.194819e+01
1.740000e-06	-4.605209e-07	-6.880729e-10	-3.201147e+00	-5.121196e+01
1.750000e-06	-4.137465e-07	-6.800686e-10	-2.876012e+00	-5.044899e+01
1.760000e-06	-3.669363e-07	-6.709875e-10	-2.550627e+00	-4.965815e+01
1.770000e-06	-3.201546e-07	-6.591710e-10	-2.225441e+00	-4.883834e+01
1.780000e-06	-2.734501e-07	-6.454095e-10	-1.900791e+00	-4.798844e+01
1.790000e-06	-2.266833e-07	-6.310325e-10	-1.575708e+00	-4.710736e+01
1.800000e-06	-1.798890e-07	-6.165090e-10	-1.250435e+00	-4.619405e+01
1.810000e-06	-1.330593e-07	-6.020712e-10	-9.249146e-01	-4.524748e+01
1.820000e-06	-8.610630e-08	-5.900091e-10	-5.985373e-01	-4.426669e+01
1.830000e-06	-3.917076e-08	-5.785775e-10	-2.722816e-01	-4.325079e+01
1.840000e-06	7.653639e-09	-5.656565e-10	5.320155e-02	-4.219893e+01
1.850000e-06	5.441232e-08	-5.517582e-10	3.782279e-01	-4.111038e+01
1.860000e-06	1.012047e-07	-5.360231e-10	7.034884e-01	-3.998450e+01
1.870000e-06	1.479504e-07	-5.188497e-10	1.028425e+00	-3.882077e+01
1.880000e-06	1.946629e-07	-5.012146e-10	1.353130e+00	-3.761877e+01
1.890000e-06	2.414541e-07	-4.822311e-10	1.678382e+00	-3.637823e+01
1.900000e-06	2.882827e-07	-4.613900e-10	2.003894e+00	-3.509901e+01
1.910000e-06	3.350747e-07	-4.412149e-10	2.329153e+00	-3.378113e+01
1.920000e-06	3.818582e-07	-4.206553e-10	2.654352e+00	-3.242478e+01
1.930000e-06	4.286303e-07	-4.013581e-10	2.979471e+00	-3.103027e+01
1.940000e-06	4.752804e-07	-3.844337e-10	3.303742e+00	-2.959812e+01
1.950000e-06	5.218816e-07	-3.655968e-10	3.627674e+00	-2.812902e+01
1.960000e-06	5.684154e-07	-3.461556e-10	3.951137e+00	-2.662380e+01
1.970000e-06	6.148262e-07	-3.244604e-10	4.273746e+00	-2.508351e+01
1.980000e-06	6.612478e-07	-3.028653e-10	4.596429e+00	-2.350933e+01
1.990000e-06	7.076552e-07	-2.809340e-10	4.919013e+00	-2.190265e+01
2.000000e-06	7.539518e-07	-2.561710e-10	5.240827e+00	-2.026499e+01
2.010000e-06	8.001716e-07	-2.325571e-10	5.562108e+00	-1.859805e+01
2.020000e-06	8.463654e-07	-2.064477e-10	5.883208e+00	-1.690368e+01
2.030000e-06	8.925846e-07	-1.808708e-10	6.204484e+00	-1.518387e+01
2.040000e-06	9.388298e-07	-1.550363e-10	6.525941e+00	-1.344075e+01
2.050000e-06	9.850059e-07	-1.320300e-10	6.846918e+00	-1.167656e+01
2.060000e-06	1.031013e-06	-1.102935e-10	7.166717e+00	-9.893650e+00
2.070000e-06	1.076925e-06	-9.061834e-11	7.485857e+00	-8.094472e+00
2.080000e-06	1.122829e-06	-6.959492e-11	7.804949e+00	-6.281553e+00
2.090000e-06	1.168607e-06	-4.505993e-11	8.123155e+00	-4.457485e+00
2.100000e-06	1.214260e-06	-1.579019e-11	8.440496e+00	-2.624911e+00
2.110000e-06	1.259805e-06	1.514987e-11	8.757089e+00	-7.865071e-01
2.120000e-06	1.305188e-06	4.345710e-11	9.072547e+00	1.055033e+00
2.130000e-06	1.350512e-06	6.930197e-11	9.387602e+00	2.897014e+00
2.140000e-06	1.395859e-06	9.027525e-11	9.702816e+00	4.736755e+00
2.150000e-06	1.441068e-06	1.063536e-10	1.001707e+01	6.571603e+00
2.160000e-06	1.486128e-06	1.233607e-10	1.033029e+01	8.398950e+00
2.170000e-06	1.531114e-06	1.461455e-10	1.064299e+01	1.021625e+01
2.180000e-06	1.576021e-06	1.744183e-10	1.095515e+01	1.202101e+01
2.190000e-06	1.620909e-06	2.038570e-10	1.126717e+01	1.381085e+01
2.200000e-06	1.665618e-06	2.344114e-10	1.157795e+01	1.558347e+01
2.210000e-06	1.710077e-06	2.642672e-10	1.188699e+01	1.733667e+01
2.220000e-06	1.754383e-06	2.892050e-10	1.219497e+01	1.906836e+01
2.230000e-06	1.798594e-06	3.102108e-10	1.250229e+01	2.077660e+01
2.240000e-06	1.842742e-06	3.248763e-10	1.280917e+01	2.245956e+01
2.250000e-06	1.886841e-06	3.370245e-10	1.311570e+01	2.411553e+01
2.260000e-06	1.930882e-06	3.533717e-10	1.342184e+01	2.574297e+01
2.270000e-06	1.974859e-06	3.786346e-10	1.372753e+01	2.734046e+01
2.280000e-06	2.018765e-06	4.058013e-10	1.403272e+01	2.890673e+01
2.290000e-06	2.062617e-06	4.329882e-10	1.433755e+01	3.044066e+01
2.300000e-06	2.106440e-06	4.589719e-10	1.464217e+01	3.194128e+01
2.310000e-06	2.150172e-06	4.792079e-10	1.494616e+01	3.340773e+01
2.320000e-06	2.193800e-06	4.924885e-10	1.524942e+01	3.483933e+01
2.330000e-06	2.237269e-06	5.035955e-10	1.555158e+01	3.623552e+01
2.340000e-06	2.280480e-06	5.175499e-10	1.585194e+01	3.759588e+01
2.350000e-06	2.323456e-06	5.358112e-10	1.615068e+01	3.892010e+01
2.360000e-06	2.366235e-06	5.572368e-10	1.644804e+01	4.020803e+01
2.370000e-06	2.408725e-06	5.795074e-10	1.674340e+01	4.145961e+01
2.380000e-06	2.450869e-06	5.981564e-10	1.703634e+01	4.267490e+01
2.390000e-06	2.492670e-06	6.117143e-10	1.732691e+01	4.385406e+01
2.400000e-06	2.534104e-06	6.230881e-10	1.761492e+01	4.499737e+01
2.410000e-06	2.575227e-06	6.353576e-10	1.790078e+01	4.610517e+01
2.420000e-06	2.616093e-06	6.491452e-10	1.818484e+01	4.717791e+01
2.430000e-06	2.656714e-06	6.651266e-10	1.846720e+01	4.821611e+01
2.440000e-06	2.697136e-06	6.812641e-10	1.874818e+01	4.922034e+01
2.450000e-06	2.737374e-06	6.959236e-10	1.902788e+01	5.019125e+01
2.460000e-06	2.777488e-06	7.094077e-10	1.930672e+01	5.112955e+01
2.470000e-06	2.817494e-06	7.230382e-10	1.958481e+01	5.203598e+01
2.480000e-06	2.857378e-06	7.338466e-10	1.986205e+01	5.291132e+01
2.490000e-06	2.897166e-06	7.449859e-10	2.013862e+01	5.375638e+01
2.500000e-06	2.936849e-06	7.559394e-10	2.041446e+01	5.457202e+01
2.510000e-06	2.976409e-06	7.656399e-10	2.068945e+01	5.535907e+01
2.520000e-06	3.015735e-06	7.760507e-10	2.096281e+01	5.611841e+01
2.530000e-06	3.054717e-06	7.899752e-10	2.123378e+01	5.685090e+01
2.540000e-06	3.093457e-06	8.082586e-10	2.150306e+01	5.755743e+01
2.550000e-06	3.131965e-06	8.212217e-10	2.177074e+01	5.823883e+01
2.560000e-06	3.170220e-06	8.272852e-10	2.203666e+01	5.889598e+01
2.570000e-06	3.208301e-06	8.275835e-10	2.230136e+01	5.952968e+01
2.580000e-06	3.246206e-06	8.267968e-10	2.256484e+01	6.014077e+01
2.590000e-06	3.283928e-06	8.287928e-10	2.282706e+01	6.073001e+01
2.600000e-06	3.321469e-06	8.417608e-10	2.308801e+01	6.129817e+01
2.610000e-06	3.358764e-06	8.593354e-10	2.334725e+01	6.184596e+01
2.620000e-06	3.395719e-06	8.767584e-10	2.360413e+01	6.237408e+01
2.630000e-06	3.432466e-06	8.895669e-10	2.385956e+01	6.288318e+01
2.640000e-06	3.469037e-06	8.956696e-10	2.411378e+01	6.337389e+01
2.650000e-06	3.505297e-06	8.982591e-10	2.436582e+01	6.384677e+01
2.660000e-06	3.541385e-06	8.976044e-10	2.461668e+01	6.430238e+01
2.670000e-06	3.577404e-06	8.967433e-10	2.486705e+01	6.474122e+01
2.680000e-06	3.613293e-06	9.014897e-10	2.511652e+01	6.516376e+01
2.690000e-06	3.649071e-06	9.116009e-10	2.536522e+01	6.557045e+01
2.700000e-06	3.684701e-06	9.248369e-10	2.561289e+01	6.596169e+01
2.710000e-06	3.719999e-06	9.344589e-10	2.585825e+01	6.633787e+01
2.720000e-06	3.754884e-06	9.398877e-10	2.610074e+01	6.669933e+01
2.730000e-06	3.789410e-06	9.412392e-10	2.634073e+01	6.704642e+01
2.740000e-06	3.823528e-06	9.392202e-10	2.657790e+01	6.737943e+01
2.750000e-06	3.856998e-06	9.398819e-10	2.681055e+01	6.769868e+01
2.760000e-06	3.889943e-06	9.440536e-10	2.703956e+01	6.800445e+01
2.770000e-06	3.922609e-06	9.508574e-10	2.726662e+01	6.829702e+01
2.780000e-06	3.954982e-06	9.569807e-10	2.749165e+01	6.857666e+01
2.790000e-06	3.987139e-06	9.637974e-10	2.771518e+01	6.884365e+01
2.800000e-06	4.019151e-06	9.718292e-10	2.793770e+01	6.909828e+01
2.810000e-06	4.051038e-06	9.789198e-10	2.815935e+01	6.934083e+01
2.820000e-06	4.082718e-06	9.827647e-10	2.837956e+01	6.957160e+01
2.830000e-06	4.114104e-06	9.855000e-10	2.859773e+01	6.979090e+01
2.840000e-06	4.145218e-06	9.850129e-10	2.881401e+01	6.999906e+01
2.850000e-06	4.175997e-06	9.847202e-10	2.902796e+01	7.019641e+01
2.860000e-06	4.206443e-06	9.876896e-10	2.923959e+01	7.038331e+01
2.870000e-06	4.236566e-06	9.946815e-10	2.944898e+01	7.056013e+01
2.880000e-06	4.266402e-06	1.000767e-09	2.965638e+01	7.072728e+01
2.890000e-06	4.296090e-06	1.004330e-09	2.986274e+01	7.088514e+01
2.900000e-06	4.325476e-06	1.006997e-09	3.006701e+01	7.103414e+01
