# Temperatura_=_2.44
# Concentracion g/m^3_=_1620.0
# C_Vs_to_Am_M_A/Vsm_=_65563218390.804596
# pendiente_HvsI_1/m_=_3716.3
# ordenada_HvsI_A/m_=_1297.0
# frecuencia_Hz_=_135113.25393368752

Tiempo_(s)	Campo_(V.s)	Magnetizacion_(V.s)	Campo_(kA/m)	Magnetizacion_(A/m)
0.000000e+00	-5.532103e-06	-1.455262e-09	-3.837696e+01	-9.553539e+01
1.000000e-08	-5.532437e-06	-1.451486e-09	-3.837928e+01	-9.550889e+01
2.000000e-08	-5.532485e-06	-1.450027e-09	-3.837962e+01	-9.548181e+01
3.000000e-08	-5.532267e-06	-1.451353e-09	-3.837811e+01	-9.545372e+01
4.000000e-08	-5.531667e-06	-1.454559e-09	-3.837394e+01	-9.542415e+01
5.000000e-08	-5.530447e-06	-1.452859e-09	-3.836548e+01	-9.539268e+01
6.000000e-08	-5.528617e-06	-1.443934e-09	-3.835279e+01	-9.535889e+01
7.000000e-08	-5.526166e-06	-1.427101e-09	-3.833578e+01	-9.532239e+01
8.000000e-08	-5.523116e-06	-1.405672e-09	-3.831463e+01	-9.528283e+01
9.000000e-08	-5.519635e-06	-1.453445e-09	-3.829047e+01	-9.523988e+01
1.000000e-07	-5.515765e-06	-1.562062e-09	-3.826363e+01	-9.519329e+01
1.100000e-07	-5.511396e-06	-1.537011e-09	-3.823332e+01	-9.514281e+01
1.200000e-07	-5.506719e-06	-1.370818e-09	-3.820088e+01	-9.508826e+01
1.300000e-07	-5.502017e-06	-1.348622e-09	-3.816826e+01	-9.502951e+01
1.400000e-07	-5.497080e-06	-1.437485e-09	-3.813401e+01	-9.496647e+01
1.500000e-07	-5.491566e-06	-1.522807e-09	-3.809576e+01	-9.489909e+01
1.600000e-07	-5.485593e-06	-1.387811e-09	-3.805432e+01	-9.482737e+01
1.700000e-07	-5.479424e-06	-1.387086e-09	-3.801153e+01	-9.475136e+01
1.800000e-07	-5.472880e-06	-1.461833e-09	-3.796613e+01	-9.467113e+01
1.900000e-07	-5.465861e-06	-1.522551e-09	-3.791743e+01	-9.458679e+01
2.000000e-07	-5.458462e-06	-1.412590e-09	-3.786611e+01	-9.449848e+01
2.100000e-07	-5.450801e-06	-1.350782e-09	-3.781297e+01	-9.440636e+01
2.200000e-07	-5.442899e-06	-1.409254e-09	-3.775815e+01	-9.431061e+01
2.300000e-07	-5.434726e-06	-1.482330e-09	-3.770145e+01	-9.421141e+01
2.400000e-07	-5.426242e-06	-1.465648e-09	-3.764260e+01	-9.410897e+01
2.500000e-07	-5.417159e-06	-1.408997e-09	-3.757959e+01	-9.400348e+01
2.600000e-07	-5.407150e-06	-1.430870e-09	-3.751015e+01	-9.389513e+01
2.700000e-07	-5.396399e-06	-1.428843e-09	-3.743557e+01	-9.378412e+01
2.800000e-07	-5.385284e-06	-1.420885e-09	-3.735846e+01	-9.367062e+01
2.900000e-07	-5.373829e-06	-1.386891e-09	-3.727900e+01	-9.355479e+01
3.000000e-07	-5.362040e-06	-1.436833e-09	-3.719721e+01	-9.343677e+01
3.100000e-07	-5.349873e-06	-1.423302e-09	-3.711281e+01	-9.331668e+01
3.200000e-07	-5.337229e-06	-1.415427e-09	-3.702510e+01	-9.319464e+01
3.300000e-07	-5.324086e-06	-1.360043e-09	-3.693392e+01	-9.307072e+01
3.400000e-07	-5.310616e-06	-1.410543e-09	-3.684048e+01	-9.294499e+01
3.500000e-07	-5.296874e-06	-1.403092e-09	-3.674515e+01	-9.281749e+01
3.600000e-07	-5.282609e-06	-1.391292e-09	-3.664619e+01	-9.268823e+01
3.700000e-07	-5.267764e-06	-1.375844e-09	-3.654321e+01	-9.255723e+01
3.800000e-07	-5.252609e-06	-1.442573e-09	-3.643808e+01	-9.242447e+01
3.900000e-07	-5.236916e-06	-1.391315e-09	-3.632921e+01	-9.228994e+01
4.000000e-07	-5.220593e-06	-1.349761e-09	-3.621598e+01	-9.215361e+01
4.100000e-07	-5.204041e-06	-1.396354e-09	-3.610115e+01	-9.201544e+01
4.200000e-07	-5.187269e-06	-1.427313e-09	-3.598481e+01	-9.187540e+01
4.300000e-07	-5.170105e-06	-1.341913e-09	-3.586574e+01	-9.173344e+01
4.400000e-07	-5.152606e-06	-1.366168e-09	-3.574434e+01	-9.158955e+01
4.500000e-07	-5.134772e-06	-1.454493e-09	-3.562063e+01	-9.144368e+01
4.600000e-07	-5.116427e-06	-1.389615e-09	-3.549337e+01	-9.129584e+01
4.700000e-07	-5.097590e-06	-1.325991e-09	-3.536269e+01	-9.114601e+01
4.800000e-07	-5.078502e-06	-1.401235e-09	-3.523028e+01	-9.099421e+01
4.900000e-07	-5.059207e-06	-1.406384e-09	-3.509642e+01	-9.084047e+01
5.000000e-07	-5.039631e-06	-1.315676e-09	-3.496062e+01	-9.068483e+01
5.100000e-07	-5.019858e-06	-1.367192e-09	-3.482345e+01	-9.052734e+01
5.200000e-07	-4.999827e-06	-1.400472e-09	-3.468449e+01	-9.036809e+01
5.300000e-07	-4.979362e-06	-1.325858e-09	-3.454252e+01	-9.020716e+01
5.400000e-07	-4.958484e-06	-1.334586e-09	-3.439769e+01	-9.004467e+01
5.500000e-07	-4.937308e-06	-1.423654e-09	-3.425079e+01	-8.988074e+01
5.600000e-07	-4.915745e-06	-1.351076e-09	-3.410120e+01	-8.971548e+01
5.700000e-07	-4.893833e-06	-1.309148e-09	-3.394920e+01	-8.954905e+01
5.800000e-07	-4.871695e-06	-1.374446e-09	-3.379562e+01	-8.938158e+01
5.900000e-07	-4.849180e-06	-1.373312e-09	-3.363944e+01	-8.921322e+01
6.000000e-07	-4.826227e-06	-1.304373e-09	-3.348021e+01	-8.904412e+01
6.100000e-07	-4.803000e-06	-1.356025e-09	-3.331908e+01	-8.887442e+01
6.200000e-07	-4.779495e-06	-1.363461e-09	-3.315602e+01	-8.870424e+01
6.300000e-07	-4.755756e-06	-1.310221e-09	-3.299134e+01	-8.853370e+01
6.400000e-07	-4.731891e-06	-1.316961e-09	-3.282579e+01	-8.836292e+01
6.500000e-07	-4.707764e-06	-1.356102e-09	-3.265842e+01	-8.819197e+01
6.600000e-07	-4.683155e-06	-1.315514e-09	-3.248770e+01	-8.802094e+01
6.700000e-07	-4.657977e-06	-1.319125e-09	-3.231303e+01	-8.784985e+01
6.800000e-07	-4.632253e-06	-1.346061e-09	-3.213459e+01	-8.767872e+01
6.900000e-07	-4.605963e-06	-1.321648e-09	-3.195220e+01	-8.750756e+01
7.000000e-07	-4.579133e-06	-1.293309e-09	-3.176608e+01	-8.733632e+01
7.100000e-07	-4.551940e-06	-1.316575e-09	-3.157744e+01	-8.716493e+01
7.200000e-07	-4.524486e-06	-1.306937e-09	-3.138699e+01	-8.699331e+01
7.300000e-07	-4.496858e-06	-1.291885e-09	-3.119533e+01	-8.682132e+01
7.400000e-07	-4.469091e-06	-1.309834e-09	-3.100270e+01	-8.664881e+01
7.500000e-07	-4.441118e-06	-1.312740e-09	-3.080865e+01	-8.647562e+01
7.600000e-07	-4.412900e-06	-1.293025e-09	-3.061290e+01	-8.630152e+01
7.700000e-07	-4.384267e-06	-1.296027e-09	-3.041427e+01	-8.612630e+01
7.800000e-07	-4.355228e-06	-1.298389e-09	-3.021282e+01	-8.594971e+01
7.900000e-07	-4.325954e-06	-1.276297e-09	-3.000974e+01	-8.577148e+01
8.000000e-07	-4.296434e-06	-1.280893e-09	-2.980496e+01	-8.559133e+01
8.100000e-07	-4.266664e-06	-1.291281e-09	-2.959844e+01	-8.540898e+01
8.200000e-07	-4.236599e-06	-1.278397e-09	-2.938988e+01	-8.522412e+01
8.300000e-07	-4.206262e-06	-1.264322e-09	-2.917942e+01	-8.503644e+01
8.400000e-07	-4.175675e-06	-1.277039e-09	-2.896723e+01	-8.484565e+01
8.500000e-07	-4.144710e-06	-1.266117e-09	-2.875243e+01	-8.465145e+01
8.600000e-07	-4.113511e-06	-1.256833e-09	-2.853600e+01	-8.445355e+01
8.700000e-07	-4.082132e-06	-1.262216e-09	-2.831832e+01	-8.425165e+01
8.800000e-07	-4.050507e-06	-1.265934e-09	-2.809893e+01	-8.404550e+01
8.900000e-07	-4.018667e-06	-1.244911e-09	-2.787805e+01	-8.383484e+01
9.000000e-07	-3.986589e-06	-1.244044e-09	-2.765552e+01	-8.361944e+01
9.100000e-07	-3.954279e-06	-1.239394e-09	-2.743138e+01	-8.339910e+01
9.200000e-07	-3.921612e-06	-1.224466e-09	-2.720477e+01	-8.317363e+01
9.300000e-07	-3.888522e-06	-1.215505e-09	-2.697522e+01	-8.294288e+01
9.400000e-07	-3.855108e-06	-1.226585e-09	-2.674342e+01	-8.270671e+01
9.500000e-07	-3.821264e-06	-1.216192e-09	-2.650864e+01	-8.246505e+01
9.600000e-07	-3.786895e-06	-1.205522e-09	-2.627022e+01	-8.221780e+01
9.700000e-07	-3.752053e-06	-1.204568e-09	-2.602851e+01	-8.196496e+01
9.800000e-07	-3.716837e-06	-1.200094e-09	-2.578421e+01	-8.170650e+01
9.900000e-07	-3.681448e-06	-1.184032e-09	-2.553872e+01	-8.144246e+01
1.000000e-06	-3.645927e-06	-1.184267e-09	-2.529230e+01	-8.117290e+01
1.010000e-06	-3.610267e-06	-1.185497e-09	-2.504492e+01	-8.089789e+01
1.020000e-06	-3.574457e-06	-1.175969e-09	-2.479650e+01	-8.061756e+01
1.030000e-06	-3.538424e-06	-1.170912e-09	-2.454654e+01	-8.033205e+01
1.040000e-06	-3.502152e-06	-1.173551e-09	-2.429492e+01	-8.004150e+01
1.050000e-06	-3.465617e-06	-1.168933e-09	-2.404147e+01	-7.974610e+01
1.060000e-06	-3.428803e-06	-1.161534e-09	-2.378608e+01	-7.944604e+01
1.070000e-06	-3.391710e-06	-1.161149e-09	-2.352877e+01	-7.914154e+01
1.080000e-06	-3.354320e-06	-1.153158e-09	-2.326938e+01	-7.883280e+01
1.090000e-06	-3.316669e-06	-1.140627e-09	-2.300820e+01	-7.852006e+01
1.100000e-06	-3.278889e-06	-1.133378e-09	-2.274611e+01	-7.820353e+01
1.110000e-06	-3.240878e-06	-1.131636e-09	-2.248242e+01	-7.788343e+01
1.120000e-06	-3.202607e-06	-1.121565e-09	-2.221693e+01	-7.755999e+01
1.130000e-06	-3.164239e-06	-1.116929e-09	-2.195076e+01	-7.723339e+01
1.140000e-06	-3.125649e-06	-1.113912e-09	-2.168306e+01	-7.690383e+01
1.150000e-06	-3.086705e-06	-1.110084e-09	-2.141290e+01	-7.657148e+01
1.160000e-06	-3.047580e-06	-1.103673e-09	-2.114149e+01	-7.623647e+01
1.170000e-06	-3.008426e-06	-1.103978e-09	-2.086987e+01	-7.589893e+01
1.180000e-06	-2.969114e-06	-1.096953e-09	-2.059715e+01	-7.555893e+01
1.190000e-06	-2.929584e-06	-1.088936e-09	-2.032293e+01	-7.521653e+01
1.200000e-06	-2.889907e-06	-1.082882e-09	-2.004769e+01	-7.487174e+01
1.210000e-06	-2.850057e-06	-1.078366e-09	-1.977124e+01	-7.452453e+01
1.220000e-06	-2.810025e-06	-1.068145e-09	-1.949353e+01	-7.417485e+01
1.230000e-06	-2.769915e-06	-1.063888e-09	-1.921528e+01	-7.382257e+01
1.240000e-06	-2.729674e-06	-1.058315e-09	-1.893613e+01	-7.346755e+01
1.250000e-06	-2.689095e-06	-1.050878e-09	-1.865463e+01	-7.310960e+01
1.260000e-06	-2.648245e-06	-1.045108e-09	-1.837125e+01	-7.274847e+01
1.270000e-06	-2.607193e-06	-1.042805e-09	-1.808646e+01	-7.238389e+01
1.280000e-06	-2.565773e-06	-1.036132e-09	-1.779913e+01	-7.201554e+01
1.290000e-06	-2.524038e-06	-1.026702e-09	-1.750960e+01	-7.164306e+01
1.300000e-06	-2.482088e-06	-1.017754e-09	-1.721859e+01	-7.126606e+01
1.310000e-06	-2.439839e-06	-1.009069e-09	-1.692550e+01	-7.088412e+01
1.320000e-06	-2.397302e-06	-9.999587e-10	-1.663041e+01	-7.049680e+01
1.330000e-06	-2.354499e-06	-9.938901e-10	-1.633349e+01	-7.010361e+01
1.340000e-06	-2.311413e-06	-9.905682e-10	-1.603459e+01	-6.970407e+01
1.350000e-06	-2.268125e-06	-9.873193e-10	-1.573430e+01	-6.929768e+01
1.360000e-06	-2.224695e-06	-9.854006e-10	-1.543302e+01	-6.888393e+01
1.370000e-06	-2.181145e-06	-9.826724e-10	-1.513091e+01	-6.846230e+01
1.380000e-06	-2.137545e-06	-9.766766e-10	-1.482845e+01	-6.803230e+01
1.390000e-06	-2.093828e-06	-9.659295e-10	-1.452517e+01	-6.759341e+01
1.400000e-06	-2.049965e-06	-9.539803e-10	-1.422089e+01	-6.714516e+01
1.410000e-06	-2.006045e-06	-9.413898e-10	-1.391621e+01	-6.668707e+01
1.420000e-06	-1.962101e-06	-9.293645e-10	-1.361137e+01	-6.621869e+01
1.430000e-06	-1.918067e-06	-9.183233e-10	-1.330589e+01	-6.573959e+01
1.440000e-06	-1.873944e-06	-9.104085e-10	-1.299981e+01	-6.524939e+01
1.450000e-06	-1.829766e-06	-9.062333e-10	-1.269334e+01	-6.474770e+01
1.460000e-06	-1.785432e-06	-9.030120e-10	-1.238579e+01	-6.423419e+01
1.470000e-06	-1.740902e-06	-8.950893e-10	-1.207688e+01	-6.370855e+01
1.480000e-06	-1.696211e-06	-8.834929e-10	-1.176685e+01	-6.317048e+01
1.490000e-06	-1.651349e-06	-8.691961e-10	-1.145564e+01	-6.261974e+01
1.500000e-06	-1.606392e-06	-8.559283e-10	-1.114377e+01	-6.205607e+01
1.510000e-06	-1.561350e-06	-8.422825e-10	-1.083130e+01	-6.147926e+01
1.520000e-06	-1.516187e-06	-8.317498e-10	-1.051800e+01	-6.088910e+01
1.530000e-06	-1.470957e-06	-8.233535e-10	-1.020423e+01	-6.028539e+01
1.540000e-06	-1.425567e-06	-8.181242e-10	-9.889354e+00	-5.966790e+01
1.550000e-06	-1.380029e-06	-8.094500e-10	-9.573451e+00	-5.903644e+01
1.560000e-06	-1.334430e-06	-7.963026e-10	-9.257124e+00	-5.839075e+01
1.570000e-06	-1.288796e-06	-7.785752e-10	-8.940558e+00	-5.773057e+01
1.580000e-06	-1.243120e-06	-7.627865e-10	-8.623693e+00	-5.705561e+01
1.590000e-06	-1.197297e-06	-7.482693e-10	-8.305814e+00	-5.636551e+01
1.600000e-06	-1.151369e-06	-7.352355e-10	-7.987208e+00	-5.565987e+01
1.610000e-06	-1.105454e-06	-7.239898e-10	-7.668686e+00	-5.493823e+01
1.620000e-06	-1.059522e-06	-7.147562e-10	-7.350051e+00	-5.420005e+01
1.630000e-06	-1.013504e-06	-7.056087e-10	-7.030820e+00	-5.344473e+01
1.640000e-06	-9.673652e-07	-6.947720e-10	-6.710747e+00	-5.267155e+01
1.650000e-06	-9.211337e-07	-6.818147e-10	-6.390032e+00	-5.187974e+01
1.660000e-06	-8.747797e-07	-6.679821e-10	-6.068469e+00	-5.106843e+01
1.670000e-06	-8.283219e-07	-6.564773e-10	-5.746184e+00	-5.023664e+01
1.680000e-06	-7.818221e-07	-6.460061e-10	-5.423609e+00	-4.938332e+01
1.690000e-06	-7.352804e-07	-6.340147e-10	-5.100742e+00	-4.850731e+01
1.700000e-06	-6.887380e-07	-6.192435e-10	-4.777871e+00	-4.760740e+01
1.710000e-06	-6.422160e-07	-6.023822e-10	-4.455142e+00	-4.668227e+01
1.720000e-06	-5.955890e-07	-5.825598e-10	-4.131684e+00	-4.573054e+01
1.730000e-06	-5.489052e-07	-5.627610e-10	-3.807832e+00	-4.475079e+01
1.740000e-06	-5.022766e-07	-5.450386e-10	-3.484363e+00	-4.374153e+01
1.750000e-06	-4.556069e-07	-5.313170e-10	-3.160609e+00	-4.270127e+01
1.760000e-06	-4.088627e-07	-5.173577e-10	-2.836338e+00	-4.162847e+01
1.770000e-06	-3.620482e-07	-5.010237e-10	-2.511579e+00	-4.052164e+01
1.780000e-06	-3.151481e-07	-4.836532e-10	-2.186226e+00	-3.937929e+01
1.790000e-06	-2.682113e-07	-4.663055e-10	-1.860619e+00	-3.819997e+01
1.800000e-06	-2.212725e-07	-4.490604e-10	-1.534998e+00	-3.698232e+01
1.810000e-06	-1.742904e-07	-4.318769e-10	-1.209076e+00	-3.572507e+01
1.820000e-06	-1.272790e-07	-4.134497e-10	-8.829519e-01	-3.442703e+01
1.830000e-06	-8.027564e-08	-3.956862e-10	-5.568833e-01	-3.308720e+01
1.840000e-06	-3.333392e-08	-3.783058e-10	-2.312421e-01	-3.170468e+01
1.850000e-06	1.356325e-08	-3.604281e-10	9.409017e-02	-3.027879e+01
1.860000e-06	6.048616e-08	-3.428152e-10	4.196009e-01	-2.880903e+01
1.870000e-06	1.074185e-07	-3.243897e-10	7.451770e-01	-2.729511e+01
1.880000e-06	1.543806e-07	-3.034921e-10	1.070960e+00	-2.573698e+01
1.890000e-06	2.013144e-07	-2.818197e-10	1.396546e+00	-2.413482e+01
1.900000e-06	2.481658e-07	-2.571227e-10	1.721561e+00	-2.248909e+01
1.910000e-06	2.950323e-07	-2.330145e-10	2.046680e+00	-2.080049e+01
1.920000e-06	3.419292e-07	-2.085793e-10	2.372011e+00	-1.906999e+01
1.930000e-06	3.888264e-07	-1.840249e-10	2.697343e+00	-1.729883e+01
1.940000e-06	4.357350e-07	-1.590638e-10	3.022754e+00	-1.548852e+01
1.950000e-06	4.826048e-07	-1.355899e-10	3.347897e+00	-1.364083e+01
1.960000e-06	5.293527e-07	-1.133419e-10	3.672193e+00	-1.175779e+01
1.970000e-06	5.760246e-07	-8.962745e-11	3.995962e+00	-9.841679e+00
1.980000e-06	6.227216e-07	-6.488772e-11	4.319906e+00	-7.894982e+00
1.990000e-06	6.693288e-07	-3.795857e-11	4.643227e+00	-5.920413e+00
2.000000e-06	7.158232e-07	-9.266985e-12	4.965765e+00	-3.920873e+00
2.010000e-06	7.622183e-07	2.016938e-11	5.287614e+00	-1.899433e+00
2.020000e-06	8.084932e-07	5.021667e-11	5.608630e+00	1.406953e-01
2.030000e-06	8.548129e-07	8.011700e-11	5.929956e+00	2.196179e+00
2.040000e-06	9.011223e-07	1.085982e-10	6.251211e+00	4.263598e+00
2.050000e-06	9.472657e-07	1.358854e-10	6.571314e+00	6.339471e+00
2.060000e-06	9.933284e-07	1.613119e-10	6.890857e+00	8.420285e+00
2.070000e-06	1.039364e-06	1.877181e-10	7.210213e+00	1.050253e+01
2.080000e-06	1.085348e-06	2.150399e-10	7.529210e+00	1.258271e+01
2.090000e-06	1.131347e-06	2.448014e-10	7.848315e+00	1.465740e+01
2.100000e-06	1.177290e-06	2.745464e-10	8.167025e+00	1.672326e+01
2.110000e-06	1.223087e-06	3.040466e-10	8.484728e+00	1.877704e+01
2.120000e-06	1.268758e-06	3.321833e-10	8.801550e+00	2.081565e+01
2.130000e-06	1.314285e-06	3.614194e-10	9.117378e+00	2.283614e+01
2.140000e-06	1.359670e-06	3.907165e-10	9.432221e+00	2.483573e+01
2.150000e-06	1.405033e-06	4.165143e-10	9.746906e+00	2.681185e+01
2.160000e-06	1.450396e-06	4.396711e-10	1.006160e+01	2.876211e+01
2.170000e-06	1.495651e-06	4.612625e-10	1.037554e+01	3.068437e+01
2.180000e-06	1.540770e-06	4.845890e-10	1.068854e+01	3.257668e+01
2.190000e-06	1.585792e-06	5.132137e-10	1.100086e+01	3.443734e+01
2.200000e-06	1.630673e-06	5.437945e-10	1.131221e+01	3.626486e+01
2.210000e-06	1.675368e-06	5.740729e-10	1.162226e+01	3.805801e+01
2.220000e-06	1.719909e-06	6.022869e-10	1.193125e+01	3.981574e+01
2.230000e-06	1.764301e-06	6.257515e-10	1.223920e+01	4.153724e+01
2.240000e-06	1.808560e-06	6.458057e-10	1.254623e+01	4.322192e+01
2.250000e-06	1.852703e-06	6.631098e-10	1.285246e+01	4.486935e+01
2.260000e-06	1.896722e-06	6.782690e-10	1.315782e+01	4.647931e+01
2.270000e-06	1.940725e-06	6.958937e-10	1.346308e+01	4.805173e+01
2.280000e-06	1.984677e-06	7.176949e-10	1.376798e+01	4.958669e+01
2.290000e-06	2.028470e-06	7.416765e-10	1.407178e+01	5.108441e+01
2.300000e-06	2.072195e-06	7.664528e-10	1.437511e+01	5.254521e+01
2.310000e-06	2.115883e-06	7.895977e-10	1.467817e+01	5.396952e+01
2.320000e-06	2.159456e-06	8.093834e-10	1.498044e+01	5.535784e+01
2.330000e-06	2.202972e-06	8.246925e-10	1.528232e+01	5.671073e+01
2.340000e-06	2.246447e-06	8.382899e-10	1.558392e+01	5.802880e+01
2.350000e-06	2.289779e-06	8.527165e-10	1.588451e+01	5.931269e+01
2.360000e-06	2.332946e-06	8.681600e-10	1.618397e+01	6.056306e+01
2.370000e-06	2.375916e-06	8.849633e-10	1.648206e+01	6.178055e+01
2.380000e-06	2.418590e-06	9.038689e-10	1.677809e+01	6.296584e+01
2.390000e-06	2.461008e-06	9.220028e-10	1.707235e+01	6.411954e+01
2.400000e-06	2.503125e-06	9.376652e-10	1.736452e+01	6.524228e+01
2.410000e-06	2.544829e-06	9.507726e-10	1.765383e+01	6.633465e+01
2.420000e-06	2.586216e-06	9.618670e-10	1.794094e+01	6.739720e+01
2.430000e-06	2.627313e-06	9.739175e-10	1.822603e+01	6.843046e+01
2.440000e-06	2.668102e-06	9.886134e-10	1.850899e+01	6.943493e+01
2.450000e-06	2.708602e-06	1.002989e-09	1.878995e+01	7.041108e+01
2.460000e-06	2.748880e-06	1.018005e-09	1.906936e+01	7.135934e+01
2.470000e-06	2.788957e-06	1.031845e-09	1.934738e+01	7.228014e+01
2.480000e-06	2.828871e-06	1.042812e-09	1.962427e+01	7.317388e+01
2.490000e-06	2.868660e-06	1.053112e-09	1.990030e+01	7.404095e+01
2.500000e-06	2.908341e-06	1.062636e-09	2.017556e+01	7.488174e+01
2.510000e-06	2.947900e-06	1.073418e-09	2.044999e+01	7.569665e+01
2.520000e-06	2.987305e-06	1.085196e-09	2.072335e+01	7.648606e+01
2.530000e-06	3.026553e-06	1.097349e-09	2.099562e+01	7.725040e+01
2.540000e-06	3.065647e-06	1.110632e-09	2.126682e+01	7.799009e+01
2.550000e-06	3.104503e-06	1.123753e-09	2.153637e+01	7.870560e+01
2.560000e-06	3.143121e-06	1.132418e-09	2.180427e+01	7.939739e+01
2.570000e-06	3.181546e-06	1.136554e-09	2.207083e+01	8.006600e+01
2.580000e-06	3.219743e-06	1.140081e-09	2.233580e+01	8.071197e+01
2.590000e-06	3.257705e-06	1.144280e-09	2.259915e+01	8.133587e+01
2.600000e-06	3.295457e-06	1.150991e-09	2.286104e+01	8.193832e+01
2.610000e-06	3.333007e-06	1.162615e-09	2.312153e+01	8.251997e+01
2.620000e-06	3.370270e-06	1.177705e-09	2.338003e+01	8.308147e+01
2.630000e-06	3.407319e-06	1.192295e-09	2.363705e+01	8.362353e+01
2.640000e-06	3.444167e-06	1.201757e-09	2.389266e+01	8.414685e+01
2.650000e-06	3.480782e-06	1.206687e-09	2.414667e+01	8.465216e+01
2.660000e-06	3.517107e-06	1.208378e-09	2.439866e+01	8.514017e+01
2.670000e-06	3.553100e-06	1.208988e-09	2.464835e+01	8.561161e+01
2.680000e-06	3.588935e-06	1.212027e-09	2.489694e+01	8.606720e+01
2.690000e-06	3.624706e-06	1.219590e-09	2.514509e+01	8.650762e+01
2.700000e-06	3.660348e-06	1.230518e-09	2.539234e+01	8.693356e+01
2.710000e-06	3.695828e-06	1.239174e-09	2.563848e+01	8.734565e+01
2.720000e-06	3.731161e-06	1.244242e-09	2.588358e+01	8.774449e+01
2.730000e-06	3.766255e-06	1.246507e-09	2.612703e+01	8.813064e+01
2.740000e-06	3.800898e-06	1.247445e-09	2.636736e+01	8.850460e+01
2.750000e-06	3.835108e-06	1.248185e-09	2.660468e+01	8.886684e+01
2.760000e-06	3.868961e-06	1.249952e-09	2.683952e+01	8.921774e+01
2.770000e-06	3.902303e-06	1.254714e-09	2.707082e+01	8.955766e+01
2.780000e-06	3.935047e-06	1.261883e-09	2.729797e+01	8.988687e+01
2.790000e-06	3.967379e-06	1.270336e-09	2.752226e+01	9.020561e+01
2.800000e-06	3.999494e-06	1.279017e-09	2.774505e+01	9.051407e+01
2.810000e-06	4.031390e-06	1.285885e-09	2.796631e+01	9.081235e+01
2.820000e-06	4.063130e-06	1.290247e-09	2.818650e+01	9.110055e+01
2.830000e-06	4.094698e-06	1.293728e-09	2.840549e+01	9.137872e+01
2.840000e-06	4.126045e-06	1.298624e-09	2.862294e+01	9.164687e+01
2.850000e-06	4.157224e-06	1.303576e-09	2.883924e+01	9.190498e+01
2.860000e-06	4.188076e-06	1.308347e-09	2.905326e+01	9.215304e+01
2.870000e-06	4.218533e-06	1.314400e-09	2.926455e+01	9.239102e+01
2.880000e-06	4.248707e-06	1.319670e-09	2.947387e+01	9.261889e+01
2.890000e-06	4.278611e-06	1.323271e-09	2.968132e+01	9.283663e+01
2.900000e-06	4.308274e-06	1.326766e-09	2.988710e+01	9.304425e+01
