# Temperatura_=_5.95
# Concentracion g/m^3_=_1620.0
# C_Vs_to_Am_M_A/Vsm_=_65563218390.804596
# pendiente_HvsI_1/m_=_3716.3
# ordenada_HvsI_A/m_=_1297.0
# frecuencia_Hz_=_135109.7981046748

Tiempo_(s)	Campo_(V.s)	Magnetizacion_(V.s)	Campo_(kA/m)	Magnetizacion_(A/m)
0.000000e+00	-5.519213e-06	-1.591747e-09	-3.835991e+01	-1.032666e+02
1.000000e-08	-5.519421e-06	-1.589211e-09	-3.836135e+01	-1.032152e+02
2.000000e-08	-5.519399e-06	-1.590266e-09	-3.836121e+01	-1.031673e+02
3.000000e-08	-5.519025e-06	-1.591481e-09	-3.835861e+01	-1.031233e+02
4.000000e-08	-5.518148e-06	-1.590182e-09	-3.835251e+01	-1.030832e+02
5.000000e-08	-5.516666e-06	-1.585672e-09	-3.834221e+01	-1.030472e+02
6.000000e-08	-5.514551e-06	-1.575937e-09	-3.832751e+01	-1.030152e+02
7.000000e-08	-5.511896e-06	-1.583293e-09	-3.830906e+01	-1.029872e+02
8.000000e-08	-5.508729e-06	-1.618020e-09	-3.828704e+01	-1.029631e+02
9.000000e-08	-5.504990e-06	-1.605969e-09	-3.826106e+01	-1.029428e+02
1.000000e-07	-5.500844e-06	-1.566737e-09	-3.823224e+01	-1.029260e+02
1.100000e-07	-5.496471e-06	-1.610687e-09	-3.820185e+01	-1.029123e+02
1.200000e-07	-5.491877e-06	-1.619571e-09	-3.816992e+01	-1.029015e+02
1.300000e-07	-5.487048e-06	-1.551328e-09	-3.813636e+01	-1.028931e+02
1.400000e-07	-5.481898e-06	-1.501361e-09	-3.810057e+01	-1.028867e+02
1.500000e-07	-5.476333e-06	-1.559758e-09	-3.806188e+01	-1.028818e+02
1.600000e-07	-5.470403e-06	-1.656302e-09	-3.802067e+01	-1.028779e+02
1.700000e-07	-5.464063e-06	-1.576563e-09	-3.797660e+01	-1.028744e+02
1.800000e-07	-5.457316e-06	-1.544630e-09	-3.792971e+01	-1.028708e+02
1.900000e-07	-5.450174e-06	-1.571600e-09	-3.788007e+01	-1.028665e+02
2.000000e-07	-5.442659e-06	-1.635606e-09	-3.782784e+01	-1.028608e+02
2.100000e-07	-5.434785e-06	-1.579506e-09	-3.777311e+01	-1.028533e+02
2.200000e-07	-5.426671e-06	-1.554723e-09	-3.771672e+01	-1.028433e+02
2.300000e-07	-5.418430e-06	-1.578281e-09	-3.765944e+01	-1.028303e+02
2.400000e-07	-5.409821e-06	-1.619888e-09	-3.759961e+01	-1.028137e+02
2.500000e-07	-5.400540e-06	-1.594914e-09	-3.753510e+01	-1.027929e+02
2.600000e-07	-5.390596e-06	-1.557557e-09	-3.746599e+01	-1.027675e+02
2.700000e-07	-5.380007e-06	-1.563338e-09	-3.739240e+01	-1.027370e+02
2.800000e-07	-5.368806e-06	-1.582054e-09	-3.731455e+01	-1.027010e+02
2.900000e-07	-5.357192e-06	-1.578388e-09	-3.723383e+01	-1.026589e+02
3.000000e-07	-5.345207e-06	-1.543585e-09	-3.715053e+01	-1.026106e+02
3.100000e-07	-5.332797e-06	-1.551804e-09	-3.706427e+01	-1.025557e+02
3.200000e-07	-5.319922e-06	-1.556789e-09	-3.697479e+01	-1.024938e+02
3.300000e-07	-5.306689e-06	-1.565813e-09	-3.688281e+01	-1.024249e+02
3.400000e-07	-5.293113e-06	-1.516120e-09	-3.678846e+01	-1.023486e+02
3.500000e-07	-5.279137e-06	-1.544200e-09	-3.669132e+01	-1.022650e+02
3.600000e-07	-5.264796e-06	-1.572871e-09	-3.659165e+01	-1.021739e+02
3.700000e-07	-5.250002e-06	-1.554944e-09	-3.648882e+01	-1.020753e+02
3.800000e-07	-5.234680e-06	-1.515556e-09	-3.638234e+01	-1.019692e+02
3.900000e-07	-5.218830e-06	-1.581370e-09	-3.627218e+01	-1.018556e+02
4.000000e-07	-5.202432e-06	-1.564541e-09	-3.615820e+01	-1.017347e+02
4.100000e-07	-5.185598e-06	-1.490346e-09	-3.604120e+01	-1.016066e+02
4.200000e-07	-5.168526e-06	-1.526820e-09	-3.592255e+01	-1.014715e+02
4.300000e-07	-5.151226e-06	-1.606682e-09	-3.580231e+01	-1.013296e+02
4.400000e-07	-5.133591e-06	-1.511479e-09	-3.567974e+01	-1.011810e+02
4.500000e-07	-5.115546e-06	-1.482837e-09	-3.555432e+01	-1.010261e+02
4.600000e-07	-5.097067e-06	-1.587960e-09	-3.542589e+01	-1.008651e+02
4.700000e-07	-5.078189e-06	-1.558558e-09	-3.529468e+01	-1.006984e+02
4.800000e-07	-5.058896e-06	-1.450359e-09	-3.516059e+01	-1.005261e+02
4.900000e-07	-5.039322e-06	-1.534696e-09	-3.502455e+01	-1.003487e+02
5.000000e-07	-5.019583e-06	-1.572517e-09	-3.488736e+01	-1.001664e+02
5.100000e-07	-4.999666e-06	-1.454027e-09	-3.474893e+01	-9.997948e+01
5.200000e-07	-4.979502e-06	-1.478208e-09	-3.460878e+01	-9.978834e+01
5.300000e-07	-4.959060e-06	-1.573683e-09	-3.446671e+01	-9.959324e+01
5.400000e-07	-4.938196e-06	-1.485514e-09	-3.432170e+01	-9.939446e+01
5.500000e-07	-4.916903e-06	-1.442815e-09	-3.417370e+01	-9.919227e+01
5.600000e-07	-4.895269e-06	-1.549711e-09	-3.402335e+01	-9.898693e+01
5.700000e-07	-4.873217e-06	-1.515433e-09	-3.387008e+01	-9.877867e+01
5.800000e-07	-4.850776e-06	-1.431190e-09	-3.371411e+01	-9.856769e+01
5.900000e-07	-4.827969e-06	-1.499643e-09	-3.355560e+01	-9.835419e+01
6.000000e-07	-4.804936e-06	-1.522993e-09	-3.339551e+01	-9.813831e+01
6.100000e-07	-4.781657e-06	-1.429297e-09	-3.323372e+01	-9.792020e+01
6.200000e-07	-4.758063e-06	-1.453146e-09	-3.306972e+01	-9.769995e+01
6.300000e-07	-4.734223e-06	-1.497508e-09	-3.290404e+01	-9.747764e+01
6.400000e-07	-4.710133e-06	-1.447544e-09	-3.273660e+01	-9.725331e+01
6.500000e-07	-4.685726e-06	-1.438786e-09	-3.256697e+01	-9.702698e+01
6.600000e-07	-4.660892e-06	-1.491389e-09	-3.239437e+01	-9.679864e+01
6.700000e-07	-4.635521e-06	-1.454644e-09	-3.221803e+01	-9.656825e+01
6.800000e-07	-4.609575e-06	-1.426269e-09	-3.203770e+01	-9.633574e+01
6.900000e-07	-4.583174e-06	-1.450977e-09	-3.185421e+01	-9.610103e+01
7.000000e-07	-4.556369e-06	-1.446227e-09	-3.166791e+01	-9.586400e+01
7.100000e-07	-4.529126e-06	-1.414572e-09	-3.147856e+01	-9.562454e+01
7.200000e-07	-4.501613e-06	-1.435529e-09	-3.128733e+01	-9.538249e+01
7.300000e-07	-4.473929e-06	-1.441124e-09	-3.109493e+01	-9.513769e+01
7.400000e-07	-4.446092e-06	-1.424113e-09	-3.090145e+01	-9.488997e+01
7.500000e-07	-4.418053e-06	-1.422654e-09	-3.070657e+01	-9.463916e+01
7.600000e-07	-4.389704e-06	-1.427648e-09	-3.050954e+01	-9.438507e+01
7.700000e-07	-4.361039e-06	-1.411158e-09	-3.031031e+01	-9.412751e+01
7.800000e-07	-4.331973e-06	-1.408792e-09	-3.010829e+01	-9.386630e+01
7.900000e-07	-4.302593e-06	-1.412549e-09	-2.990410e+01	-9.360126e+01
8.000000e-07	-4.272982e-06	-1.404628e-09	-2.969829e+01	-9.333221e+01
8.100000e-07	-4.243051e-06	-1.398742e-09	-2.949027e+01	-9.305901e+01
8.200000e-07	-4.212867e-06	-1.400319e-09	-2.928048e+01	-9.278151e+01
8.300000e-07	-4.182480e-06	-1.388194e-09	-2.906928e+01	-9.249957e+01
8.400000e-07	-4.151798e-06	-1.373811e-09	-2.885604e+01	-9.221308e+01
8.500000e-07	-4.120814e-06	-1.380827e-09	-2.864069e+01	-9.192196e+01
8.600000e-07	-4.089538e-06	-1.384413e-09	-2.842331e+01	-9.162613e+01
8.700000e-07	-4.058073e-06	-1.375474e-09	-2.820462e+01	-9.132556e+01
8.800000e-07	-4.026504e-06	-1.371685e-09	-2.798521e+01	-9.102023e+01
8.900000e-07	-3.994725e-06	-1.370962e-09	-2.776434e+01	-9.071015e+01
9.000000e-07	-3.962693e-06	-1.352659e-09	-2.754171e+01	-9.039535e+01
9.100000e-07	-3.930397e-06	-1.342764e-09	-2.731724e+01	-9.007590e+01
9.200000e-07	-3.897760e-06	-1.340054e-09	-2.709041e+01	-8.975187e+01
9.300000e-07	-3.864634e-06	-1.332402e-09	-2.686017e+01	-8.942339e+01
9.400000e-07	-3.831041e-06	-1.322948e-09	-2.662669e+01	-8.909058e+01
9.500000e-07	-3.797069e-06	-1.331408e-09	-2.639058e+01	-8.875361e+01
9.600000e-07	-3.762569e-06	-1.327176e-09	-2.615079e+01	-8.841263e+01
9.700000e-07	-3.727540e-06	-1.310078e-09	-2.590733e+01	-8.806783e+01
9.800000e-07	-3.692173e-06	-1.299203e-09	-2.566153e+01	-8.771943e+01
9.900000e-07	-3.656654e-06	-1.296335e-09	-2.541466e+01	-8.736762e+01
1.000000e-06	-3.620996e-06	-1.282868e-09	-2.516683e+01	-8.701262e+01
1.010000e-06	-3.585170e-06	-1.276845e-09	-2.491783e+01	-8.665464e+01
1.020000e-06	-3.549269e-06	-1.277923e-09	-2.466831e+01	-8.629390e+01
1.030000e-06	-3.513190e-06	-1.272782e-09	-2.441755e+01	-8.593060e+01
1.040000e-06	-3.476875e-06	-1.259065e-09	-2.416515e+01	-8.556492e+01
1.050000e-06	-3.440361e-06	-1.254704e-09	-2.391137e+01	-8.519706e+01
1.060000e-06	-3.403553e-06	-1.248000e-09	-2.365555e+01	-8.482715e+01
1.070000e-06	-3.366418e-06	-1.234661e-09	-2.339745e+01	-8.445534e+01
1.080000e-06	-3.329067e-06	-1.226780e-09	-2.313785e+01	-8.408173e+01
1.090000e-06	-3.291493e-06	-1.225917e-09	-2.287670e+01	-8.370639e+01
1.100000e-06	-3.253664e-06	-1.218540e-09	-2.261378e+01	-8.332935e+01
1.110000e-06	-3.215623e-06	-1.208160e-09	-2.234938e+01	-8.295062e+01
1.120000e-06	-3.177450e-06	-1.199610e-09	-2.208407e+01	-8.257015e+01
1.130000e-06	-3.139103e-06	-1.187103e-09	-2.181755e+01	-8.218784e+01
1.140000e-06	-3.100450e-06	-1.175805e-09	-2.154891e+01	-8.180359e+01
1.150000e-06	-3.061535e-06	-1.174079e-09	-2.127843e+01	-8.141720e+01
1.160000e-06	-3.022451e-06	-1.175973e-09	-2.100679e+01	-8.102846e+01
1.170000e-06	-2.983250e-06	-1.170840e-09	-2.073433e+01	-8.063711e+01
1.180000e-06	-2.943859e-06	-1.166289e-09	-2.046056e+01	-8.024283e+01
1.190000e-06	-2.904234e-06	-1.161232e-09	-2.018515e+01	-7.984527e+01
1.200000e-06	-2.864517e-06	-1.149932e-09	-1.990911e+01	-7.944405e+01
1.210000e-06	-2.824719e-06	-1.134930e-09	-1.963251e+01	-7.903874e+01
1.220000e-06	-2.784733e-06	-1.125357e-09	-1.935459e+01	-7.862887e+01
1.230000e-06	-2.744640e-06	-1.115502e-09	-1.907593e+01	-7.821397e+01
1.240000e-06	-2.704373e-06	-1.107916e-09	-1.879607e+01	-7.779351e+01
1.250000e-06	-2.663819e-06	-1.104088e-09	-1.851421e+01	-7.736697e+01
1.260000e-06	-2.623085e-06	-1.104183e-09	-1.823109e+01	-7.693379e+01
1.270000e-06	-2.582207e-06	-1.097876e-09	-1.794698e+01	-7.649344e+01
1.280000e-06	-2.541096e-06	-1.086035e-09	-1.766125e+01	-7.604534e+01
1.290000e-06	-2.499652e-06	-1.074227e-09	-1.737321e+01	-7.558896e+01
1.300000e-06	-2.457852e-06	-1.063020e-09	-1.708268e+01	-7.512376e+01
1.310000e-06	-2.415692e-06	-1.050457e-09	-1.678966e+01	-7.464921e+01
1.320000e-06	-2.373272e-06	-1.043612e-09	-1.649483e+01	-7.416482e+01
1.330000e-06	-2.330510e-06	-1.039533e-09	-1.619763e+01	-7.367012e+01
1.340000e-06	-2.287299e-06	-1.034968e-09	-1.589730e+01	-7.316468e+01
1.350000e-06	-2.243879e-06	-1.031389e-09	-1.559552e+01	-7.264810e+01
1.360000e-06	-2.200389e-06	-1.028021e-09	-1.529325e+01	-7.212003e+01
1.370000e-06	-2.156776e-06	-1.018256e-09	-1.499013e+01	-7.158017e+01
1.380000e-06	-2.113083e-06	-1.006540e-09	-1.468646e+01	-7.102826e+01
1.390000e-06	-2.069335e-06	-9.957239e-10	-1.438240e+01	-7.046409e+01
1.400000e-06	-2.025519e-06	-9.845472e-10	-1.407786e+01	-6.988753e+01
1.410000e-06	-1.981658e-06	-9.729317e-10	-1.377302e+01	-6.929845e+01
1.420000e-06	-1.937731e-06	-9.640203e-10	-1.346771e+01	-6.869683e+01
1.430000e-06	-1.893701e-06	-9.545382e-10	-1.316170e+01	-6.808266e+01
1.440000e-06	-1.849542e-06	-9.435848e-10	-1.285478e+01	-6.745597e+01
1.450000e-06	-1.805288e-06	-9.340822e-10	-1.254720e+01	-6.681687e+01
1.460000e-06	-1.760974e-06	-9.276143e-10	-1.223921e+01	-6.616546e+01
1.470000e-06	-1.716567e-06	-9.205613e-10	-1.193057e+01	-6.550190e+01
1.480000e-06	-1.671952e-06	-9.105674e-10	-1.162048e+01	-6.482635e+01
1.490000e-06	-1.627169e-06	-9.019121e-10	-1.130923e+01	-6.413900e+01
1.500000e-06	-1.582298e-06	-8.888788e-10	-1.099737e+01	-6.344004e+01
1.510000e-06	-1.537253e-06	-8.720162e-10	-1.068429e+01	-6.272963e+01
1.520000e-06	-1.492051e-06	-8.576341e-10	-1.037013e+01	-6.200795e+01
1.530000e-06	-1.446766e-06	-8.477597e-10	-1.005538e+01	-6.127512e+01
1.540000e-06	-1.401407e-06	-8.375467e-10	-9.740132e+00	-6.053124e+01
1.550000e-06	-1.355963e-06	-8.271915e-10	-9.424279e+00	-5.977637e+01
1.560000e-06	-1.310424e-06	-8.168875e-10	-9.107776e+00	-5.901047e+01
1.570000e-06	-1.264753e-06	-8.045894e-10	-8.790348e+00	-5.823348e+01
1.580000e-06	-1.218994e-06	-7.897952e-10	-8.472315e+00	-5.744523e+01
1.590000e-06	-1.173177e-06	-7.754365e-10	-8.153874e+00	-5.664545e+01
1.600000e-06	-1.127281e-06	-7.575439e-10	-7.834888e+00	-5.583381e+01
1.610000e-06	-1.081296e-06	-7.399090e-10	-7.515276e+00	-5.500985e+01
1.620000e-06	-1.035223e-06	-7.245733e-10	-7.195060e+00	-5.417300e+01
1.630000e-06	-9.891688e-07	-7.115691e-10	-6.874970e+00	-5.332257e+01
1.640000e-06	-9.430800e-07	-7.007256e-10	-6.554642e+00	-5.245778e+01
1.650000e-06	-8.968781e-07	-6.900932e-10	-6.233527e+00	-5.157771e+01
1.660000e-06	-8.506237e-07	-6.783428e-10	-5.912048e+00	-5.068132e+01
1.670000e-06	-8.043829e-07	-6.632988e-10	-5.590663e+00	-4.976748e+01
1.680000e-06	-7.580990e-07	-6.446290e-10	-5.268978e+00	-4.883491e+01
1.690000e-06	-7.117294e-07	-6.258762e-10	-4.946697e+00	-4.788227e+01
1.700000e-06	-6.653129e-07	-6.079962e-10	-4.624091e+00	-4.690810e+01
1.710000e-06	-6.188418e-07	-5.902061e-10	-4.301105e+00	-4.591086e+01
1.720000e-06	-5.723348e-07	-5.752790e-10	-3.977870e+00	-4.488895e+01
1.730000e-06	-5.257982e-07	-5.615554e-10	-3.654429e+00	-4.384071e+01
1.740000e-06	-4.792334e-07	-5.487109e-10	-3.330792e+00	-4.276444e+01
1.750000e-06	-4.326313e-07	-5.321030e-10	-3.006896e+00	-4.165840e+01
1.760000e-06	-3.859607e-07	-5.110633e-10	-2.682524e+00	-4.052089e+01
1.770000e-06	-3.392020e-07	-4.884008e-10	-2.357539e+00	-3.935019e+01
1.780000e-06	-2.924203e-07	-4.675864e-10	-2.032394e+00	-3.814463e+01
1.790000e-06	-2.456153e-07	-4.507786e-10	-1.707088e+00	-3.690260e+01
1.800000e-06	-1.987176e-07	-4.360358e-10	-1.381137e+00	-3.562259e+01
1.810000e-06	-1.517996e-07	-4.207731e-10	-1.055045e+00	-3.430316e+01
1.820000e-06	-1.049622e-07	-4.020161e-10	-7.295133e-01	-3.294303e+01
1.830000e-06	-5.809903e-08	-3.802703e-10	-4.038028e-01	-3.154105e+01
1.840000e-06	-1.127385e-08	-3.584722e-10	-7.835610e-02	-3.009625e+01
1.850000e-06	3.547246e-08	-3.369971e-10	2.465425e-01	-2.860785e+01
1.860000e-06	8.230499e-08	-3.167553e-10	5.720403e-01	-2.707527e+01
1.870000e-06	1.291964e-07	-2.977614e-10	8.979475e-01	-2.549815e+01
1.880000e-06	1.760009e-07	-2.792202e-10	1.223251e+00	-2.387638e+01
1.890000e-06	2.227151e-07	-2.585614e-10	1.547926e+00	-2.221010e+01
1.900000e-06	2.695119e-07	-2.345109e-10	1.873175e+00	-2.049971e+01
1.910000e-06	3.163207e-07	-2.085509e-10	2.198508e+00	-1.874587e+01
1.920000e-06	3.630672e-07	-1.796741e-10	2.523408e+00	-1.694951e+01
1.930000e-06	4.098214e-07	-1.500289e-10	2.848362e+00	-1.511185e+01
1.940000e-06	4.565042e-07	-1.224404e-10	3.172818e+00	-1.323438e+01
1.950000e-06	5.030242e-07	-9.819726e-11	3.496144e+00	-1.131884e+01
1.960000e-06	5.495165e-07	-7.479226e-11	3.819277e+00	-9.367255e+00
1.970000e-06	5.960483e-07	-5.119395e-11	4.142685e+00	-7.381888e+00
1.980000e-06	6.425646e-07	-2.610685e-11	4.465985e+00	-5.365243e+00
1.990000e-06	6.889941e-07	3.426463e-12	4.788682e+00	-3.320047e+00
2.000000e-06	7.353295e-07	3.683708e-11	5.110724e+00	-1.249229e+00
2.010000e-06	7.815737e-07	6.994101e-11	5.432133e+00	8.440971e-01
2.020000e-06	8.277929e-07	1.023798e-10	5.753368e+00	2.956656e+00
2.030000e-06	8.740564e-07	1.340081e-10	6.074911e+00	5.085039e+00
2.040000e-06	9.202699e-07	1.619297e-10	6.396106e+00	7.225725e+00
2.050000e-06	9.664176e-07	1.862655e-10	6.716844e+00	9.375112e+00
2.060000e-06	1.012490e-06	2.102281e-10	7.037058e+00	1.152954e+01
2.070000e-06	1.058460e-06	2.360164e-10	7.356565e+00	1.368534e+01
2.080000e-06	1.104349e-06	2.653137e-10	7.675504e+00	1.583882e+01
2.090000e-06	1.150158e-06	2.971759e-10	7.993887e+00	1.798633e+01
2.100000e-06	1.195813e-06	3.306736e-10	8.311200e+00	2.012430e+01
2.110000e-06	1.241356e-06	3.628580e-10	8.627734e+00	2.224922e+01
2.120000e-06	1.286799e-06	3.920086e-10	8.943574e+00	2.435771e+01
2.130000e-06	1.332180e-06	4.211189e-10	9.258982e+00	2.644652e+01
2.140000e-06	1.377613e-06	4.487771e-10	9.574755e+00	2.851257e+01
2.150000e-06	1.422996e-06	4.730295e-10	9.890176e+00	3.055295e+01
2.160000e-06	1.468237e-06	4.960610e-10	1.020461e+01	3.256495e+01
2.170000e-06	1.513357e-06	5.202088e-10	1.051821e+01	3.454609e+01
2.180000e-06	1.558311e-06	5.463458e-10	1.083065e+01	3.649410e+01
2.190000e-06	1.603135e-06	5.738709e-10	1.114219e+01	3.840696e+01
2.200000e-06	1.647890e-06	6.026044e-10	1.145325e+01	4.028289e+01
2.210000e-06	1.692487e-06	6.308981e-10	1.176321e+01	4.212036e+01
2.220000e-06	1.736891e-06	6.577441e-10	1.207183e+01	4.391809e+01
2.230000e-06	1.781154e-06	6.817175e-10	1.237946e+01	4.567505e+01
2.240000e-06	1.825246e-06	7.020352e-10	1.268591e+01	4.739045e+01
2.250000e-06	1.869207e-06	7.199595e-10	1.299145e+01	4.906377e+01
2.260000e-06	1.913157e-06	7.376471e-10	1.329692e+01	5.069468e+01
2.270000e-06	1.957062e-06	7.597696e-10	1.360207e+01	5.228309e+01
2.280000e-06	2.000889e-06	7.845280e-10	1.390668e+01	5.382911e+01
2.290000e-06	2.044672e-06	8.084201e-10	1.421098e+01	5.533304e+01
2.300000e-06	2.088390e-06	8.311603e-10	1.451483e+01	5.679537e+01
2.310000e-06	2.132032e-06	8.527380e-10	1.481816e+01	5.821672e+01
2.320000e-06	2.175577e-06	8.717966e-10	1.512080e+01	5.959786e+01
2.330000e-06	2.219000e-06	8.861172e-10	1.542261e+01	6.093970e+01
2.340000e-06	2.262312e-06	8.987943e-10	1.572363e+01	6.224322e+01
2.350000e-06	2.305472e-06	9.145716e-10	1.602360e+01	6.350949e+01
2.360000e-06	2.348459e-06	9.316140e-10	1.632238e+01	6.473965e+01
2.370000e-06	2.391267e-06	9.487452e-10	1.661990e+01	6.593488e+01
2.380000e-06	2.433716e-06	9.657350e-10	1.691494e+01	6.709639e+01
2.390000e-06	2.475762e-06	9.808352e-10	1.720717e+01	6.822538e+01
2.400000e-06	2.517536e-06	9.949379e-10	1.749751e+01	6.932306e+01
2.410000e-06	2.558984e-06	1.010102e-09	1.778558e+01	7.039064e+01
2.420000e-06	2.600087e-06	1.025581e-09	1.807125e+01	7.142926e+01
2.430000e-06	2.640799e-06	1.041081e-09	1.835422e+01	7.244004e+01
2.440000e-06	2.681279e-06	1.056229e-09	1.863556e+01	7.342406e+01
2.450000e-06	2.721679e-06	1.070648e-09	1.891635e+01	7.438231e+01
2.460000e-06	2.761838e-06	1.084216e-09	1.919547e+01	7.531575e+01
2.470000e-06	2.801809e-06	1.096528e-09	1.947327e+01	7.622525e+01
2.480000e-06	2.841640e-06	1.108206e-09	1.975011e+01	7.711162e+01
2.490000e-06	2.881357e-06	1.118990e-09	2.002615e+01	7.797560e+01
2.500000e-06	2.920939e-06	1.128645e-09	2.030126e+01	7.881788e+01
2.510000e-06	2.960409e-06	1.141540e-09	2.057558e+01	7.963904e+01
2.520000e-06	2.999756e-06	1.155367e-09	2.084906e+01	8.043965e+01
2.530000e-06	3.038841e-06	1.169510e-09	2.112071e+01	8.122019e+01
2.540000e-06	3.077703e-06	1.185991e-09	2.139081e+01	8.198109e+01
2.550000e-06	3.116304e-06	1.200344e-09	2.165909e+01	8.272274e+01
2.560000e-06	3.154662e-06	1.209582e-09	2.192569e+01	8.344551e+01
2.570000e-06	3.192860e-06	1.213868e-09	2.219117e+01	8.414970e+01
2.580000e-06	3.230859e-06	1.217093e-09	2.245528e+01	8.483560e+01
2.590000e-06	3.268647e-06	1.222724e-09	2.271792e+01	8.550350e+01
2.600000e-06	3.306203e-06	1.233845e-09	2.297894e+01	8.615364e+01
2.610000e-06	3.343537e-06	1.247040e-09	2.323842e+01	8.678629e+01
2.620000e-06	3.380689e-06	1.260933e-09	2.349663e+01	8.740169e+01
2.630000e-06	3.417593e-06	1.273068e-09	2.375313e+01	8.800009e+01
2.640000e-06	3.454203e-06	1.280859e-09	2.400758e+01	8.858176e+01
2.650000e-06	3.490586e-06	1.285694e-09	2.426045e+01	8.914697e+01
2.660000e-06	3.526733e-06	1.290613e-09	2.451168e+01	8.969599e+01
2.670000e-06	3.562686e-06	1.296475e-09	2.476156e+01	9.022913e+01
2.680000e-06	3.598547e-06	1.301426e-09	2.501080e+01	9.074669e+01
2.690000e-06	3.634271e-06	1.308126e-09	2.525909e+01	9.124900e+01
2.700000e-06	3.669810e-06	1.317283e-09	2.550609e+01	9.173641e+01
2.710000e-06	3.705165e-06	1.323582e-09	2.575182e+01	9.220925e+01
2.720000e-06	3.740290e-06	1.326868e-09	2.599595e+01	9.266788e+01
2.730000e-06	3.775138e-06	1.330189e-09	2.623815e+01	9.311268e+01
2.740000e-06	3.809577e-06	1.335350e-09	2.647751e+01	9.354402e+01
2.750000e-06	3.843491e-06	1.342593e-09	2.671323e+01	9.396225e+01
2.760000e-06	3.876912e-06	1.349922e-09	2.694551e+01	9.436776e+01
2.770000e-06	3.909858e-06	1.356429e-09	2.717449e+01	9.476089e+01
2.780000e-06	3.942396e-06	1.361329e-09	2.740064e+01	9.514199e+01
2.790000e-06	3.974619e-06	1.364730e-09	2.762459e+01	9.551141e+01
2.800000e-06	4.006563e-06	1.368163e-09	2.784661e+01	9.586945e+01
2.810000e-06	4.038392e-06	1.372853e-09	2.806783e+01	9.621641e+01
2.820000e-06	4.070147e-06	1.380001e-09	2.828854e+01	9.655257e+01
2.830000e-06	4.101672e-06	1.389935e-09	2.850765e+01	9.687818e+01
2.840000e-06	4.132935e-06	1.397793e-09	2.872493e+01	9.719347e+01
2.850000e-06	4.163893e-06	1.400890e-09	2.894010e+01	9.749865e+01
2.860000e-06	4.194488e-06	1.402345e-09	2.915274e+01	9.779388e+01
2.870000e-06	4.224745e-06	1.405642e-09	2.936303e+01	9.807934e+01
2.880000e-06	4.254714e-06	1.408280e-09	2.957133e+01	9.835515e+01
2.890000e-06	4.284415e-06	1.409559e-09	2.977775e+01	9.862144e+01
2.900000e-06	4.313816e-06	1.414297e-09	2.998210e+01	9.887831e+01
