# Temperatura_=_3.63
# Concentracion g/m^3_=_1620.0
# C_Vs_to_Am_M_A/Vsm_=_65563218390.804596
# pendiente_HvsI_1/m_=_3716.3
# ordenada_HvsI_A/m_=_1297.0
# frecuencia_Hz_=_135111.15952449726

Tiempo_(s)	Campo_(V.s)	Magnetizacion_(V.s)	Campo_(kA/m)	Magnetizacion_(A/m)
0.000000e+00	-5.519299e-06	-1.519388e-09	-3.837050e+01	-9.883091e+01
1.000000e-08	-5.519441e-06	-1.516948e-09	-3.837149e+01	-9.879598e+01
2.000000e-08	-5.519339e-06	-1.518974e-09	-3.837078e+01	-9.876235e+01
3.000000e-08	-5.518850e-06	-1.522164e-09	-3.836738e+01	-9.873001e+01
4.000000e-08	-5.517890e-06	-1.521963e-09	-3.836070e+01	-9.869885e+01
5.000000e-08	-5.516470e-06	-1.516674e-09	-3.835084e+01	-9.866869e+01
6.000000e-08	-5.514541e-06	-1.501420e-09	-3.833743e+01	-9.863929e+01
7.000000e-08	-5.511988e-06	-1.497294e-09	-3.831967e+01	-9.861030e+01
8.000000e-08	-5.508844e-06	-1.538001e-09	-3.829782e+01	-9.858134e+01
9.000000e-08	-5.505201e-06	-1.567685e-09	-3.827249e+01	-9.855194e+01
1.000000e-07	-5.501116e-06	-1.532178e-09	-3.824409e+01	-9.852160e+01
1.100000e-07	-5.496776e-06	-1.502497e-09	-3.821392e+01	-9.848976e+01
1.200000e-07	-5.492273e-06	-1.491344e-09	-3.818262e+01	-9.845583e+01
1.300000e-07	-5.487455e-06	-1.502313e-09	-3.814912e+01	-9.841921e+01
1.400000e-07	-5.482155e-06	-1.468414e-09	-3.811228e+01	-9.837929e+01
1.500000e-07	-5.476539e-06	-1.470843e-09	-3.807323e+01	-9.833545e+01
1.600000e-07	-5.470600e-06	-1.511657e-09	-3.803194e+01	-9.828708e+01
1.700000e-07	-5.464163e-06	-1.522756e-09	-3.798719e+01	-9.823362e+01
1.800000e-07	-5.457311e-06	-1.528186e-09	-3.793956e+01	-9.817454e+01
1.900000e-07	-5.450146e-06	-1.504579e-09	-3.788974e+01	-9.810933e+01
2.000000e-07	-5.442640e-06	-1.505594e-09	-3.783757e+01	-9.803758e+01
2.100000e-07	-5.434832e-06	-1.487179e-09	-3.778329e+01	-9.795892e+01
2.200000e-07	-5.426875e-06	-1.511385e-09	-3.772797e+01	-9.787305e+01
2.300000e-07	-5.418705e-06	-1.517097e-09	-3.767116e+01	-9.777977e+01
2.400000e-07	-5.410042e-06	-1.523334e-09	-3.761094e+01	-9.767894e+01
2.500000e-07	-5.400604e-06	-1.504237e-09	-3.754533e+01	-9.757052e+01
2.600000e-07	-5.390532e-06	-1.496881e-09	-3.747530e+01	-9.745456e+01
2.700000e-07	-5.379958e-06	-1.471155e-09	-3.740180e+01	-9.733118e+01
2.800000e-07	-5.368812e-06	-1.471113e-09	-3.732431e+01	-9.720060e+01
2.900000e-07	-5.357160e-06	-1.476987e-09	-3.724330e+01	-9.706312e+01
3.000000e-07	-5.345168e-06	-1.469980e-09	-3.715994e+01	-9.691908e+01
3.100000e-07	-5.332829e-06	-1.447491e-09	-3.707415e+01	-9.676894e+01
3.200000e-07	-5.320052e-06	-1.440901e-09	-3.698532e+01	-9.661319e+01
3.300000e-07	-5.306878e-06	-1.464737e-09	-3.689374e+01	-9.645238e+01
3.400000e-07	-5.293305e-06	-1.454617e-09	-3.679938e+01	-9.628708e+01
3.500000e-07	-5.279318e-06	-1.444989e-09	-3.670214e+01	-9.611793e+01
3.600000e-07	-5.265004e-06	-1.462558e-09	-3.660263e+01	-9.594555e+01
3.700000e-07	-5.250332e-06	-1.471938e-09	-3.650063e+01	-9.577060e+01
3.800000e-07	-5.235009e-06	-1.439209e-09	-3.639410e+01	-9.559372e+01
3.900000e-07	-5.218990e-06	-1.444440e-09	-3.628273e+01	-9.541554e+01
4.000000e-07	-5.202512e-06	-1.451599e-09	-3.616818e+01	-9.523668e+01
4.100000e-07	-5.185763e-06	-1.414793e-09	-3.605174e+01	-9.505771e+01
4.200000e-07	-5.168673e-06	-1.411898e-09	-3.593293e+01	-9.487916e+01
4.300000e-07	-5.151297e-06	-1.483279e-09	-3.581213e+01	-9.470154e+01
4.400000e-07	-5.133665e-06	-1.469677e-09	-3.568955e+01	-9.452526e+01
4.500000e-07	-5.115623e-06	-1.427439e-09	-3.556412e+01	-9.435069e+01
4.600000e-07	-5.097138e-06	-1.457065e-09	-3.543561e+01	-9.417815e+01
4.700000e-07	-5.078201e-06	-1.471563e-09	-3.530396e+01	-9.400787e+01
4.800000e-07	-5.058898e-06	-1.397015e-09	-3.516976e+01	-9.384001e+01
4.900000e-07	-5.039347e-06	-1.414089e-09	-3.503385e+01	-9.367468e+01
5.000000e-07	-5.019596e-06	-1.462079e-09	-3.489654e+01	-9.351189e+01
5.100000e-07	-4.999602e-06	-1.417086e-09	-3.475754e+01	-9.335160e+01
5.200000e-07	-4.979298e-06	-1.389950e-09	-3.461638e+01	-9.319371e+01
5.300000e-07	-4.958670e-06	-1.459106e-09	-3.447297e+01	-9.303806e+01
5.400000e-07	-4.937700e-06	-1.442415e-09	-3.432719e+01	-9.288442e+01
5.500000e-07	-4.916391e-06	-1.383175e-09	-3.417905e+01	-9.273253e+01
5.600000e-07	-4.894696e-06	-1.409295e-09	-3.402823e+01	-9.258207e+01
5.700000e-07	-4.872666e-06	-1.427015e-09	-3.387507e+01	-9.243270e+01
5.800000e-07	-4.850328e-06	-1.378745e-09	-3.371977e+01	-9.228404e+01
5.900000e-07	-4.827582e-06	-1.394016e-09	-3.356164e+01	-9.213569e+01
6.000000e-07	-4.804546e-06	-1.424778e-09	-3.340150e+01	-9.198726e+01
6.100000e-07	-4.781230e-06	-1.383759e-09	-3.323940e+01	-9.183831e+01
6.200000e-07	-4.757582e-06	-1.365355e-09	-3.307500e+01	-9.168842e+01
6.300000e-07	-4.733703e-06	-1.391773e-09	-3.290899e+01	-9.153720e+01
6.400000e-07	-4.709639e-06	-1.380310e-09	-3.274169e+01	-9.138422e+01
6.500000e-07	-4.685331e-06	-1.364701e-09	-3.257271e+01	-9.122912e+01
6.600000e-07	-4.660635e-06	-1.390813e-09	-3.240102e+01	-9.107151e+01
6.700000e-07	-4.635543e-06	-1.386228e-09	-3.222658e+01	-9.091106e+01
6.800000e-07	-4.609876e-06	-1.361963e-09	-3.204814e+01	-9.074745e+01
6.900000e-07	-4.583444e-06	-1.361215e-09	-3.186438e+01	-9.058038e+01
7.000000e-07	-4.556477e-06	-1.363417e-09	-3.167690e+01	-9.040960e+01
7.100000e-07	-4.529172e-06	-1.343553e-09	-3.148708e+01	-9.023487e+01
7.200000e-07	-4.501625e-06	-1.345892e-09	-3.129557e+01	-9.005599e+01
7.300000e-07	-4.473937e-06	-1.354351e-09	-3.110308e+01	-8.987279e+01
7.400000e-07	-4.446092e-06	-1.353971e-09	-3.090950e+01	-8.968510e+01
7.500000e-07	-4.417981e-06	-1.346454e-09	-3.071407e+01	-8.949282e+01
7.600000e-07	-4.389610e-06	-1.346631e-09	-3.051684e+01	-8.929582e+01
7.700000e-07	-4.360942e-06	-1.335962e-09	-3.031754e+01	-8.909405e+01
7.800000e-07	-4.331931e-06	-1.328993e-09	-3.011585e+01	-8.888742e+01
7.900000e-07	-4.302598e-06	-1.325406e-09	-2.991192e+01	-8.867590e+01
8.000000e-07	-4.272934e-06	-1.322757e-09	-2.970570e+01	-8.845944e+01
8.100000e-07	-4.242988e-06	-1.314672e-09	-2.949751e+01	-8.823804e+01
8.200000e-07	-4.212767e-06	-1.313157e-09	-2.928741e+01	-8.801167e+01
8.300000e-07	-4.182255e-06	-1.310089e-09	-2.907529e+01	-8.778034e+01
8.400000e-07	-4.151484e-06	-1.305897e-09	-2.886137e+01	-8.754404e+01
8.500000e-07	-4.120429e-06	-1.305183e-09	-2.864548e+01	-8.730279e+01
8.600000e-07	-4.089083e-06	-1.309106e-09	-2.842756e+01	-8.705661e+01
8.700000e-07	-4.057506e-06	-1.300967e-09	-2.820803e+01	-8.680552e+01
8.800000e-07	-4.025784e-06	-1.288767e-09	-2.798750e+01	-8.654956e+01
8.900000e-07	-3.993906e-06	-1.282437e-09	-2.776588e+01	-8.628876e+01
9.000000e-07	-3.961772e-06	-1.275629e-09	-2.754248e+01	-8.602318e+01
9.100000e-07	-3.929358e-06	-1.267523e-09	-2.731714e+01	-8.575286e+01
9.200000e-07	-3.896598e-06	-1.267659e-09	-2.708939e+01	-8.547789e+01
9.300000e-07	-3.863475e-06	-1.270700e-09	-2.685912e+01	-8.519834e+01
9.400000e-07	-3.830005e-06	-1.265723e-09	-2.662643e+01	-8.491432e+01
9.500000e-07	-3.796083e-06	-1.263949e-09	-2.639060e+01	-8.462593e+01
9.600000e-07	-3.761680e-06	-1.259899e-09	-2.615143e+01	-8.433330e+01
9.700000e-07	-3.726823e-06	-1.247689e-09	-2.590910e+01	-8.403658e+01
9.800000e-07	-3.691571e-06	-1.234083e-09	-2.566402e+01	-8.373594e+01
9.900000e-07	-3.656042e-06	-1.233391e-09	-2.541703e+01	-8.343154e+01
1.000000e-06	-3.620352e-06	-1.232410e-09	-2.516891e+01	-8.312358e+01
1.010000e-06	-3.584555e-06	-1.226141e-09	-2.492004e+01	-8.281228e+01
1.020000e-06	-3.548640e-06	-1.222946e-09	-2.467036e+01	-8.249784e+01
1.030000e-06	-3.512602e-06	-1.222474e-09	-2.441983e+01	-8.218051e+01
1.040000e-06	-3.476300e-06	-1.214649e-09	-2.416745e+01	-8.186052e+01
1.050000e-06	-3.439735e-06	-1.210033e-09	-2.391325e+01	-8.153810e+01
1.060000e-06	-3.402992e-06	-1.208989e-09	-2.365781e+01	-8.121350e+01
1.070000e-06	-3.366010e-06	-1.204366e-09	-2.340070e+01	-8.088693e+01
1.080000e-06	-3.328724e-06	-1.194734e-09	-2.314149e+01	-8.055863e+01
1.090000e-06	-3.291143e-06	-1.189274e-09	-2.288022e+01	-8.022880e+01
1.100000e-06	-3.253377e-06	-1.180793e-09	-2.261768e+01	-7.989759e+01
1.110000e-06	-3.215445e-06	-1.170000e-09	-2.235397e+01	-7.956518e+01
1.120000e-06	-3.177322e-06	-1.162907e-09	-2.208893e+01	-7.923166e+01
1.130000e-06	-3.138908e-06	-1.160886e-09	-2.182188e+01	-7.889712e+01
1.140000e-06	-3.100193e-06	-1.155299e-09	-2.155273e+01	-7.856159e+01
1.150000e-06	-3.061351e-06	-1.153659e-09	-2.128270e+01	-7.822503e+01
1.160000e-06	-3.022349e-06	-1.152664e-09	-2.101155e+01	-7.788738e+01
1.170000e-06	-2.983119e-06	-1.145587e-09	-2.073882e+01	-7.754852e+01
1.180000e-06	-2.943717e-06	-1.135383e-09	-2.046490e+01	-7.720824e+01
1.190000e-06	-2.904111e-06	-1.129504e-09	-2.018956e+01	-7.686629e+01
1.200000e-06	-2.864310e-06	-1.123127e-09	-1.991286e+01	-7.652238e+01
1.210000e-06	-2.824389e-06	-1.113144e-09	-1.963533e+01	-7.617613e+01
1.220000e-06	-2.784383e-06	-1.106771e-09	-1.935720e+01	-7.582710e+01
1.230000e-06	-2.744276e-06	-1.103171e-09	-1.907837e+01	-7.547482e+01
1.240000e-06	-2.704011e-06	-1.096201e-09	-1.879845e+01	-7.511874e+01
1.250000e-06	-2.663558e-06	-1.086540e-09	-1.851722e+01	-7.475829e+01
1.260000e-06	-2.622881e-06	-1.081574e-09	-1.823443e+01	-7.439285e+01
1.270000e-06	-2.581948e-06	-1.074207e-09	-1.794986e+01	-7.402174e+01
1.280000e-06	-2.540750e-06	-1.061841e-09	-1.766345e+01	-7.364430e+01
1.290000e-06	-2.499185e-06	-1.050891e-09	-1.737449e+01	-7.325982e+01
1.300000e-06	-2.457205e-06	-1.040544e-09	-1.708264e+01	-7.286759e+01
1.310000e-06	-2.414919e-06	-1.027843e-09	-1.678866e+01	-7.246689e+01
1.320000e-06	-2.372426e-06	-1.018068e-09	-1.649325e+01	-7.205703e+01
1.330000e-06	-2.329651e-06	-1.012239e-09	-1.619587e+01	-7.163731e+01
1.340000e-06	-2.286582e-06	-1.007441e-09	-1.589646e+01	-7.120709e+01
1.350000e-06	-2.243317e-06	-1.002105e-09	-1.559568e+01	-7.076573e+01
1.360000e-06	-2.199883e-06	-9.989252e-10	-1.529372e+01	-7.031266e+01
1.370000e-06	-2.156361e-06	-9.925462e-10	-1.499115e+01	-6.984735e+01
1.380000e-06	-2.112721e-06	-9.827854e-10	-1.468776e+01	-6.936930e+01
1.390000e-06	-2.068979e-06	-9.693004e-10	-1.438367e+01	-6.887812e+01
1.400000e-06	-2.025158e-06	-9.543379e-10	-1.407902e+01	-6.837345e+01
1.410000e-06	-1.981261e-06	-9.392884e-10	-1.377385e+01	-6.785500e+01
1.420000e-06	-1.937305e-06	-9.296642e-10	-1.346826e+01	-6.732256e+01
1.430000e-06	-1.893207e-06	-9.250780e-10	-1.316169e+01	-6.677596e+01
1.440000e-06	-1.849005e-06	-9.202034e-10	-1.285440e+01	-6.621512e+01
1.450000e-06	-1.804750e-06	-9.117555e-10	-1.254673e+01	-6.564001e+01
1.460000e-06	-1.760420e-06	-9.025313e-10	-1.223855e+01	-6.505066e+01
1.470000e-06	-1.715964e-06	-8.917614e-10	-1.192948e+01	-6.444714e+01
1.480000e-06	-1.671304e-06	-8.793304e-10	-1.161901e+01	-6.382955e+01
1.490000e-06	-1.626573e-06	-8.663949e-10	-1.130804e+01	-6.319806e+01
1.500000e-06	-1.581786e-06	-8.526446e-10	-1.099667e+01	-6.255281e+01
1.510000e-06	-1.536798e-06	-8.387310e-10	-1.068391e+01	-6.189399e+01
1.520000e-06	-1.491608e-06	-8.276213e-10	-1.036975e+01	-6.122178e+01
1.530000e-06	-1.446355e-06	-8.184019e-10	-1.005515e+01	-6.053632e+01
1.540000e-06	-1.401085e-06	-8.084378e-10	-9.740431e+00	-5.983777e+01
1.550000e-06	-1.355702e-06	-7.989259e-10	-9.424920e+00	-5.912620e+01
1.560000e-06	-1.310199e-06	-7.881438e-10	-9.108581e+00	-5.840166e+01
1.570000e-06	-1.264627e-06	-7.751360e-10	-8.791761e+00	-5.766415e+01
1.580000e-06	-1.219028e-06	-7.608110e-10	-8.474754e+00	-5.691356e+01
1.590000e-06	-1.173349e-06	-7.447271e-10	-8.157195e+00	-5.614973e+01
1.600000e-06	-1.127571e-06	-7.274807e-10	-7.838943e+00	-5.537238e+01
1.610000e-06	-1.081716e-06	-7.127790e-10	-7.520158e+00	-5.458116e+01
1.620000e-06	-1.035747e-06	-7.020021e-10	-7.200575e+00	-5.377560e+01
1.630000e-06	-9.897110e-07	-6.922416e-10	-6.880531e+00	-5.295511e+01
1.640000e-06	-9.436325e-07	-6.841350e-10	-6.560191e+00	-5.211902e+01
1.650000e-06	-8.974595e-07	-6.753778e-10	-6.239193e+00	-5.126651e+01
1.660000e-06	-8.511817e-07	-6.648049e-10	-5.917467e+00	-5.039668e+01
1.670000e-06	-8.048653e-07	-6.539886e-10	-5.595472e+00	-4.950852e+01
1.680000e-06	-7.585449e-07	-6.387903e-10	-5.273450e+00	-4.860090e+01
1.690000e-06	-7.121943e-07	-6.217823e-10	-4.951218e+00	-4.767261e+01
1.700000e-06	-6.658600e-07	-6.021138e-10	-4.629099e+00	-4.672236e+01
1.710000e-06	-6.195052e-07	-5.827190e-10	-4.306838e+00	-4.574878e+01
1.720000e-06	-5.730106e-07	-5.635434e-10	-3.983604e+00	-4.475045e+01
1.730000e-06	-5.263810e-07	-5.491910e-10	-3.659433e+00	-4.372589e+01
1.740000e-06	-4.796928e-07	-5.361940e-10	-3.334853e+00	-4.267360e+01
1.750000e-06	-4.329900e-07	-5.247400e-10	-3.010173e+00	-4.159207e+01
1.760000e-06	-3.862400e-07	-5.103362e-10	-2.685164e+00	-4.047979e+01
1.770000e-06	-3.394246e-07	-4.916404e-10	-2.359700e+00	-3.933528e+01
1.780000e-06	-2.926173e-07	-4.710281e-10	-2.034293e+00	-3.815710e+01
1.790000e-06	-2.458237e-07	-4.512635e-10	-1.708981e+00	-3.694387e+01
1.800000e-06	-1.990498e-07	-4.334195e-10	-1.383807e+00	-3.569431e+01
1.810000e-06	-1.522653e-07	-4.151555e-10	-1.058557e+00	-3.440721e+01
1.820000e-06	-1.054759e-07	-3.988392e-10	-7.332752e-01	-3.308151e+01
1.830000e-06	-5.867251e-08	-3.813249e-10	-4.078948e-01	-3.171627e+01
1.840000e-06	-1.176543e-08	-3.628317e-10	-8.179400e-02	-3.031071e+01
1.850000e-06	3.512643e-08	-3.424607e-10	2.442011e-01	-2.886422e+01
1.860000e-06	8.196977e-08	-3.215849e-10	5.698588e-01	-2.737636e+01
1.870000e-06	1.288460e-07	-3.024243e-10	8.957452e-01	-2.584691e+01
1.880000e-06	1.757390e-07	-2.840419e-10	1.221748e+00	-2.427583e+01
1.890000e-06	2.225690e-07	-2.627865e-10	1.547313e+00	-2.266331e+01
1.900000e-06	2.693006e-07	-2.368319e-10	1.872194e+00	-2.100976e+01
1.910000e-06	3.159850e-07	-2.075841e-10	2.196747e+00	-1.931581e+01
1.920000e-06	3.626474e-07	-1.803259e-10	2.521147e+00	-1.758231e+01
1.930000e-06	4.093442e-07	-1.530147e-10	2.845786e+00	-1.581035e+01
1.940000e-06	4.560422e-07	-1.292363e-10	3.170433e+00	-1.400124e+01
1.950000e-06	5.026731e-07	-1.081675e-10	3.494614e+00	-1.215652e+01
1.960000e-06	5.492010e-07	-8.823116e-11	3.818079e+00	-1.027791e+01
1.970000e-06	5.956425e-07	-6.528899e-11	4.140943e+00	-8.367384e+00
1.980000e-06	6.420290e-07	-3.857506e-11	4.463424e+00	-6.427073e+00
1.990000e-06	6.883479e-07	-7.967054e-12	4.785437e+00	-4.459306e+00
2.000000e-06	7.346674e-07	2.636919e-11	5.107452e+00	-2.466578e+00
2.010000e-06	7.809836e-07	5.825324e-11	5.429446e+00	-4.515359e-01
2.020000e-06	8.272499e-07	8.640133e-11	5.751092e+00	1.583036e+00
2.030000e-06	8.733997e-07	1.137524e-10	6.071928e+00	3.634238e+00
2.040000e-06	9.194803e-07	1.393722e-10	6.392283e+00	5.699069e+00
2.050000e-06	9.655678e-07	1.649542e-10	6.712686e+00	7.774452e+00
2.060000e-06	1.011583e-06	1.934680e-10	7.032586e+00	9.857249e+00
2.070000e-06	1.057492e-06	2.223794e-10	7.351746e+00	1.194429e+01
2.080000e-06	1.103335e-06	2.514225e-10	7.670452e+00	1.403237e+01
2.090000e-06	1.149094e-06	2.831900e-10	7.988571e+00	1.611832e+01
2.100000e-06	1.194750e-06	3.157939e-10	8.305975e+00	1.819896e+01
2.110000e-06	1.240337e-06	3.452103e-10	8.622902e+00	2.027119e+01
2.120000e-06	1.285883e-06	3.719082e-10	8.939538e+00	2.233194e+01
2.130000e-06	1.331361e-06	3.985308e-10	9.255701e+00	2.437826e+01
2.140000e-06	1.376690e-06	4.254268e-10	9.570830e+00	2.640726e+01
2.150000e-06	1.421902e-06	4.502107e-10	9.885150e+00	2.841619e+01
2.160000e-06	1.467108e-06	4.730559e-10	1.019943e+01	3.040244e+01
2.170000e-06	1.512246e-06	4.945931e-10	1.051322e+01	3.236353e+01
2.180000e-06	1.557190e-06	5.191375e-10	1.082568e+01	3.429715e+01
2.190000e-06	1.602005e-06	5.468398e-10	1.113724e+01	3.620113e+01
2.200000e-06	1.646694e-06	5.761634e-10	1.144792e+01	3.807352e+01
2.210000e-06	1.691221e-06	6.060460e-10	1.175747e+01	3.991252e+01
2.220000e-06	1.735588e-06	6.337610e-10	1.206592e+01	4.171654e+01
2.230000e-06	1.779809e-06	6.570709e-10	1.237334e+01	4.348417e+01
2.240000e-06	1.823956e-06	6.755442e-10	1.268025e+01	4.521420e+01
2.250000e-06	1.868028e-06	6.907423e-10	1.298665e+01	4.690562e+01
2.260000e-06	1.912022e-06	7.064304e-10	1.329249e+01	4.855761e+01
2.270000e-06	1.955969e-06	7.249181e-10	1.359801e+01	5.016952e+01
2.280000e-06	1.999844e-06	7.478211e-10	1.390303e+01	5.174091e+01
2.290000e-06	2.043641e-06	7.733347e-10	1.420752e+01	5.327152e+01
2.300000e-06	2.087372e-06	7.996573e-10	1.451154e+01	5.476123e+01
2.310000e-06	2.131052e-06	8.224981e-10	1.481520e+01	5.621010e+01
2.320000e-06	2.174677e-06	8.398154e-10	1.511849e+01	5.761835e+01
2.330000e-06	2.218182e-06	8.532300e-10	1.542094e+01	5.898631e+01
2.340000e-06	2.261500e-06	8.660061e-10	1.572208e+01	6.031447e+01
2.350000e-06	2.304637e-06	8.800134e-10	1.602198e+01	6.160341e+01
2.360000e-06	2.347512e-06	8.955797e-10	1.632005e+01	6.285382e+01
2.370000e-06	2.390060e-06	9.134752e-10	1.661584e+01	6.406648e+01
2.380000e-06	2.432410e-06	9.324328e-10	1.691026e+01	6.524223e+01
2.390000e-06	2.474440e-06	9.505171e-10	1.720246e+01	6.638200e+01
2.400000e-06	2.516020e-06	9.662612e-10	1.749152e+01	6.748673e+01
2.410000e-06	2.557218e-06	9.807406e-10	1.777793e+01	6.855743e+01
2.420000e-06	2.598110e-06	9.934013e-10	1.806222e+01	6.959511e+01
2.430000e-06	2.638730e-06	1.004282e-09	1.834461e+01	7.060080e+01
2.440000e-06	2.679113e-06	1.016044e-09	1.862536e+01	7.157554e+01
2.450000e-06	2.719363e-06	1.029021e-09	1.890518e+01	7.252034e+01
2.460000e-06	2.759501e-06	1.042330e-09	1.918422e+01	7.343620e+01
2.470000e-06	2.799528e-06	1.055169e-09	1.946249e+01	7.432411e+01
2.480000e-06	2.839432e-06	1.067477e-09	1.973991e+01	7.518502e+01
2.490000e-06	2.879201e-06	1.079777e-09	2.001638e+01	7.601983e+01
2.500000e-06	2.918823e-06	1.090324e-09	2.029184e+01	7.682941e+01
2.510000e-06	2.958312e-06	1.103419e-09	2.056636e+01	7.761459e+01
2.520000e-06	2.997635e-06	1.116029e-09	2.083974e+01	7.837615e+01
2.530000e-06	3.036709e-06	1.127150e-09	2.111139e+01	7.911482e+01
2.540000e-06	3.075531e-06	1.138724e-09	2.138128e+01	7.983130e+01
2.550000e-06	3.114153e-06	1.148627e-09	2.164978e+01	8.052622e+01
2.560000e-06	3.152573e-06	1.155904e-09	2.191688e+01	8.120020e+01
2.570000e-06	3.190761e-06	1.160506e-09	2.218236e+01	8.185380e+01
2.580000e-06	3.228779e-06	1.166638e-09	2.244667e+01	8.248755e+01
2.590000e-06	3.266672e-06	1.174861e-09	2.271010e+01	8.310195e+01
2.600000e-06	3.304354e-06	1.184356e-09	2.297207e+01	8.369748e+01
2.610000e-06	3.341730e-06	1.196447e-09	2.323191e+01	8.427459e+01
2.620000e-06	3.378836e-06	1.209544e-09	2.348987e+01	8.483372e+01
2.630000e-06	3.415748e-06	1.218932e-09	2.374649e+01	8.537530e+01
2.640000e-06	3.452376e-06	1.224186e-09	2.400113e+01	8.589974e+01
2.650000e-06	3.488660e-06	1.229894e-09	2.425338e+01	8.640748e+01
2.660000e-06	3.524721e-06	1.234233e-09	2.450408e+01	8.689891e+01
2.670000e-06	3.560680e-06	1.238506e-09	2.475406e+01	8.737448e+01
2.680000e-06	3.596592e-06	1.245858e-09	2.500373e+01	8.783460e+01
2.690000e-06	3.632376e-06	1.256154e-09	2.525250e+01	8.827972e+01
2.700000e-06	3.667971e-06	1.266801e-09	2.549996e+01	8.871028e+01
2.710000e-06	3.703417e-06	1.273846e-09	2.574638e+01	8.912675e+01
2.720000e-06	3.738671e-06	1.278420e-09	2.599147e+01	8.952960e+01
2.730000e-06	3.773546e-06	1.280455e-09	2.623392e+01	8.991930e+01
2.740000e-06	3.807911e-06	1.281580e-09	2.647283e+01	9.029633e+01
2.750000e-06	3.841790e-06	1.283515e-09	2.670836e+01	9.066119e+01
2.760000e-06	3.875102e-06	1.287509e-09	2.693994e+01	9.101435e+01
2.770000e-06	3.907918e-06	1.294021e-09	2.716808e+01	9.135632e+01
2.780000e-06	3.940375e-06	1.301260e-09	2.739373e+01	9.168756e+01
2.790000e-06	3.972531e-06	1.308220e-09	2.761727e+01	9.200854e+01
2.800000e-06	4.004531e-06	1.316210e-09	2.783974e+01	9.231972e+01
2.810000e-06	4.036396e-06	1.322724e-09	2.806127e+01	9.262150e+01
2.820000e-06	4.068143e-06	1.327829e-09	2.828198e+01	9.291431e+01
2.830000e-06	4.099725e-06	1.332230e-09	2.850154e+01	9.319852e+01
2.840000e-06	4.131032e-06	1.336048e-09	2.871919e+01	9.347445e+01
2.850000e-06	4.161977e-06	1.339138e-09	2.893432e+01	9.374241e+01
2.860000e-06	4.192542e-06	1.341646e-09	2.914681e+01	9.400267e+01
2.870000e-06	4.222803e-06	1.345900e-09	2.935718e+01	9.425544e+01
2.880000e-06	4.252801e-06	1.349751e-09	2.956573e+01	9.450089e+01
2.890000e-06	4.282584e-06	1.352391e-09	2.977278e+01	9.473916e+01
2.900000e-06	4.312113e-06	1.356963e-09	2.997807e+01	9.497034e+01
