# Temperatura_=_-6.9
# Concentracion g/m^3_=_1620.0
# C_Vs_to_Am_M_A/Vsm_=_65563218390.804596
# pendiente_HvsI_1/m_=_3716.3
# ordenada_HvsI_A/m_=_1297.0
# frecuencia_Hz_=_135109.44137037353

Tiempo_(s)	Campo_(V.s)	Magnetizacion_(V.s)	Campo_(kA/m)	Magnetizacion_(A/m)
0.000000e+00	-5.506310e-06	-1.464632e-09	-3.836516e+01	-9.595447e+01
1.000000e-08	-5.506526e-06	-1.464040e-09	-3.836666e+01	-9.583826e+01
2.000000e-08	-5.506401e-06	-1.466200e-09	-3.836579e+01	-9.572165e+01
3.000000e-08	-5.505844e-06	-1.467655e-09	-3.836191e+01	-9.560527e+01
4.000000e-08	-5.504735e-06	-1.467162e-09	-3.835418e+01	-9.548972e+01
5.000000e-08	-5.502971e-06	-1.459536e-09	-3.834189e+01	-9.537562e+01
6.000000e-08	-5.500583e-06	-1.445325e-09	-3.832525e+01	-9.526352e+01
7.000000e-08	-5.497581e-06	-1.431371e-09	-3.830434e+01	-9.515395e+01
8.000000e-08	-5.494156e-06	-1.432938e-09	-3.828047e+01	-9.504738e+01
9.000000e-08	-5.490427e-06	-1.486206e-09	-3.825450e+01	-9.494422e+01
1.000000e-07	-5.486309e-06	-1.544419e-09	-3.822580e+01	-9.484481e+01
1.100000e-07	-5.481763e-06	-1.483218e-09	-3.819413e+01	-9.474940e+01
1.200000e-07	-5.477096e-06	-1.380365e-09	-3.816161e+01	-9.465818e+01
1.300000e-07	-5.472344e-06	-1.399766e-09	-3.812850e+01	-9.457124e+01
1.400000e-07	-5.467102e-06	-1.495124e-09	-3.809198e+01	-9.448858e+01
1.500000e-07	-5.461321e-06	-1.494947e-09	-3.805170e+01	-9.441011e+01
1.600000e-07	-5.455199e-06	-1.392490e-09	-3.800905e+01	-9.433564e+01
1.700000e-07	-5.448779e-06	-1.404209e-09	-3.796431e+01	-9.426490e+01
1.800000e-07	-5.441925e-06	-1.492848e-09	-3.791656e+01	-9.419754e+01
1.900000e-07	-5.434675e-06	-1.502690e-09	-3.786604e+01	-9.413310e+01
2.000000e-07	-5.427125e-06	-1.407344e-09	-3.781344e+01	-9.407107e+01
2.100000e-07	-5.419324e-06	-1.409256e-09	-3.775909e+01	-9.401087e+01
2.200000e-07	-5.411253e-06	-1.489049e-09	-3.770285e+01	-9.395184e+01
2.300000e-07	-5.402811e-06	-1.527188e-09	-3.764403e+01	-9.389331e+01
2.400000e-07	-5.393883e-06	-1.468508e-09	-3.758183e+01	-9.383453e+01
2.500000e-07	-5.384254e-06	-1.442810e-09	-3.751473e+01	-9.377475e+01
2.600000e-07	-5.373854e-06	-1.467371e-09	-3.744227e+01	-9.371319e+01
2.700000e-07	-5.362910e-06	-1.465923e-09	-3.736602e+01	-9.364909e+01
2.800000e-07	-5.351569e-06	-1.436739e-09	-3.728700e+01	-9.358166e+01
2.900000e-07	-5.339861e-06	-1.438887e-09	-3.720543e+01	-9.351018e+01
3.000000e-07	-5.327817e-06	-1.470570e-09	-3.712151e+01	-9.343392e+01
3.100000e-07	-5.315376e-06	-1.461443e-09	-3.703483e+01	-9.335221e+01
3.200000e-07	-5.302451e-06	-1.430673e-09	-3.694477e+01	-9.326445e+01
3.300000e-07	-5.289120e-06	-1.414615e-09	-3.685189e+01	-9.317008e+01
3.400000e-07	-5.275519e-06	-1.448188e-09	-3.675712e+01	-9.306863e+01
3.500000e-07	-5.261534e-06	-1.444677e-09	-3.665968e+01	-9.295968e+01
3.600000e-07	-5.246974e-06	-1.420745e-09	-3.655823e+01	-9.284294e+01
3.700000e-07	-5.231897e-06	-1.424034e-09	-3.645319e+01	-9.271816e+01
3.800000e-07	-5.216470e-06	-1.459060e-09	-3.634570e+01	-9.258521e+01
3.900000e-07	-5.200463e-06	-1.412342e-09	-3.623417e+01	-9.244405e+01
4.000000e-07	-5.183973e-06	-1.379791e-09	-3.611928e+01	-9.229471e+01
4.100000e-07	-5.167251e-06	-1.426530e-09	-3.600277e+01	-9.213735e+01
4.200000e-07	-5.150221e-06	-1.442565e-09	-3.588411e+01	-9.197217e+01
4.300000e-07	-5.132856e-06	-1.379713e-09	-3.576312e+01	-9.179950e+01
4.400000e-07	-5.115123e-06	-1.409013e-09	-3.563957e+01	-9.161970e+01
4.500000e-07	-5.096974e-06	-1.466718e-09	-3.551312e+01	-9.143323e+01
4.600000e-07	-5.078391e-06	-1.405000e-09	-3.538364e+01	-9.124060e+01
4.700000e-07	-5.059354e-06	-1.355768e-09	-3.525100e+01	-9.104238e+01
4.800000e-07	-5.040016e-06	-1.428056e-09	-3.511626e+01	-9.083918e+01
4.900000e-07	-5.020498e-06	-1.423926e-09	-3.498027e+01	-9.063164e+01
5.000000e-07	-5.000738e-06	-1.356216e-09	-3.484259e+01	-9.042042e+01
5.100000e-07	-4.980785e-06	-1.392019e-09	-3.470357e+01	-9.020620e+01
5.200000e-07	-4.960511e-06	-1.422085e-09	-3.456231e+01	-8.998966e+01
5.300000e-07	-4.939789e-06	-1.358901e-09	-3.441793e+01	-8.977147e+01
5.400000e-07	-4.918742e-06	-1.374361e-09	-3.427128e+01	-8.955227e+01
5.500000e-07	-4.897426e-06	-1.430879e-09	-3.412277e+01	-8.933270e+01
5.600000e-07	-4.875732e-06	-1.373141e-09	-3.397162e+01	-8.911332e+01
5.700000e-07	-4.853702e-06	-1.339698e-09	-3.381812e+01	-8.889469e+01
5.800000e-07	-4.831359e-06	-1.399785e-09	-3.366244e+01	-8.867729e+01
5.900000e-07	-4.808571e-06	-1.389824e-09	-3.350367e+01	-8.846154e+01
6.000000e-07	-4.785411e-06	-1.336032e-09	-3.334230e+01	-8.824780e+01
6.100000e-07	-4.762042e-06	-1.367067e-09	-3.317948e+01	-8.803637e+01
6.200000e-07	-4.738490e-06	-1.376988e-09	-3.301538e+01	-8.782746e+01
6.300000e-07	-4.714773e-06	-1.335457e-09	-3.285014e+01	-8.762123e+01
6.400000e-07	-4.690824e-06	-1.346081e-09	-3.268327e+01	-8.741774e+01
6.500000e-07	-4.666501e-06	-1.372423e-09	-3.251380e+01	-8.721700e+01
6.600000e-07	-4.641706e-06	-1.339771e-09	-3.234104e+01	-8.701892e+01
6.700000e-07	-4.616377e-06	-1.329906e-09	-3.216456e+01	-8.682337e+01
6.800000e-07	-4.590424e-06	-1.343168e-09	-3.198373e+01	-8.663013e+01
6.900000e-07	-4.563876e-06	-1.327824e-09	-3.179876e+01	-8.643893e+01
7.000000e-07	-4.536919e-06	-1.313946e-09	-3.161094e+01	-8.624945e+01
7.100000e-07	-4.509639e-06	-1.330927e-09	-3.142086e+01	-8.606129e+01
7.200000e-07	-4.482118e-06	-1.326833e-09	-3.122911e+01	-8.587405e+01
7.300000e-07	-4.454469e-06	-1.318901e-09	-3.103646e+01	-8.568726e+01
7.400000e-07	-4.426686e-06	-1.325042e-09	-3.084289e+01	-8.550044e+01
7.500000e-07	-4.398678e-06	-1.321038e-09	-3.064774e+01	-8.531308e+01
7.600000e-07	-4.370376e-06	-1.306030e-09	-3.045055e+01	-8.512465e+01
7.700000e-07	-4.341703e-06	-1.306885e-09	-3.025077e+01	-8.493465e+01
7.800000e-07	-4.312658e-06	-1.303729e-09	-3.004840e+01	-8.474254e+01
7.900000e-07	-4.283308e-06	-1.295221e-09	-2.984390e+01	-8.454782e+01
8.000000e-07	-4.253676e-06	-1.297703e-09	-2.963745e+01	-8.434999e+01
8.100000e-07	-4.223737e-06	-1.296684e-09	-2.942885e+01	-8.414860e+01
8.200000e-07	-4.193444e-06	-1.278136e-09	-2.921778e+01	-8.394321e+01
8.300000e-07	-4.162914e-06	-1.272720e-09	-2.900506e+01	-8.373342e+01
8.400000e-07	-4.132158e-06	-1.282052e-09	-2.879077e+01	-8.351889e+01
8.500000e-07	-4.101102e-06	-1.280354e-09	-2.857438e+01	-8.329931e+01
8.600000e-07	-4.069794e-06	-1.276302e-09	-2.835625e+01	-8.307442e+01
8.700000e-07	-4.038344e-06	-1.276617e-09	-2.813712e+01	-8.284403e+01
8.800000e-07	-4.006687e-06	-1.266004e-09	-2.791655e+01	-8.260799e+01
8.900000e-07	-3.974764e-06	-1.248230e-09	-2.769413e+01	-8.236622e+01
9.000000e-07	-3.942668e-06	-1.247120e-09	-2.747050e+01	-8.211868e+01
9.100000e-07	-3.910283e-06	-1.246274e-09	-2.724486e+01	-8.186540e+01
9.200000e-07	-3.877482e-06	-1.237688e-09	-2.701631e+01	-8.160645e+01
9.300000e-07	-3.844341e-06	-1.237030e-09	-2.678541e+01	-8.134197e+01
9.400000e-07	-3.810871e-06	-1.241788e-09	-2.655220e+01	-8.107214e+01
9.500000e-07	-3.776830e-06	-1.230199e-09	-2.631502e+01	-8.079716e+01
9.600000e-07	-3.742237e-06	-1.215923e-09	-2.607400e+01	-8.051731e+01
9.700000e-07	-3.707325e-06	-1.207156e-09	-2.583075e+01	-8.023288e+01
9.800000e-07	-3.672135e-06	-1.197472e-09	-2.558556e+01	-7.994420e+01
9.900000e-07	-3.636695e-06	-1.187987e-09	-2.533864e+01	-7.965159e+01
1.000000e-06	-3.601126e-06	-1.191064e-09	-2.509081e+01	-7.935543e+01
1.010000e-06	-3.565440e-06	-1.190402e-09	-2.484217e+01	-7.905608e+01
1.020000e-06	-3.529572e-06	-1.182113e-09	-2.459226e+01	-7.875390e+01
1.030000e-06	-3.493529e-06	-1.175506e-09	-2.434113e+01	-7.844925e+01
1.040000e-06	-3.457318e-06	-1.173379e-09	-2.408883e+01	-7.814249e+01
1.050000e-06	-3.420891e-06	-1.164707e-09	-2.383502e+01	-7.783393e+01
1.060000e-06	-3.384168e-06	-1.155104e-09	-2.357916e+01	-7.752388e+01
1.070000e-06	-3.347136e-06	-1.148340e-09	-2.332113e+01	-7.721259e+01
1.080000e-06	-3.309799e-06	-1.139541e-09	-2.306099e+01	-7.690030e+01
1.090000e-06	-3.272250e-06	-1.129701e-09	-2.279937e+01	-7.658719e+01
1.100000e-06	-3.234529e-06	-1.124874e-09	-2.253655e+01	-7.627338e+01
1.110000e-06	-3.196574e-06	-1.119370e-09	-2.227209e+01	-7.595897e+01
1.120000e-06	-3.158445e-06	-1.110263e-09	-2.200643e+01	-7.564396e+01
1.130000e-06	-3.120054e-06	-1.104367e-09	-2.173894e+01	-7.532834e+01
1.140000e-06	-3.081378e-06	-1.101999e-09	-2.146947e+01	-7.501200e+01
1.150000e-06	-3.042594e-06	-1.100014e-09	-2.119924e+01	-7.469478e+01
1.160000e-06	-3.003627e-06	-1.095196e-09	-2.092774e+01	-7.437649e+01
1.170000e-06	-2.964369e-06	-1.089373e-09	-2.065421e+01	-7.405684e+01
1.180000e-06	-2.924940e-06	-1.083038e-09	-2.037949e+01	-7.373552e+01
1.190000e-06	-2.885425e-06	-1.077447e-09	-2.010417e+01	-7.341214e+01
1.200000e-06	-2.845797e-06	-1.070675e-09	-1.982806e+01	-7.308628e+01
1.210000e-06	-2.806051e-06	-1.063338e-09	-1.955113e+01	-7.275747e+01
1.220000e-06	-2.766108e-06	-1.056281e-09	-1.927283e+01	-7.242521e+01
1.230000e-06	-2.725970e-06	-1.051185e-09	-1.899317e+01	-7.208897e+01
1.240000e-06	-2.685775e-06	-1.043555e-09	-1.871311e+01	-7.174817e+01
1.250000e-06	-2.645404e-06	-1.036553e-09	-1.843182e+01	-7.140225e+01
1.260000e-06	-2.604718e-06	-1.031003e-09	-1.814834e+01	-7.105061e+01
1.270000e-06	-2.563757e-06	-1.024922e-09	-1.786295e+01	-7.069268e+01
1.280000e-06	-2.522464e-06	-1.016779e-09	-1.757524e+01	-7.032786e+01
1.290000e-06	-2.480930e-06	-1.008227e-09	-1.728585e+01	-6.995558e+01
1.300000e-06	-2.439202e-06	-9.981284e-10	-1.699511e+01	-6.957531e+01
1.310000e-06	-2.397130e-06	-9.880475e-10	-1.670198e+01	-6.918651e+01
1.320000e-06	-2.354663e-06	-9.784257e-10	-1.640609e+01	-6.878870e+01
1.330000e-06	-2.311914e-06	-9.725799e-10	-1.610824e+01	-6.838144e+01
1.340000e-06	-2.268945e-06	-9.676220e-10	-1.580885e+01	-6.796430e+01
1.350000e-06	-2.225739e-06	-9.652142e-10	-1.550781e+01	-6.753695e+01
1.360000e-06	-2.182376e-06	-9.633665e-10	-1.520568e+01	-6.709906e+01
1.370000e-06	-2.138888e-06	-9.581124e-10	-1.490268e+01	-6.665039e+01
1.380000e-06	-2.095310e-06	-9.478448e-10	-1.459905e+01	-6.619075e+01
1.390000e-06	-2.051690e-06	-9.329474e-10	-1.429513e+01	-6.571997e+01
1.400000e-06	-2.007970e-06	-9.168787e-10	-1.399051e+01	-6.523797e+01
1.410000e-06	-1.964133e-06	-9.027423e-10	-1.368508e+01	-6.474469e+01
1.420000e-06	-1.920244e-06	-8.929911e-10	-1.337928e+01	-6.424015e+01
1.430000e-06	-1.876284e-06	-8.861373e-10	-1.307299e+01	-6.372436e+01
1.440000e-06	-1.832212e-06	-8.817684e-10	-1.276592e+01	-6.319740e+01
1.450000e-06	-1.788028e-06	-8.751607e-10	-1.245807e+01	-6.265937e+01
1.460000e-06	-1.743758e-06	-8.649218e-10	-1.214962e+01	-6.211038e+01
1.470000e-06	-1.699335e-06	-8.528637e-10	-1.184010e+01	-6.155055e+01
1.480000e-06	-1.654740e-06	-8.427085e-10	-1.152938e+01	-6.097999e+01
1.490000e-06	-1.610066e-06	-8.326411e-10	-1.121812e+01	-6.039883e+01
1.500000e-06	-1.565277e-06	-8.203921e-10	-1.090605e+01	-5.980714e+01
1.510000e-06	-1.520312e-06	-8.093680e-10	-1.059276e+01	-5.920499e+01
1.520000e-06	-1.475180e-06	-7.994936e-10	-1.027830e+01	-5.859240e+01
1.530000e-06	-1.429954e-06	-7.879697e-10	-9.963191e+00	-5.796932e+01
1.540000e-06	-1.384703e-06	-7.778863e-10	-9.647904e+00	-5.733566e+01
1.550000e-06	-1.339373e-06	-7.678975e-10	-9.332069e+00	-5.669125e+01
1.560000e-06	-1.293886e-06	-7.567127e-10	-9.015139e+00	-5.603586e+01
1.570000e-06	-1.248305e-06	-7.419839e-10	-8.697553e+00	-5.536914e+01
1.580000e-06	-1.202721e-06	-7.297040e-10	-8.379948e+00	-5.469070e+01
1.590000e-06	-1.157082e-06	-7.189510e-10	-8.061957e+00	-5.400000e+01
1.600000e-06	-1.111326e-06	-7.060993e-10	-7.743154e+00	-5.329644e+01
1.610000e-06	-1.065507e-06	-6.924951e-10	-7.423906e+00	-5.257930e+01
1.620000e-06	-1.019579e-06	-6.801815e-10	-7.103906e+00	-5.184778e+01
1.630000e-06	-9.735486e-07	-6.706554e-10	-6.783190e+00	-5.110095e+01
1.640000e-06	-9.274711e-07	-6.608187e-10	-6.462145e+00	-5.033782e+01
1.650000e-06	-8.813499e-07	-6.506280e-10	-6.140796e+00	-4.955728e+01
1.660000e-06	-8.352312e-07	-6.412221e-10	-5.819465e+00	-4.875815e+01
1.670000e-06	-7.890581e-07	-6.301024e-10	-5.497754e+00	-4.793918e+01
1.680000e-06	-7.427409e-07	-6.154420e-10	-5.175039e+00	-4.709905e+01
1.690000e-06	-6.963986e-07	-5.999110e-10	-4.852150e+00	-4.623637e+01
1.700000e-06	-6.501349e-07	-5.820267e-10	-4.529808e+00	-4.534971e+01
1.710000e-06	-6.038011e-07	-5.611329e-10	-4.206978e+00	-4.443764e+01
1.720000e-06	-5.573709e-07	-5.404416e-10	-3.883476e+00	-4.349868e+01
1.730000e-06	-5.109163e-07	-5.240097e-10	-3.559804e+00	-4.253136e+01
1.740000e-06	-4.643932e-07	-5.131419e-10	-3.235655e+00	-4.153423e+01
1.750000e-06	-4.177573e-07	-5.028175e-10	-2.910720e+00	-4.050586e+01
1.760000e-06	-3.710935e-07	-4.879045e-10	-2.585590e+00	-3.944489e+01
1.770000e-06	-3.244339e-07	-4.707999e-10	-2.260490e+00	-3.835000e+01
1.780000e-06	-2.777519e-07	-4.535233e-10	-1.935233e+00	-3.721996e+01
1.790000e-06	-2.310694e-07	-4.354808e-10	-1.609974e+00	-3.605363e+01
1.800000e-06	-1.844160e-07	-4.156394e-10	-1.284916e+00	-3.484999e+01
1.810000e-06	-1.377230e-07	-3.973891e-10	-9.595836e-01	-3.360812e+01
1.820000e-06	-9.099199e-08	-3.814899e-10	-6.339858e-01	-3.232726e+01
1.830000e-06	-4.429131e-08	-3.667109e-10	-3.085992e-01	-3.100679e+01
1.840000e-06	2.475757e-09	-3.514650e-10	1.724981e-02	-2.964624e+01
1.850000e-06	4.923162e-08	-3.362321e-10	3.430208e-01	-2.824532e+01
1.860000e-06	9.595333e-08	-3.190569e-10	6.685539e-01	-2.680391e+01
1.870000e-06	1.426795e-07	-2.985966e-10	9.941180e-01	-2.532206e+01
1.880000e-06	1.893929e-07	-2.743785e-10	1.319593e+00	-2.380001e+01
1.890000e-06	2.361187e-07	-2.469529e-10	1.645154e+00	-2.223821e+01
1.900000e-06	2.828264e-07	-2.195862e-10	1.970590e+00	-2.063726e+01
1.910000e-06	3.294638e-07	-1.959501e-10	2.295536e+00	-1.899797e+01
1.920000e-06	3.760291e-07	-1.748876e-10	2.619979e+00	-1.732134e+01
1.930000e-06	4.225576e-07	-1.556934e-10	2.944166e+00	-1.560852e+01
1.940000e-06	4.690559e-07	-1.373528e-10	3.268142e+00	-1.386087e+01
1.950000e-06	5.155065e-07	-1.147740e-10	3.591786e+00	-1.207989e+01
1.960000e-06	5.618913e-07	-8.819655e-11	3.914972e+00	-1.026727e+01
1.970000e-06	6.082506e-07	-6.110935e-11	4.237980e+00	-8.424833e+00
1.980000e-06	6.545474e-07	-3.581738e-11	4.560552e+00	-6.554536e+00
1.990000e-06	7.007948e-07	-1.049281e-11	4.882781e+00	-4.658477e+00
2.000000e-06	7.469943e-07	1.483419e-11	5.204675e+00	-2.738869e+00
2.010000e-06	7.931373e-07	3.964969e-11	5.526176e+00	-7.980286e-01
2.020000e-06	8.393317e-07	6.640403e-11	5.848035e+00	1.161635e+00
2.030000e-06	8.854671e-07	9.688183e-11	6.169483e+00	3.137636e+00
2.040000e-06	9.314684e-07	1.275777e-10	6.489996e+00	5.127423e+00
2.050000e-06	9.774186e-07	1.563997e-10	6.810154e+00	7.128394e+00
2.060000e-06	1.023248e-06	1.815285e-10	7.129470e+00	9.137911e+00
2.070000e-06	1.068966e-06	2.059971e-10	7.448011e+00	1.115331e+01
2.080000e-06	1.114663e-06	2.316596e-10	7.766402e+00	1.317193e+01
2.090000e-06	1.160284e-06	2.595922e-10	8.084266e+00	1.519110e+01
2.100000e-06	1.205832e-06	2.896654e-10	8.401624e+00	1.720817e+01
2.110000e-06	1.251327e-06	3.198585e-10	8.718605e+00	1.922051e+01
2.120000e-06	1.296765e-06	3.488415e-10	9.035198e+00	2.122556e+01
2.130000e-06	1.342113e-06	3.771716e-10	9.351159e+00	2.322079e+01
2.140000e-06	1.387297e-06	4.036780e-10	9.665976e+00	2.520373e+01
2.150000e-06	1.432378e-06	4.285375e-10	9.980079e+00	2.717199e+01
2.160000e-06	1.477343e-06	4.532725e-10	1.029337e+01	2.912328e+01
2.170000e-06	1.522189e-06	4.771732e-10	1.060584e+01	3.105538e+01
2.180000e-06	1.566981e-06	5.029364e-10	1.091793e+01	3.296617e+01
2.190000e-06	1.611681e-06	5.317151e-10	1.122937e+01	3.485366e+01
2.200000e-06	1.656241e-06	5.621125e-10	1.153984e+01	3.671596e+01
2.210000e-06	1.700611e-06	5.932805e-10	1.184899e+01	3.855130e+01
2.220000e-06	1.744790e-06	6.223098e-10	1.215681e+01	4.035803e+01
2.230000e-06	1.788859e-06	6.454668e-10	1.246386e+01	4.213466e+01
2.240000e-06	1.832886e-06	6.636810e-10	1.277062e+01	4.387980e+01
2.250000e-06	1.876908e-06	6.806818e-10	1.307734e+01	4.559221e+01
2.260000e-06	1.920787e-06	6.995723e-10	1.338306e+01	4.727080e+01
2.270000e-06	1.964537e-06	7.209700e-10	1.368789e+01	4.891462e+01
2.280000e-06	2.008268e-06	7.451022e-10	1.399259e+01	5.052284e+01
2.290000e-06	2.051941e-06	7.696638e-10	1.429688e+01	5.209480e+01
2.300000e-06	2.095536e-06	7.935934e-10	1.460063e+01	5.362995e+01
2.310000e-06	2.139044e-06	8.159628e-10	1.490377e+01	5.512791e+01
2.320000e-06	2.182491e-06	8.348318e-10	1.520648e+01	5.658842e+01
2.330000e-06	2.225797e-06	8.498988e-10	1.550822e+01	5.801134e+01
2.340000e-06	2.268838e-06	8.640931e-10	1.580810e+01	5.939668e+01
2.350000e-06	2.311619e-06	8.798159e-10	1.610618e+01	6.074456e+01
2.360000e-06	2.354286e-06	8.976743e-10	1.640346e+01	6.205522e+01
2.370000e-06	2.396840e-06	9.178117e-10	1.669996e+01	6.332899e+01
2.380000e-06	2.439035e-06	9.382750e-10	1.699395e+01	6.456633e+01
2.390000e-06	2.480809e-06	9.563917e-10	1.728501e+01	6.576778e+01
2.400000e-06	2.522264e-06	9.724607e-10	1.757385e+01	6.693395e+01
2.410000e-06	2.563430e-06	9.865013e-10	1.786067e+01	6.806556e+01
2.420000e-06	2.604324e-06	9.981753e-10	1.814560e+01	6.916335e+01
2.430000e-06	2.645031e-06	1.010436e-09	1.842923e+01	7.022815e+01
2.440000e-06	2.685535e-06	1.024799e-09	1.871144e+01	7.126081e+01
2.450000e-06	2.725726e-06	1.039734e-09	1.899147e+01	7.226224e+01
2.460000e-06	2.765710e-06	1.054846e-09	1.927006e+01	7.323334e+01
2.470000e-06	2.805546e-06	1.068788e-09	1.954761e+01	7.417506e+01
2.480000e-06	2.845263e-06	1.080884e-09	1.982434e+01	7.508831e+01
2.490000e-06	2.884923e-06	1.091814e-09	2.010067e+01	7.597403e+01
2.500000e-06	2.924443e-06	1.102688e-09	2.037603e+01	7.683313e+01
2.510000e-06	2.963808e-06	1.116101e-09	2.065030e+01	7.766649e+01
2.520000e-06	3.003050e-06	1.129094e-09	2.092372e+01	7.847496e+01
2.530000e-06	3.042100e-06	1.141966e-09	2.119580e+01	7.925936e+01
2.540000e-06	3.080941e-06	1.155384e-09	2.146642e+01	8.002045e+01
2.550000e-06	3.119543e-06	1.164853e-09	2.173538e+01	8.075895e+01
2.560000e-06	3.157873e-06	1.170491e-09	2.200245e+01	8.147553e+01
2.570000e-06	3.195911e-06	1.175337e-09	2.226747e+01	8.217078e+01
2.580000e-06	3.233679e-06	1.181945e-09	2.253062e+01	8.284526e+01
2.590000e-06	3.271294e-06	1.191082e-09	2.279271e+01	8.349945e+01
2.600000e-06	3.308807e-06	1.202510e-09	2.305408e+01	8.413379e+01
2.610000e-06	3.346063e-06	1.215721e-09	2.331366e+01	8.474866e+01
2.620000e-06	3.382960e-06	1.228492e-09	2.357074e+01	8.534437e+01
2.630000e-06	3.419604e-06	1.237327e-09	2.382605e+01	8.592121e+01
2.640000e-06	3.455989e-06	1.243289e-09	2.407957e+01	8.647941e+01
2.650000e-06	3.492180e-06	1.248403e-09	2.433173e+01	8.701916e+01
2.660000e-06	3.528224e-06	1.252579e-09	2.458287e+01	8.754062e+01
2.670000e-06	3.564079e-06	1.258340e-09	2.483268e+01	8.804395e+01
2.680000e-06	3.599753e-06	1.265712e-09	2.508124e+01	8.852926e+01
2.690000e-06	3.635252e-06	1.274893e-09	2.532858e+01	8.899668e+01
2.700000e-06	3.670617e-06	1.285274e-09	2.557499e+01	8.944633e+01
2.710000e-06	3.705895e-06	1.292100e-09	2.582079e+01	8.987832e+01
2.720000e-06	3.740857e-06	1.295202e-09	2.606438e+01	9.029280e+01
2.730000e-06	3.775418e-06	1.296509e-09	2.630518e+01	9.068994e+01
2.740000e-06	3.809626e-06	1.297909e-09	2.654353e+01	9.106993e+01
2.750000e-06	3.843333e-06	1.301141e-09	2.677838e+01	9.143299e+01
2.760000e-06	3.876526e-06	1.307745e-09	2.700965e+01	9.177939e+01
2.770000e-06	3.909153e-06	1.316591e-09	2.723698e+01	9.210943e+01
2.780000e-06	3.941324e-06	1.323198e-09	2.746113e+01	9.242348e+01
2.790000e-06	3.973263e-06	1.326903e-09	2.768367e+01	9.272193e+01
2.800000e-06	4.005064e-06	1.330773e-09	2.790524e+01	9.300523e+01
2.810000e-06	4.036776e-06	1.335417e-09	2.812619e+01	9.327388e+01
2.820000e-06	4.068393e-06	1.339858e-09	2.834649e+01	9.352842e+01
2.830000e-06	4.099836e-06	1.345211e-09	2.856556e+01	9.376943e+01
2.840000e-06	4.130984e-06	1.348776e-09	2.878259e+01	9.399755e+01
2.850000e-06	4.161767e-06	1.352321e-09	2.899707e+01	9.421343e+01
2.860000e-06	4.192168e-06	1.357768e-09	2.920889e+01	9.441774e+01
2.870000e-06	4.222213e-06	1.363513e-09	2.941823e+01	9.461121e+01
2.880000e-06	4.252007e-06	1.364611e-09	2.962581e+01	9.479454e+01
2.890000e-06	4.281583e-06	1.365316e-09	2.983189e+01	9.496846e+01
2.900000e-06	4.310902e-06	1.369046e-09	3.003617e+01	9.513369e+01
