# Temperatura_=_13.3
# Concentracion g/m^3_=_1620.0
# C_Vs_to_Am_M_A/Vsm_=_65563218390.804596
# pendiente_HvsI_1/m_=_3716.3
# ordenada_HvsI_A/m_=_1297.0
# frecuencia_Hz_=_135108.00425769438

Tiempo_(s)	Campo_(V.s)	Magnetizacion_(V.s)	Campo_(kA/m)	Magnetizacion_(A/m)
0.000000e+00	-5.534244e-06	-1.888185e-09	-3.836322e+01	-1.235225e+02
1.000000e-08	-5.534386e-06	-1.886354e-09	-3.836421e+01	-1.234643e+02
2.000000e-08	-5.534302e-06	-1.887636e-09	-3.836362e+01	-1.234024e+02
3.000000e-08	-5.533803e-06	-1.889733e-09	-3.836016e+01	-1.233372e+02
4.000000e-08	-5.532847e-06	-1.887574e-09	-3.835354e+01	-1.232691e+02
5.000000e-08	-5.531266e-06	-1.877425e-09	-3.834257e+01	-1.231984e+02
6.000000e-08	-5.528998e-06	-1.854178e-09	-3.832685e+01	-1.231254e+02
7.000000e-08	-5.526166e-06	-1.847524e-09	-3.830722e+01	-1.230503e+02
8.000000e-08	-5.522826e-06	-1.923238e-09	-3.828407e+01	-1.229735e+02
9.000000e-08	-5.519023e-06	-2.006767e-09	-3.825771e+01	-1.228950e+02
1.000000e-07	-5.514774e-06	-1.942700e-09	-3.822825e+01	-1.228152e+02
1.100000e-07	-5.510287e-06	-1.811534e-09	-3.819715e+01	-1.227340e+02
1.200000e-07	-5.505742e-06	-1.811619e-09	-3.816564e+01	-1.226514e+02
1.300000e-07	-5.500835e-06	-1.901293e-09	-3.813163e+01	-1.225676e+02
1.400000e-07	-5.495408e-06	-1.918547e-09	-3.809401e+01	-1.224823e+02
1.500000e-07	-5.489647e-06	-1.814717e-09	-3.805408e+01	-1.223955e+02
1.600000e-07	-5.483620e-06	-1.842598e-09	-3.801230e+01	-1.223069e+02
1.700000e-07	-5.477172e-06	-1.905995e-09	-3.796760e+01	-1.222164e+02
1.800000e-07	-5.470174e-06	-1.923800e-09	-3.791908e+01	-1.221236e+02
1.900000e-07	-5.462744e-06	-1.818606e-09	-3.786759e+01	-1.220281e+02
2.000000e-07	-5.455080e-06	-1.795369e-09	-3.781446e+01	-1.219296e+02
2.100000e-07	-5.447182e-06	-1.851966e-09	-3.775971e+01	-1.218277e+02
2.200000e-07	-5.439025e-06	-1.906667e-09	-3.770317e+01	-1.217219e+02
2.300000e-07	-5.430552e-06	-1.886966e-09	-3.764443e+01	-1.216117e+02
2.400000e-07	-5.421500e-06	-1.849432e-09	-3.758168e+01	-1.214968e+02
2.500000e-07	-5.411763e-06	-1.851819e-09	-3.751418e+01	-1.213765e+02
2.600000e-07	-5.401455e-06	-1.849114e-09	-3.744273e+01	-1.212505e+02
2.700000e-07	-5.390597e-06	-1.841813e-09	-3.736746e+01	-1.211182e+02
2.800000e-07	-5.379179e-06	-1.831227e-09	-3.728831e+01	-1.209794e+02
2.900000e-07	-5.367338e-06	-1.869172e-09	-3.720623e+01	-1.208335e+02
3.000000e-07	-5.355154e-06	-1.858900e-09	-3.712177e+01	-1.206803e+02
3.100000e-07	-5.342563e-06	-1.833911e-09	-3.703449e+01	-1.205195e+02
3.200000e-07	-5.329513e-06	-1.797929e-09	-3.694403e+01	-1.203509e+02
3.300000e-07	-5.316103e-06	-1.839833e-09	-3.685107e+01	-1.201742e+02
3.400000e-07	-5.302427e-06	-1.824420e-09	-3.675627e+01	-1.199894e+02
3.500000e-07	-5.288363e-06	-1.804374e-09	-3.665878e+01	-1.197964e+02
3.600000e-07	-5.273717e-06	-1.806120e-09	-3.655725e+01	-1.195953e+02
3.700000e-07	-5.258590e-06	-1.846005e-09	-3.645240e+01	-1.193862e+02
3.800000e-07	-5.243011e-06	-1.794727e-09	-3.634440e+01	-1.191693e+02
3.900000e-07	-5.226862e-06	-1.783380e-09	-3.623246e+01	-1.189448e+02
4.000000e-07	-5.210216e-06	-1.825029e-09	-3.611707e+01	-1.187130e+02
4.100000e-07	-5.193228e-06	-1.811178e-09	-3.599930e+01	-1.184743e+02
4.200000e-07	-5.176001e-06	-1.751007e-09	-3.587989e+01	-1.182291e+02
4.300000e-07	-5.158557e-06	-1.804255e-09	-3.575897e+01	-1.179778e+02
4.400000e-07	-5.140872e-06	-1.841762e-09	-3.563637e+01	-1.177211e+02
4.500000e-07	-5.122722e-06	-1.771215e-09	-3.551056e+01	-1.174593e+02
4.600000e-07	-5.103971e-06	-1.757853e-09	-3.538058e+01	-1.171930e+02
4.700000e-07	-5.084824e-06	-1.814070e-09	-3.524785e+01	-1.169228e+02
4.800000e-07	-5.065404e-06	-1.777717e-09	-3.511323e+01	-1.166492e+02
4.900000e-07	-5.045743e-06	-1.739092e-09	-3.497694e+01	-1.163728e+02
5.000000e-07	-5.025927e-06	-1.792899e-09	-3.483958e+01	-1.160940e+02
5.100000e-07	-5.005875e-06	-1.771992e-09	-3.470058e+01	-1.158134e+02
5.200000e-07	-4.985511e-06	-1.713420e-09	-3.455942e+01	-1.155315e+02
5.300000e-07	-4.964783e-06	-1.760986e-09	-3.441573e+01	-1.152485e+02
5.400000e-07	-4.943604e-06	-1.797968e-09	-3.426892e+01	-1.149649e+02
5.500000e-07	-4.922017e-06	-1.719825e-09	-3.411928e+01	-1.146810e+02
5.600000e-07	-4.900177e-06	-1.717280e-09	-3.396789e+01	-1.143969e+02
5.700000e-07	-4.878125e-06	-1.761038e-09	-3.381502e+01	-1.141129e+02
5.800000e-07	-4.855727e-06	-1.726572e-09	-3.365976e+01	-1.138290e+02
5.900000e-07	-4.832890e-06	-1.693888e-09	-3.350145e+01	-1.135452e+02
6.000000e-07	-4.809670e-06	-1.739973e-09	-3.334049e+01	-1.132616e+02
6.100000e-07	-4.786201e-06	-1.721694e-09	-3.317780e+01	-1.129779e+02
6.200000e-07	-4.762524e-06	-1.684196e-09	-3.301368e+01	-1.126940e+02
6.300000e-07	-4.738614e-06	-1.701670e-09	-3.284794e+01	-1.124097e+02
6.400000e-07	-4.714431e-06	-1.710292e-09	-3.268030e+01	-1.121246e+02
6.500000e-07	-4.689867e-06	-1.672942e-09	-3.251002e+01	-1.118385e+02
6.600000e-07	-4.664851e-06	-1.683462e-09	-3.233661e+01	-1.115508e+02
6.700000e-07	-4.639285e-06	-1.692981e-09	-3.215939e+01	-1.112612e+02
6.800000e-07	-4.613078e-06	-1.667175e-09	-3.197772e+01	-1.109692e+02
6.900000e-07	-4.586267e-06	-1.656658e-09	-3.179187e+01	-1.106744e+02
7.000000e-07	-4.559062e-06	-1.673473e-09	-3.160329e+01	-1.103762e+02
7.100000e-07	-4.531652e-06	-1.656482e-09	-3.141328e+01	-1.100742e+02
7.200000e-07	-4.504006e-06	-1.645118e-09	-3.122164e+01	-1.097679e+02
7.300000e-07	-4.476182e-06	-1.654858e-09	-3.102877e+01	-1.094567e+02
7.400000e-07	-4.448207e-06	-1.649963e-09	-3.083484e+01	-1.091403e+02
7.500000e-07	-4.419952e-06	-1.631440e-09	-3.063898e+01	-1.088183e+02
7.600000e-07	-4.391378e-06	-1.631849e-09	-3.044090e+01	-1.084902e+02
7.700000e-07	-4.362447e-06	-1.630788e-09	-3.024036e+01	-1.081558e+02
7.800000e-07	-4.333140e-06	-1.615831e-09	-3.003720e+01	-1.078146e+02
7.900000e-07	-4.303570e-06	-1.616136e-09	-2.983222e+01	-1.074666e+02
8.000000e-07	-4.273816e-06	-1.615146e-09	-2.962597e+01	-1.071114e+02
8.100000e-07	-4.243770e-06	-1.597437e-09	-2.941769e+01	-1.067490e+02
8.200000e-07	-4.213311e-06	-1.586829e-09	-2.920655e+01	-1.063793e+02
8.300000e-07	-4.182531e-06	-1.594236e-09	-2.899318e+01	-1.060022e+02
8.400000e-07	-4.151577e-06	-1.584605e-09	-2.877861e+01	-1.056178e+02
8.500000e-07	-4.120450e-06	-1.579103e-09	-2.856284e+01	-1.052261e+02
8.600000e-07	-4.089083e-06	-1.583959e-09	-2.834540e+01	-1.048273e+02
8.700000e-07	-4.057471e-06	-1.577655e-09	-2.812627e+01	-1.044216e+02
8.800000e-07	-4.025689e-06	-1.557654e-09	-2.790596e+01	-1.040092e+02
8.900000e-07	-3.993805e-06	-1.554917e-09	-2.768494e+01	-1.035903e+02
9.000000e-07	-3.961737e-06	-1.545035e-09	-2.746264e+01	-1.031652e+02
9.100000e-07	-3.929248e-06	-1.527155e-09	-2.723744e+01	-1.027343e+02
9.200000e-07	-3.896238e-06	-1.521764e-09	-2.700861e+01	-1.022978e+02
9.300000e-07	-3.862724e-06	-1.528519e-09	-2.677629e+01	-1.018561e+02
9.400000e-07	-3.828767e-06	-1.516465e-09	-2.654090e+01	-1.014095e+02
9.500000e-07	-3.794429e-06	-1.508144e-09	-2.630287e+01	-1.009585e+02
9.600000e-07	-3.759656e-06	-1.505051e-09	-2.606182e+01	-1.005033e+02
9.700000e-07	-3.724550e-06	-1.492848e-09	-2.581847e+01	-1.000443e+02
9.800000e-07	-3.689213e-06	-1.475565e-09	-2.557352e+01	-9.958186e+01
9.900000e-07	-3.653633e-06	-1.475211e-09	-2.532688e+01	-9.911621e+01
1.000000e-06	-3.617911e-06	-1.471585e-09	-2.507926e+01	-9.864766e+01
1.010000e-06	-3.582072e-06	-1.457780e-09	-2.483082e+01	-9.817646e+01
1.020000e-06	-3.546103e-06	-1.451728e-09	-2.458148e+01	-9.770283e+01
1.030000e-06	-3.509965e-06	-1.450330e-09	-2.433097e+01	-9.722696e+01
1.040000e-06	-3.473541e-06	-1.438494e-09	-2.407849e+01	-9.674900e+01
1.050000e-06	-3.436813e-06	-1.427092e-09	-2.382389e+01	-9.626906e+01
1.060000e-06	-3.399806e-06	-1.422648e-09	-2.356736e+01	-9.578721e+01
1.070000e-06	-3.362528e-06	-1.411691e-09	-2.330894e+01	-9.530348e+01
1.080000e-06	-3.325032e-06	-1.400981e-09	-2.304902e+01	-9.481785e+01
1.090000e-06	-3.287291e-06	-1.397752e-09	-2.278740e+01	-9.433028e+01
1.100000e-06	-3.249300e-06	-1.391082e-09	-2.252405e+01	-9.384066e+01
1.110000e-06	-3.211099e-06	-1.374423e-09	-2.225925e+01	-9.334886e+01
1.120000e-06	-3.172624e-06	-1.363383e-09	-2.199253e+01	-9.285470e+01
1.130000e-06	-3.133945e-06	-1.355326e-09	-2.172441e+01	-9.235796e+01
1.140000e-06	-3.095069e-06	-1.345578e-09	-2.145493e+01	-9.185838e+01
1.150000e-06	-3.055994e-06	-1.337668e-09	-2.118406e+01	-9.135568e+01
1.160000e-06	-3.016750e-06	-1.333264e-09	-2.091202e+01	-9.084952e+01
1.170000e-06	-2.977306e-06	-1.322545e-09	-2.063860e+01	-9.033954e+01
1.180000e-06	-2.937691e-06	-1.311608e-09	-2.036399e+01	-8.982536e+01
1.190000e-06	-2.897981e-06	-1.302426e-09	-2.008872e+01	-8.930656e+01
1.200000e-06	-2.858182e-06	-1.292951e-09	-1.981283e+01	-8.878269e+01
1.210000e-06	-2.818186e-06	-1.281097e-09	-1.953559e+01	-8.825328e+01
1.220000e-06	-2.778046e-06	-1.275633e-09	-1.925733e+01	-8.771784e+01
1.230000e-06	-2.737830e-06	-1.268650e-09	-1.897856e+01	-8.717588e+01
1.240000e-06	-2.697474e-06	-1.256744e-09	-1.869881e+01	-8.662686e+01
1.250000e-06	-2.656893e-06	-1.245084e-09	-1.841751e+01	-8.607027e+01
1.260000e-06	-2.615924e-06	-1.235969e-09	-1.813351e+01	-8.550557e+01
1.270000e-06	-2.574637e-06	-1.223884e-09	-1.784731e+01	-8.493221e+01
1.280000e-06	-2.533091e-06	-1.211681e-09	-1.755931e+01	-8.434966e+01
1.290000e-06	-2.491123e-06	-1.203034e-09	-1.726839e+01	-8.375739e+01
1.300000e-06	-2.448859e-06	-1.193127e-09	-1.697542e+01	-8.315487e+01
1.310000e-06	-2.406374e-06	-1.177713e-09	-1.668092e+01	-8.254159e+01
1.320000e-06	-2.363571e-06	-1.163832e-09	-1.638420e+01	-8.191705e+01
1.330000e-06	-2.320511e-06	-1.151753e-09	-1.608571e+01	-8.128078e+01
1.340000e-06	-2.277206e-06	-1.139177e-09	-1.578553e+01	-8.063234e+01
1.350000e-06	-2.233664e-06	-1.128174e-09	-1.548369e+01	-7.997130e+01
1.360000e-06	-2.190087e-06	-1.120994e-09	-1.518162e+01	-7.929729e+01
1.370000e-06	-2.146474e-06	-1.113196e-09	-1.487929e+01	-7.860994e+01
1.380000e-06	-2.102750e-06	-1.103412e-09	-1.457620e+01	-7.790895e+01
1.390000e-06	-2.058943e-06	-1.090447e-09	-1.427253e+01	-7.719406e+01
1.400000e-06	-2.015053e-06	-1.073051e-09	-1.396829e+01	-7.646502e+01
1.410000e-06	-1.971130e-06	-1.054789e-09	-1.366382e+01	-7.572167e+01
1.420000e-06	-1.927104e-06	-1.039732e-09	-1.335863e+01	-7.496385e+01
1.430000e-06	-1.882899e-06	-1.029878e-09	-1.305220e+01	-7.419147e+01
1.440000e-06	-1.838612e-06	-1.021452e-09	-1.274521e+01	-7.340447e+01
1.450000e-06	-1.794256e-06	-1.012723e-09	-1.243773e+01	-7.260283e+01
1.460000e-06	-1.749749e-06	-1.001599e-09	-1.212921e+01	-7.178658e+01
1.470000e-06	-1.705100e-06	-9.886048e-10	-1.181971e+01	-7.095575e+01
1.480000e-06	-1.660294e-06	-9.752271e-10	-1.150911e+01	-7.011042e+01
1.490000e-06	-1.615352e-06	-9.618175e-10	-1.119757e+01	-6.925067e+01
1.500000e-06	-1.570307e-06	-9.437761e-10	-1.088532e+01	-6.837661e+01
1.510000e-06	-1.525126e-06	-9.253821e-10	-1.057213e+01	-6.748834e+01
1.520000e-06	-1.479830e-06	-9.101764e-10	-1.025814e+01	-6.658595e+01
1.530000e-06	-1.434468e-06	-8.984185e-10	-9.943692e+00	-6.566952e+01
1.540000e-06	-1.389031e-06	-8.872440e-10	-9.628724e+00	-6.473911e+01
1.550000e-06	-1.343485e-06	-8.768785e-10	-9.312999e+00	-6.379473e+01
1.560000e-06	-1.297795e-06	-8.612783e-10	-8.996280e+00	-6.283634e+01
1.570000e-06	-1.251967e-06	-8.421738e-10	-8.678602e+00	-6.186387e+01
1.580000e-06	-1.206002e-06	-8.238570e-10	-8.359971e+00	-6.087715e+01
1.590000e-06	-1.159979e-06	-8.051818e-10	-8.040938e+00	-5.987595e+01
1.600000e-06	-1.114010e-06	-7.832468e-10	-7.722287e+00	-5.885995e+01
1.610000e-06	-1.067986e-06	-7.650748e-10	-7.403249e+00	-5.782875e+01
1.620000e-06	-1.021841e-06	-7.526768e-10	-7.083372e+00	-5.678181e+01
1.630000e-06	-9.756598e-07	-7.410150e-10	-6.763246e+00	-5.571854e+01
1.640000e-06	-9.293604e-07	-7.280256e-10	-6.442299e+00	-5.463820e+01
1.650000e-06	-8.828804e-07	-7.129894e-10	-6.120102e+00	-5.353995e+01
1.660000e-06	-8.363886e-07	-6.951935e-10	-5.797821e+00	-5.242284e+01
1.670000e-06	-7.899587e-07	-6.747115e-10	-5.475971e+00	-5.128582e+01
1.680000e-06	-7.435167e-07	-6.556389e-10	-5.154036e+00	-5.012773e+01
1.690000e-06	-6.969763e-07	-6.394881e-10	-4.831419e+00	-4.894730e+01
1.700000e-06	-6.502860e-07	-6.226538e-10	-4.507763e+00	-4.774319e+01
1.710000e-06	-6.036035e-07	-6.021621e-10	-4.184162e+00	-4.651397e+01
1.720000e-06	-5.569179e-07	-5.810111e-10	-3.860539e+00	-4.525814e+01
1.730000e-06	-5.101525e-07	-5.595297e-10	-3.536362e+00	-4.397416e+01
1.740000e-06	-4.633440e-07	-5.391942e-10	-3.211887e+00	-4.266046e+01
1.750000e-06	-4.164885e-07	-5.206471e-10	-2.887086e+00	-4.131544e+01
1.760000e-06	-3.696169e-07	-5.018994e-10	-2.562174e+00	-3.993751e+01
1.770000e-06	-3.227308e-07	-4.813320e-10	-2.237161e+00	-3.852511e+01
1.780000e-06	-2.758451e-07	-4.611667e-10	-1.912150e+00	-3.707674e+01
1.790000e-06	-2.289473e-07	-4.398361e-10	-1.587056e+00	-3.559094e+01
1.800000e-06	-1.819946e-07	-4.167806e-10	-1.261581e+00	-3.406638e+01
1.810000e-06	-1.349406e-07	-3.935121e-10	-9.354044e-01	-3.250183e+01
1.820000e-06	-8.791791e-08	-3.707730e-10	-6.094444e-01	-3.089619e+01
1.830000e-06	-4.101841e-08	-3.465900e-10	-2.843384e-01	-2.924856e+01
1.840000e-06	5.775608e-09	-3.234710e-10	4.003635e-02	-2.755819e+01
1.850000e-06	5.265671e-08	-3.017481e-10	3.650148e-01	-2.582455e+01
1.860000e-06	9.974760e-08	-2.806837e-10	6.914475e-01	-2.404733e+01
1.870000e-06	1.468100e-07	-2.578706e-10	1.017682e+00	-2.222646e+01
1.880000e-06	1.937118e-07	-2.324939e-10	1.342804e+00	-2.036212e+01
1.890000e-06	2.405252e-07	-2.037785e-10	1.667314e+00	-1.845474e+01
1.900000e-06	2.873880e-07	-1.731186e-10	1.992165e+00	-1.650504e+01
1.910000e-06	3.343021e-07	-1.428494e-10	2.317372e+00	-1.451401e+01
1.920000e-06	3.812269e-07	-1.134941e-10	2.642654e+00	-1.248291e+01
1.930000e-06	4.280773e-07	-8.622073e-11	2.967419e+00	-1.041327e+01
1.940000e-06	4.747748e-07	-5.999406e-11	3.291125e+00	-8.306913e+00
1.950000e-06	5.215427e-07	-3.267769e-11	3.615318e+00	-6.165904e+00
1.960000e-06	5.683436e-07	-2.288198e-12	3.939741e+00	-3.992567e+00
1.970000e-06	6.149753e-07	3.040541e-11	4.262991e+00	-1.789461e+00
1.980000e-06	6.614728e-07	6.198547e-11	4.585310e+00	4.406331e-01
1.990000e-06	7.079933e-07	9.268986e-11	4.907789e+00	2.694738e+00
2.000000e-06	7.544832e-07	1.247853e-10	5.230056e+00	4.969695e+00
2.010000e-06	8.008849e-07	1.561685e-10	5.551711e+00	7.262195e+00
2.020000e-06	8.472785e-07	1.883633e-10	5.873310e+00	9.568801e+00
2.030000e-06	8.936787e-07	2.223196e-10	6.194955e+00	1.188598e+01
2.040000e-06	9.400497e-07	2.580070e-10	6.516397e+00	1.421011e+01
2.050000e-06	9.862826e-07	2.921718e-10	6.836883e+00	1.653756e+01
2.060000e-06	1.032397e-06	3.231725e-10	7.156548e+00	1.886466e+01
2.070000e-06	1.078418e-06	3.519819e-10	7.475560e+00	2.118777e+01
2.080000e-06	1.124351e-06	3.799122e-10	7.793970e+00	2.350328e+01
2.090000e-06	1.170276e-06	4.097953e-10	8.112318e+00	2.580768e+01
2.100000e-06	1.216089e-06	4.440848e-10	8.429894e+00	2.809754e+01
2.110000e-06	1.261735e-06	4.803084e-10	8.746308e+00	3.036956e+01
2.120000e-06	1.307376e-06	5.165879e-10	9.062691e+00	3.262060e+01
2.130000e-06	1.352973e-06	5.506772e-10	9.378767e+00	3.484768e+01
2.140000e-06	1.398457e-06	5.807439e-10	9.694066e+00	3.704799e+01
2.150000e-06	1.443890e-06	6.065238e-10	1.000900e+01	3.921896e+01
2.160000e-06	1.489218e-06	6.301817e-10	1.032322e+01	4.135822e+01
2.170000e-06	1.534402e-06	6.536804e-10	1.063643e+01	4.346361e+01
2.180000e-06	1.579473e-06	6.799586e-10	1.094886e+01	4.553323e+01
2.190000e-06	1.624420e-06	7.101310e-10	1.126043e+01	4.756540e+01
2.200000e-06	1.669236e-06	7.414133e-10	1.157110e+01	4.955870e+01
2.210000e-06	1.713927e-06	7.724328e-10	1.188089e+01	5.151193e+01
2.220000e-06	1.758487e-06	8.014093e-10	1.218978e+01	5.342414e+01
2.230000e-06	1.802925e-06	8.273362e-10	1.249782e+01	5.529458e+01
2.240000e-06	1.847222e-06	8.486262e-10	1.280489e+01	5.712275e+01
2.250000e-06	1.891340e-06	8.648725e-10	1.311071e+01	5.890835e+01
2.260000e-06	1.935380e-06	8.814532e-10	1.341600e+01	6.065126e+01
2.270000e-06	1.979358e-06	9.018612e-10	1.372085e+01	6.235158e+01
2.280000e-06	2.023228e-06	9.244317e-10	1.402495e+01	6.400954e+01
2.290000e-06	2.067030e-06	9.504199e-10	1.432859e+01	6.562553e+01
2.300000e-06	2.110782e-06	9.796163e-10	1.463188e+01	6.720008e+01
2.310000e-06	2.154504e-06	1.006511e-09	1.493496e+01	6.873384e+01
2.320000e-06	2.198152e-06	1.026562e-09	1.523753e+01	7.022756e+01
2.330000e-06	2.241666e-06	1.041477e-09	1.553917e+01	7.168205e+01
2.340000e-06	2.285026e-06	1.054810e-09	1.583973e+01	7.309822e+01
2.350000e-06	2.328184e-06	1.069274e-09	1.613890e+01	7.447701e+01
2.360000e-06	2.371052e-06	1.085890e-09	1.643607e+01	7.581939e+01
2.370000e-06	2.413645e-06	1.105722e-09	1.673132e+01	7.712637e+01
2.380000e-06	2.456106e-06	1.127518e-09	1.702565e+01	7.839896e+01
2.390000e-06	2.498320e-06	1.149117e-09	1.731828e+01	7.963817e+01
2.400000e-06	2.540063e-06	1.168706e-09	1.760764e+01	8.084499e+01
2.410000e-06	2.581360e-06	1.185408e-09	1.789391e+01	8.202040e+01
2.420000e-06	2.622331e-06	1.199614e-09	1.817792e+01	8.316535e+01
2.430000e-06	2.663079e-06	1.211144e-09	1.846038e+01	8.428074e+01
2.440000e-06	2.703721e-06	1.222213e-09	1.874212e+01	8.536746e+01
2.450000e-06	2.744140e-06	1.236500e-09	1.902230e+01	8.642635e+01
2.460000e-06	2.784259e-06	1.253902e-09	1.930040e+01	8.745820e+01
2.470000e-06	2.824216e-06	1.270957e-09	1.957738e+01	8.846377e+01
2.480000e-06	2.864083e-06	1.287024e-09	1.985374e+01	8.944377e+01
2.490000e-06	2.903860e-06	1.301265e-09	2.012947e+01	9.039888e+01
2.500000e-06	2.943545e-06	1.313842e-09	2.040457e+01	9.132974e+01
2.510000e-06	2.983126e-06	1.327170e-09	2.067894e+01	9.223695e+01
2.520000e-06	3.022526e-06	1.339011e-09	2.095206e+01	9.312110e+01
2.530000e-06	3.061694e-06	1.352346e-09	2.122357e+01	9.398273e+01
2.540000e-06	3.100634e-06	1.366910e-09	2.149350e+01	9.482236e+01
2.550000e-06	3.139374e-06	1.378940e-09	2.176205e+01	9.564052e+01
2.560000e-06	3.177846e-06	1.389874e-09	2.202874e+01	9.643769e+01
2.570000e-06	3.216064e-06	1.399813e-09	2.229366e+01	9.721436e+01
2.580000e-06	3.254120e-06	1.407818e-09	2.255747e+01	9.797100e+01
2.590000e-06	3.291920e-06	1.416407e-09	2.281949e+01	9.870811e+01
2.600000e-06	3.329456e-06	1.429214e-09	2.307969e+01	9.942613e+01
2.610000e-06	3.366835e-06	1.443801e-09	2.333880e+01	1.001256e+02
2.620000e-06	3.403943e-06	1.458634e-09	2.359603e+01	1.008068e+02
2.630000e-06	3.440799e-06	1.470089e-09	2.385152e+01	1.014705e+02
2.640000e-06	3.477456e-06	1.478507e-09	2.410562e+01	1.021170e+02
2.650000e-06	3.513818e-06	1.485202e-09	2.435768e+01	1.027467e+02
2.660000e-06	3.549927e-06	1.490517e-09	2.460799e+01	1.033603e+02
2.670000e-06	3.585860e-06	1.496844e-09	2.485708e+01	1.039582e+02
2.680000e-06	3.621702e-06	1.505034e-09	2.510553e+01	1.045408e+02
2.690000e-06	3.657473e-06	1.515685e-09	2.535349e+01	1.051087e+02
2.700000e-06	3.693064e-06	1.527038e-09	2.560021e+01	1.056624e+02
2.710000e-06	3.728440e-06	1.535345e-09	2.584544e+01	1.062022e+02
2.720000e-06	3.763593e-06	1.540820e-09	2.608912e+01	1.067287e+02
2.730000e-06	3.798396e-06	1.544926e-09	2.633037e+01	1.072424e+02
2.740000e-06	3.832712e-06	1.549514e-09	2.656825e+01	1.077437e+02
2.750000e-06	3.866544e-06	1.555468e-09	2.680277e+01	1.082329e+02
2.760000e-06	3.899894e-06	1.562807e-09	2.703395e+01	1.087106e+02
2.770000e-06	3.932648e-06	1.570346e-09	2.726100e+01	1.091771e+02
2.780000e-06	3.964999e-06	1.576961e-09	2.748526e+01	1.096328e+02
2.790000e-06	3.997230e-06	1.584194e-09	2.770868e+01	1.100780e+02
2.800000e-06	4.029300e-06	1.592202e-09	2.793099e+01	1.105130e+02
2.810000e-06	4.061137e-06	1.598576e-09	2.815168e+01	1.109382e+02
2.820000e-06	4.092798e-06	1.602528e-09	2.837116e+01	1.113539e+02
2.830000e-06	4.124324e-06	1.607805e-09	2.858969e+01	1.117602e+02
2.840000e-06	4.155660e-06	1.614625e-09	2.880692e+01	1.121574e+02
2.850000e-06	4.186750e-06	1.620334e-09	2.902243e+01	1.125457e+02
2.860000e-06	4.217514e-06	1.626971e-09	2.923568e+01	1.129254e+02
2.870000e-06	4.247819e-06	1.635569e-09	2.944576e+01	1.132964e+02
2.880000e-06	4.277696e-06	1.641186e-09	2.965287e+01	1.136590e+02
2.890000e-06	4.307336e-06	1.644261e-09	2.985833e+01	1.140133e+02
2.900000e-06	4.336820e-06	1.648194e-09	3.006271e+01	1.143594e+02
