# Temperatura_=_-8.5
# Concentracion g/m^3_=_1620.0
# C_Vs_to_Am_M_A/Vsm_=_65563218390.804596
# pendiente_HvsI_1/m_=_3716.3
# ordenada_HvsI_A/m_=_1297.0
# frecuencia_Hz_=_135107.5971290114

Tiempo_(s)	Campo_(V.s)	Magnetizacion_(V.s)	Campo_(kA/m)	Magnetizacion_(A/m)
0.000000e+00	-5.517401e-06	-1.375168e-09	-3.837878e+01	-8.919114e+01
1.000000e-08	-5.517582e-06	-1.372519e-09	-3.838005e+01	-8.912656e+01
2.000000e-08	-5.517543e-06	-1.373017e-09	-3.837977e+01	-8.906323e+01
3.000000e-08	-5.517132e-06	-1.374215e-09	-3.837691e+01	-8.900121e+01
4.000000e-08	-5.516208e-06	-1.371551e-09	-3.837049e+01	-8.894050e+01
5.000000e-08	-5.514669e-06	-1.365468e-09	-3.835978e+01	-8.888108e+01
6.000000e-08	-5.512500e-06	-1.353975e-09	-3.834469e+01	-8.882289e+01
7.000000e-08	-5.509720e-06	-1.365237e-09	-3.832535e+01	-8.876586e+01
8.000000e-08	-5.506478e-06	-1.406966e-09	-3.830280e+01	-8.870986e+01
9.000000e-08	-5.502812e-06	-1.380736e-09	-3.827730e+01	-8.865475e+01
1.000000e-07	-5.498738e-06	-1.310987e-09	-3.824896e+01	-8.860033e+01
1.100000e-07	-5.494451e-06	-1.376444e-09	-3.821915e+01	-8.854641e+01
1.200000e-07	-5.489874e-06	-1.428758e-09	-3.818731e+01	-8.849274e+01
1.300000e-07	-5.484910e-06	-1.356652e-09	-3.815278e+01	-8.843906e+01
1.400000e-07	-5.479660e-06	-1.281857e-09	-3.811626e+01	-8.838509e+01
1.500000e-07	-5.474106e-06	-1.343868e-09	-3.807763e+01	-8.833053e+01
1.600000e-07	-5.468096e-06	-1.473211e-09	-3.803582e+01	-8.827504e+01
1.700000e-07	-5.461656e-06	-1.353207e-09	-3.799103e+01	-8.821832e+01
1.800000e-07	-5.454844e-06	-1.260543e-09	-3.794364e+01	-8.816000e+01
1.900000e-07	-5.447611e-06	-1.323422e-09	-3.789333e+01	-8.809976e+01
2.000000e-07	-5.440082e-06	-1.439008e-09	-3.784095e+01	-8.803725e+01
2.100000e-07	-5.432307e-06	-1.388563e-09	-3.778688e+01	-8.797213e+01
2.200000e-07	-5.424276e-06	-1.323834e-09	-3.773101e+01	-8.790405e+01
2.300000e-07	-5.415905e-06	-1.364688e-09	-3.767278e+01	-8.783272e+01
2.400000e-07	-5.406994e-06	-1.423434e-09	-3.761080e+01	-8.775781e+01
2.500000e-07	-5.397502e-06	-1.387166e-09	-3.754478e+01	-8.767905e+01
2.600000e-07	-5.387475e-06	-1.326847e-09	-3.747502e+01	-8.759617e+01
2.700000e-07	-5.376821e-06	-1.351171e-09	-3.740092e+01	-8.750894e+01
2.800000e-07	-5.365601e-06	-1.379459e-09	-3.732287e+01	-8.741716e+01
2.900000e-07	-5.353959e-06	-1.366959e-09	-3.724189e+01	-8.732064e+01
3.000000e-07	-5.341953e-06	-1.310992e-09	-3.715838e+01	-8.721926e+01
3.100000e-07	-5.329565e-06	-1.330445e-09	-3.707221e+01	-8.711291e+01
3.200000e-07	-5.316735e-06	-1.357475e-09	-3.698296e+01	-8.700152e+01
3.300000e-07	-5.303618e-06	-1.355422e-09	-3.689172e+01	-8.688508e+01
3.400000e-07	-5.290138e-06	-1.287951e-09	-3.679795e+01	-8.676359e+01
3.500000e-07	-5.276199e-06	-1.317906e-09	-3.670100e+01	-8.663712e+01
3.600000e-07	-5.261941e-06	-1.370851e-09	-3.660182e+01	-8.650575e+01
3.700000e-07	-5.247100e-06	-1.332147e-09	-3.649858e+01	-8.636962e+01
3.800000e-07	-5.231526e-06	-1.273010e-09	-3.639025e+01	-8.622890e+01
3.900000e-07	-5.215670e-06	-1.355581e-09	-3.627996e+01	-8.608379e+01
4.000000e-07	-5.199427e-06	-1.359124e-09	-3.616697e+01	-8.593452e+01
4.100000e-07	-5.182653e-06	-1.256280e-09	-3.605029e+01	-8.578137e+01
4.200000e-07	-5.165559e-06	-1.298054e-09	-3.593139e+01	-8.562463e+01
4.300000e-07	-5.148220e-06	-1.406462e-09	-3.581078e+01	-8.546461e+01
4.400000e-07	-5.130610e-06	-1.296684e-09	-3.568829e+01	-8.530165e+01
4.500000e-07	-5.112530e-06	-1.236904e-09	-3.556252e+01	-8.513612e+01
4.600000e-07	-5.093941e-06	-1.377038e-09	-3.543322e+01	-8.496836e+01
4.700000e-07	-5.075002e-06	-1.352920e-09	-3.530148e+01	-8.479875e+01
4.800000e-07	-5.055734e-06	-1.213231e-09	-3.516745e+01	-8.462768e+01
4.900000e-07	-5.036191e-06	-1.303058e-09	-3.503151e+01	-8.445552e+01
5.000000e-07	-5.016479e-06	-1.368685e-09	-3.489439e+01	-8.428264e+01
5.100000e-07	-4.996470e-06	-1.222014e-09	-3.475521e+01	-8.410940e+01
5.200000e-07	-4.976110e-06	-1.248688e-09	-3.461359e+01	-8.393615e+01
5.300000e-07	-4.955500e-06	-1.374214e-09	-3.447023e+01	-8.376323e+01
5.400000e-07	-4.934456e-06	-1.264290e-09	-3.432385e+01	-8.359094e+01
5.500000e-07	-4.912976e-06	-1.197286e-09	-3.417444e+01	-8.341957e+01
5.600000e-07	-4.891265e-06	-1.342399e-09	-3.402342e+01	-8.324938e+01
5.700000e-07	-4.869250e-06	-1.308490e-09	-3.387028e+01	-8.308061e+01
5.800000e-07	-4.846885e-06	-1.191495e-09	-3.371471e+01	-8.291343e+01
5.900000e-07	-4.824218e-06	-1.280963e-09	-3.355704e+01	-8.274803e+01
6.000000e-07	-4.801209e-06	-1.324749e-09	-3.339699e+01	-8.258452e+01
6.100000e-07	-4.777841e-06	-1.204099e-09	-3.323444e+01	-8.242298e+01
6.200000e-07	-4.754220e-06	-1.233936e-09	-3.307013e+01	-8.226347e+01
6.300000e-07	-4.730425e-06	-1.303896e-09	-3.290462e+01	-8.210600e+01
6.400000e-07	-4.706349e-06	-1.232943e-09	-3.273715e+01	-8.195053e+01
6.500000e-07	-4.681918e-06	-1.218094e-09	-3.256720e+01	-8.179699e+01
6.600000e-07	-4.657122e-06	-1.290774e-09	-3.239472e+01	-8.164527e+01
6.700000e-07	-4.631842e-06	-1.246435e-09	-3.221888e+01	-8.149524e+01
6.800000e-07	-4.605972e-06	-1.204981e-09	-3.203893e+01	-8.134670e+01
6.900000e-07	-4.579482e-06	-1.249866e-09	-3.185467e+01	-8.119945e+01
7.000000e-07	-4.552588e-06	-1.239773e-09	-3.166759e+01	-8.105324e+01
7.100000e-07	-4.525343e-06	-1.196242e-09	-3.147807e+01	-8.090780e+01
7.200000e-07	-4.497807e-06	-1.233278e-09	-3.128654e+01	-8.076282e+01
7.300000e-07	-4.470121e-06	-1.245983e-09	-3.109395e+01	-8.061799e+01
7.400000e-07	-4.442226e-06	-1.209533e-09	-3.089992e+01	-8.047298e+01
7.500000e-07	-4.414118e-06	-1.215323e-09	-3.070440e+01	-8.032742e+01
7.600000e-07	-4.385803e-06	-1.227748e-09	-3.050744e+01	-8.018095e+01
7.700000e-07	-4.357207e-06	-1.199416e-09	-3.030853e+01	-8.003320e+01
7.800000e-07	-4.328270e-06	-1.196561e-09	-3.010724e+01	-7.988380e+01
7.900000e-07	-4.298981e-06	-1.213549e-09	-2.990351e+01	-7.973238e+01
8.000000e-07	-4.269327e-06	-1.196317e-09	-2.969724e+01	-7.957856e+01
8.100000e-07	-4.239399e-06	-1.191099e-09	-2.948906e+01	-7.942199e+01
8.200000e-07	-4.209263e-06	-1.210548e-09	-2.927944e+01	-7.926233e+01
8.300000e-07	-4.178833e-06	-1.201904e-09	-2.906777e+01	-7.909924e+01
8.400000e-07	-4.148055e-06	-1.180319e-09	-2.885368e+01	-7.893244e+01
8.500000e-07	-4.117032e-06	-1.196079e-09	-2.863788e+01	-7.876164e+01
8.600000e-07	-4.085816e-06	-1.199721e-09	-2.842075e+01	-7.858658e+01
8.700000e-07	-4.054351e-06	-1.178129e-09	-2.820188e+01	-7.840705e+01
8.800000e-07	-4.022702e-06	-1.177103e-09	-2.798173e+01	-7.822286e+01
8.900000e-07	-3.990854e-06	-1.185709e-09	-2.776019e+01	-7.803387e+01
9.000000e-07	-3.958756e-06	-1.165783e-09	-2.753693e+01	-7.783995e+01
9.100000e-07	-3.926370e-06	-1.161027e-09	-2.731165e+01	-7.764105e+01
9.200000e-07	-3.893659e-06	-1.171693e-09	-2.708411e+01	-7.743713e+01
9.300000e-07	-3.860561e-06	-1.162083e-09	-2.685389e+01	-7.722819e+01
9.400000e-07	-3.826981e-06	-1.145509e-09	-2.662030e+01	-7.701428e+01
9.500000e-07	-3.792949e-06	-1.156502e-09	-2.638358e+01	-7.679549e+01
9.600000e-07	-3.758514e-06	-1.152550e-09	-2.614405e+01	-7.657195e+01
9.700000e-07	-3.723743e-06	-1.133171e-09	-2.590218e+01	-7.634382e+01
9.800000e-07	-3.688638e-06	-1.132155e-09	-2.565799e+01	-7.611128e+01
9.900000e-07	-3.653246e-06	-1.136923e-09	-2.541181e+01	-7.587457e+01
1.000000e-06	-3.617687e-06	-1.123444e-09	-2.516447e+01	-7.563394e+01
1.010000e-06	-3.581958e-06	-1.117551e-09	-2.491593e+01	-7.538965e+01
1.020000e-06	-3.546085e-06	-1.124224e-09	-2.466640e+01	-7.514200e+01
1.030000e-06	-3.510082e-06	-1.116621e-09	-2.441597e+01	-7.489130e+01
1.040000e-06	-3.473879e-06	-1.105591e-09	-2.416414e+01	-7.463784e+01
1.050000e-06	-3.437396e-06	-1.109420e-09	-2.391037e+01	-7.438196e+01
1.060000e-06	-3.400575e-06	-1.105760e-09	-2.365424e+01	-7.412395e+01
1.070000e-06	-3.363458e-06	-1.091969e-09	-2.339606e+01	-7.386412e+01
1.080000e-06	-3.326107e-06	-1.089622e-09	-2.313624e+01	-7.360276e+01
1.090000e-06	-3.288519e-06	-1.087973e-09	-2.287478e+01	-7.334011e+01
1.100000e-06	-3.250678e-06	-1.076354e-09	-2.261157e+01	-7.307642e+01
1.110000e-06	-3.212628e-06	-1.066862e-09	-2.234689e+01	-7.281190e+01
1.120000e-06	-3.174419e-06	-1.063512e-09	-2.208111e+01	-7.254669e+01
1.130000e-06	-3.136009e-06	-1.050633e-09	-2.181393e+01	-7.228092e+01
1.140000e-06	-3.097362e-06	-1.041951e-09	-2.154511e+01	-7.201467e+01
1.150000e-06	-3.058520e-06	-1.045914e-09	-2.127492e+01	-7.174795e+01
1.160000e-06	-3.019482e-06	-1.048181e-09	-2.100338e+01	-7.148073e+01
1.170000e-06	-2.980183e-06	-1.041389e-09	-2.073002e+01	-7.121292e+01
1.180000e-06	-2.940703e-06	-1.037761e-09	-2.045539e+01	-7.094437e+01
1.190000e-06	-2.901099e-06	-1.034778e-09	-2.017991e+01	-7.067486e+01
1.200000e-06	-2.861310e-06	-1.026842e-09	-1.990314e+01	-7.040414e+01
1.210000e-06	-2.821412e-06	-1.019961e-09	-1.962561e+01	-7.013188e+01
1.220000e-06	-2.781411e-06	-1.018975e-09	-1.934737e+01	-6.985769e+01
1.230000e-06	-2.741240e-06	-1.012918e-09	-1.906794e+01	-6.958115e+01
1.240000e-06	-2.700907e-06	-1.006451e-09	-1.878738e+01	-6.930176e+01
1.250000e-06	-2.660345e-06	-1.001692e-09	-1.850524e+01	-6.901900e+01
1.260000e-06	-2.619522e-06	-9.969558e-10	-1.822127e+01	-6.873231e+01
1.270000e-06	-2.578545e-06	-9.906554e-10	-1.793624e+01	-6.844109e+01
1.280000e-06	-2.537275e-06	-9.829277e-10	-1.764916e+01	-6.814470e+01
1.290000e-06	-2.495614e-06	-9.761650e-10	-1.735938e+01	-6.784251e+01
1.300000e-06	-2.453712e-06	-9.689780e-10	-1.706790e+01	-6.753385e+01
1.310000e-06	-2.411536e-06	-9.598483e-10	-1.677453e+01	-6.721807e+01
1.320000e-06	-2.369108e-06	-9.513297e-10	-1.647940e+01	-6.689451e+01
1.330000e-06	-2.326456e-06	-9.431567e-10	-1.618272e+01	-6.656253e+01
1.340000e-06	-2.283551e-06	-9.363378e-10	-1.588427e+01	-6.622150e+01
1.350000e-06	-2.240420e-06	-9.337444e-10	-1.558425e+01	-6.587083e+01
1.360000e-06	-2.197100e-06	-9.340569e-10	-1.528292e+01	-6.550994e+01
1.370000e-06	-2.153648e-06	-9.310894e-10	-1.498068e+01	-6.513833e+01
1.380000e-06	-2.110045e-06	-9.239180e-10	-1.467738e+01	-6.475551e+01
1.390000e-06	-2.066274e-06	-9.135080e-10	-1.437291e+01	-6.436105e+01
1.400000e-06	-2.022418e-06	-8.989345e-10	-1.406784e+01	-6.395459e+01
1.410000e-06	-1.978516e-06	-8.870302e-10	-1.376247e+01	-6.353581e+01
1.420000e-06	-1.934557e-06	-8.806675e-10	-1.345669e+01	-6.310444e+01
1.430000e-06	-1.890517e-06	-8.767216e-10	-1.315035e+01	-6.266029e+01
1.440000e-06	-1.846360e-06	-8.715175e-10	-1.284320e+01	-6.220322e+01
1.450000e-06	-1.802047e-06	-8.651695e-10	-1.253495e+01	-6.173312e+01
1.460000e-06	-1.757556e-06	-8.571867e-10	-1.222547e+01	-6.124997e+01
1.470000e-06	-1.712967e-06	-8.457370e-10	-1.191532e+01	-6.075376e+01
1.480000e-06	-1.668360e-06	-8.330277e-10	-1.160504e+01	-6.024453e+01
1.490000e-06	-1.623631e-06	-8.236786e-10	-1.129390e+01	-5.972236e+01
1.500000e-06	-1.578738e-06	-8.135540e-10	-1.098163e+01	-5.918733e+01
1.510000e-06	-1.533727e-06	-8.017461e-10	-1.066853e+01	-5.863955e+01
1.520000e-06	-1.488607e-06	-7.916042e-10	-1.035468e+01	-5.807913e+01
1.530000e-06	-1.443428e-06	-7.834366e-10	-1.004042e+01	-5.750615e+01
1.540000e-06	-1.398138e-06	-7.758759e-10	-9.725383e+00	-5.692071e+01
1.550000e-06	-1.352725e-06	-7.686548e-10	-9.409492e+00	-5.632284e+01
1.560000e-06	-1.307248e-06	-7.588044e-10	-9.093159e+00	-5.571254e+01
1.570000e-06	-1.261672e-06	-7.450436e-10	-8.776131e+00	-5.508975e+01
1.580000e-06	-1.215977e-06	-7.314620e-10	-8.458279e+00	-5.445437e+01
1.590000e-06	-1.170215e-06	-7.194535e-10	-8.139960e+00	-5.380618e+01
1.600000e-06	-1.124311e-06	-7.070123e-10	-7.820652e+00	-5.314491e+01
1.610000e-06	-1.078350e-06	-6.957322e-10	-7.500951e+00	-5.247020e+01
1.620000e-06	-1.032342e-06	-6.866398e-10	-7.180924e+00	-5.178155e+01
1.630000e-06	-9.862226e-07	-6.784551e-10	-6.860119e+00	-5.107841e+01
1.640000e-06	-9.400737e-07	-6.703869e-10	-6.539109e+00	-5.036007e+01
1.650000e-06	-8.938890e-07	-6.620002e-10	-6.217851e+00	-4.962576e+01
1.660000e-06	-8.476473e-07	-6.526163e-10	-5.896196e+00	-4.887455e+01
1.670000e-06	-8.013773e-07	-6.413721e-10	-5.574343e+00	-4.810544e+01
1.680000e-06	-7.550533e-07	-6.258804e-10	-5.252116e+00	-4.731731e+01
1.690000e-06	-7.086298e-07	-6.109331e-10	-4.929196e+00	-4.650894e+01
1.700000e-06	-6.620910e-07	-5.947890e-10	-4.605474e+00	-4.567904e+01
1.710000e-06	-6.154770e-07	-5.771291e-10	-4.281230e+00	-4.482620e+01
1.720000e-06	-5.688249e-07	-5.604215e-10	-3.956719e+00	-4.394899e+01
1.730000e-06	-5.221734e-07	-5.458551e-10	-3.632214e+00	-4.304589e+01
1.740000e-06	-4.755279e-07	-5.350862e-10	-3.307750e+00	-4.211536e+01
1.750000e-06	-4.287547e-07	-5.242478e-10	-2.982398e+00	-4.115582e+01
1.760000e-06	-3.819440e-07	-5.088829e-10	-2.656785e+00	-4.016571e+01
1.770000e-06	-3.351485e-07	-4.895318e-10	-2.331278e+00	-3.914346e+01
1.780000e-06	-2.883394e-07	-4.702638e-10	-2.005675e+00	-3.808755e+01
1.790000e-06	-2.415106e-07	-4.523590e-10	-1.679936e+00	-3.699651e+01
1.800000e-06	-1.946877e-07	-4.365070e-10	-1.354238e+00	-3.586893e+01
1.810000e-06	-1.479103e-07	-4.217329e-10	-1.028857e+00	-3.470352e+01
1.820000e-06	-1.010568e-07	-4.086095e-10	-7.029461e-01	-3.349909e+01
1.830000e-06	-5.421437e-08	-3.952652e-10	-3.771126e-01	-3.225457e+01
1.840000e-06	-7.462133e-09	-3.769719e-10	-5.190625e-02	-3.096906e+01
1.850000e-06	3.929119e-08	-3.559396e-10	2.733077e-01	-2.964182e+01
1.860000e-06	8.605617e-08	-3.361118e-10	5.986027e-01	-2.827229e+01
1.870000e-06	1.328271e-07	-3.173818e-10	9.239389e-01	-2.686011e+01
1.880000e-06	1.795456e-07	-3.000818e-10	1.248911e+00	-2.540514e+01
1.890000e-06	2.262393e-07	-2.806960e-10	1.573710e+00	-2.390743e+01
1.900000e-06	2.729914e-07	-2.583971e-10	1.898915e+00	-2.236729e+01
1.910000e-06	3.197677e-07	-2.348427e-10	2.224289e+00	-2.078522e+01
1.920000e-06	3.664759e-07	-2.102961e-10	2.549189e+00	-1.916200e+01
1.930000e-06	4.131163e-07	-1.861296e-10	2.873618e+00	-1.749861e+01
1.940000e-06	4.597443e-07	-1.633705e-10	3.197960e+00	-1.579627e+01
1.950000e-06	5.064679e-07	-1.407520e-10	3.522967e+00	-1.405644e+01
1.960000e-06	5.531686e-07	-1.182542e-10	3.847815e+00	-1.228078e+01
1.970000e-06	5.996482e-07	-9.475026e-11	4.171125e+00	-1.047117e+01
1.980000e-06	6.460134e-07	-6.962915e-11	4.493639e+00	-8.629701e+00
1.990000e-06	6.923446e-07	-4.129142e-11	4.815917e+00	-6.758625e+00
2.000000e-06	7.385904e-07	-1.109373e-11	5.137600e+00	-4.860382e+00
2.010000e-06	7.847567e-07	1.770350e-11	5.458731e+00	-2.937560e+00
2.020000e-06	8.309241e-07	4.579132e-11	5.779869e+00	-9.928827e-01
2.030000e-06	8.770507e-07	7.370949e-11	6.100724e+00	9.708111e-01
2.040000e-06	9.230914e-07	1.004726e-10	6.420981e+00	2.950588e+00
2.050000e-06	9.690408e-07	1.254809e-10	6.740602e+00	4.943439e+00
2.060000e-06	1.015041e-06	1.507210e-10	7.060576e+00	6.946304e+00
2.070000e-06	1.061110e-06	1.781517e-10	7.381031e+00	8.956091e+00
2.080000e-06	1.107003e-06	2.073628e-10	7.700264e+00	1.096970e+01
2.090000e-06	1.152741e-06	2.373428e-10	8.018413e+00	1.298404e+01
2.100000e-06	1.198421e-06	2.673603e-10	8.336158e+00	1.499605e+01
2.110000e-06	1.243988e-06	2.966115e-10	8.653124e+00	1.700272e+01
2.120000e-06	1.289468e-06	3.238882e-10	8.969477e+00	1.900111e+01
2.130000e-06	1.334869e-06	3.510467e-10	9.285284e+00	2.098836e+01
2.140000e-06	1.380248e-06	3.780686e-10	9.600943e+00	2.296174e+01
2.150000e-06	1.425593e-06	4.027346e-10	9.916358e+00	2.491858e+01
2.160000e-06	1.470787e-06	4.263945e-10	1.023072e+01	2.685640e+01
2.170000e-06	1.515830e-06	4.498640e-10	1.054404e+01	2.877281e+01
2.180000e-06	1.560774e-06	4.764962e-10	1.085667e+01	3.066560e+01
2.190000e-06	1.605641e-06	5.060160e-10	1.116876e+01	3.253269e+01
2.200000e-06	1.650333e-06	5.349842e-10	1.147964e+01	3.437217e+01
2.210000e-06	1.694814e-06	5.630324e-10	1.178905e+01	3.618231e+01
2.220000e-06	1.739155e-06	5.898571e-10	1.209748e+01	3.796153e+01
2.230000e-06	1.783392e-06	6.126542e-10	1.240519e+01	3.970841e+01
2.240000e-06	1.827557e-06	6.312563e-10	1.271240e+01	4.142170e+01
2.250000e-06	1.871680e-06	6.474713e-10	1.301932e+01	4.310033e+01
2.260000e-06	1.915695e-06	6.646881e-10	1.332549e+01	4.474336e+01
2.270000e-06	1.959599e-06	6.861161e-10	1.363088e+01	4.635003e+01
2.280000e-06	2.003425e-06	7.113240e-10	1.393573e+01	4.791972e+01
2.290000e-06	2.047165e-06	7.362083e-10	1.423999e+01	4.945195e+01
2.300000e-06	2.090831e-06	7.585689e-10	1.454373e+01	5.094636e+01
2.310000e-06	2.134453e-06	7.791815e-10	1.484715e+01	5.240275e+01
2.320000e-06	2.178016e-06	7.958762e-10	1.515018e+01	5.382102e+01
2.330000e-06	2.221487e-06	8.087333e-10	1.545256e+01	5.520116e+01
2.340000e-06	2.264798e-06	8.220959e-10	1.575383e+01	5.654331e+01
2.350000e-06	2.307871e-06	8.386661e-10	1.605344e+01	5.784765e+01
2.360000e-06	2.350701e-06	8.574062e-10	1.635137e+01	5.911450e+01
2.370000e-06	2.393337e-06	8.767060e-10	1.664794e+01	6.034420e+01
2.380000e-06	2.435724e-06	8.964403e-10	1.694278e+01	6.153721e+01
2.390000e-06	2.477759e-06	9.144387e-10	1.723517e+01	6.269401e+01
2.400000e-06	2.519371e-06	9.291503e-10	1.752462e+01	6.381517e+01
2.410000e-06	2.560615e-06	9.423248e-10	1.781152e+01	6.490128e+01
2.420000e-06	2.601665e-06	9.545256e-10	1.809706e+01	6.595299e+01
2.430000e-06	2.642513e-06	9.664119e-10	1.838120e+01	6.697098e+01
2.440000e-06	2.683034e-06	9.785948e-10	1.866306e+01	6.795595e+01
2.450000e-06	2.723328e-06	9.917924e-10	1.894334e+01	6.890864e+01
2.460000e-06	2.763489e-06	1.006309e-09	1.922270e+01	6.982982e+01
2.470000e-06	2.803491e-06	1.019401e-09	1.950095e+01	7.072025e+01
2.480000e-06	2.843337e-06	1.029997e-09	1.977812e+01	7.158072e+01
2.490000e-06	2.883047e-06	1.038649e-09	2.005434e+01	7.241204e+01
2.500000e-06	2.922657e-06	1.046522e-09	2.032987e+01	7.321501e+01
2.510000e-06	2.962070e-06	1.058221e-09	2.060402e+01	7.399044e+01
2.520000e-06	3.001303e-06	1.069771e-09	2.087692e+01	7.473915e+01
2.530000e-06	3.040417e-06	1.082605e-09	2.114900e+01	7.546195e+01
2.540000e-06	3.079321e-06	1.094969e-09	2.141961e+01	7.615964e+01
2.550000e-06	3.117878e-06	1.105234e-09	2.168781e+01	7.683304e+01
2.560000e-06	3.156120e-06	1.111527e-09	2.195383e+01	7.748294e+01
2.570000e-06	3.194242e-06	1.114998e-09	2.221900e+01	7.811012e+01
2.580000e-06	3.232217e-06	1.118454e-09	2.248315e+01	7.871537e+01
2.590000e-06	3.269961e-06	1.121818e-09	2.274570e+01	7.929943e+01
2.600000e-06	3.307461e-06	1.131054e-09	2.300654e+01	7.986305e+01
2.610000e-06	3.344754e-06	1.143530e-09	2.326595e+01	8.040695e+01
2.620000e-06	3.381844e-06	1.158596e-09	2.352395e+01	8.093183e+01
2.630000e-06	3.418740e-06	1.169571e-09	2.378060e+01	8.143838e+01
2.640000e-06	3.455337e-06	1.174687e-09	2.403517e+01	8.192723e+01
2.650000e-06	3.491611e-06	1.177834e-09	2.428748e+01	8.239901e+01
2.660000e-06	3.527736e-06	1.180258e-09	2.453877e+01	8.285432e+01
2.670000e-06	3.563711e-06	1.181156e-09	2.478901e+01	8.329371e+01
2.680000e-06	3.599511e-06	1.182920e-09	2.503803e+01	8.371772e+01
2.690000e-06	3.635161e-06	1.190902e-09	2.528601e+01	8.412684e+01
2.700000e-06	3.670643e-06	1.201842e-09	2.553282e+01	8.452154e+01
2.710000e-06	3.705998e-06	1.210365e-09	2.577875e+01	8.490223e+01
2.720000e-06	3.741121e-06	1.215765e-09	2.602306e+01	8.526932e+01
2.730000e-06	3.775835e-06	1.216876e-09	2.626453e+01	8.562315e+01
2.740000e-06	3.810108e-06	1.216585e-09	2.650293e+01	8.596406e+01
2.750000e-06	3.843906e-06	1.216861e-09	2.673803e+01	8.629234e+01
2.760000e-06	3.877194e-06	1.221039e-09	2.696958e+01	8.660824e+01
2.770000e-06	3.910024e-06	1.227748e-09	2.719794e+01	8.691199e+01
2.780000e-06	3.942516e-06	1.236245e-09	2.742396e+01	8.720381e+01
2.790000e-06	3.974719e-06	1.246485e-09	2.764796e+01	8.748386e+01
2.800000e-06	4.006683e-06	1.254124e-09	2.787030e+01	8.775232e+01
2.810000e-06	4.038524e-06	1.256960e-09	2.809178e+01	8.800931e+01
2.820000e-06	4.070243e-06	1.255622e-09	2.831242e+01	8.825498e+01
2.830000e-06	4.101778e-06	1.254969e-09	2.853178e+01	8.848942e+01
2.840000e-06	4.133085e-06	1.257879e-09	2.874955e+01	8.871276e+01
2.850000e-06	4.164067e-06	1.262881e-09	2.896505e+01	8.892509e+01
2.860000e-06	4.194638e-06	1.268677e-09	2.917770e+01	8.912653e+01
2.870000e-06	4.224832e-06	1.275552e-09	2.938774e+01	8.931718e+01
2.880000e-06	4.254741e-06	1.281174e-09	2.959578e+01	8.949716e+01
2.890000e-06	4.284419e-06	1.284777e-09	2.980222e+01	8.966660e+01
2.900000e-06	4.313860e-06	1.287821e-09	3.000701e+01	8.982564e+01
