# Temperatura_=_-9.2
# Concentracion g/m^3_=_1620.0
# C_Vs_to_Am_M_A/Vsm_=_65563218390.804596
# pendiente_HvsI_1/m_=_3716.3
# ordenada_HvsI_A/m_=_1297.0
# frecuencia_Hz_=_135108.97580386658

Tiempo_(s)	Campo_(V.s)	Magnetizacion_(V.s)	Campo_(kA/m)	Magnetizacion_(A/m)
0.000000e+00	-5.545675e-06	-1.328030e-09	-3.837033e+01	-8.742920e+01
1.000000e-08	-5.545825e-06	-1.328422e-09	-3.837136e+01	-8.736907e+01
2.000000e-08	-5.545729e-06	-1.330839e-09	-3.837070e+01	-8.731075e+01
3.000000e-08	-5.545166e-06	-1.332297e-09	-3.836681e+01	-8.725424e+01
4.000000e-08	-5.544101e-06	-1.330379e-09	-3.835943e+01	-8.719949e+01
5.000000e-08	-5.542495e-06	-1.324648e-09	-3.834832e+01	-8.714648e+01
6.000000e-08	-5.540282e-06	-1.319616e-09	-3.833301e+01	-8.709515e+01
7.000000e-08	-5.537553e-06	-1.338904e-09	-3.831413e+01	-8.704541e+01
8.000000e-08	-5.534320e-06	-1.343767e-09	-3.829176e+01	-8.699717e+01
9.000000e-08	-5.530566e-06	-1.279202e-09	-3.826579e+01	-8.695030e+01
1.000000e-07	-5.526408e-06	-1.264785e-09	-3.823702e+01	-8.690466e+01
1.100000e-07	-5.522034e-06	-1.380369e-09	-3.820675e+01	-8.686007e+01
1.200000e-07	-5.517432e-06	-1.398017e-09	-3.817491e+01	-8.681635e+01
1.300000e-07	-5.512457e-06	-1.282436e-09	-3.814049e+01	-8.677328e+01
1.400000e-07	-5.507130e-06	-1.206645e-09	-3.810363e+01	-8.673060e+01
1.500000e-07	-5.501523e-06	-1.338356e-09	-3.806484e+01	-8.668806e+01
1.600000e-07	-5.495457e-06	-1.417739e-09	-3.802287e+01	-8.664535e+01
1.700000e-07	-5.489015e-06	-1.286646e-09	-3.797830e+01	-8.660217e+01
1.800000e-07	-5.482185e-06	-1.197898e-09	-3.793104e+01	-8.655819e+01
1.900000e-07	-5.474915e-06	-1.289561e-09	-3.788074e+01	-8.651305e+01
2.000000e-07	-5.467369e-06	-1.382708e-09	-3.782853e+01	-8.646639e+01
2.100000e-07	-5.459593e-06	-1.328557e-09	-3.777473e+01	-8.641785e+01
2.200000e-07	-5.451611e-06	-1.274278e-09	-3.771950e+01	-8.636703e+01
2.300000e-07	-5.443166e-06	-1.316134e-09	-3.766107e+01	-8.631358e+01
2.400000e-07	-5.434025e-06	-1.365013e-09	-3.759782e+01	-8.625712e+01
2.500000e-07	-5.424318e-06	-1.327679e-09	-3.753066e+01	-8.619728e+01
2.600000e-07	-5.414047e-06	-1.278373e-09	-3.745959e+01	-8.613372e+01
2.700000e-07	-5.403155e-06	-1.299116e-09	-3.738424e+01	-8.606611e+01
2.800000e-07	-5.391751e-06	-1.344945e-09	-3.730533e+01	-8.599416e+01
2.900000e-07	-5.379985e-06	-1.317171e-09	-3.722392e+01	-8.591761e+01
3.000000e-07	-5.367889e-06	-1.277224e-09	-3.714023e+01	-8.583622e+01
3.100000e-07	-5.355347e-06	-1.294297e-09	-3.705345e+01	-8.574980e+01
3.200000e-07	-5.342412e-06	-1.340551e-09	-3.696396e+01	-8.565822e+01
3.300000e-07	-5.329111e-06	-1.300615e-09	-3.687193e+01	-8.556138e+01
3.400000e-07	-5.315339e-06	-1.245859e-09	-3.677664e+01	-8.545924e+01
3.500000e-07	-5.301166e-06	-1.282553e-09	-3.667858e+01	-8.535181e+01
3.600000e-07	-5.286694e-06	-1.329418e-09	-3.657845e+01	-8.523915e+01
3.700000e-07	-5.271680e-06	-1.267479e-09	-3.647456e+01	-8.512139e+01
3.800000e-07	-5.255980e-06	-1.257344e-09	-3.636593e+01	-8.499871e+01
3.900000e-07	-5.239856e-06	-1.325855e-09	-3.625438e+01	-8.487132e+01
4.000000e-07	-5.223403e-06	-1.281012e-09	-3.614053e+01	-8.473950e+01
4.100000e-07	-5.206493e-06	-1.206366e-09	-3.602354e+01	-8.460357e+01
4.200000e-07	-5.189284e-06	-1.305232e-09	-3.590447e+01	-8.446389e+01
4.300000e-07	-5.171748e-06	-1.351995e-09	-3.578314e+01	-8.432086e+01
4.400000e-07	-5.153739e-06	-1.220907e-09	-3.565853e+01	-8.417489e+01
4.500000e-07	-5.135376e-06	-1.237996e-09	-3.553148e+01	-8.402646e+01
4.600000e-07	-5.116637e-06	-1.362637e-09	-3.540183e+01	-8.387600e+01
4.700000e-07	-5.097489e-06	-1.271844e-09	-3.526934e+01	-8.372401e+01
4.800000e-07	-5.078077e-06	-1.187546e-09	-3.513503e+01	-8.357095e+01
4.900000e-07	-5.058544e-06	-1.312745e-09	-3.499989e+01	-8.341730e+01
5.000000e-07	-5.038790e-06	-1.303698e-09	-3.486321e+01	-8.326350e+01
5.100000e-07	-5.018697e-06	-1.176507e-09	-3.472419e+01	-8.311000e+01
5.200000e-07	-4.998246e-06	-1.263937e-09	-3.458268e+01	-8.295719e+01
5.300000e-07	-4.977408e-06	-1.338839e-09	-3.443851e+01	-8.280546e+01
5.400000e-07	-4.956247e-06	-1.202060e-09	-3.429209e+01	-8.265513e+01
5.500000e-07	-4.934790e-06	-1.207164e-09	-3.414363e+01	-8.250649e+01
5.600000e-07	-4.912980e-06	-1.328574e-09	-3.399273e+01	-8.235978e+01
5.700000e-07	-4.890780e-06	-1.249071e-09	-3.383913e+01	-8.221517e+01
5.800000e-07	-4.868118e-06	-1.175293e-09	-3.368233e+01	-8.207281e+01
5.900000e-07	-4.845138e-06	-1.278002e-09	-3.352333e+01	-8.193277e+01
6.000000e-07	-4.821971e-06	-1.263599e-09	-3.336304e+01	-8.179505e+01
6.100000e-07	-4.798584e-06	-1.171141e-09	-3.320123e+01	-8.165961e+01
6.200000e-07	-4.774974e-06	-1.231468e-09	-3.303787e+01	-8.152637e+01
6.300000e-07	-4.751079e-06	-1.274421e-09	-3.287255e+01	-8.139517e+01
6.400000e-07	-4.726894e-06	-1.206890e-09	-3.270521e+01	-8.126580e+01
6.500000e-07	-4.702379e-06	-1.224267e-09	-3.253559e+01	-8.113803e+01
6.600000e-07	-4.677304e-06	-1.264782e-09	-3.236209e+01	-8.101157e+01
6.700000e-07	-4.651559e-06	-1.207740e-09	-3.218397e+01	-8.088608e+01
6.800000e-07	-4.625317e-06	-1.187353e-09	-3.200240e+01	-8.076123e+01
6.900000e-07	-4.598608e-06	-1.229720e-09	-3.181760e+01	-8.063661e+01
7.000000e-07	-4.571470e-06	-1.212671e-09	-3.162984e+01	-8.051185e+01
7.100000e-07	-4.544114e-06	-1.195351e-09	-3.144056e+01	-8.038653e+01
7.200000e-07	-4.516576e-06	-1.231596e-09	-3.125003e+01	-8.026023e+01
7.300000e-07	-4.488816e-06	-1.233919e-09	-3.105796e+01	-8.013254e+01
7.400000e-07	-4.460810e-06	-1.204378e-09	-3.086418e+01	-8.000305e+01
7.500000e-07	-4.432509e-06	-1.205561e-09	-3.066837e+01	-7.987135e+01
7.600000e-07	-4.403908e-06	-1.203306e-09	-3.047048e+01	-7.973707e+01
7.700000e-07	-4.375024e-06	-1.185559e-09	-3.027063e+01	-7.959985e+01
7.800000e-07	-4.345807e-06	-1.193872e-09	-3.006848e+01	-7.945935e+01
7.900000e-07	-4.316312e-06	-1.204757e-09	-2.986441e+01	-7.931527e+01
8.000000e-07	-4.286553e-06	-1.194356e-09	-2.965850e+01	-7.916733e+01
8.100000e-07	-4.256524e-06	-1.194546e-09	-2.945074e+01	-7.901530e+01
8.200000e-07	-4.226162e-06	-1.201925e-09	-2.924066e+01	-7.885896e+01
8.300000e-07	-4.195437e-06	-1.181857e-09	-2.902808e+01	-7.869815e+01
8.400000e-07	-4.164489e-06	-1.166841e-09	-2.881395e+01	-7.853273e+01
8.500000e-07	-4.133341e-06	-1.179048e-09	-2.859844e+01	-7.836262e+01
8.600000e-07	-4.101952e-06	-1.180290e-09	-2.838126e+01	-7.818775e+01
8.700000e-07	-4.070346e-06	-1.168028e-09	-2.816258e+01	-7.800809e+01
8.800000e-07	-4.038538e-06	-1.174325e-09	-2.794250e+01	-7.782366e+01
8.900000e-07	-4.006477e-06	-1.173495e-09	-2.772067e+01	-7.763449e+01
9.000000e-07	-3.974169e-06	-1.154009e-09	-2.749713e+01	-7.744064e+01
9.100000e-07	-3.941527e-06	-1.149465e-09	-2.727128e+01	-7.724221e+01
9.200000e-07	-3.908507e-06	-1.154678e-09	-2.704282e+01	-7.703931e+01
9.300000e-07	-3.874971e-06	-1.140537e-09	-2.681078e+01	-7.683207e+01
9.400000e-07	-3.840839e-06	-1.134533e-09	-2.657462e+01	-7.662066e+01
9.500000e-07	-3.806286e-06	-1.146419e-09	-2.633556e+01	-7.640523e+01
9.600000e-07	-3.771381e-06	-1.139895e-09	-2.609405e+01	-7.618597e+01
9.700000e-07	-3.736183e-06	-1.120858e-09	-2.585052e+01	-7.596306e+01
9.800000e-07	-3.700790e-06	-1.122374e-09	-2.560563e+01	-7.573670e+01
9.900000e-07	-3.665225e-06	-1.122299e-09	-2.535956e+01	-7.550710e+01
1.000000e-06	-3.629532e-06	-1.107230e-09	-2.511260e+01	-7.527445e+01
1.010000e-06	-3.593692e-06	-1.103899e-09	-2.486463e+01	-7.503895e+01
1.020000e-06	-3.557623e-06	-1.109411e-09	-2.461506e+01	-7.480081e+01
1.030000e-06	-3.521339e-06	-1.101621e-09	-2.436402e+01	-7.456021e+01
1.040000e-06	-3.484850e-06	-1.097517e-09	-2.411155e+01	-7.431735e+01
1.050000e-06	-3.448085e-06	-1.102850e-09	-2.385717e+01	-7.407240e+01
1.060000e-06	-3.411035e-06	-1.095465e-09	-2.360083e+01	-7.382554e+01
1.070000e-06	-3.373787e-06	-1.080703e-09	-2.334311e+01	-7.357691e+01
1.080000e-06	-3.336270e-06	-1.076784e-09	-2.308353e+01	-7.332665e+01
1.090000e-06	-3.298447e-06	-1.073440e-09	-2.282183e+01	-7.307489e+01
1.100000e-06	-3.260470e-06	-1.063627e-09	-2.255907e+01	-7.282173e+01
1.110000e-06	-3.222366e-06	-1.062199e-09	-2.229543e+01	-7.256724e+01
1.120000e-06	-3.184011e-06	-1.063454e-09	-2.203006e+01	-7.231149e+01
1.130000e-06	-3.145364e-06	-1.055752e-09	-2.176266e+01	-7.205451e+01
1.140000e-06	-3.106504e-06	-1.048908e-09	-2.149379e+01	-7.179628e+01
1.150000e-06	-3.067506e-06	-1.050944e-09	-2.122396e+01	-7.153680e+01
1.160000e-06	-3.028295e-06	-1.046273e-09	-2.095267e+01	-7.127598e+01
1.170000e-06	-2.988931e-06	-1.035012e-09	-2.068030e+01	-7.101374e+01
1.180000e-06	-2.949478e-06	-1.028662e-09	-2.040733e+01	-7.074993e+01
1.190000e-06	-2.909885e-06	-1.026284e-09	-2.013339e+01	-7.048439e+01
1.200000e-06	-2.870143e-06	-1.021052e-09	-1.985841e+01	-7.021690e+01
1.210000e-06	-2.830228e-06	-1.017746e-09	-1.958225e+01	-6.994721e+01
1.220000e-06	-2.790105e-06	-1.015282e-09	-1.930464e+01	-6.967502e+01
1.230000e-06	-2.749788e-06	-1.008723e-09	-1.902569e+01	-6.940000e+01
1.240000e-06	-2.709275e-06	-1.000037e-09	-1.874538e+01	-6.912177e+01
1.250000e-06	-2.668478e-06	-9.941401e-10	-1.846311e+01	-6.883993e+01
1.260000e-06	-2.627422e-06	-9.894700e-10	-1.817904e+01	-6.855403e+01
1.270000e-06	-2.586059e-06	-9.831008e-10	-1.789285e+01	-6.826359e+01
1.280000e-06	-2.544420e-06	-9.772716e-10	-1.760475e+01	-6.796810e+01
1.290000e-06	-2.502501e-06	-9.735227e-10	-1.731471e+01	-6.766703e+01
1.300000e-06	-2.460293e-06	-9.684004e-10	-1.702268e+01	-6.735982e+01
1.310000e-06	-2.417782e-06	-9.620990e-10	-1.672854e+01	-6.704591e+01
1.320000e-06	-2.374898e-06	-9.563165e-10	-1.643183e+01	-6.672471e+01
1.330000e-06	-2.331793e-06	-9.499074e-10	-1.613359e+01	-6.639566e+01
1.340000e-06	-2.288542e-06	-9.425413e-10	-1.583434e+01	-6.605818e+01
1.350000e-06	-2.245124e-06	-9.393307e-10	-1.553393e+01	-6.571171e+01
1.360000e-06	-2.201587e-06	-9.387213e-10	-1.523270e+01	-6.535570e+01
1.370000e-06	-2.157987e-06	-9.345173e-10	-1.493103e+01	-6.498964e+01
1.380000e-06	-2.114285e-06	-9.278041e-10	-1.462866e+01	-6.461306e+01
1.390000e-06	-2.070451e-06	-9.186281e-10	-1.432538e+01	-6.422550e+01
1.400000e-06	-2.026545e-06	-9.062968e-10	-1.402159e+01	-6.382657e+01
1.410000e-06	-1.982564e-06	-8.949101e-10	-1.371729e+01	-6.341592e+01
1.420000e-06	-1.938475e-06	-8.873390e-10	-1.341224e+01	-6.299326e+01
1.430000e-06	-1.894278e-06	-8.811377e-10	-1.310644e+01	-6.255834e+01
1.440000e-06	-1.850015e-06	-8.762274e-10	-1.280019e+01	-6.211100e+01
1.450000e-06	-1.805644e-06	-8.726367e-10	-1.249319e+01	-6.165111e+01
1.460000e-06	-1.761107e-06	-8.663755e-10	-1.218504e+01	-6.117862e+01
1.470000e-06	-1.716440e-06	-8.548650e-10	-1.187599e+01	-6.069351e+01
1.480000e-06	-1.671584e-06	-8.421080e-10	-1.156563e+01	-6.019584e+01
1.490000e-06	-1.626529e-06	-8.288286e-10	-1.125390e+01	-5.968569e+01
1.500000e-06	-1.581337e-06	-8.163678e-10	-1.094121e+01	-5.916320e+01
1.510000e-06	-1.536034e-06	-8.047398e-10	-1.062776e+01	-5.862854e+01
1.520000e-06	-1.490683e-06	-7.970709e-10	-1.031398e+01	-5.808187e+01
1.530000e-06	-1.445188e-06	-7.904153e-10	-9.999201e+00	-5.752340e+01
1.540000e-06	-1.399545e-06	-7.847738e-10	-9.683405e+00	-5.695331e+01
1.550000e-06	-1.353822e-06	-7.771188e-10	-9.367046e+00	-5.637178e+01
1.560000e-06	-1.308024e-06	-7.632530e-10	-9.050169e+00	-5.577894e+01
1.570000e-06	-1.262187e-06	-7.454581e-10	-8.733028e+00	-5.517490e+01
1.580000e-06	-1.216272e-06	-7.281142e-10	-8.415342e+00	-5.455970e+01
1.590000e-06	-1.170272e-06	-7.128559e-10	-8.097072e+00	-5.393329e+01
1.600000e-06	-1.124220e-06	-7.006344e-10	-7.778441e+00	-5.329558e+01
1.610000e-06	-1.078130e-06	-6.934664e-10	-7.459542e+00	-5.264633e+01
1.620000e-06	-1.031945e-06	-6.901517e-10	-7.139987e+00	-5.198523e+01
1.630000e-06	-9.856103e-07	-6.855608e-10	-6.819402e+00	-5.131183e+01
1.640000e-06	-9.392028e-07	-6.769406e-10	-6.498310e+00	-5.062556e+01
1.650000e-06	-8.927093e-07	-6.658930e-10	-6.176623e+00	-4.992572e+01
1.660000e-06	-8.461342e-07	-6.521298e-10	-5.854372e+00	-4.921145e+01
1.670000e-06	-7.995683e-07	-6.365225e-10	-5.532184e+00	-4.848177e+01
1.680000e-06	-7.529172e-07	-6.199777e-10	-5.209407e+00	-4.773556e+01
1.690000e-06	-7.061767e-07	-6.087367e-10	-4.886011e+00	-4.697156e+01
1.700000e-06	-6.594277e-07	-5.978832e-10	-4.562556e+00	-4.618838e+01
1.710000e-06	-6.126844e-07	-5.838741e-10	-4.239141e+00	-4.538451e+01
1.720000e-06	-5.659282e-07	-5.695172e-10	-3.915637e+00	-4.455832e+01
1.730000e-06	-5.190482e-07	-5.562394e-10	-3.591275e+00	-4.370812e+01
1.740000e-06	-4.720526e-07	-5.437906e-10	-3.266115e+00	-4.283211e+01
1.750000e-06	-4.250125e-07	-5.294254e-10	-2.940646e+00	-4.192844e+01
1.760000e-06	-3.780338e-07	-5.126647e-10	-2.615602e+00	-4.099523e+01
1.770000e-06	-3.310631e-07	-4.972816e-10	-2.290613e+00	-4.003060e+01
1.780000e-06	-2.839600e-07	-4.829067e-10	-1.964709e+00	-3.903265e+01
1.790000e-06	-2.368506e-07	-4.712088e-10	-1.638761e+00	-3.799954e+01
1.800000e-06	-1.897590e-07	-4.570277e-10	-1.312935e+00	-3.692950e+01
1.810000e-06	-1.427658e-07	-4.413389e-10	-9.877911e-01	-3.582083e+01
1.820000e-06	-9.585389e-08	-4.243351e-10	-6.632096e-01	-3.467198e+01
1.830000e-06	-4.884881e-08	-4.063969e-10	-3.379831e-01	-3.348152e+01
1.840000e-06	-1.702784e-09	-3.916589e-10	-1.178150e-02	-3.224820e+01
1.850000e-06	4.543829e-08	-3.782275e-10	3.143859e-01	-3.097096e+01
1.860000e-06	9.244650e-08	-3.636032e-10	6.396340e-01	-2.964897e+01
1.870000e-06	1.394421e-07	-3.452246e-10	9.647950e-01	-2.828161e+01
1.880000e-06	1.864183e-07	-3.234038e-10	1.289822e+00	-2.686855e+01
1.890000e-06	2.333595e-07	-3.002149e-10	1.614606e+00	-2.540969e+01
1.900000e-06	2.803182e-07	-2.756616e-10	1.939511e+00	-2.390524e+01
1.910000e-06	3.272468e-07	-2.517778e-10	2.264209e+00	-2.235568e+01
1.920000e-06	3.741500e-07	-2.310121e-10	2.588730e+00	-2.076179e+01
1.930000e-06	4.210832e-07	-2.131414e-10	2.913460e+00	-1.912463e+01
1.940000e-06	4.680547e-07	-1.985597e-10	3.238453e+00	-1.744557e+01
1.950000e-06	5.149927e-07	-1.808185e-10	3.563216e+00	-1.572623e+01
1.960000e-06	5.618468e-07	-1.588116e-10	3.887397e+00	-1.396853e+01
1.970000e-06	6.086166e-07	-1.325064e-10	4.210996e+00	-1.217464e+01
1.980000e-06	6.553264e-07	-1.043603e-10	4.534179e+00	-1.034696e+01
1.990000e-06	7.019643e-07	-7.625218e-11	4.856866e+00	-8.488120e+00
2.000000e-06	7.485309e-07	-4.987989e-11	5.179058e+00	-6.600955e+00
2.010000e-06	7.950744e-07	-2.573834e-11	5.501091e+00	-4.688461e+00
2.020000e-06	8.415341e-07	-1.697337e-12	5.822544e+00	-2.753786e+00
2.030000e-06	8.879402e-07	2.484018e-11	6.143626e+00	-8.001959e-01
2.040000e-06	9.343280e-07	5.152522e-11	6.464581e+00	1.168956e+00
2.050000e-06	9.806418e-07	7.803628e-11	6.785025e+00	3.150255e+00
2.060000e-06	1.026864e-06	1.041862e-10	7.104835e+00	5.140260e+00
2.070000e-06	1.072974e-06	1.310672e-10	7.423871e+00	7.135528e+00
2.080000e-06	1.119091e-06	1.582163e-10	7.742949e+00	9.132647e+00
2.090000e-06	1.165212e-06	1.859082e-10	8.062059e+00	1.112826e+01
2.100000e-06	1.211180e-06	2.140762e-10	8.380110e+00	1.311911e+01
2.110000e-06	1.256995e-06	2.420873e-10	8.697102e+00	1.510201e+01
2.120000e-06	1.302683e-06	2.692825e-10	9.013215e+00	1.707395e+01
2.130000e-06	1.348255e-06	2.971671e-10	9.328529e+00	1.903204e+01
2.140000e-06	1.393780e-06	3.260224e-10	9.643514e+00	2.097357e+01
2.150000e-06	1.439251e-06	3.507763e-10	9.958129e+00	2.289599e+01
2.160000e-06	1.484635e-06	3.723891e-10	1.027214e+01	2.479697e+01
2.170000e-06	1.529944e-06	3.953442e-10	1.058563e+01	2.667437e+01
2.180000e-06	1.575129e-06	4.215197e-10	1.089826e+01	2.852624e+01
2.190000e-06	1.620193e-06	4.484884e-10	1.121006e+01	3.035086e+01
2.200000e-06	1.665179e-06	4.764950e-10	1.152131e+01	3.214671e+01
2.210000e-06	1.710042e-06	5.049173e-10	1.183172e+01	3.391245e+01
2.220000e-06	1.754712e-06	5.319854e-10	1.214079e+01	3.564698e+01
2.230000e-06	1.799219e-06	5.545805e-10	1.244873e+01	3.734936e+01
2.240000e-06	1.843589e-06	5.725891e-10	1.275573e+01	3.901882e+01
2.250000e-06	1.887826e-06	5.875957e-10	1.306180e+01	4.065480e+01
2.260000e-06	1.931923e-06	6.036608e-10	1.336690e+01	4.225685e+01
2.270000e-06	1.975893e-06	6.237999e-10	1.367113e+01	4.382468e+01
2.280000e-06	2.019759e-06	6.471269e-10	1.397464e+01	4.535814e+01
2.290000e-06	2.063545e-06	6.717247e-10	1.427759e+01	4.685716e+01
2.300000e-06	2.107281e-06	6.972439e-10	1.458020e+01	4.832181e+01
2.310000e-06	2.150921e-06	7.190889e-10	1.488215e+01	4.975219e+01
2.320000e-06	2.194487e-06	7.357703e-10	1.518357e+01	5.114852e+01
2.330000e-06	2.238025e-06	7.501232e-10	1.548481e+01	5.251104e+01
2.340000e-06	2.281446e-06	7.649108e-10	1.578524e+01	5.384004e+01
2.350000e-06	2.324676e-06	7.824310e-10	1.608435e+01	5.513586e+01
2.360000e-06	2.367747e-06	8.016771e-10	1.638236e+01	5.639884e+01
2.370000e-06	2.410633e-06	8.219372e-10	1.667909e+01	5.762934e+01
2.380000e-06	2.453352e-06	8.422709e-10	1.697466e+01	5.882774e+01
2.390000e-06	2.495810e-06	8.613222e-10	1.726842e+01	5.999441e+01
2.400000e-06	2.537915e-06	8.779653e-10	1.755975e+01	6.112971e+01
2.410000e-06	2.579696e-06	8.918984e-10	1.784882e+01	6.223402e+01
2.420000e-06	2.621121e-06	9.034609e-10	1.813544e+01	6.330770e+01
2.430000e-06	2.662239e-06	9.149765e-10	1.841994e+01	6.435111e+01
2.440000e-06	2.703074e-06	9.277366e-10	1.870247e+01	6.536460e+01
2.450000e-06	2.743603e-06	9.420144e-10	1.898289e+01	6.634851e+01
2.460000e-06	2.783901e-06	9.574241e-10	1.926171e+01	6.730321e+01
2.470000e-06	2.823985e-06	9.706256e-10	1.953905e+01	6.822906e+01
2.480000e-06	2.863833e-06	9.814907e-10	1.981476e+01	6.912641e+01
2.490000e-06	2.903530e-06	9.923874e-10	2.008942e+01	6.999565e+01
2.500000e-06	2.943152e-06	1.004190e-09	2.036356e+01	7.083717e+01
2.510000e-06	2.982651e-06	1.018684e-09	2.063685e+01	7.165137e+01
2.520000e-06	3.021960e-06	1.031010e-09	2.090883e+01	7.243870e+01
2.530000e-06	3.061105e-06	1.042726e-09	2.117968e+01	7.319961e+01
2.540000e-06	3.100102e-06	1.054297e-09	2.144949e+01	7.393459e+01
2.550000e-06	3.138948e-06	1.062591e-09	2.171827e+01	7.464413e+01
2.560000e-06	3.177583e-06	1.068585e-09	2.198558e+01	7.532877e+01
2.570000e-06	3.215951e-06	1.074508e-09	2.225105e+01	7.598909e+01
2.580000e-06	3.254032e-06	1.081524e-09	2.251453e+01	7.662565e+01
2.590000e-06	3.291932e-06	1.089444e-09	2.277676e+01	7.723908e+01
2.600000e-06	3.329657e-06	1.100781e-09	2.303778e+01	7.782999e+01
2.610000e-06	3.367118e-06	1.113420e-09	2.329697e+01	7.839902e+01
2.620000e-06	3.404401e-06	1.125356e-09	2.355493e+01	7.894683e+01
2.630000e-06	3.441469e-06	1.132304e-09	2.381140e+01	7.947406e+01
2.640000e-06	3.478250e-06	1.134755e-09	2.406589e+01	7.998139e+01
2.650000e-06	3.514746e-06	1.137179e-09	2.431840e+01	8.046945e+01
2.660000e-06	3.550923e-06	1.141132e-09	2.456871e+01	8.093888e+01
2.670000e-06	3.586839e-06	1.146672e-09	2.481721e+01	8.139032e+01
2.680000e-06	3.622637e-06	1.154038e-09	2.506489e+01	8.182436e+01
2.690000e-06	3.658329e-06	1.165230e-09	2.531184e+01	8.224159e+01
2.700000e-06	3.693880e-06	1.175902e-09	2.555782e+01	8.264254e+01
2.710000e-06	3.729291e-06	1.180374e-09	2.580283e+01	8.302774e+01
2.720000e-06	3.764492e-06	1.181287e-09	2.604638e+01	8.339766e+01
2.730000e-06	3.799395e-06	1.179842e-09	2.628788e+01	8.375276e+01
2.740000e-06	3.833946e-06	1.179535e-09	2.652693e+01	8.409343e+01
2.750000e-06	3.868160e-06	1.181843e-09	2.676366e+01	8.442004e+01
2.760000e-06	3.901901e-06	1.188778e-09	2.699711e+01	8.473293e+01
2.770000e-06	3.935118e-06	1.199422e-09	2.722694e+01	8.503239e+01
2.780000e-06	3.967923e-06	1.207204e-09	2.745391e+01	8.531870e+01
2.790000e-06	4.000305e-06	1.212226e-09	2.767796e+01	8.559210e+01
2.800000e-06	4.032348e-06	1.215682e-09	2.789967e+01	8.585280e+01
2.810000e-06	4.064135e-06	1.218821e-09	2.811960e+01	8.610101e+01
2.820000e-06	4.095699e-06	1.222454e-09	2.833799e+01	8.633691e+01
2.830000e-06	4.127151e-06	1.228103e-09	2.855561e+01	8.656070e+01
2.840000e-06	4.158460e-06	1.233668e-09	2.877224e+01	8.677255e+01
2.850000e-06	4.189509e-06	1.236876e-09	2.898706e+01	8.697267e+01
2.860000e-06	4.220282e-06	1.239499e-09	2.919998e+01	8.716125e+01
2.870000e-06	4.250759e-06	1.242802e-09	2.941085e+01	8.733851e+01
2.880000e-06	4.280911e-06	1.245729e-09	2.961947e+01	8.750470e+01
2.890000e-06	4.310747e-06	1.249782e-09	2.982590e+01	8.766010e+01
2.900000e-06	4.340318e-06	1.255590e-09	3.003051e+01	8.780500e+01
