# Temperatura_=_14.67
# Concentracion g/m^3_=_1620.0
# C_Vs_to_Am_M_A/Vsm_=_65563218390.804596
# pendiente_HvsI_1/m_=_3716.3
# ordenada_HvsI_A/m_=_1297.0
# frecuencia_Hz_=_135105.84254549578

Tiempo_(s)	Campo_(V.s)	Magnetizacion_(V.s)	Campo_(kA/m)	Magnetizacion_(A/m)
0.000000e+00	-5.524373e-06	-1.851169e-09	-3.837019e+01	-1.202799e+02
1.000000e-08	-5.524546e-06	-1.851347e-09	-3.837139e+01	-1.202099e+02
2.000000e-08	-5.524427e-06	-1.853323e-09	-3.837056e+01	-1.201417e+02
3.000000e-08	-5.523745e-06	-1.856370e-09	-3.836582e+01	-1.200758e+02
4.000000e-08	-5.522515e-06	-1.855805e-09	-3.835728e+01	-1.200127e+02
5.000000e-08	-5.520794e-06	-1.846769e-09	-3.834533e+01	-1.199528e+02
6.000000e-08	-5.518533e-06	-1.830995e-09	-3.832962e+01	-1.198962e+02
7.000000e-08	-5.515775e-06	-1.847353e-09	-3.831047e+01	-1.198431e+02
8.000000e-08	-5.512517e-06	-1.907926e-09	-3.828784e+01	-1.197936e+02
9.000000e-08	-5.508694e-06	-1.903928e-09	-3.826129e+01	-1.197476e+02
1.000000e-07	-5.504360e-06	-1.821739e-09	-3.823118e+01	-1.197048e+02
1.100000e-07	-5.499802e-06	-1.832983e-09	-3.819953e+01	-1.196650e+02
1.200000e-07	-5.495094e-06	-1.861679e-09	-3.816683e+01	-1.196278e+02
1.300000e-07	-5.490057e-06	-1.848584e-09	-3.813184e+01	-1.195926e+02
1.400000e-07	-5.484652e-06	-1.798819e-09	-3.809430e+01	-1.195588e+02
1.500000e-07	-5.478925e-06	-1.822758e-09	-3.805452e+01	-1.195257e+02
1.600000e-07	-5.472830e-06	-1.915568e-09	-3.801219e+01	-1.194925e+02
1.700000e-07	-5.466256e-06	-1.853185e-09	-3.796653e+01	-1.194585e+02
1.800000e-07	-5.459270e-06	-1.817230e-09	-3.791800e+01	-1.194226e+02
1.900000e-07	-5.451950e-06	-1.827342e-09	-3.786716e+01	-1.193840e+02
2.000000e-07	-5.444380e-06	-1.901026e-09	-3.781458e+01	-1.193417e+02
2.100000e-07	-5.436578e-06	-1.857894e-09	-3.776040e+01	-1.192948e+02
2.200000e-07	-5.428568e-06	-1.831568e-09	-3.770476e+01	-1.192424e+02
2.300000e-07	-5.420241e-06	-1.849526e-09	-3.764692e+01	-1.191835e+02
2.400000e-07	-5.411268e-06	-1.888941e-09	-3.758460e+01	-1.191173e+02
2.500000e-07	-5.401500e-06	-1.859439e-09	-3.751675e+01	-1.190430e+02
2.600000e-07	-5.391091e-06	-1.828815e-09	-3.744446e+01	-1.189598e+02
2.700000e-07	-5.380111e-06	-1.841563e-09	-3.736820e+01	-1.188672e+02
2.800000e-07	-5.368706e-06	-1.856520e-09	-3.728898e+01	-1.187646e+02
2.900000e-07	-5.357019e-06	-1.846249e-09	-3.720781e+01	-1.186516e+02
3.000000e-07	-5.344964e-06	-1.811336e-09	-3.712408e+01	-1.185278e+02
3.100000e-07	-5.332409e-06	-1.823001e-09	-3.703688e+01	-1.183929e+02
3.200000e-07	-5.319329e-06	-1.831994e-09	-3.694603e+01	-1.182470e+02
3.300000e-07	-5.305950e-06	-1.842282e-09	-3.685310e+01	-1.180901e+02
3.400000e-07	-5.292245e-06	-1.798353e-09	-3.675791e+01	-1.179221e+02
3.500000e-07	-5.278080e-06	-1.820725e-09	-3.665953e+01	-1.177435e+02
3.600000e-07	-5.263496e-06	-1.844787e-09	-3.655824e+01	-1.175545e+02
3.700000e-07	-5.248463e-06	-1.818708e-09	-3.645382e+01	-1.173556e+02
3.800000e-07	-5.232839e-06	-1.764274e-09	-3.634530e+01	-1.171472e+02
3.900000e-07	-5.216717e-06	-1.825441e-09	-3.623332e+01	-1.169300e+02
4.000000e-07	-5.200165e-06	-1.824951e-09	-3.611836e+01	-1.167046e+02
4.100000e-07	-5.183251e-06	-1.749368e-09	-3.600088e+01	-1.164716e+02
4.200000e-07	-5.166136e-06	-1.764778e-09	-3.588201e+01	-1.162318e+02
4.300000e-07	-5.148722e-06	-1.850823e-09	-3.576106e+01	-1.159859e+02
4.400000e-07	-5.130880e-06	-1.770685e-09	-3.563714e+01	-1.157347e+02
4.500000e-07	-5.112567e-06	-1.724841e-09	-3.550994e+01	-1.154787e+02
4.600000e-07	-5.093914e-06	-1.814411e-09	-3.538038e+01	-1.152187e+02
4.700000e-07	-5.074966e-06	-1.800190e-09	-3.524878e+01	-1.149554e+02
4.800000e-07	-5.055638e-06	-1.693368e-09	-3.511453e+01	-1.146893e+02
4.900000e-07	-5.036079e-06	-1.757763e-09	-3.497868e+01	-1.144208e+02
5.000000e-07	-5.016342e-06	-1.799906e-09	-3.484160e+01	-1.141506e+02
5.100000e-07	-4.996286e-06	-1.691494e-09	-3.470230e+01	-1.138788e+02
5.200000e-07	-4.975839e-06	-1.705649e-09	-3.456028e+01	-1.136059e+02
5.300000e-07	-4.955036e-06	-1.803013e-09	-3.441579e+01	-1.133321e+02
5.400000e-07	-4.933871e-06	-1.727995e-09	-3.426879e+01	-1.130573e+02
5.500000e-07	-4.912303e-06	-1.678766e-09	-3.411898e+01	-1.127818e+02
5.600000e-07	-4.890455e-06	-1.779943e-09	-3.396723e+01	-1.125054e+02
5.700000e-07	-4.868326e-06	-1.752152e-09	-3.381353e+01	-1.122280e+02
5.800000e-07	-4.845824e-06	-1.660211e-09	-3.365724e+01	-1.119495e+02
5.900000e-07	-4.822983e-06	-1.718249e-09	-3.349860e+01	-1.116696e+02
6.000000e-07	-4.799904e-06	-1.748330e-09	-3.333830e+01	-1.113881e+02
6.100000e-07	-4.776549e-06	-1.658590e-09	-3.317608e+01	-1.111046e+02
6.200000e-07	-4.752918e-06	-1.678174e-09	-3.301196e+01	-1.108188e+02
6.300000e-07	-4.729120e-06	-1.727105e-09	-3.284666e+01	-1.105304e+02
6.400000e-07	-4.705016e-06	-1.679296e-09	-3.267924e+01	-1.102389e+02
6.500000e-07	-4.680526e-06	-1.662969e-09	-3.250915e+01	-1.099440e+02
6.600000e-07	-4.655577e-06	-1.713103e-09	-3.233586e+01	-1.096453e+02
6.700000e-07	-4.629998e-06	-1.677870e-09	-3.215820e+01	-1.093427e+02
6.800000e-07	-4.603830e-06	-1.644276e-09	-3.197644e+01	-1.090357e+02
6.900000e-07	-4.577164e-06	-1.668515e-09	-3.179124e+01	-1.087242e+02
7.000000e-07	-4.550081e-06	-1.664814e-09	-3.160312e+01	-1.084079e+02
7.100000e-07	-4.522708e-06	-1.630089e-09	-3.141300e+01	-1.080868e+02
7.200000e-07	-4.495129e-06	-1.651708e-09	-3.122145e+01	-1.077607e+02
7.300000e-07	-4.467379e-06	-1.659557e-09	-3.102871e+01	-1.074297e+02
7.400000e-07	-4.439455e-06	-1.637471e-09	-3.083476e+01	-1.070938e+02
7.500000e-07	-4.411255e-06	-1.634214e-09	-3.063889e+01	-1.067530e+02
7.600000e-07	-4.382665e-06	-1.641284e-09	-3.044032e+01	-1.064075e+02
7.700000e-07	-4.353723e-06	-1.618387e-09	-3.023930e+01	-1.060575e+02
7.800000e-07	-4.324584e-06	-1.608941e-09	-3.003691e+01	-1.057033e+02
7.900000e-07	-4.295214e-06	-1.613173e-09	-2.983291e+01	-1.053449e+02
8.000000e-07	-4.265492e-06	-1.600858e-09	-2.962648e+01	-1.049828e+02
8.100000e-07	-4.235503e-06	-1.588424e-09	-2.941819e+01	-1.046172e+02
8.200000e-07	-4.205272e-06	-1.593703e-09	-2.920821e+01	-1.042483e+02
8.300000e-07	-4.174766e-06	-1.588314e-09	-2.899633e+01	-1.038765e+02
8.400000e-07	-4.143936e-06	-1.576296e-09	-2.878220e+01	-1.035020e+02
8.500000e-07	-4.112817e-06	-1.584716e-09	-2.856605e+01	-1.031250e+02
8.600000e-07	-4.081465e-06	-1.586225e-09	-2.834830e+01	-1.027458e+02
8.700000e-07	-4.049886e-06	-1.568361e-09	-2.812897e+01	-1.023644e+02
8.800000e-07	-4.018169e-06	-1.556669e-09	-2.790866e+01	-1.019810e+02
8.900000e-07	-3.986262e-06	-1.552515e-09	-2.768706e+01	-1.015957e+02
9.000000e-07	-3.954082e-06	-1.530202e-09	-2.746355e+01	-1.012084e+02
9.100000e-07	-3.921472e-06	-1.520755e-09	-2.723704e+01	-1.008191e+02
9.200000e-07	-3.888447e-06	-1.525740e-09	-2.700767e+01	-1.004276e+02
9.300000e-07	-3.855121e-06	-1.520638e-09	-2.677620e+01	-1.000339e+02
9.400000e-07	-3.821341e-06	-1.505708e-09	-2.654157e+01	-9.963758e+01
9.500000e-07	-3.787004e-06	-1.507160e-09	-2.630308e+01	-9.923851e+01
9.600000e-07	-3.752149e-06	-1.496095e-09	-2.606100e+01	-9.883633e+01
9.700000e-07	-3.716990e-06	-1.474529e-09	-2.581679e+01	-9.843070e+01
9.800000e-07	-3.681693e-06	-1.463340e-09	-2.557163e+01	-9.802123e+01
9.900000e-07	-3.646240e-06	-1.462194e-09	-2.532539e+01	-9.760754e+01
1.000000e-06	-3.610626e-06	-1.448921e-09	-2.507803e+01	-9.718923e+01
1.010000e-06	-3.574880e-06	-1.442613e-09	-2.482975e+01	-9.676588e+01
1.020000e-06	-3.539021e-06	-1.443456e-09	-2.458069e+01	-9.633711e+01
1.030000e-06	-3.503010e-06	-1.435645e-09	-2.433057e+01	-9.590255e+01
1.040000e-06	-3.466793e-06	-1.422462e-09	-2.407902e+01	-9.546185e+01
1.050000e-06	-3.430237e-06	-1.419761e-09	-2.382512e+01	-9.501470e+01
1.060000e-06	-3.393300e-06	-1.410175e-09	-2.356857e+01	-9.456084e+01
1.070000e-06	-3.356052e-06	-1.392336e-09	-2.330985e+01	-9.410004e+01
1.080000e-06	-3.318579e-06	-1.382012e-09	-2.304958e+01	-9.363214e+01
1.090000e-06	-3.280888e-06	-1.376926e-09	-2.278780e+01	-9.315704e+01
1.100000e-06	-3.242953e-06	-1.364547e-09	-2.252431e+01	-9.267468e+01
1.110000e-06	-3.204835e-06	-1.352671e-09	-2.225956e+01	-9.218506e+01
1.120000e-06	-3.166486e-06	-1.345172e-09	-2.199320e+01	-9.168824e+01
1.130000e-06	-3.127917e-06	-1.332893e-09	-2.172532e+01	-9.118433e+01
1.140000e-06	-3.089192e-06	-1.322812e-09	-2.145635e+01	-9.067349e+01
1.150000e-06	-3.050302e-06	-1.321628e-09	-2.118623e+01	-9.015590e+01
1.160000e-06	-3.011183e-06	-1.319262e-09	-2.091453e+01	-8.963179e+01
1.170000e-06	-2.971947e-06	-1.308713e-09	-2.064201e+01	-8.910140e+01
1.180000e-06	-2.932641e-06	-1.299698e-09	-2.036901e+01	-8.856499e+01
1.190000e-06	-2.893128e-06	-1.288202e-09	-2.009457e+01	-8.802280e+01
1.200000e-06	-2.853427e-06	-1.272143e-09	-1.981882e+01	-8.747510e+01
1.210000e-06	-2.813653e-06	-1.256986e-09	-1.954256e+01	-8.692209e+01
1.220000e-06	-2.773725e-06	-1.249704e-09	-1.926523e+01	-8.636398e+01
1.230000e-06	-2.733470e-06	-1.241227e-09	-1.898564e+01	-8.580092e+01
1.240000e-06	-2.692933e-06	-1.233219e-09	-1.870408e+01	-8.523301e+01
1.250000e-06	-2.652218e-06	-1.227182e-09	-1.842130e+01	-8.466030e+01
1.260000e-06	-2.611275e-06	-1.220434e-09	-1.813692e+01	-8.408276e+01
1.270000e-06	-2.570104e-06	-1.206998e-09	-1.785096e+01	-8.350032e+01
1.280000e-06	-2.528692e-06	-1.192157e-09	-1.756333e+01	-8.291280e+01
1.290000e-06	-2.486948e-06	-1.178929e-09	-1.727339e+01	-8.231997e+01
1.300000e-06	-2.444879e-06	-1.166614e-09	-1.698119e+01	-8.172151e+01
1.310000e-06	-2.402408e-06	-1.153443e-09	-1.668621e+01	-8.111706e+01
1.320000e-06	-2.359599e-06	-1.143749e-09	-1.638888e+01	-8.050615e+01
1.330000e-06	-2.316681e-06	-1.135016e-09	-1.609078e+01	-7.988827e+01
1.340000e-06	-2.273635e-06	-1.127904e-09	-1.579180e+01	-7.926285e+01
1.350000e-06	-2.230334e-06	-1.121820e-09	-1.549105e+01	-7.862928e+01
1.360000e-06	-2.186883e-06	-1.115087e-09	-1.518925e+01	-7.798690e+01
1.370000e-06	-2.143377e-06	-1.104114e-09	-1.488708e+01	-7.733504e+01
1.380000e-06	-2.099754e-06	-1.089938e-09	-1.458409e+01	-7.667300e+01
1.390000e-06	-2.056048e-06	-1.072545e-09	-1.428053e+01	-7.600008e+01
1.400000e-06	-2.012282e-06	-1.054125e-09	-1.397654e+01	-7.531559e+01
1.410000e-06	-1.968406e-06	-1.037345e-09	-1.367180e+01	-7.461888e+01
1.420000e-06	-1.924474e-06	-1.024854e-09	-1.336666e+01	-7.390931e+01
1.430000e-06	-1.880461e-06	-1.016991e-09	-1.306097e+01	-7.318627e+01
1.440000e-06	-1.836320e-06	-1.011156e-09	-1.275438e+01	-7.244924e+01
1.450000e-06	-1.791999e-06	-1.004144e-09	-1.244654e+01	-7.169772e+01
1.460000e-06	-1.747539e-06	-9.930778e-10	-1.213774e+01	-7.093129e+01
1.470000e-06	-1.703040e-06	-9.783945e-10	-1.182867e+01	-7.014958e+01
1.480000e-06	-1.658475e-06	-9.621444e-10	-1.151913e+01	-6.935232e+01
1.490000e-06	-1.613706e-06	-9.474115e-10	-1.120819e+01	-6.853928e+01
1.500000e-06	-1.568742e-06	-9.322363e-10	-1.089589e+01	-6.771029e+01
1.510000e-06	-1.523701e-06	-9.170386e-10	-1.058304e+01	-6.686524e+01
1.520000e-06	-1.478485e-06	-9.035089e-10	-1.026899e+01	-6.600409e+01
1.530000e-06	-1.433138e-06	-8.915195e-10	-9.954027e+00	-6.512681e+01
1.540000e-06	-1.387724e-06	-8.783964e-10	-9.638599e+00	-6.423342e+01
1.550000e-06	-1.342206e-06	-8.655187e-10	-9.322450e+00	-6.332393e+01
1.560000e-06	-1.296594e-06	-8.484868e-10	-9.005648e+00	-6.239839e+01
1.570000e-06	-1.250892e-06	-8.278311e-10	-8.688220e+00	-6.145678e+01
1.580000e-06	-1.205152e-06	-8.064453e-10	-8.370523e+00	-6.049910e+01
1.590000e-06	-1.159375e-06	-7.868237e-10	-8.052576e+00	-5.952527e+01
1.600000e-06	-1.113509e-06	-7.679783e-10	-7.734012e+00	-5.853515e+01
1.610000e-06	-1.067488e-06	-7.528065e-10	-7.414362e+00	-5.752854e+01
1.620000e-06	-1.021414e-06	-7.394579e-10	-7.094354e+00	-5.650512e+01
1.630000e-06	-9.753988e-07	-7.253948e-10	-6.774748e+00	-5.546448e+01
1.640000e-06	-9.292944e-07	-7.123340e-10	-6.454524e+00	-5.440609e+01
1.650000e-06	-8.830579e-07	-7.007389e-10	-6.133383e+00	-5.332928e+01
1.660000e-06	-8.367285e-07	-6.863827e-10	-5.811597e+00	-5.223328e+01
1.670000e-06	-7.903200e-07	-6.682919e-10	-5.489261e+00	-5.111715e+01
1.680000e-06	-7.438373e-07	-6.484180e-10	-5.166410e+00	-4.997983e+01
1.690000e-06	-6.972609e-07	-6.286779e-10	-4.842908e+00	-4.882014e+01
1.700000e-06	-6.506408e-07	-6.079774e-10	-4.519103e+00	-4.763675e+01
1.710000e-06	-6.040662e-07	-5.847558e-10	-4.195613e+00	-4.642823e+01
1.720000e-06	-5.574690e-07	-5.620315e-10	-3.871967e+00	-4.519306e+01
1.730000e-06	-5.108275e-07	-5.421360e-10	-3.548013e+00	-4.392962e+01
1.740000e-06	-4.641588e-07	-5.248992e-10	-3.223870e+00	-4.263621e+01
1.750000e-06	-4.174537e-07	-5.076201e-10	-2.899474e+00	-4.131113e+01
1.760000e-06	-3.706853e-07	-4.874020e-10	-2.574638e+00	-3.995262e+01
1.770000e-06	-3.238984e-07	-4.650510e-10	-2.249675e+00	-3.855895e+01
1.780000e-06	-2.771676e-07	-4.431705e-10	-1.925101e+00	-3.712842e+01
1.790000e-06	-2.303847e-07	-4.216177e-10	-1.600164e+00	-3.565941e+01
1.800000e-06	-1.835532e-07	-4.007952e-10	-1.274891e+00	-3.415038e+01
1.810000e-06	-1.367522e-07	-3.795645e-10	-9.498283e-01	-3.259993e+01
1.820000e-06	-8.994981e-08	-3.583134e-10	-6.247570e-01	-3.100681e+01
1.830000e-06	-4.308142e-08	-3.379902e-10	-2.992271e-01	-2.936996e+01
1.840000e-06	3.796702e-09	-3.168907e-10	2.637045e-02	-2.768852e+01
1.850000e-06	5.064245e-08	-2.943910e-10	3.517431e-01	-2.596190e+01
1.860000e-06	9.743863e-08	-2.715722e-10	6.767715e-01	-2.418972e+01
1.870000e-06	1.442998e-07	-2.466052e-10	1.002251e+00	-2.237194e+01
1.880000e-06	1.912330e-07	-2.210525e-10	1.328231e+00	-2.050876e+01
1.890000e-06	2.380525e-07	-1.946279e-10	1.653421e+00	-1.860072e+01
1.900000e-06	2.848846e-07	-1.660598e-10	1.978699e+00	-1.664867e+01
1.910000e-06	3.317004e-07	-1.365116e-10	2.303864e+00	-1.465378e+01
1.920000e-06	3.784492e-07	-1.072618e-10	2.628564e+00	-1.261754e+01
1.930000e-06	4.252655e-07	-7.950602e-11	2.953732e+00	-1.054175e+01
1.940000e-06	4.720341e-07	-5.392153e-11	3.278569e+00	-8.428525e+00
1.950000e-06	5.186385e-07	-2.824176e-11	3.602265e+00	-6.280261e+00
1.960000e-06	5.652101e-07	-1.093947e-12	3.925734e+00	-4.099640e+00
1.970000e-06	6.117855e-07	2.759161e-11	4.249229e+00	-1.889594e+00
1.980000e-06	6.582815e-07	5.792441e-11	4.572172e+00	3.467144e-01
1.990000e-06	7.047556e-07	9.029476e-11	4.894964e+00	2.605920e+00
2.000000e-06	7.511931e-07	1.241499e-10	5.217500e+00	4.884484e+00
2.010000e-06	7.975226e-07	1.578811e-10	5.539288e+00	7.178732e+00
2.020000e-06	8.437156e-07	1.914486e-10	5.860127e+00	9.484878e+00
2.030000e-06	8.898167e-07	2.246893e-10	6.180327e+00	1.179907e+01
2.040000e-06	9.358999e-07	2.556792e-10	6.500403e+00	1.411741e+01
2.050000e-06	9.820079e-07	2.836085e-10	6.820652e+00	1.643602e+01
2.060000e-06	1.028059e-06	3.119119e-10	7.140504e+00	1.875103e+01
2.070000e-06	1.074007e-06	3.419065e-10	7.459644e+00	2.105866e+01
2.080000e-06	1.119884e-06	3.726745e-10	7.778289e+00	2.335522e+01
2.090000e-06	1.165698e-06	4.056382e-10	8.096494e+00	2.563716e+01
2.100000e-06	1.211473e-06	4.402403e-10	8.414432e+00	2.790106e+01
2.110000e-06	1.257152e-06	4.744301e-10	8.731698e+00	3.014372e+01
2.120000e-06	1.302727e-06	5.072468e-10	9.048247e+00	3.236212e+01
2.130000e-06	1.348266e-06	5.367983e-10	9.364543e+00	3.455347e+01
2.140000e-06	1.393709e-06	5.626372e-10	9.680173e+00	3.671522e+01
2.150000e-06	1.439023e-06	5.864133e-10	9.994906e+00	3.884505e+01
2.160000e-06	1.484276e-06	6.118524e-10	1.030921e+01	4.094093e+01
2.170000e-06	1.529389e-06	6.390793e-10	1.062255e+01	4.300105e+01
2.180000e-06	1.574362e-06	6.685781e-10	1.093492e+01	4.502390e+01
2.190000e-06	1.619233e-06	7.006708e-10	1.124657e+01	4.700819e+01
2.200000e-06	1.663961e-06	7.337114e-10	1.155724e+01	4.895291e+01
2.210000e-06	1.708534e-06	7.650031e-10	1.186682e+01	5.085727e+01
2.220000e-06	1.752962e-06	7.919518e-10	1.217540e+01	5.272073e+01
2.230000e-06	1.797199e-06	8.150624e-10	1.248266e+01	5.454295e+01
2.240000e-06	1.841277e-06	8.341585e-10	1.278881e+01	5.632379e+01
2.250000e-06	1.885294e-06	8.511376e-10	1.309454e+01	5.806332e+01
2.260000e-06	1.929206e-06	8.708509e-10	1.339953e+01	5.976175e+01
2.270000e-06	1.972993e-06	8.945027e-10	1.370365e+01	6.141944e+01
2.280000e-06	2.016717e-06	9.193901e-10	1.400734e+01	6.303689e+01
2.290000e-06	2.060391e-06	9.450178e-10	1.431069e+01	6.461469e+01
2.300000e-06	2.104034e-06	9.705995e-10	1.461381e+01	6.615353e+01
2.310000e-06	2.147649e-06	9.931470e-10	1.491675e+01	6.765418e+01
2.320000e-06	2.191191e-06	1.011743e-09	1.521917e+01	6.911744e+01
2.330000e-06	2.234633e-06	1.027310e-09	1.552091e+01	7.054417e+01
2.340000e-06	2.277943e-06	1.041283e-09	1.582172e+01	7.193525e+01
2.350000e-06	2.321066e-06	1.056219e-09	1.612124e+01	7.329155e+01
2.360000e-06	2.363958e-06	1.074062e-09	1.641915e+01	7.461397e+01
2.370000e-06	2.406565e-06	1.093569e-09	1.671509e+01	7.590338e+01
2.380000e-06	2.448896e-06	1.112321e-09	1.700909e+01	7.716062e+01
2.390000e-06	2.490984e-06	1.130076e-09	1.730143e+01	7.838655e+01
2.400000e-06	2.532784e-06	1.146401e-09	1.759175e+01	7.958194e+01
2.410000e-06	2.574217e-06	1.160732e-09	1.787953e+01	8.074758e+01
2.420000e-06	2.615261e-06	1.173633e-09	1.816461e+01	8.188420e+01
2.430000e-06	2.656010e-06	1.186332e-09	1.844763e+01	8.299250e+01
2.440000e-06	2.696536e-06	1.201107e-09	1.872911e+01	8.407315e+01
2.450000e-06	2.736777e-06	1.217645e-09	1.900861e+01	8.512679e+01
2.460000e-06	2.776765e-06	1.232396e-09	1.928635e+01	8.615403e+01
2.470000e-06	2.816614e-06	1.245149e-09	1.956313e+01	8.715546e+01
2.480000e-06	2.856319e-06	1.259374e-09	1.983890e+01	8.813164e+01
2.490000e-06	2.895928e-06	1.274253e-09	2.011401e+01	8.908313e+01
2.500000e-06	2.935468e-06	1.288518e-09	2.038864e+01	9.001046e+01
2.510000e-06	2.974932e-06	1.304993e-09	2.066274e+01	9.091414e+01
2.520000e-06	3.014259e-06	1.320073e-09	2.093589e+01	9.179471e+01
2.530000e-06	3.053404e-06	1.333781e-09	2.120778e+01	9.265268e+01
2.540000e-06	3.092379e-06	1.346910e-09	2.147848e+01	9.348856e+01
2.550000e-06	3.131050e-06	1.357119e-09	2.174707e+01	9.430286e+01
2.560000e-06	3.169389e-06	1.363600e-09	2.201336e+01	9.509610e+01
2.570000e-06	3.207486e-06	1.369175e-09	2.227797e+01	9.586880e+01
2.580000e-06	3.245396e-06	1.377760e-09	2.254128e+01	9.662148e+01
2.590000e-06	3.283185e-06	1.389035e-09	2.280375e+01	9.735466e+01
2.600000e-06	3.320783e-06	1.403155e-09	2.306489e+01	9.806885e+01
2.610000e-06	3.358076e-06	1.417726e-09	2.332392e+01	9.876458e+01
2.620000e-06	3.395093e-06	1.431189e-09	2.358102e+01	9.944236e+01
2.630000e-06	3.431835e-06	1.440790e-09	2.383622e+01	1.001027e+02
2.640000e-06	3.468369e-06	1.446268e-09	2.408996e+01	1.007461e+02
2.650000e-06	3.504689e-06	1.450273e-09	2.434223e+01	1.013730e+02
2.660000e-06	3.540699e-06	1.454881e-09	2.459235e+01	1.019839e+02
2.670000e-06	3.576527e-06	1.460179e-09	2.484119e+01	1.025792e+02
2.680000e-06	3.612237e-06	1.468436e-09	2.508922e+01	1.031595e+02
2.690000e-06	3.647863e-06	1.482176e-09	2.533666e+01	1.037250e+02
2.700000e-06	3.683423e-06	1.495597e-09	2.558365e+01	1.042762e+02
2.710000e-06	3.718748e-06	1.503904e-09	2.582900e+01	1.048133e+02
2.720000e-06	3.753803e-06	1.510219e-09	2.607248e+01	1.053369e+02
2.730000e-06	3.788563e-06	1.514325e-09	2.631391e+01	1.058470e+02
2.740000e-06	3.822901e-06	1.517951e-09	2.655241e+01	1.063441e+02
2.750000e-06	3.856664e-06	1.522637e-09	2.678691e+01	1.068284e+02
2.760000e-06	3.889879e-06	1.529585e-09	2.701761e+01	1.073000e+02
2.770000e-06	3.922690e-06	1.538754e-09	2.724550e+01	1.077592e+02
2.780000e-06	3.955138e-06	1.547903e-09	2.747088e+01	1.082062e+02
2.790000e-06	3.987270e-06	1.558942e-09	2.769406e+01	1.086412e+02
2.800000e-06	4.019129e-06	1.568203e-09	2.791534e+01	1.090642e+02
2.810000e-06	4.050832e-06	1.574380e-09	2.813553e+01	1.094754e+02
2.820000e-06	4.082462e-06	1.581549e-09	2.835522e+01	1.098750e+02
2.830000e-06	4.113918e-06	1.589679e-09	2.857370e+01	1.102632e+02
2.840000e-06	4.145140e-06	1.597621e-09	2.879056e+01	1.106399e+02
2.850000e-06	4.176133e-06	1.602935e-09	2.900582e+01	1.110053e+02
2.860000e-06	4.206758e-06	1.608398e-09	2.921853e+01	1.113597e+02
2.870000e-06	4.237024e-06	1.614215e-09	2.942875e+01	1.117031e+02
2.880000e-06	4.266932e-06	1.620193e-09	2.963648e+01	1.120356e+02
2.890000e-06	4.296471e-06	1.626530e-09	2.984165e+01	1.123576e+02
2.900000e-06	4.325794e-06	1.633569e-09	3.004532e+01	1.126691e+02
