# Temperatura_=_6.16
# Concentracion g/m^3_=_1620.0
# C_Vs_to_Am_M_A/Vsm_=_65563218390.804596
# pendiente_HvsI_1/m_=_3716.3
# ordenada_HvsI_A/m_=_1297.0
# frecuencia_Hz_=_135109.7729945617

Tiempo_(s)	Campo_(V.s)	Magnetizacion_(V.s)	Campo_(kA/m)	Magnetizacion_(A/m)
0.000000e+00	-5.518432e-06	-1.564894e-09	-3.837319e+01	-1.027978e+02
1.000000e-08	-5.518672e-06	-1.562505e-09	-3.837485e+01	-1.027487e+02
2.000000e-08	-5.518675e-06	-1.563106e-09	-3.837488e+01	-1.026974e+02
3.000000e-08	-5.518420e-06	-1.565554e-09	-3.837311e+01	-1.026439e+02
4.000000e-08	-5.517727e-06	-1.568270e-09	-3.836828e+01	-1.025887e+02
5.000000e-08	-5.516485e-06	-1.574498e-09	-3.835965e+01	-1.025322e+02
6.000000e-08	-5.514802e-06	-1.581008e-09	-3.834795e+01	-1.024746e+02
7.000000e-08	-5.512602e-06	-1.568591e-09	-3.833265e+01	-1.024164e+02
8.000000e-08	-5.509708e-06	-1.549835e-09	-3.831253e+01	-1.023580e+02
9.000000e-08	-5.506262e-06	-1.540021e-09	-3.828856e+01	-1.022997e+02
1.000000e-07	-5.502398e-06	-1.534302e-09	-3.826169e+01	-1.022421e+02
1.100000e-07	-5.498164e-06	-1.580517e-09	-3.823225e+01	-1.021854e+02
1.200000e-07	-5.493684e-06	-1.609195e-09	-3.820110e+01	-1.021299e+02
1.300000e-07	-5.488929e-06	-1.525608e-09	-3.816804e+01	-1.020761e+02
1.400000e-07	-5.483802e-06	-1.490547e-09	-3.813239e+01	-1.020240e+02
1.500000e-07	-5.478279e-06	-1.543075e-09	-3.809398e+01	-1.019740e+02
1.600000e-07	-5.472349e-06	-1.641397e-09	-3.805274e+01	-1.019261e+02
1.700000e-07	-5.466058e-06	-1.582527e-09	-3.800900e+01	-1.018804e+02
1.800000e-07	-5.459373e-06	-1.491706e-09	-3.796251e+01	-1.018368e+02
1.900000e-07	-5.452351e-06	-1.543126e-09	-3.791368e+01	-1.017953e+02
2.000000e-07	-5.445019e-06	-1.621996e-09	-3.786270e+01	-1.017558e+02
2.100000e-07	-5.437311e-06	-1.577775e-09	-3.780910e+01	-1.017179e+02
2.200000e-07	-5.429335e-06	-1.490972e-09	-3.775364e+01	-1.016813e+02
2.300000e-07	-5.421146e-06	-1.541563e-09	-3.769670e+01	-1.016457e+02
2.400000e-07	-5.412610e-06	-1.627583e-09	-3.763734e+01	-1.016107e+02
2.500000e-07	-5.403535e-06	-1.612770e-09	-3.757423e+01	-1.015756e+02
2.600000e-07	-5.393854e-06	-1.545771e-09	-3.750692e+01	-1.015399e+02
2.700000e-07	-5.383530e-06	-1.567552e-09	-3.743513e+01	-1.015031e+02
2.800000e-07	-5.372577e-06	-1.594262e-09	-3.735896e+01	-1.014645e+02
2.900000e-07	-5.361213e-06	-1.582949e-09	-3.727994e+01	-1.014235e+02
3.000000e-07	-5.349485e-06	-1.551815e-09	-3.719839e+01	-1.013793e+02
3.100000e-07	-5.337302e-06	-1.575880e-09	-3.711368e+01	-1.013314e+02
3.200000e-07	-5.324704e-06	-1.595137e-09	-3.702607e+01	-1.012790e+02
3.300000e-07	-5.311709e-06	-1.595051e-09	-3.693571e+01	-1.012216e+02
3.400000e-07	-5.298258e-06	-1.565737e-09	-3.684218e+01	-1.011585e+02
3.500000e-07	-5.284415e-06	-1.561087e-09	-3.674592e+01	-1.010892e+02
3.600000e-07	-5.270223e-06	-1.585539e-09	-3.664723e+01	-1.010133e+02
3.700000e-07	-5.255578e-06	-1.585093e-09	-3.654539e+01	-1.009302e+02
3.800000e-07	-5.240350e-06	-1.547568e-09	-3.643950e+01	-1.008396e+02
3.900000e-07	-5.224724e-06	-1.564364e-09	-3.633085e+01	-1.007413e+02
4.000000e-07	-5.208811e-06	-1.595351e-09	-3.622020e+01	-1.006350e+02
4.100000e-07	-5.192385e-06	-1.545755e-09	-3.610597e+01	-1.005206e+02
4.200000e-07	-5.175447e-06	-1.521699e-09	-3.598819e+01	-1.003980e+02
4.300000e-07	-5.158161e-06	-1.584971e-09	-3.586799e+01	-1.002672e+02
4.400000e-07	-5.140528e-06	-1.571282e-09	-3.574538e+01	-1.001285e+02
4.500000e-07	-5.122562e-06	-1.496037e-09	-3.562045e+01	-9.998187e+01
4.600000e-07	-5.104266e-06	-1.553842e-09	-3.549322e+01	-9.982769e+01
4.700000e-07	-5.085599e-06	-1.600523e-09	-3.536342e+01	-9.966626e+01
4.800000e-07	-5.066582e-06	-1.504954e-09	-3.523118e+01	-9.949796e+01
4.900000e-07	-5.047233e-06	-1.486001e-09	-3.509664e+01	-9.932321e+01
5.000000e-07	-5.027574e-06	-1.574125e-09	-3.495994e+01	-9.914248e+01
5.100000e-07	-5.007654e-06	-1.524298e-09	-3.482142e+01	-9.895629e+01
5.200000e-07	-4.987503e-06	-1.466105e-09	-3.468130e+01	-9.876514e+01
5.300000e-07	-4.967086e-06	-1.545530e-09	-3.453933e+01	-9.856957e+01
5.400000e-07	-4.946367e-06	-1.548281e-09	-3.439526e+01	-9.837013e+01
5.500000e-07	-4.925224e-06	-1.461424e-09	-3.424823e+01	-9.816733e+01
5.600000e-07	-4.903733e-06	-1.516613e-09	-3.409879e+01	-9.796169e+01
5.700000e-07	-4.881960e-06	-1.556956e-09	-3.394739e+01	-9.775370e+01
5.800000e-07	-4.859804e-06	-1.462390e-09	-3.379333e+01	-9.754379e+01
5.900000e-07	-4.837323e-06	-1.459310e-09	-3.363700e+01	-9.733238e+01
6.000000e-07	-4.814549e-06	-1.534055e-09	-3.347864e+01	-9.711984e+01
6.100000e-07	-4.791445e-06	-1.475526e-09	-3.331798e+01	-9.690647e+01
6.200000e-07	-4.768019e-06	-1.435212e-09	-3.315509e+01	-9.669252e+01
6.300000e-07	-4.744351e-06	-1.499737e-09	-3.299050e+01	-9.647819e+01
6.400000e-07	-4.720436e-06	-1.489556e-09	-3.282421e+01	-9.626362e+01
6.500000e-07	-4.696257e-06	-1.438374e-09	-3.265608e+01	-9.604889e+01
6.600000e-07	-4.671709e-06	-1.480936e-09	-3.248538e+01	-9.583401e+01
6.700000e-07	-4.646698e-06	-1.494515e-09	-3.231147e+01	-9.561894e+01
6.800000e-07	-4.621123e-06	-1.443476e-09	-3.213363e+01	-9.540359e+01
6.900000e-07	-4.594962e-06	-1.451277e-09	-3.195171e+01	-9.518782e+01
7.000000e-07	-4.568361e-06	-1.472152e-09	-3.176674e+01	-9.497144e+01
7.100000e-07	-4.541313e-06	-1.438323e-09	-3.157866e+01	-9.475422e+01
7.200000e-07	-4.513934e-06	-1.434061e-09	-3.138827e+01	-9.453589e+01
7.300000e-07	-4.486334e-06	-1.460983e-09	-3.119635e+01	-9.431617e+01
7.400000e-07	-4.458522e-06	-1.443613e-09	-3.100296e+01	-9.409474e+01
7.500000e-07	-4.430475e-06	-1.427094e-09	-3.080793e+01	-9.387128e+01
7.600000e-07	-4.402179e-06	-1.440795e-09	-3.061117e+01	-9.364544e+01
7.700000e-07	-4.373660e-06	-1.434739e-09	-3.041286e+01	-9.341689e+01
7.800000e-07	-4.344919e-06	-1.413911e-09	-3.021300e+01	-9.318528e+01
7.900000e-07	-4.315852e-06	-1.420120e-09	-3.001088e+01	-9.295029e+01
8.000000e-07	-4.286396e-06	-1.419876e-09	-2.980605e+01	-9.271159e+01
8.100000e-07	-4.256629e-06	-1.404226e-09	-2.959907e+01	-9.246889e+01
8.200000e-07	-4.226539e-06	-1.402567e-09	-2.938983e+01	-9.222191e+01
8.300000e-07	-4.196134e-06	-1.404836e-09	-2.917840e+01	-9.197040e+01
8.400000e-07	-4.165382e-06	-1.388279e-09	-2.896457e+01	-9.171412e+01
8.500000e-07	-4.134346e-06	-1.388661e-09	-2.874875e+01	-9.145289e+01
8.600000e-07	-4.103105e-06	-1.402014e-09	-2.853151e+01	-9.118653e+01
8.700000e-07	-4.071678e-06	-1.396278e-09	-2.831298e+01	-9.091491e+01
8.800000e-07	-4.040066e-06	-1.383156e-09	-2.809316e+01	-9.063794e+01
8.900000e-07	-4.008247e-06	-1.384443e-09	-2.787191e+01	-9.035553e+01
9.000000e-07	-3.976232e-06	-1.373368e-09	-2.764929e+01	-9.006766e+01
9.100000e-07	-3.943962e-06	-1.354746e-09	-2.742489e+01	-8.977431e+01
9.200000e-07	-3.911390e-06	-1.351108e-09	-2.719840e+01	-8.947551e+01
9.300000e-07	-3.878456e-06	-1.349940e-09	-2.696939e+01	-8.917129e+01
9.400000e-07	-3.845136e-06	-1.339780e-09	-2.673769e+01	-8.886174e+01
9.500000e-07	-3.811468e-06	-1.340646e-09	-2.650358e+01	-8.854695e+01
9.600000e-07	-3.777389e-06	-1.344033e-09	-2.626660e+01	-8.822704e+01
9.700000e-07	-3.742796e-06	-1.330812e-09	-2.602606e+01	-8.790214e+01
9.800000e-07	-3.707792e-06	-1.318179e-09	-2.578265e+01	-8.757241e+01
9.900000e-07	-3.672488e-06	-1.316974e-09	-2.553716e+01	-8.723801e+01
1.000000e-06	-3.636959e-06	-1.309859e-09	-2.529010e+01	-8.689913e+01
1.010000e-06	-3.601280e-06	-1.298605e-09	-2.504200e+01	-8.655594e+01
1.020000e-06	-3.565472e-06	-1.298648e-09	-2.479300e+01	-8.620866e+01
1.030000e-06	-3.529485e-06	-1.296546e-09	-2.454277e+01	-8.585748e+01
1.040000e-06	-3.493278e-06	-1.285661e-09	-2.429099e+01	-8.550261e+01
1.050000e-06	-3.456843e-06	-1.281580e-09	-2.403764e+01	-8.514426e+01
1.060000e-06	-3.420129e-06	-1.279650e-09	-2.378235e+01	-8.478262e+01
1.070000e-06	-3.383130e-06	-1.265375e-09	-2.352507e+01	-8.441792e+01
1.080000e-06	-3.345903e-06	-1.254293e-09	-2.326620e+01	-8.405032e+01
1.090000e-06	-3.308491e-06	-1.249104e-09	-2.300606e+01	-8.368004e+01
1.100000e-06	-3.270861e-06	-1.243560e-09	-2.274439e+01	-8.330723e+01
1.110000e-06	-3.232964e-06	-1.233368e-09	-2.248087e+01	-8.293206e+01
1.120000e-06	-3.194845e-06	-1.227117e-09	-2.221580e+01	-8.255468e+01
1.130000e-06	-3.156507e-06	-1.216166e-09	-2.194921e+01	-8.217519e+01
1.140000e-06	-3.117920e-06	-1.204229e-09	-2.168090e+01	-8.179371e+01
1.150000e-06	-3.079042e-06	-1.200863e-09	-2.141055e+01	-8.141030e+01
1.160000e-06	-3.039990e-06	-1.203052e-09	-2.113900e+01	-8.102500e+01
1.170000e-06	-3.000891e-06	-1.200118e-09	-2.086712e+01	-8.063783e+01
1.180000e-06	-2.961587e-06	-1.193987e-09	-2.059381e+01	-8.024875e+01
1.190000e-06	-2.922022e-06	-1.189113e-09	-2.031869e+01	-7.985770e+01
1.200000e-06	-2.882318e-06	-1.178457e-09	-2.004260e+01	-7.946456e+01
1.210000e-06	-2.842510e-06	-1.161746e-09	-1.976579e+01	-7.906919e+01
1.220000e-06	-2.802553e-06	-1.150403e-09	-1.948794e+01	-7.867139e+01
1.230000e-06	-2.762401e-06	-1.142443e-09	-1.920874e+01	-7.827091e+01
1.240000e-06	-2.722027e-06	-1.135640e-09	-1.892800e+01	-7.786746e+01
1.250000e-06	-2.681553e-06	-1.132400e-09	-1.864656e+01	-7.746071e+01
1.260000e-06	-2.640968e-06	-1.128426e-09	-1.836434e+01	-7.705026e+01
1.270000e-06	-2.600160e-06	-1.123931e-09	-1.808057e+01	-7.663569e+01
1.280000e-06	-2.559110e-06	-1.114662e-09	-1.779513e+01	-7.621652e+01
1.290000e-06	-2.517761e-06	-1.103539e-09	-1.750760e+01	-7.579224e+01
1.300000e-06	-2.476074e-06	-1.090981e-09	-1.721773e+01	-7.536230e+01
1.310000e-06	-2.434098e-06	-1.077932e-09	-1.692584e+01	-7.492611e+01
1.320000e-06	-2.391817e-06	-1.067951e-09	-1.663183e+01	-7.448307e+01
1.330000e-06	-2.349258e-06	-1.062264e-09	-1.633589e+01	-7.403255e+01
1.340000e-06	-2.306514e-06	-1.058268e-09	-1.603867e+01	-7.357390e+01
1.350000e-06	-2.263598e-06	-1.055415e-09	-1.574025e+01	-7.310649e+01
1.360000e-06	-2.220466e-06	-1.053109e-09	-1.544032e+01	-7.262965e+01
1.370000e-06	-2.177029e-06	-1.048465e-09	-1.513828e+01	-7.214276e+01
1.380000e-06	-2.133367e-06	-1.037946e-09	-1.483466e+01	-7.164518e+01
1.390000e-06	-2.089640e-06	-1.027364e-09	-1.453061e+01	-7.113633e+01
1.400000e-06	-2.045844e-06	-1.017261e-09	-1.422606e+01	-7.061562e+01
1.410000e-06	-2.001923e-06	-1.007725e-09	-1.392065e+01	-7.008253e+01
1.420000e-06	-1.957930e-06	-9.973139e-10	-1.361474e+01	-6.953657e+01
1.430000e-06	-1.913922e-06	-9.875358e-10	-1.330872e+01	-6.897729e+01
1.440000e-06	-1.869861e-06	-9.774965e-10	-1.300234e+01	-6.840432e+01
1.450000e-06	-1.825637e-06	-9.673633e-10	-1.269482e+01	-6.781731e+01
1.460000e-06	-1.781253e-06	-9.587628e-10	-1.238619e+01	-6.721599e+01
1.470000e-06	-1.736787e-06	-9.492200e-10	-1.207699e+01	-6.660015e+01
1.480000e-06	-1.692218e-06	-9.366877e-10	-1.176708e+01	-6.596961e+01
1.490000e-06	-1.647566e-06	-9.246651e-10	-1.145658e+01	-6.532427e+01
1.500000e-06	-1.602847e-06	-9.129253e-10	-1.114562e+01	-6.466406e+01
1.510000e-06	-1.557965e-06	-8.961501e-10	-1.083353e+01	-6.398897e+01
1.520000e-06	-1.512884e-06	-8.783219e-10	-1.052005e+01	-6.329900e+01
1.530000e-06	-1.467703e-06	-8.641223e-10	-1.020588e+01	-6.259421e+01
1.540000e-06	-1.422437e-06	-8.519519e-10	-9.891114e+00	-6.187463e+01
1.550000e-06	-1.377052e-06	-8.406706e-10	-9.575524e+00	-6.114035e+01
1.560000e-06	-1.331589e-06	-8.301595e-10	-9.259393e+00	-6.039139e+01
1.570000e-06	-1.286064e-06	-8.191338e-10	-8.942824e+00	-5.962781e+01
1.580000e-06	-1.240420e-06	-8.081394e-10	-8.625431e+00	-5.884959e+01
1.590000e-06	-1.194708e-06	-7.964871e-10	-8.307570e+00	-5.805668e+01
1.600000e-06	-1.148915e-06	-7.820086e-10	-7.989139e+00	-5.724898e+01
1.610000e-06	-1.102999e-06	-7.639155e-10	-7.669858e+00	-5.642630e+01
1.620000e-06	-1.057001e-06	-7.472947e-10	-7.350005e+00	-5.558837e+01
1.630000e-06	-1.010902e-06	-7.344375e-10	-7.029447e+00	-5.473483e+01
1.640000e-06	-9.647430e-07	-7.245251e-10	-6.708475e+00	-5.386520e+01
1.650000e-06	-9.185776e-07	-7.142192e-10	-6.387457e+00	-5.297890e+01
1.660000e-06	-8.723476e-07	-7.034181e-10	-6.065991e+00	-5.207523e+01
1.670000e-06	-8.260318e-07	-6.907791e-10	-5.743927e+00	-5.115337e+01
1.680000e-06	-7.796719e-07	-6.755643e-10	-5.421557e+00	-5.021237e+01
1.690000e-06	-7.333097e-07	-6.591474e-10	-5.099171e+00	-4.925115e+01
1.700000e-06	-6.868773e-07	-6.415481e-10	-4.776298e+00	-4.826854e+01
1.710000e-06	-6.403475e-07	-6.224031e-10	-4.452746e+00	-4.726323e+01
1.720000e-06	-5.938196e-07	-6.027777e-10	-4.129208e+00	-4.623383e+01
1.730000e-06	-5.472529e-07	-5.828735e-10	-3.805399e+00	-4.517885e+01
1.740000e-06	-5.006323e-07	-5.651353e-10	-3.481217e+00	-4.409674e+01
1.750000e-06	-4.540104e-07	-5.521142e-10	-3.157025e+00	-4.298587e+01
1.760000e-06	-4.073668e-07	-5.381708e-10	-2.832682e+00	-4.184459e+01
1.770000e-06	-3.606778e-07	-5.197096e-10	-2.508023e+00	-4.067124e+01
1.780000e-06	-3.139753e-07	-5.005370e-10	-2.183271e+00	-3.946416e+01
1.790000e-06	-2.672593e-07	-4.822730e-10	-1.858425e+00	-3.822174e+01
1.800000e-06	-2.204612e-07	-4.637322e-10	-1.533007e+00	-3.694239e+01
1.810000e-06	-1.735806e-07	-4.454637e-10	-1.207017e+00	-3.562466e+01
1.820000e-06	-1.267425e-07	-4.266019e-10	-8.813220e-01	-3.426717e+01
1.830000e-06	-7.997329e-08	-4.062347e-10	-5.561055e-01	-3.286869e+01
1.840000e-06	-3.319970e-08	-3.870032e-10	-2.308587e-01	-3.142816e+01
1.850000e-06	1.360172e-08	-3.687158e-10	9.458146e-02	-2.994471e+01
1.860000e-06	6.043094e-08	-3.497295e-10	4.202150e-01	-2.841767e+01
1.870000e-06	1.071406e-07	-3.299957e-10	7.450172e-01	-2.684661e+01
1.880000e-06	1.537585e-07	-3.096867e-10	1.069181e+00	-2.523133e+01
1.890000e-06	2.004576e-07	-2.876467e-10	1.393910e+00	-2.357192e+01
1.900000e-06	2.471512e-07	-2.623028e-10	1.718601e+00	-2.186872e+01
1.910000e-06	2.938766e-07	-2.357918e-10	2.043512e+00	-2.012238e+01
1.920000e-06	3.405979e-07	-2.096563e-10	2.368395e+00	-1.833380e+01
1.930000e-06	3.872970e-07	-1.842139e-10	2.693124e+00	-1.650422e+01
1.940000e-06	4.339703e-07	-1.586262e-10	3.017673e+00	-1.463513e+01
1.950000e-06	4.805166e-07	-1.335555e-10	3.341339e+00	-1.272831e+01
1.960000e-06	5.270204e-07	-1.094783e-10	3.664710e+00	-1.078582e+01
1.970000e-06	5.734884e-07	-8.455630e-11	3.987832e+00	-8.809972e+00
1.980000e-06	6.199226e-07	-5.766700e-11	4.310718e+00	-6.803327e+00
1.990000e-06	6.663617e-07	-2.876471e-11	4.633639e+00	-4.768660e+00
2.000000e-06	7.127591e-07	1.578488e-12	4.956270e+00	-2.708948e+00
2.010000e-06	7.591196e-07	3.167596e-11	5.278644e+00	-6.273415e-01
2.020000e-06	8.054903e-07	6.181044e-11	5.601089e+00	1.472862e+00
2.030000e-06	8.518292e-07	9.321936e-11	5.923313e+00	3.588248e+00
2.040000e-06	8.979998e-07	1.247837e-10	6.244367e+00	5.715315e+00
2.050000e-06	9.440030e-07	1.530778e-10	6.564257e+00	7.850505e+00
2.060000e-06	9.899771e-07	1.784455e-10	6.883944e+00	9.990234e+00
2.070000e-06	1.035952e-06	2.044503e-10	7.203634e+00	1.213093e+01
2.080000e-06	1.081842e-06	2.322396e-10	7.522742e+00	1.426904e+01
2.090000e-06	1.127631e-06	2.612816e-10	7.841136e+00	1.640110e+01
2.100000e-06	1.173320e-06	2.924939e-10	8.158844e+00	1.852373e+01
2.110000e-06	1.218957e-06	3.249947e-10	8.476190e+00	2.063367e+01
2.120000e-06	1.264541e-06	3.560589e-10	8.793160e+00	2.272779e+01
2.130000e-06	1.309963e-06	3.859892e-10	9.109008e+00	2.480315e+01
2.140000e-06	1.355304e-06	4.148675e-10	9.424298e+00	2.685696e+01
2.150000e-06	1.400604e-06	4.408774e-10	9.739298e+00	2.888667e+01
2.160000e-06	1.445792e-06	4.653975e-10	1.005352e+01	3.088991e+01
2.170000e-06	1.490864e-06	4.897541e-10	1.036693e+01	3.286453e+01
2.180000e-06	1.535877e-06	5.152005e-10	1.067994e+01	3.480862e+01
2.190000e-06	1.580779e-06	5.423979e-10	1.099217e+01	3.672049e+01
2.200000e-06	1.625469e-06	5.708041e-10	1.130292e+01	3.859867e+01
2.210000e-06	1.669947e-06	5.998175e-10	1.161221e+01	4.044192e+01
2.220000e-06	1.714318e-06	6.274464e-10	1.192075e+01	4.224924e+01
2.230000e-06	1.758648e-06	6.539824e-10	1.222900e+01	4.401980e+01
2.240000e-06	1.802836e-06	6.787410e-10	1.253627e+01	4.575301e+01
2.250000e-06	1.846904e-06	7.003205e-10	1.284270e+01	4.744844e+01
2.260000e-06	1.890938e-06	7.186835e-10	1.314890e+01	4.910584e+01
2.270000e-06	1.934910e-06	7.366540e-10	1.345467e+01	5.072513e+01
2.280000e-06	1.978812e-06	7.564156e-10	1.375995e+01	5.230636e+01
2.290000e-06	2.022663e-06	7.770201e-10	1.406487e+01	5.384972e+01
2.300000e-06	2.066489e-06	7.980983e-10	1.436962e+01	5.535550e+01
2.310000e-06	2.110275e-06	8.205745e-10	1.467409e+01	5.682408e+01
2.320000e-06	2.153940e-06	8.422465e-10	1.497772e+01	5.825594e+01
2.330000e-06	2.197453e-06	8.603426e-10	1.528030e+01	5.965159e+01
2.340000e-06	2.240850e-06	8.754658e-10	1.558206e+01	6.101162e+01
2.350000e-06	2.284111e-06	8.898840e-10	1.588288e+01	6.233663e+01
2.360000e-06	2.327115e-06	9.039065e-10	1.618192e+01	6.362727e+01
2.370000e-06	2.369800e-06	9.195438e-10	1.647874e+01	6.488419e+01
2.380000e-06	2.412174e-06	9.377797e-10	1.677339e+01	6.610803e+01
2.390000e-06	2.454176e-06	9.556126e-10	1.706546e+01	6.729947e+01
2.400000e-06	2.495805e-06	9.721069e-10	1.735493e+01	6.845913e+01
2.410000e-06	2.537136e-06	9.881181e-10	1.764233e+01	6.958766e+01
2.420000e-06	2.578235e-06	1.002853e-09	1.792812e+01	7.068568e+01
2.430000e-06	2.619187e-06	1.016235e-09	1.821288e+01	7.175380e+01
2.440000e-06	2.659953e-06	1.029503e-09	1.849635e+01	7.279259e+01
2.450000e-06	2.700480e-06	1.043092e-09	1.877816e+01	7.380265e+01
2.460000e-06	2.740767e-06	1.058017e-09	1.905830e+01	7.478453e+01
2.470000e-06	2.780862e-06	1.072500e-09	1.933711e+01	7.573878e+01
2.480000e-06	2.820847e-06	1.085819e-09	1.961515e+01	7.666594e+01
2.490000e-06	2.860753e-06	1.098303e-09	1.989264e+01	7.756656e+01
2.500000e-06	2.900540e-06	1.107542e-09	2.016931e+01	7.844118e+01
2.510000e-06	2.940090e-06	1.116186e-09	2.044433e+01	7.929032e+01
2.520000e-06	2.979473e-06	1.128935e-09	2.071818e+01	8.011454e+01
2.530000e-06	3.018744e-06	1.144032e-09	2.099126e+01	8.091438e+01
2.540000e-06	3.057796e-06	1.159785e-09	2.126282e+01	8.169041e+01
2.550000e-06	3.096599e-06	1.174012e-09	2.153263e+01	8.244320e+01
2.560000e-06	3.135150e-06	1.184428e-09	2.180070e+01	8.317331e+01
2.570000e-06	3.173448e-06	1.191261e-09	2.206702e+01	8.388135e+01
2.580000e-06	3.211447e-06	1.195916e-09	2.233125e+01	8.456791e+01
2.590000e-06	3.249194e-06	1.200970e-09	2.259373e+01	8.523361e+01
2.600000e-06	3.286771e-06	1.209619e-09	2.285502e+01	8.587905e+01
2.610000e-06	3.324114e-06	1.223593e-09	2.311469e+01	8.650485e+01
2.620000e-06	3.361258e-06	1.239564e-09	2.337298e+01	8.711163e+01
2.630000e-06	3.398185e-06	1.253002e-09	2.362975e+01	8.770001e+01
2.640000e-06	3.434871e-06	1.262164e-09	2.388486e+01	8.827059e+01
2.650000e-06	3.471312e-06	1.267793e-09	2.413825e+01	8.882396e+01
2.660000e-06	3.507478e-06	1.270605e-09	2.438974e+01	8.936070e+01
2.670000e-06	3.543479e-06	1.273426e-09	2.464008e+01	8.988137e+01
2.680000e-06	3.579376e-06	1.277647e-09	2.488969e+01	9.038650e+01
2.690000e-06	3.615183e-06	1.284422e-09	2.513868e+01	9.087660e+01
2.700000e-06	3.650893e-06	1.294805e-09	2.538699e+01	9.135214e+01
2.710000e-06	3.686397e-06	1.304867e-09	2.563387e+01	9.181357e+01
2.720000e-06	3.721632e-06	1.311146e-09	2.587889e+01	9.226130e+01
2.730000e-06	3.756500e-06	1.314624e-09	2.612135e+01	9.269571e+01
2.740000e-06	3.790886e-06	1.316629e-09	2.636046e+01	9.311714e+01
2.750000e-06	3.824871e-06	1.318960e-09	2.659677e+01	9.352589e+01
2.760000e-06	3.858436e-06	1.324516e-09	2.683017e+01	9.392225e+01
2.770000e-06	3.891523e-06	1.332504e-09	2.706025e+01	9.430646e+01
2.780000e-06	3.924167e-06	1.342650e-09	2.728724e+01	9.467875e+01
2.790000e-06	3.956529e-06	1.350656e-09	2.751228e+01	9.503931e+01
2.800000e-06	3.988692e-06	1.356482e-09	2.773593e+01	9.538833e+01
2.810000e-06	4.020663e-06	1.361771e-09	2.795824e+01	9.572598e+01
2.820000e-06	4.052478e-06	1.366191e-09	2.817947e+01	9.605241e+01
2.830000e-06	4.084086e-06	1.371027e-09	2.839926e+01	9.636779e+01
2.840000e-06	4.115525e-06	1.377285e-09	2.861788e+01	9.667226e+01
2.850000e-06	4.146772e-06	1.384109e-09	2.883516e+01	9.696600e+01
2.860000e-06	4.177640e-06	1.389821e-09	2.904981e+01	9.724918e+01
2.870000e-06	4.208097e-06	1.397278e-09	2.926159e+01	9.752200e+01
2.880000e-06	4.238237e-06	1.404581e-09	2.947117e+01	9.778466e+01
2.890000e-06	4.268094e-06	1.409357e-09	2.967878e+01	9.803739e+01
2.900000e-06	4.297720e-06	1.412647e-09	2.988479e+01	9.828046e+01
