# Temperatura_=_-11.1
# Concentracion g/m^3_=_1620.0
# C_Vs_to_Am_M_A/Vsm_=_65563218390.804596
# pendiente_HvsI_1/m_=_3716.3
# ordenada_HvsI_A/m_=_1297.0
# frecuencia_Hz_=_135105.567149645

Tiempo_(s)	Campo_(V.s)	Magnetizacion_(V.s)	Campo_(kA/m)	Magnetizacion_(A/m)
0.000000e+00	-5.522443e-06	-1.301011e-09	-3.837493e+01	-8.496633e+01
1.000000e-08	-5.522518e-06	-1.296519e-09	-3.837545e+01	-8.490782e+01
2.000000e-08	-5.522360e-06	-1.298419e-09	-3.837436e+01	-8.485187e+01
3.000000e-08	-5.521878e-06	-1.303158e-09	-3.837101e+01	-8.479909e+01
4.000000e-08	-5.520943e-06	-1.305309e-09	-3.836451e+01	-8.475003e+01
5.000000e-08	-5.519404e-06	-1.296763e-09	-3.835381e+01	-8.470518e+01
6.000000e-08	-5.517236e-06	-1.281707e-09	-3.833874e+01	-8.466499e+01
7.000000e-08	-5.514519e-06	-1.283105e-09	-3.831986e+01	-8.462978e+01
8.000000e-08	-5.511237e-06	-1.319976e-09	-3.829706e+01	-8.459984e+01
9.000000e-08	-5.507404e-06	-1.331033e-09	-3.827042e+01	-8.457531e+01
1.000000e-07	-5.503189e-06	-1.298197e-09	-3.824114e+01	-8.455626e+01
1.100000e-07	-5.498770e-06	-1.275013e-09	-3.821043e+01	-8.454263e+01
1.200000e-07	-5.494138e-06	-1.284858e-09	-3.817824e+01	-8.453427e+01
1.300000e-07	-5.489207e-06	-1.292879e-09	-3.814398e+01	-8.453089e+01
1.400000e-07	-5.483926e-06	-1.282581e-09	-3.810728e+01	-8.453212e+01
1.500000e-07	-5.478231e-06	-1.273998e-09	-3.806770e+01	-8.453745e+01
1.600000e-07	-5.472145e-06	-1.309100e-09	-3.802541e+01	-8.454631e+01
1.700000e-07	-5.465621e-06	-1.297720e-09	-3.798008e+01	-8.455801e+01
1.800000e-07	-5.458636e-06	-1.294150e-09	-3.793154e+01	-8.457177e+01
1.900000e-07	-5.451327e-06	-1.288847e-09	-3.788075e+01	-8.458678e+01
2.000000e-07	-5.443756e-06	-1.312092e-09	-3.782814e+01	-8.460215e+01
2.100000e-07	-5.435924e-06	-1.309971e-09	-3.777372e+01	-8.461694e+01
2.200000e-07	-5.427868e-06	-1.323891e-09	-3.771774e+01	-8.463022e+01
2.300000e-07	-5.419546e-06	-1.338583e-09	-3.765991e+01	-8.464101e+01
2.400000e-07	-5.410742e-06	-1.344834e-09	-3.759873e+01	-8.464838e+01
2.500000e-07	-5.401185e-06	-1.337969e-09	-3.753232e+01	-8.465141e+01
2.600000e-07	-5.390909e-06	-1.324652e-09	-3.746091e+01	-8.464921e+01
2.700000e-07	-5.380105e-06	-1.326039e-09	-3.738584e+01	-8.464099e+01
2.800000e-07	-5.368860e-06	-1.327768e-09	-3.730769e+01	-8.462599e+01
2.900000e-07	-5.357183e-06	-1.337382e-09	-3.722655e+01	-8.460356e+01
3.000000e-07	-5.345099e-06	-1.319273e-09	-3.714258e+01	-8.457315e+01
3.100000e-07	-5.332617e-06	-1.321904e-09	-3.705585e+01	-8.453432e+01
3.200000e-07	-5.319682e-06	-1.320512e-09	-3.696596e+01	-8.448674e+01
3.300000e-07	-5.306363e-06	-1.332288e-09	-3.687341e+01	-8.443021e+01
3.400000e-07	-5.292781e-06	-1.299335e-09	-3.677903e+01	-8.436465e+01
3.500000e-07	-5.278803e-06	-1.298683e-09	-3.668189e+01	-8.429012e+01
3.600000e-07	-5.264247e-06	-1.311626e-09	-3.658075e+01	-8.420678e+01
3.700000e-07	-5.249178e-06	-1.314895e-09	-3.647603e+01	-8.411493e+01
3.800000e-07	-5.233577e-06	-1.289116e-09	-3.636762e+01	-8.401498e+01
3.900000e-07	-5.217448e-06	-1.311858e-09	-3.625555e+01	-8.390742e+01
4.000000e-07	-5.200872e-06	-1.313618e-09	-3.614036e+01	-8.379288e+01
4.100000e-07	-5.183881e-06	-1.273079e-09	-3.602230e+01	-8.367201e+01
4.200000e-07	-5.166598e-06	-1.269330e-09	-3.590220e+01	-8.354559e+01
4.300000e-07	-5.149090e-06	-1.313162e-09	-3.578053e+01	-8.341439e+01
4.400000e-07	-5.131313e-06	-1.290458e-09	-3.565700e+01	-8.327926e+01
4.500000e-07	-5.113225e-06	-1.265471e-09	-3.553131e+01	-8.314104e+01
4.600000e-07	-5.094685e-06	-1.303806e-09	-3.540248e+01	-8.300058e+01
4.700000e-07	-5.075680e-06	-1.304344e-09	-3.527041e+01	-8.285872e+01
4.800000e-07	-5.056347e-06	-1.257352e-09	-3.513607e+01	-8.271626e+01
4.900000e-07	-5.036764e-06	-1.277069e-09	-3.499999e+01	-8.257396e+01
5.000000e-07	-5.016939e-06	-1.296949e-09	-3.486223e+01	-8.243250e+01
5.100000e-07	-4.996815e-06	-1.242357e-09	-3.472239e+01	-8.229253e+01
5.200000e-07	-4.976338e-06	-1.242747e-09	-3.458010e+01	-8.215457e+01
5.300000e-07	-4.955499e-06	-1.295571e-09	-3.443529e+01	-8.201909e+01
5.400000e-07	-4.934372e-06	-1.272943e-09	-3.428848e+01	-8.188642e+01
5.500000e-07	-4.912974e-06	-1.241861e-09	-3.413979e+01	-8.175683e+01
5.600000e-07	-4.891217e-06	-1.281493e-09	-3.398860e+01	-8.163046e+01
5.700000e-07	-4.869084e-06	-1.272338e-09	-3.383480e+01	-8.150736e+01
5.800000e-07	-4.846602e-06	-1.231230e-09	-3.367858e+01	-8.138747e+01
5.900000e-07	-4.823787e-06	-1.251460e-09	-3.352004e+01	-8.127064e+01
6.000000e-07	-4.800628e-06	-1.269818e-09	-3.335910e+01	-8.115664e+01
6.100000e-07	-4.777239e-06	-1.231660e-09	-3.319657e+01	-8.104514e+01
6.200000e-07	-4.753609e-06	-1.238592e-09	-3.303237e+01	-8.093575e+01
6.300000e-07	-4.729727e-06	-1.257748e-09	-3.286642e+01	-8.082803e+01
6.400000e-07	-4.705646e-06	-1.235666e-09	-3.269908e+01	-8.072146e+01
6.500000e-07	-4.681243e-06	-1.226357e-09	-3.252951e+01	-8.061552e+01
6.600000e-07	-4.656355e-06	-1.247944e-09	-3.235656e+01	-8.050965e+01
6.700000e-07	-4.630939e-06	-1.233385e-09	-3.217995e+01	-8.040328e+01
6.800000e-07	-4.604958e-06	-1.221982e-09	-3.199941e+01	-8.029586e+01
6.900000e-07	-4.578329e-06	-1.230889e-09	-3.181437e+01	-8.018682e+01
7.000000e-07	-4.551213e-06	-1.224846e-09	-3.162594e+01	-8.007566e+01
7.100000e-07	-4.523817e-06	-1.209800e-09	-3.143557e+01	-7.996188e+01
7.200000e-07	-4.496218e-06	-1.221305e-09	-3.124379e+01	-7.984505e+01
7.300000e-07	-4.468444e-06	-1.224681e-09	-3.105079e+01	-7.972478e+01
7.400000e-07	-4.440507e-06	-1.215867e-09	-3.085666e+01	-7.960075e+01
7.500000e-07	-4.412303e-06	-1.214386e-09	-3.066067e+01	-7.947270e+01
7.600000e-07	-4.383809e-06	-1.212968e-09	-3.046267e+01	-7.934042e+01
7.700000e-07	-4.355003e-06	-1.202625e-09	-3.026250e+01	-7.920379e+01
7.800000e-07	-4.325848e-06	-1.201819e-09	-3.005990e+01	-7.906273e+01
7.900000e-07	-4.296405e-06	-1.205393e-09	-2.985531e+01	-7.891726e+01
8.000000e-07	-4.266724e-06	-1.199110e-09	-2.964906e+01	-7.876741e+01
8.100000e-07	-4.236836e-06	-1.195458e-09	-2.944137e+01	-7.861331e+01
8.200000e-07	-4.206652e-06	-1.196811e-09	-2.923162e+01	-7.845510e+01
8.300000e-07	-4.176107e-06	-1.192020e-09	-2.901937e+01	-7.829299e+01
8.400000e-07	-4.145171e-06	-1.183290e-09	-2.880440e+01	-7.812719e+01
8.500000e-07	-4.113917e-06	-1.186647e-09	-2.858721e+01	-7.795796e+01
8.600000e-07	-4.082495e-06	-1.186550e-09	-2.836887e+01	-7.778557e+01
8.700000e-07	-4.050887e-06	-1.178710e-09	-2.814923e+01	-7.761028e+01
8.800000e-07	-4.019080e-06	-1.174972e-09	-2.792820e+01	-7.743236e+01
8.900000e-07	-3.987112e-06	-1.175560e-09	-2.770606e+01	-7.725207e+01
9.000000e-07	-3.954969e-06	-1.164008e-09	-2.748270e+01	-7.706966e+01
9.100000e-07	-3.922429e-06	-1.155324e-09	-2.725658e+01	-7.688534e+01
9.200000e-07	-3.889448e-06	-1.152918e-09	-2.702740e+01	-7.669930e+01
9.300000e-07	-3.856144e-06	-1.149182e-09	-2.679597e+01	-7.651171e+01
9.400000e-07	-3.822403e-06	-1.143165e-09	-2.656151e+01	-7.632269e+01
9.500000e-07	-3.788117e-06	-1.146807e-09	-2.632326e+01	-7.613233e+01
9.600000e-07	-3.753371e-06	-1.144471e-09	-2.608182e+01	-7.594069e+01
9.700000e-07	-3.718391e-06	-1.135609e-09	-2.583874e+01	-7.574779e+01
9.800000e-07	-3.683174e-06	-1.130016e-09	-2.559403e+01	-7.555362e+01
9.900000e-07	-3.647716e-06	-1.128546e-09	-2.534763e+01	-7.535814e+01
1.000000e-06	-3.612093e-06	-1.119971e-09	-2.510009e+01	-7.516129e+01
1.010000e-06	-3.576330e-06	-1.114177e-09	-2.485158e+01	-7.496298e+01
1.020000e-06	-3.540413e-06	-1.116128e-09	-2.460199e+01	-7.476311e+01
1.030000e-06	-3.504264e-06	-1.117586e-09	-2.435080e+01	-7.456158e+01
1.040000e-06	-3.467869e-06	-1.115298e-09	-2.409789e+01	-7.435826e+01
1.050000e-06	-3.431249e-06	-1.114981e-09	-2.384342e+01	-7.415306e+01
1.060000e-06	-3.394383e-06	-1.109657e-09	-2.358724e+01	-7.394585e+01
1.070000e-06	-3.357241e-06	-1.097044e-09	-2.332915e+01	-7.373655e+01
1.080000e-06	-3.319811e-06	-1.089325e-09	-2.306905e+01	-7.352507e+01
1.090000e-06	-3.282104e-06	-1.085729e-09	-2.280703e+01	-7.331135e+01
1.100000e-06	-3.244206e-06	-1.080283e-09	-2.254368e+01	-7.309533e+01
1.110000e-06	-3.206090e-06	-1.076489e-09	-2.227882e+01	-7.287700e+01
1.120000e-06	-3.167702e-06	-1.075376e-09	-2.201206e+01	-7.265634e+01
1.130000e-06	-3.129089e-06	-1.068754e-09	-2.174374e+01	-7.243336e+01
1.140000e-06	-3.090376e-06	-1.061017e-09	-2.147473e+01	-7.220808e+01
1.150000e-06	-3.051500e-06	-1.058575e-09	-2.120458e+01	-7.198053e+01
1.160000e-06	-3.012379e-06	-1.057544e-09	-2.093273e+01	-7.175076e+01
1.170000e-06	-2.973106e-06	-1.052503e-09	-2.065983e+01	-7.151878e+01
1.180000e-06	-2.933638e-06	-1.048435e-09	-2.038557e+01	-7.128465e+01
1.190000e-06	-2.893973e-06	-1.043292e-09	-2.010994e+01	-7.104836e+01
1.200000e-06	-2.854157e-06	-1.035686e-09	-1.983326e+01	-7.080992e+01
1.210000e-06	-2.814204e-06	-1.026377e-09	-1.955563e+01	-7.056930e+01
1.220000e-06	-2.774179e-06	-1.019352e-09	-1.927750e+01	-7.032642e+01
1.230000e-06	-2.734000e-06	-1.011250e-09	-1.899830e+01	-7.008119e+01
1.240000e-06	-2.693640e-06	-1.004658e-09	-1.871785e+01	-6.983343e+01
1.250000e-06	-2.653072e-06	-1.002125e-09	-1.843594e+01	-6.958293e+01
1.260000e-06	-2.612186e-06	-1.002035e-09	-1.815183e+01	-6.932945e+01
1.270000e-06	-2.571068e-06	-9.984441e-10	-1.786610e+01	-6.907263e+01
1.280000e-06	-2.529645e-06	-9.930169e-10	-1.757826e+01	-6.881211e+01
1.290000e-06	-2.487871e-06	-9.867023e-10	-1.728798e+01	-6.854743e+01
1.300000e-06	-2.445826e-06	-9.776165e-10	-1.699581e+01	-6.827808e+01
1.310000e-06	-2.403489e-06	-9.679411e-10	-1.670162e+01	-6.800351e+01
1.320000e-06	-2.360895e-06	-9.606350e-10	-1.640563e+01	-6.772309e+01
1.330000e-06	-2.318111e-06	-9.558815e-10	-1.610833e+01	-6.743618e+01
1.340000e-06	-2.275108e-06	-9.547008e-10	-1.580951e+01	-6.714208e+01
1.350000e-06	-2.231784e-06	-9.560368e-10	-1.550846e+01	-6.684007e+01
1.360000e-06	-2.188295e-06	-9.569353e-10	-1.520625e+01	-6.652942e+01
1.370000e-06	-2.144778e-06	-9.533648e-10	-1.490386e+01	-6.620938e+01
1.380000e-06	-2.101141e-06	-9.445612e-10	-1.460063e+01	-6.587922e+01
1.390000e-06	-2.057348e-06	-9.318930e-10	-1.429631e+01	-6.553823e+01
1.400000e-06	-2.013482e-06	-9.173525e-10	-1.399149e+01	-6.518572e+01
1.410000e-06	-1.969550e-06	-9.050343e-10	-1.368622e+01	-6.482104e+01
1.420000e-06	-1.925490e-06	-8.978046e-10	-1.338005e+01	-6.444360e+01
1.430000e-06	-1.881361e-06	-8.964822e-10	-1.307340e+01	-6.405288e+01
1.440000e-06	-1.837230e-06	-8.956607e-10	-1.276674e+01	-6.364841e+01
1.450000e-06	-1.792994e-06	-8.931171e-10	-1.245934e+01	-6.322982e+01
1.460000e-06	-1.748551e-06	-8.872592e-10	-1.215052e+01	-6.279680e+01
1.470000e-06	-1.703985e-06	-8.769288e-10	-1.184083e+01	-6.234914e+01
1.480000e-06	-1.659304e-06	-8.644521e-10	-1.153034e+01	-6.188672e+01
1.490000e-06	-1.614438e-06	-8.525402e-10	-1.121858e+01	-6.140950e+01
1.500000e-06	-1.569525e-06	-8.404214e-10	-1.090648e+01	-6.091752e+01
1.510000e-06	-1.524604e-06	-8.315433e-10	-1.059433e+01	-6.041090e+01
1.520000e-06	-1.479524e-06	-8.270467e-10	-1.028107e+01	-5.988982e+01
1.530000e-06	-1.434302e-06	-8.233375e-10	-9.966824e+00	-5.935451e+01
1.540000e-06	-1.388987e-06	-8.180025e-10	-9.651936e+00	-5.880526e+01
1.550000e-06	-1.343576e-06	-8.068099e-10	-9.336380e+00	-5.824236e+01
1.560000e-06	-1.297979e-06	-7.900922e-10	-9.019532e+00	-5.766615e+01
1.570000e-06	-1.252266e-06	-7.726759e-10	-8.701880e+00	-5.707692e+01
1.580000e-06	-1.206531e-06	-7.596483e-10	-8.384066e+00	-5.647496e+01
1.590000e-06	-1.160739e-06	-7.516057e-10	-8.065862e+00	-5.586051e+01
1.600000e-06	-1.114890e-06	-7.447065e-10	-7.747266e+00	-5.523374e+01
1.610000e-06	-1.068880e-06	-7.389988e-10	-7.427545e+00	-5.459475e+01
1.620000e-06	-1.022720e-06	-7.322807e-10	-7.106786e+00	-5.394352e+01
1.630000e-06	-9.765716e-07	-7.233730e-10	-6.786103e+00	-5.327994e+01
1.640000e-06	-9.304536e-07	-7.122317e-10	-6.465633e+00	-5.260375e+01
1.650000e-06	-8.841985e-07	-6.998324e-10	-6.144211e+00	-5.191454e+01
1.660000e-06	-8.378536e-07	-6.874799e-10	-5.822165e+00	-5.121177e+01
1.670000e-06	-7.915191e-07	-6.761443e-10	-5.500190e+00	-5.049471e+01
1.680000e-06	-7.451329e-07	-6.664770e-10	-5.177858e+00	-4.976250e+01
1.690000e-06	-6.986545e-07	-6.578729e-10	-4.854883e+00	-4.901408e+01
1.700000e-06	-6.521392e-07	-6.458227e-10	-4.531653e+00	-4.824826e+01
1.710000e-06	-6.057015e-07	-6.303138e-10	-4.208962e+00	-4.746366e+01
1.720000e-06	-5.591593e-07	-6.128982e-10	-3.885544e+00	-4.665878e+01
1.730000e-06	-5.124834e-07	-5.956565e-10	-3.561198e+00	-4.583198e+01
1.740000e-06	-4.657726e-07	-5.813544e-10	-3.236610e+00	-4.498151e+01
1.750000e-06	-4.190073e-07	-5.701674e-10	-2.911642e+00	-4.410551e+01
1.760000e-06	-3.722227e-07	-5.602796e-10	-2.586540e+00	-4.320207e+01
1.770000e-06	-3.254939e-07	-5.475261e-10	-2.261826e+00	-4.226922e+01
1.780000e-06	-2.787818e-07	-5.325722e-10	-1.937228e+00	-4.130498e+01
1.790000e-06	-2.319568e-07	-5.176430e-10	-1.611846e+00	-4.030737e+01
1.800000e-06	-1.851491e-07	-5.028733e-10	-1.286583e+00	-3.927445e+01
1.810000e-06	-1.383965e-07	-4.863227e-10	-9.617039e-01	-3.820438e+01
1.820000e-06	-9.166125e-08	-4.690147e-10	-6.369452e-01	-3.709539e+01
1.830000e-06	-4.490865e-08	-4.524933e-10	-3.120660e-01	-3.594587e+01
1.840000e-06	1.957222e-09	-4.372334e-10	1.360055e-02	-3.475435e+01
1.850000e-06	4.884781e-08	-4.223977e-10	3.394388e-01	-3.351958e+01
1.860000e-06	9.570973e-08	-4.080093e-10	6.650777e-01	-3.224052e+01
1.870000e-06	1.425523e-07	-3.930227e-10	9.905822e-01	-3.091636e+01
1.880000e-06	1.893457e-07	-3.752719e-10	1.315745e+00	-2.954656e+01
1.890000e-06	2.361236e-07	-3.531453e-10	1.640801e+00	-2.813087e+01
1.900000e-06	2.829015e-07	-3.284410e-10	1.965856e+00	-2.666933e+01
1.910000e-06	3.297237e-07	-3.047259e-10	2.291219e+00	-2.516226e+01
1.920000e-06	3.765742e-07	-2.829495e-10	2.616778e+00	-2.361032e+01
1.930000e-06	4.233432e-07	-2.619824e-10	2.941771e+00	-2.201446e+01
1.940000e-06	4.700589e-07	-2.424257e-10	3.266395e+00	-2.037594e+01
1.950000e-06	5.168126e-07	-2.242324e-10	3.591281e+00	-1.869633e+01
1.960000e-06	5.634447e-07	-2.047979e-10	3.915323e+00	-1.697748e+01
1.970000e-06	6.098865e-07	-1.824380e-10	4.238043e+00	-1.522149e+01
1.980000e-06	6.562988e-07	-1.577112e-10	4.560558e+00	-1.343076e+01
1.990000e-06	7.027159e-07	-1.307702e-10	4.883106e+00	-1.160788e+01
2.000000e-06	7.490885e-07	-1.019997e-10	5.205344e+00	-9.755661e+00
2.010000e-06	7.954768e-07	-7.455907e-11	5.527692e+00	-7.877102e+00
2.020000e-06	8.418198e-07	-4.778044e-11	5.849725e+00	-5.975342e+00
2.030000e-06	8.880412e-07	-2.094294e-11	6.170914e+00	-4.053643e+00
2.040000e-06	9.342198e-07	3.978491e-12	6.491804e+00	-2.115355e+00
2.050000e-06	9.803041e-07	2.828446e-11	6.812040e+00	-1.638868e-01
2.060000e-06	1.026375e-06	5.415167e-11	7.132182e+00	1.797330e+00
2.070000e-06	1.072401e-06	8.165271e-11	7.452012e+00	3.764867e+00
2.080000e-06	1.118317e-06	1.089441e-10	7.771075e+00	5.735331e+00
2.090000e-06	1.164122e-06	1.371467e-10	8.089376e+00	7.705394e+00
2.100000e-06	1.209878e-06	1.655064e-10	8.407328e+00	9.671814e+00
2.110000e-06	1.255626e-06	1.919193e-10	8.725226e+00	1.163146e+01
2.120000e-06	1.301266e-06	2.182549e-10	9.042376e+00	1.358135e+01
2.130000e-06	1.346838e-06	2.449041e-10	9.359048e+00	1.551862e+01
2.140000e-06	1.392320e-06	2.712050e-10	9.675097e+00	1.744062e+01
2.150000e-06	1.437601e-06	2.954165e-10	9.989749e+00	1.934483e+01
2.160000e-06	1.482673e-06	3.179973e-10	1.030296e+01	2.122896e+01
2.170000e-06	1.527675e-06	3.408288e-10	1.061567e+01	2.309089e+01
2.180000e-06	1.572596e-06	3.661315e-10	1.092782e+01	2.492869e+01
2.190000e-06	1.617363e-06	3.927525e-10	1.123890e+01	2.674065e+01
2.200000e-06	1.661971e-06	4.199850e-10	1.154888e+01	2.852523e+01
2.210000e-06	1.706444e-06	4.483264e-10	1.185791e+01	3.028110e+01
2.220000e-06	1.750801e-06	4.748890e-10	1.216615e+01	3.200710e+01
2.230000e-06	1.795030e-06	4.979662e-10	1.247349e+01	3.370222e+01
2.240000e-06	1.839171e-06	5.163902e-10	1.278022e+01	3.536565e+01
2.250000e-06	1.883199e-06	5.317498e-10	1.308617e+01	3.699670e+01
2.260000e-06	1.927142e-06	5.489418e-10	1.339152e+01	3.859482e+01
2.270000e-06	1.971043e-06	5.695835e-10	1.369659e+01	4.015959e+01
2.280000e-06	2.014919e-06	5.922533e-10	1.400148e+01	4.169069e+01
2.290000e-06	2.058758e-06	6.150664e-10	1.430611e+01	4.318790e+01
2.300000e-06	2.102482e-06	6.379249e-10	1.460994e+01	4.465109e+01
2.310000e-06	2.146152e-06	6.588642e-10	1.491341e+01	4.608020e+01
2.320000e-06	2.189785e-06	6.758276e-10	1.521661e+01	4.747521e+01
2.330000e-06	2.233269e-06	6.901070e-10	1.551877e+01	4.883618e+01
2.340000e-06	2.276618e-06	7.040188e-10	1.582000e+01	5.016319e+01
2.350000e-06	2.319741e-06	7.197065e-10	1.611966e+01	5.145637e+01
2.360000e-06	2.362575e-06	7.365946e-10	1.641731e+01	5.271588e+01
2.370000e-06	2.405055e-06	7.553260e-10	1.671250e+01	5.394191e+01
2.380000e-06	2.447217e-06	7.753211e-10	1.700548e+01	5.513465e+01
2.390000e-06	2.489185e-06	7.929327e-10	1.729711e+01	5.629433e+01
2.400000e-06	2.530750e-06	8.066066e-10	1.758594e+01	5.742121e+01
2.410000e-06	2.571926e-06	8.189616e-10	1.787207e+01	5.851555e+01
2.420000e-06	2.612786e-06	8.312501e-10	1.815600e+01	5.957766e+01
2.430000e-06	2.653410e-06	8.446045e-10	1.843829e+01	6.060786e+01
2.440000e-06	2.693864e-06	8.607439e-10	1.871940e+01	6.160650e+01
2.450000e-06	2.734076e-06	8.772557e-10	1.899883e+01	6.257395e+01
2.460000e-06	2.774115e-06	8.927470e-10	1.927706e+01	6.351065e+01
2.470000e-06	2.814052e-06	9.056479e-10	1.955458e+01	6.441705e+01
2.480000e-06	2.853899e-06	9.161594e-10	1.983147e+01	6.529363e+01
2.490000e-06	2.893673e-06	9.261287e-10	2.010786e+01	6.614094e+01
2.500000e-06	2.933330e-06	9.367539e-10	2.038343e+01	6.695956e+01
2.510000e-06	2.972782e-06	9.514578e-10	2.065758e+01	6.775011e+01
2.520000e-06	3.012043e-06	9.656747e-10	2.093040e+01	6.851325e+01
2.530000e-06	3.051150e-06	9.793132e-10	2.120215e+01	6.924968e+01
2.540000e-06	3.090038e-06	9.912080e-10	2.147238e+01	6.996015e+01
2.550000e-06	3.128628e-06	9.979337e-10	2.174054e+01	7.064542e+01
2.560000e-06	3.166986e-06	1.002166e-09	2.200708e+01	7.130631e+01
2.570000e-06	3.205162e-06	1.006843e-09	2.227236e+01	7.194363e+01
2.580000e-06	3.243104e-06	1.014467e-09	2.253602e+01	7.255823e+01
2.590000e-06	3.280832e-06	1.022993e-09	2.279819e+01	7.315097e+01
2.600000e-06	3.318389e-06	1.034361e-09	2.305917e+01	7.372270e+01
2.610000e-06	3.355769e-06	1.047464e-09	2.331892e+01	7.427426e+01
2.620000e-06	3.392847e-06	1.059357e-09	2.357657e+01	7.480651e+01
2.630000e-06	3.429610e-06	1.067148e-09	2.383204e+01	7.532025e+01
2.640000e-06	3.466157e-06	1.072125e-09	2.408599e+01	7.581629e+01
2.650000e-06	3.502440e-06	1.077948e-09	2.433812e+01	7.629537e+01
2.660000e-06	3.538511e-06	1.084742e-09	2.458877e+01	7.675821e+01
2.670000e-06	3.574457e-06	1.092410e-09	2.483856e+01	7.720548e+01
2.680000e-06	3.610316e-06	1.101056e-09	2.508774e+01	7.763780e+01
2.690000e-06	3.646058e-06	1.111238e-09	2.533611e+01	7.805574e+01
2.700000e-06	3.681635e-06	1.120638e-09	2.558333e+01	7.845979e+01
2.710000e-06	3.717056e-06	1.126207e-09	2.582947e+01	7.885041e+01
2.720000e-06	3.752236e-06	1.130107e-09	2.607393e+01	7.922799e+01
2.730000e-06	3.786905e-06	1.133470e-09	2.631484e+01	7.959286e+01
2.740000e-06	3.820982e-06	1.136327e-09	2.655164e+01	7.994529e+01
2.750000e-06	3.854580e-06	1.140117e-09	2.678511e+01	8.028552e+01
2.760000e-06	3.887682e-06	1.146619e-09	2.701513e+01	8.061372e+01
2.770000e-06	3.920340e-06	1.155240e-09	2.724207e+01	8.093005e+01
2.780000e-06	3.952706e-06	1.163285e-09	2.746698e+01	8.123459e+01
2.790000e-06	3.984857e-06	1.169900e-09	2.769039e+01	8.152742e+01
2.800000e-06	4.016870e-06	1.175392e-09	2.791285e+01	8.180861e+01
2.810000e-06	4.048778e-06	1.179731e-09	2.813457e+01	8.207820e+01
2.820000e-06	4.080518e-06	1.184429e-09	2.835513e+01	8.233621e+01
2.830000e-06	4.112005e-06	1.189566e-09	2.857393e+01	8.258270e+01
2.840000e-06	4.143209e-06	1.193395e-09	2.879077e+01	8.281771e+01
2.850000e-06	4.174105e-06	1.196583e-09	2.900546e+01	8.304129e+01
2.860000e-06	4.204562e-06	1.201080e-09	2.921710e+01	8.325354e+01
2.870000e-06	4.234664e-06	1.206752e-09	2.942627e+01	8.345456e+01
2.880000e-06	4.264550e-06	1.210880e-09	2.963395e+01	8.364450e+01
2.890000e-06	4.294200e-06	1.214193e-09	2.983999e+01	8.382353e+01
2.900000e-06	4.323624e-06	1.217939e-09	3.004445e+01	8.399187e+01
