# Temperatura_=_-10.78
# Concentracion g/m^3_=_1620.0
# C_Vs_to_Am_M_A/Vsm_=_65563218390.804596
# pendiente_HvsI_1/m_=_3716.3
# ordenada_HvsI_A/m_=_1297.0
# frecuencia_Hz_=_135108.55390986864

Tiempo_(s)	Campo_(V.s)	Magnetizacion_(V.s)	Campo_(kA/m)	Magnetizacion_(A/m)
0.000000e+00	-5.510781e-06	-1.373113e-09	-3.837155e+01	-8.826963e+01
1.000000e-08	-5.510993e-06	-1.372027e-09	-3.837303e+01	-8.820917e+01
2.000000e-08	-5.511051e-06	-1.375608e-09	-3.837344e+01	-8.815028e+01
3.000000e-08	-5.510847e-06	-1.381193e-09	-3.837202e+01	-8.809323e+01
4.000000e-08	-5.510222e-06	-1.385120e-09	-3.836766e+01	-8.803828e+01
5.000000e-08	-5.509056e-06	-1.384017e-09	-3.835955e+01	-8.798562e+01
6.000000e-08	-5.507364e-06	-1.369825e-09	-3.834777e+01	-8.793544e+01
7.000000e-08	-5.505083e-06	-1.339352e-09	-3.833188e+01	-8.788783e+01
8.000000e-08	-5.502076e-06	-1.337308e-09	-3.831094e+01	-8.784285e+01
9.000000e-08	-5.498533e-06	-1.426546e-09	-3.828627e+01	-8.780050e+01
1.000000e-07	-5.494539e-06	-1.502220e-09	-3.825846e+01	-8.776072e+01
1.100000e-07	-5.490205e-06	-1.403070e-09	-3.822829e+01	-8.772340e+01
1.200000e-07	-5.485780e-06	-1.286609e-09	-3.819747e+01	-8.768834e+01
1.300000e-07	-5.481160e-06	-1.299546e-09	-3.816531e+01	-8.765530e+01
1.400000e-07	-5.476064e-06	-1.416081e-09	-3.812982e+01	-8.762397e+01
1.500000e-07	-5.470501e-06	-1.404197e-09	-3.809109e+01	-8.759401e+01
1.600000e-07	-5.464631e-06	-1.304906e-09	-3.805022e+01	-8.756501e+01
1.700000e-07	-5.458517e-06	-1.348427e-09	-3.800764e+01	-8.753651e+01
1.800000e-07	-5.451923e-06	-1.413231e-09	-3.796173e+01	-8.750802e+01
1.900000e-07	-5.444800e-06	-1.422916e-09	-3.791213e+01	-8.747903e+01
2.000000e-07	-5.437345e-06	-1.311724e-09	-3.786023e+01	-8.744898e+01
2.100000e-07	-5.429673e-06	-1.320812e-09	-3.780680e+01	-8.741732e+01
2.200000e-07	-5.421742e-06	-1.360383e-09	-3.775158e+01	-8.738349e+01
2.300000e-07	-5.413583e-06	-1.410491e-09	-3.769477e+01	-8.734691e+01
2.400000e-07	-5.405240e-06	-1.372176e-09	-3.763667e+01	-8.730704e+01
2.500000e-07	-5.396447e-06	-1.362840e-09	-3.757545e+01	-8.726335e+01
2.600000e-07	-5.386775e-06	-1.362011e-09	-3.750810e+01	-8.721535e+01
2.700000e-07	-5.376206e-06	-1.365094e-09	-3.743451e+01	-8.716256e+01
2.800000e-07	-5.365077e-06	-1.333483e-09	-3.735702e+01	-8.710457e+01
2.900000e-07	-5.353554e-06	-1.329912e-09	-3.727678e+01	-8.704103e+01
3.000000e-07	-5.341735e-06	-1.363640e-09	-3.719449e+01	-8.697162e+01
3.100000e-07	-5.329669e-06	-1.360532e-09	-3.711048e+01	-8.689610e+01
3.200000e-07	-5.317166e-06	-1.333884e-09	-3.702342e+01	-8.681430e+01
3.300000e-07	-5.304150e-06	-1.309306e-09	-3.693278e+01	-8.672611e+01
3.400000e-07	-5.290804e-06	-1.348112e-09	-3.683986e+01	-8.663149e+01
3.500000e-07	-5.277136e-06	-1.324389e-09	-3.674468e+01	-8.653048e+01
3.600000e-07	-5.262969e-06	-1.305502e-09	-3.664604e+01	-8.642318e+01
3.700000e-07	-5.248387e-06	-1.317374e-09	-3.654451e+01	-8.630975e+01
3.800000e-07	-5.233350e-06	-1.351033e-09	-3.643980e+01	-8.619043e+01
3.900000e-07	-5.217553e-06	-1.291778e-09	-3.632981e+01	-8.606551e+01
4.000000e-07	-5.201197e-06	-1.295039e-09	-3.621592e+01	-8.593532e+01
4.100000e-07	-5.184595e-06	-1.335559e-09	-3.610032e+01	-8.580025e+01
4.200000e-07	-5.167711e-06	-1.317794e-09	-3.598276e+01	-8.566072e+01
4.300000e-07	-5.150482e-06	-1.259407e-09	-3.586279e+01	-8.551717e+01
4.400000e-07	-5.132972e-06	-1.330875e-09	-3.574088e+01	-8.537010e+01
4.500000e-07	-5.115163e-06	-1.353056e-09	-3.561687e+01	-8.521997e+01
4.600000e-07	-5.096903e-06	-1.283731e-09	-3.548973e+01	-8.506728e+01
4.700000e-07	-5.078200e-06	-1.269589e-09	-3.535950e+01	-8.491251e+01
4.800000e-07	-5.059193e-06	-1.329106e-09	-3.522715e+01	-8.475613e+01
4.900000e-07	-5.039817e-06	-1.280842e-09	-3.509224e+01	-8.459861e+01
5.000000e-07	-5.020130e-06	-1.259302e-09	-3.495516e+01	-8.444036e+01
5.100000e-07	-5.000305e-06	-1.308732e-09	-3.481711e+01	-8.428178e+01
5.200000e-07	-4.980289e-06	-1.289388e-09	-3.467774e+01	-8.412322e+01
5.300000e-07	-4.959856e-06	-1.233966e-09	-3.453547e+01	-8.396501e+01
5.400000e-07	-4.938981e-06	-1.291532e-09	-3.439011e+01	-8.380739e+01
5.500000e-07	-4.917845e-06	-1.309682e-09	-3.424295e+01	-8.365060e+01
5.600000e-07	-4.896372e-06	-1.240527e-09	-3.409343e+01	-8.349479e+01
5.700000e-07	-4.874518e-06	-1.250557e-09	-3.394126e+01	-8.334010e+01
5.800000e-07	-4.852382e-06	-1.294373e-09	-3.378713e+01	-8.318659e+01
5.900000e-07	-4.829890e-06	-1.254804e-09	-3.363052e+01	-8.303429e+01
6.000000e-07	-4.806971e-06	-1.236810e-09	-3.347093e+01	-8.288318e+01
6.100000e-07	-4.783721e-06	-1.278522e-09	-3.330904e+01	-8.273319e+01
6.200000e-07	-4.760221e-06	-1.254765e-09	-3.314541e+01	-8.258423e+01
6.300000e-07	-4.736471e-06	-1.230445e-09	-3.298004e+01	-8.243617e+01
6.400000e-07	-4.712545e-06	-1.259052e-09	-3.281344e+01	-8.228886e+01
6.500000e-07	-4.688378e-06	-1.264553e-09	-3.264517e+01	-8.214212e+01
6.600000e-07	-4.663794e-06	-1.234285e-09	-3.247399e+01	-8.199576e+01
6.700000e-07	-4.638751e-06	-1.255841e-09	-3.229961e+01	-8.184958e+01
6.800000e-07	-4.613226e-06	-1.257553e-09	-3.212189e+01	-8.170337e+01
6.900000e-07	-4.587155e-06	-1.233061e-09	-3.194035e+01	-8.155694e+01
7.000000e-07	-4.560551e-06	-1.229446e-09	-3.175511e+01	-8.141008e+01
7.100000e-07	-4.533455e-06	-1.246033e-09	-3.156644e+01	-8.126259e+01
7.200000e-07	-4.505971e-06	-1.225950e-09	-3.137507e+01	-8.111432e+01
7.300000e-07	-4.478257e-06	-1.232316e-09	-3.118210e+01	-8.096508e+01
7.400000e-07	-4.450383e-06	-1.246221e-09	-3.098801e+01	-8.081475e+01
7.500000e-07	-4.422428e-06	-1.240891e-09	-3.079336e+01	-8.066319e+01
7.600000e-07	-4.394320e-06	-1.228373e-09	-3.059764e+01	-8.051030e+01
7.700000e-07	-4.365890e-06	-1.238626e-09	-3.039968e+01	-8.035599e+01
7.800000e-07	-4.337041e-06	-1.224329e-09	-3.019881e+01	-8.020021e+01
7.900000e-07	-4.307812e-06	-1.209619e-09	-2.999529e+01	-8.004291e+01
8.000000e-07	-4.278371e-06	-1.216122e-09	-2.979029e+01	-7.988404e+01
8.100000e-07	-4.248693e-06	-1.219287e-09	-2.958364e+01	-7.972360e+01
8.200000e-07	-4.218649e-06	-1.203187e-09	-2.937445e+01	-7.956157e+01
8.300000e-07	-4.188334e-06	-1.208644e-09	-2.916336e+01	-7.939795e+01
8.400000e-07	-4.157732e-06	-1.217784e-09	-2.895028e+01	-7.923274e+01
8.500000e-07	-4.126745e-06	-1.207697e-09	-2.873452e+01	-7.906595e+01
8.600000e-07	-4.095522e-06	-1.203284e-09	-2.851711e+01	-7.889757e+01
8.700000e-07	-4.064155e-06	-1.206543e-09	-2.829870e+01	-7.872760e+01
8.800000e-07	-4.032573e-06	-1.194178e-09	-2.807880e+01	-7.855602e+01
8.900000e-07	-4.000805e-06	-1.180429e-09	-2.785760e+01	-7.838281e+01
9.000000e-07	-3.968906e-06	-1.185084e-09	-2.763548e+01	-7.820792e+01
9.100000e-07	-3.936817e-06	-1.179294e-09	-2.741205e+01	-7.803131e+01
9.200000e-07	-3.904413e-06	-1.168265e-09	-2.718642e+01	-7.785289e+01
9.300000e-07	-3.871610e-06	-1.169336e-09	-2.695801e+01	-7.767259e+01
9.400000e-07	-3.838343e-06	-1.174494e-09	-2.672638e+01	-7.749030e+01
9.500000e-07	-3.804548e-06	-1.160413e-09	-2.649106e+01	-7.730591e+01
9.600000e-07	-3.770247e-06	-1.154984e-09	-2.625222e+01	-7.711929e+01
9.700000e-07	-3.735531e-06	-1.153236e-09	-2.601050e+01	-7.693029e+01
9.800000e-07	-3.700413e-06	-1.144152e-09	-2.576597e+01	-7.673877e+01
9.900000e-07	-3.664949e-06	-1.132083e-09	-2.551903e+01	-7.654458e+01
1.000000e-06	-3.629320e-06	-1.136645e-09	-2.527095e+01	-7.634755e+01
1.010000e-06	-3.593574e-06	-1.132748e-09	-2.502205e+01	-7.614752e+01
1.020000e-06	-3.557692e-06	-1.125288e-09	-2.477220e+01	-7.594434e+01
1.030000e-06	-3.521669e-06	-1.122328e-09	-2.452137e+01	-7.573786e+01
1.040000e-06	-3.485477e-06	-1.121757e-09	-2.426937e+01	-7.552793e+01
1.050000e-06	-3.449099e-06	-1.111657e-09	-2.401607e+01	-7.531444e+01
1.060000e-06	-3.412486e-06	-1.110728e-09	-2.376113e+01	-7.509725e+01
1.070000e-06	-3.375598e-06	-1.109284e-09	-2.350429e+01	-7.487628e+01
1.080000e-06	-3.338458e-06	-1.101123e-09	-2.324568e+01	-7.465143e+01
1.090000e-06	-3.301040e-06	-1.090290e-09	-2.298514e+01	-7.442265e+01
1.100000e-06	-3.263340e-06	-1.085194e-09	-2.272263e+01	-7.418988e+01
1.110000e-06	-3.225404e-06	-1.076331e-09	-2.245848e+01	-7.395309e+01
1.120000e-06	-3.187252e-06	-1.065914e-09	-2.219283e+01	-7.371226e+01
1.130000e-06	-3.148935e-06	-1.062518e-09	-2.192603e+01	-7.346739e+01
1.140000e-06	-3.110526e-06	-1.061324e-09	-2.165859e+01	-7.321849e+01
1.150000e-06	-3.071928e-06	-1.058371e-09	-2.138983e+01	-7.296555e+01
1.160000e-06	-3.032987e-06	-1.057282e-09	-2.111868e+01	-7.270861e+01
1.170000e-06	-2.993783e-06	-1.055363e-09	-2.084570e+01	-7.244766e+01
1.180000e-06	-2.954456e-06	-1.047751e-09	-2.057187e+01	-7.218272e+01
1.190000e-06	-2.914947e-06	-1.040741e-09	-2.029677e+01	-7.191379e+01
1.200000e-06	-2.875272e-06	-1.034334e-09	-2.002051e+01	-7.164085e+01
1.210000e-06	-2.835492e-06	-1.027383e-09	-1.974353e+01	-7.136385e+01
1.220000e-06	-2.795561e-06	-1.020617e-09	-1.946548e+01	-7.108275e+01
1.230000e-06	-2.755534e-06	-1.019589e-09	-1.918678e+01	-7.079745e+01
1.240000e-06	-2.715351e-06	-1.014619e-09	-1.890699e+01	-7.050784e+01
1.250000e-06	-2.674991e-06	-1.009143e-09	-1.862596e+01	-7.021377e+01
1.260000e-06	-2.634493e-06	-1.004323e-09	-1.834397e+01	-6.991505e+01
1.270000e-06	-2.593825e-06	-1.003310e-09	-1.806080e+01	-6.961147e+01
1.280000e-06	-2.552942e-06	-9.967157e-10	-1.777613e+01	-6.930277e+01
1.290000e-06	-2.511779e-06	-9.867354e-10	-1.748951e+01	-6.898866e+01
1.300000e-06	-2.470294e-06	-9.769766e-10	-1.720065e+01	-6.866883e+01
1.310000e-06	-2.428440e-06	-9.696447e-10	-1.690923e+01	-6.834291e+01
1.320000e-06	-2.386281e-06	-9.620032e-10	-1.661567e+01	-6.801055e+01
1.330000e-06	-2.343867e-06	-9.586001e-10	-1.632034e+01	-6.767134e+01
1.340000e-06	-2.301085e-06	-9.576084e-10	-1.602245e+01	-6.732487e+01
1.350000e-06	-2.257913e-06	-9.561935e-10	-1.572184e+01	-6.697072e+01
1.360000e-06	-2.214554e-06	-9.518388e-10	-1.541993e+01	-6.660848e+01
1.370000e-06	-2.171063e-06	-9.453031e-10	-1.511711e+01	-6.623771e+01
1.380000e-06	-2.127483e-06	-9.358513e-10	-1.481366e+01	-6.585802e+01
1.390000e-06	-2.083870e-06	-9.272768e-10	-1.450998e+01	-6.546901e+01
1.400000e-06	-2.040141e-06	-9.182432e-10	-1.420550e+01	-6.507032e+01
1.410000e-06	-1.996293e-06	-9.089427e-10	-1.390019e+01	-6.466161e+01
1.420000e-06	-1.952381e-06	-9.008425e-10	-1.359442e+01	-6.424257e+01
1.430000e-06	-1.908428e-06	-8.949148e-10	-1.328838e+01	-6.381296e+01
1.440000e-06	-1.864426e-06	-8.901715e-10	-1.298199e+01	-6.337256e+01
1.450000e-06	-1.820377e-06	-8.840461e-10	-1.267528e+01	-6.292118e+01
1.460000e-06	-1.776276e-06	-8.771249e-10	-1.236821e+01	-6.245872e+01
1.470000e-06	-1.732031e-06	-8.690140e-10	-1.206013e+01	-6.198509e+01
1.480000e-06	-1.687508e-06	-8.604934e-10	-1.175012e+01	-6.150026e+01
1.490000e-06	-1.642799e-06	-8.510535e-10	-1.143881e+01	-6.100423e+01
1.500000e-06	-1.597974e-06	-8.402356e-10	-1.112669e+01	-6.049705e+01
1.510000e-06	-1.552995e-06	-8.268823e-10	-1.081350e+01	-5.997879e+01
1.520000e-06	-1.507956e-06	-8.148156e-10	-1.049989e+01	-5.944955e+01
1.530000e-06	-1.462777e-06	-8.044172e-10	-1.018531e+01	-5.890942e+01
1.540000e-06	-1.417488e-06	-7.949440e-10	-9.869966e+00	-5.835850e+01
1.550000e-06	-1.372170e-06	-7.851070e-10	-9.554418e+00	-5.779689e+01
1.560000e-06	-1.326733e-06	-7.754769e-10	-9.238043e+00	-5.722466e+01
1.570000e-06	-1.281179e-06	-7.631841e-10	-8.920844e+00	-5.664182e+01
1.580000e-06	-1.235570e-06	-7.497203e-10	-8.603273e+00	-5.604837e+01
1.590000e-06	-1.189909e-06	-7.358423e-10	-8.285337e+00	-5.544422e+01
1.600000e-06	-1.144151e-06	-7.208032e-10	-7.966724e+00	-5.482920e+01
1.610000e-06	-1.098359e-06	-7.048369e-10	-7.647872e+00	-5.420306e+01
1.620000e-06	-1.052517e-06	-6.919815e-10	-7.328675e+00	-5.356545e+01
1.630000e-06	-1.006505e-06	-6.832760e-10	-7.008295e+00	-5.291591e+01
1.640000e-06	-9.603817e-07	-6.774739e-10	-6.687136e+00	-5.225385e+01
1.650000e-06	-9.142670e-07	-6.715653e-10	-6.366039e+00	-5.157858e+01
1.660000e-06	-8.680976e-07	-6.642609e-10	-6.044562e+00	-5.088924e+01
1.670000e-06	-8.219089e-07	-6.514105e-10	-5.722950e+00	-5.018488e+01
1.680000e-06	-7.756399e-07	-6.351801e-10	-5.400779e+00	-4.946438e+01
1.690000e-06	-7.292635e-07	-6.185876e-10	-5.077861e+00	-4.872651e+01
1.700000e-06	-6.828831e-07	-6.021141e-10	-4.754914e+00	-4.796992e+01
1.710000e-06	-6.364928e-07	-5.854342e-10	-4.431898e+00	-4.719313e+01
1.720000e-06	-5.900534e-07	-5.719435e-10	-4.108541e+00	-4.639455e+01
1.730000e-06	-5.435843e-07	-5.623634e-10	-3.784977e+00	-4.557253e+01
1.740000e-06	-4.970847e-07	-5.520705e-10	-3.461200e+00	-4.472530e+01
1.750000e-06	-4.504747e-07	-5.406907e-10	-3.136654e+00	-4.385106e+01
1.760000e-06	-4.038710e-07	-5.261963e-10	-2.812153e+00	-4.294796e+01
1.770000e-06	-3.572567e-07	-5.085343e-10	-2.487577e+00	-4.201415e+01
1.780000e-06	-3.105460e-07	-4.906932e-10	-2.162331e+00	-4.104778e+01
1.790000e-06	-2.637423e-07	-4.741262e-10	-1.836437e+00	-4.004701e+01
1.800000e-06	-2.168993e-07	-4.594108e-10	-1.510269e+00	-3.901010e+01
1.810000e-06	-1.701551e-07	-4.461570e-10	-1.184790e+00	-3.793536e+01
1.820000e-06	-1.234446e-07	-4.330502e-10	-8.595444e-01	-3.682122e+01
1.830000e-06	-7.669472e-08	-4.199710e-10	-5.340252e-01	-3.566625e+01
1.840000e-06	-2.996833e-08	-4.039362e-10	-2.086694e-01	-3.446918e+01
1.850000e-06	1.676214e-08	-3.873388e-10	1.167148e-01	-3.322893e+01
1.860000e-06	6.348672e-08	-3.686026e-10	4.420579e-01	-3.194459e+01
1.870000e-06	1.101469e-07	-3.487264e-10	7.669525e-01	-3.061552e+01
1.880000e-06	1.568093e-07	-3.284355e-10	1.091863e+00	-2.924130e+01
1.890000e-06	2.035139e-07	-3.101360e-10	1.417067e+00	-2.782175e+01
1.900000e-06	2.502386e-07	-2.911498e-10	1.742411e+00	-2.635699e+01
1.910000e-06	2.969547e-07	-2.722791e-10	2.067695e+00	-2.484738e+01
1.920000e-06	3.436394e-07	-2.534989e-10	2.392761e+00	-2.329360e+01
1.930000e-06	3.903311e-07	-2.314974e-10	2.717874e+00	-2.169658e+01
1.940000e-06	4.369916e-07	-2.066911e-10	3.042772e+00	-2.005753e+01
1.950000e-06	4.835498e-07	-1.823959e-10	3.366956e+00	-1.837795e+01
1.960000e-06	5.300359e-07	-1.617669e-10	3.690639e+00	-1.665959e+01
1.970000e-06	5.764542e-07	-1.421521e-10	4.013850e+00	-1.490448e+01
1.980000e-06	6.228013e-07	-1.224309e-10	4.336564e+00	-1.311484e+01
1.990000e-06	6.691088e-07	-1.008971e-10	4.659003e+00	-1.129315e+01
2.000000e-06	7.154173e-07	-7.545153e-11	4.981449e+00	-9.442071e+00
2.010000e-06	7.617297e-07	-4.805166e-11	5.303922e+00	-7.564442e+00
2.020000e-06	8.080379e-07	-1.886532e-11	5.626366e+00	-5.663254e+00
2.030000e-06	8.542636e-07	1.192172e-11	5.948236e+00	-3.741619e+00
2.040000e-06	9.003633e-07	3.984152e-11	6.269228e+00	-1.802747e+00
2.050000e-06	9.464062e-07	6.406514e-11	6.589825e+00	1.500813e-01
2.060000e-06	9.923838e-07	8.622951e-11	6.909967e+00	2.113548e+00
2.070000e-06	1.038333e-06	1.082705e-10	7.229910e+00	4.084323e+00
2.080000e-06	1.084245e-06	1.323596e-10	7.549596e+00	6.059091e+00
2.090000e-06	1.130046e-06	1.616536e-10	7.868506e+00	8.034581e+00
2.100000e-06	1.175719e-06	1.944436e-10	8.186532e+00	1.000759e+01
2.110000e-06	1.221346e-06	2.277095e-10	8.504233e+00	1.197500e+01
2.120000e-06	1.266889e-06	2.565160e-10	8.821343e+00	1.393382e+01
2.130000e-06	1.312288e-06	2.824763e-10	9.137460e+00	1.588118e+01
2.140000e-06	1.357620e-06	3.071760e-10	9.453109e+00	1.781437e+01
2.150000e-06	1.402874e-06	3.302091e-10	9.768210e+00	1.973085e+01
2.160000e-06	1.448035e-06	3.533012e-10	1.008266e+01	2.162823e+01
2.170000e-06	1.493088e-06	3.773592e-10	1.039637e+01	2.350435e+01
2.180000e-06	1.537989e-06	4.034326e-10	1.070901e+01	2.535721e+01
2.190000e-06	1.582792e-06	4.320723e-10	1.102098e+01	2.718501e+01
2.200000e-06	1.627486e-06	4.612632e-10	1.133218e+01	2.898617e+01
2.210000e-06	1.672001e-06	4.894194e-10	1.164214e+01	3.075928e+01
2.220000e-06	1.716314e-06	5.171350e-10	1.195069e+01	3.250315e+01
2.230000e-06	1.760503e-06	5.436208e-10	1.225838e+01	3.421677e+01
2.240000e-06	1.804636e-06	5.661757e-10	1.256568e+01	3.589929e+01
2.250000e-06	1.848678e-06	5.831728e-10	1.287234e+01	3.755005e+01
2.260000e-06	1.892684e-06	5.963822e-10	1.317875e+01	3.916855e+01
2.270000e-06	1.936635e-06	6.130354e-10	1.348479e+01	4.075443e+01
2.280000e-06	1.980537e-06	6.356051e-10	1.379048e+01	4.230747e+01
2.290000e-06	2.024418e-06	6.625876e-10	1.409602e+01	4.382756e+01
2.300000e-06	2.068232e-06	6.912560e-10	1.440109e+01	4.531471e+01
2.310000e-06	2.111978e-06	7.161080e-10	1.470570e+01	4.676901e+01
2.320000e-06	2.155605e-06	7.351735e-10	1.500947e+01	4.819065e+01
2.330000e-06	2.199094e-06	7.499920e-10	1.531229e+01	4.957986e+01
2.340000e-06	2.242466e-06	7.636640e-10	1.561429e+01	5.093694e+01
2.350000e-06	2.285622e-06	7.789649e-10	1.591478e+01	5.226222e+01
2.360000e-06	2.328507e-06	7.970331e-10	1.621339e+01	5.355608e+01
2.370000e-06	2.371131e-06	8.174683e-10	1.651018e+01	5.481890e+01
2.380000e-06	2.413484e-06	8.372514e-10	1.680508e+01	5.605107e+01
2.390000e-06	2.455499e-06	8.544506e-10	1.709764e+01	5.725302e+01
2.400000e-06	2.497057e-06	8.696516e-10	1.738700e+01	5.842512e+01
2.410000e-06	2.538194e-06	8.828329e-10	1.767344e+01	5.956779e+01
2.420000e-06	2.579048e-06	8.954773e-10	1.795791e+01	6.068141e+01
2.430000e-06	2.619674e-06	9.102013e-10	1.824079e+01	6.176635e+01
2.440000e-06	2.660120e-06	9.264955e-10	1.852241e+01	6.282296e+01
2.450000e-06	2.700370e-06	9.424635e-10	1.880267e+01	6.385160e+01
2.460000e-06	2.740504e-06	9.559147e-10	1.908212e+01	6.485259e+01
2.470000e-06	2.780532e-06	9.657270e-10	1.936084e+01	6.582625e+01
2.480000e-06	2.820404e-06	9.754486e-10	1.963847e+01	6.677288e+01
2.490000e-06	2.860145e-06	9.863358e-10	1.991518e+01	6.769279e+01
2.500000e-06	2.899728e-06	9.978713e-10	2.019080e+01	6.858625e+01
2.510000e-06	2.939201e-06	1.010807e-09	2.046565e+01	6.945357e+01
2.520000e-06	2.978557e-06	1.024643e-09	2.073969e+01	7.029503e+01
2.530000e-06	3.017705e-06	1.036856e-09	2.101228e+01	7.111091e+01
2.540000e-06	3.056641e-06	1.048117e-09	2.128338e+01	7.190151e+01
2.550000e-06	3.095324e-06	1.057206e-09	2.155273e+01	7.266714e+01
2.560000e-06	3.133699e-06	1.062697e-09	2.181994e+01	7.340810e+01
2.570000e-06	3.171855e-06	1.066819e-09	2.208562e+01	7.412472e+01
2.580000e-06	3.209833e-06	1.072793e-09	2.235006e+01	7.481734e+01
2.590000e-06	3.247592e-06	1.079558e-09	2.261298e+01	7.548631e+01
2.600000e-06	3.285222e-06	1.087351e-09	2.287499e+01	7.613201e+01
2.610000e-06	3.322701e-06	1.099685e-09	2.313596e+01	7.675481e+01
2.620000e-06	3.359962e-06	1.114145e-09	2.339541e+01	7.735512e+01
2.630000e-06	3.397007e-06	1.126773e-09	2.365335e+01	7.793336e+01
2.640000e-06	3.433668e-06	1.135566e-09	2.390863e+01	7.848994e+01
2.650000e-06	3.470008e-06	1.141576e-09	2.416166e+01	7.902532e+01
2.660000e-06	3.506209e-06	1.143474e-09	2.441373e+01	7.953994e+01
2.670000e-06	3.542236e-06	1.141045e-09	2.466458e+01	8.003429e+01
2.680000e-06	3.578118e-06	1.140138e-09	2.491443e+01	8.050882e+01
2.690000e-06	3.613921e-06	1.146195e-09	2.516372e+01	8.096401e+01
2.700000e-06	3.649638e-06	1.158733e-09	2.541242e+01	8.140036e+01
2.710000e-06	3.685069e-06	1.171487e-09	2.565913e+01	8.181836e+01
2.720000e-06	3.720038e-06	1.179636e-09	2.590262e+01	8.221849e+01
2.730000e-06	3.754607e-06	1.183064e-09	2.614332e+01	8.260125e+01
2.740000e-06	3.788849e-06	1.182955e-09	2.638175e+01	8.296713e+01
2.750000e-06	3.822704e-06	1.181115e-09	2.661748e+01	8.331663e+01
2.760000e-06	3.856153e-06	1.179922e-09	2.685038e+01	8.365023e+01
2.770000e-06	3.889152e-06	1.183102e-09	2.708016e+01	8.396841e+01
2.780000e-06	3.921639e-06	1.189933e-09	2.730637e+01	8.427168e+01
2.790000e-06	3.953791e-06	1.197750e-09	2.753024e+01	8.456049e+01
2.800000e-06	3.985793e-06	1.205849e-09	2.775307e+01	8.483535e+01
2.810000e-06	4.017690e-06	1.211774e-09	2.797517e+01	8.509671e+01
2.820000e-06	4.049441e-06	1.215248e-09	2.819625e+01	8.534506e+01
2.830000e-06	4.081016e-06	1.217881e-09	2.841611e+01	8.558087e+01
2.840000e-06	4.112364e-06	1.219762e-09	2.863438e+01	8.580460e+01
2.850000e-06	4.143402e-06	1.221885e-09	2.885050e+01	8.601673e+01
2.860000e-06	4.174137e-06	1.226384e-09	2.906451e+01	8.621771e+01
2.870000e-06	4.204504e-06	1.233240e-09	2.927595e+01	8.640802e+01
2.880000e-06	4.234540e-06	1.238756e-09	2.948509e+01	8.658813e+01
2.890000e-06	4.264322e-06	1.240544e-09	2.969247e+01	8.675848e+01
2.900000e-06	4.293837e-06	1.243095e-09	2.989798e+01	8.691954e+01
