# Temperatura_=_12.94
# Concentracion g/m^3_=_1620.0
# C_Vs_to_Am_M_A/Vsm_=_65563218390.804596
# pendiente_HvsI_1/m_=_3716.3
# ordenada_HvsI_A/m_=_1297.0
# frecuencia_Hz_=_135106.40826138438

Tiempo_(s)	Campo_(V.s)	Magnetizacion_(V.s)	Campo_(kA/m)	Magnetizacion_(A/m)
0.000000e+00	-5.524891e-06	-1.850491e-09	-3.836506e+01	-1.200551e+02
1.000000e-08	-5.525095e-06	-1.850128e-09	-3.836648e+01	-1.200039e+02
2.000000e-08	-5.525081e-06	-1.851187e-09	-3.836638e+01	-1.199512e+02
3.000000e-08	-5.524738e-06	-1.851640e-09	-3.836399e+01	-1.198967e+02
4.000000e-08	-5.523999e-06	-1.850553e-09	-3.835886e+01	-1.198404e+02
5.000000e-08	-5.522820e-06	-1.847137e-09	-3.835068e+01	-1.197820e+02
6.000000e-08	-5.520989e-06	-1.835797e-09	-3.833796e+01	-1.197214e+02
7.000000e-08	-5.518541e-06	-1.830067e-09	-3.832096e+01	-1.196584e+02
8.000000e-08	-5.515586e-06	-1.845630e-09	-3.830045e+01	-1.195927e+02
9.000000e-08	-5.512066e-06	-1.860428e-09	-3.827600e+01	-1.195240e+02
1.000000e-07	-5.508071e-06	-1.883320e-09	-3.824826e+01	-1.194522e+02
1.100000e-07	-5.503780e-06	-1.913560e-09	-3.821846e+01	-1.193771e+02
1.200000e-07	-5.499272e-06	-1.824913e-09	-3.818716e+01	-1.192983e+02
1.300000e-07	-5.494629e-06	-1.749239e-09	-3.815492e+01	-1.192157e+02
1.400000e-07	-5.489652e-06	-1.772836e-09	-3.812036e+01	-1.191290e+02
1.500000e-07	-5.484162e-06	-1.871422e-09	-3.808224e+01	-1.190382e+02
1.600000e-07	-5.478283e-06	-1.878890e-09	-3.804141e+01	-1.189430e+02
1.700000e-07	-5.472021e-06	-1.789993e-09	-3.799793e+01	-1.188433e+02
1.800000e-07	-5.465299e-06	-1.816109e-09	-3.795125e+01	-1.187391e+02
1.900000e-07	-5.458120e-06	-1.880949e-09	-3.790140e+01	-1.186302e+02
2.000000e-07	-5.450655e-06	-1.871498e-09	-3.784956e+01	-1.185166e+02
2.100000e-07	-5.442965e-06	-1.769537e-09	-3.779616e+01	-1.183983e+02
2.200000e-07	-5.435009e-06	-1.774269e-09	-3.774092e+01	-1.182752e+02
2.300000e-07	-5.426832e-06	-1.833546e-09	-3.768414e+01	-1.181475e+02
2.400000e-07	-5.418357e-06	-1.871152e-09	-3.762528e+01	-1.180152e+02
2.500000e-07	-5.409380e-06	-1.810791e-09	-3.756295e+01	-1.178783e+02
2.600000e-07	-5.399674e-06	-1.786374e-09	-3.749555e+01	-1.177370e+02
2.700000e-07	-5.389068e-06	-1.805912e-09	-3.742190e+01	-1.175913e+02
2.800000e-07	-5.377889e-06	-1.814363e-09	-3.734427e+01	-1.174414e+02
2.900000e-07	-5.366405e-06	-1.780717e-09	-3.726453e+01	-1.172875e+02
3.000000e-07	-5.354510e-06	-1.776523e-09	-3.718193e+01	-1.171295e+02
3.100000e-07	-5.342214e-06	-1.804956e-09	-3.709654e+01	-1.169677e+02
3.200000e-07	-5.329558e-06	-1.806989e-09	-3.700866e+01	-1.168022e+02
3.300000e-07	-5.316488e-06	-1.775517e-09	-3.691790e+01	-1.166331e+02
3.400000e-07	-5.303015e-06	-1.755528e-09	-3.682434e+01	-1.164605e+02
3.500000e-07	-5.289196e-06	-1.786316e-09	-3.672838e+01	-1.162844e+02
3.600000e-07	-5.275055e-06	-1.789822e-09	-3.663019e+01	-1.161050e+02
3.700000e-07	-5.260431e-06	-1.763623e-09	-3.652864e+01	-1.159222e+02
3.800000e-07	-5.245267e-06	-1.766986e-09	-3.642334e+01	-1.157361e+02
3.900000e-07	-5.229620e-06	-1.805662e-09	-3.631468e+01	-1.155468e+02
4.000000e-07	-5.213395e-06	-1.763638e-09	-3.620202e+01	-1.153540e+02
4.100000e-07	-5.196631e-06	-1.728371e-09	-3.608561e+01	-1.151580e+02
4.200000e-07	-5.179599e-06	-1.764171e-09	-3.596734e+01	-1.149584e+02
4.300000e-07	-5.162376e-06	-1.777645e-09	-3.584774e+01	-1.147554e+02
4.400000e-07	-5.144783e-06	-1.715388e-09	-3.572557e+01	-1.145487e+02
4.500000e-07	-5.126858e-06	-1.750837e-09	-3.560110e+01	-1.143382e+02
4.600000e-07	-5.108584e-06	-1.802678e-09	-3.547420e+01	-1.141239e+02
4.700000e-07	-5.089824e-06	-1.741399e-09	-3.534394e+01	-1.139055e+02
4.800000e-07	-5.070586e-06	-1.692743e-09	-3.521035e+01	-1.136830e+02
4.900000e-07	-5.051063e-06	-1.757290e-09	-3.507478e+01	-1.134561e+02
5.000000e-07	-5.031332e-06	-1.730174e-09	-3.493777e+01	-1.132248e+02
5.100000e-07	-5.011397e-06	-1.664141e-09	-3.479933e+01	-1.129888e+02
5.200000e-07	-4.991230e-06	-1.712251e-09	-3.465929e+01	-1.127482e+02
5.300000e-07	-4.970673e-06	-1.747432e-09	-3.451655e+01	-1.125027e+02
5.400000e-07	-4.949687e-06	-1.676740e-09	-3.437082e+01	-1.122523e+02
5.500000e-07	-4.928398e-06	-1.695144e-09	-3.422299e+01	-1.119968e+02
5.600000e-07	-4.906735e-06	-1.743843e-09	-3.407256e+01	-1.117364e+02
5.700000e-07	-4.884678e-06	-1.676586e-09	-3.391940e+01	-1.114709e+02
5.800000e-07	-4.862354e-06	-1.642517e-09	-3.376438e+01	-1.112003e+02
5.900000e-07	-4.839779e-06	-1.704884e-09	-3.360761e+01	-1.109247e+02
6.000000e-07	-4.816814e-06	-1.683668e-09	-3.344815e+01	-1.106441e+02
6.100000e-07	-4.793518e-06	-1.627346e-09	-3.328638e+01	-1.103587e+02
6.200000e-07	-4.770056e-06	-1.665829e-09	-3.312346e+01	-1.100685e+02
6.300000e-07	-4.746362e-06	-1.674817e-09	-3.295892e+01	-1.097737e+02
6.400000e-07	-4.722387e-06	-1.625607e-09	-3.279244e+01	-1.094744e+02
6.500000e-07	-4.698156e-06	-1.641015e-09	-3.262418e+01	-1.091709e+02
6.600000e-07	-4.673532e-06	-1.670846e-09	-3.245319e+01	-1.088633e+02
6.700000e-07	-4.648416e-06	-1.631232e-09	-3.227878e+01	-1.085518e+02
6.800000e-07	-4.622784e-06	-1.623388e-09	-3.210079e+01	-1.082367e+02
6.900000e-07	-4.596525e-06	-1.640805e-09	-3.191845e+01	-1.079181e+02
7.000000e-07	-4.569736e-06	-1.613480e-09	-3.173242e+01	-1.075964e+02
7.100000e-07	-4.542535e-06	-1.588905e-09	-3.154354e+01	-1.072715e+02
7.200000e-07	-4.515004e-06	-1.615817e-09	-3.135236e+01	-1.069439e+02
7.300000e-07	-4.487296e-06	-1.614777e-09	-3.115996e+01	-1.066136e+02
7.400000e-07	-4.459458e-06	-1.601252e-09	-3.096665e+01	-1.062807e+02
7.500000e-07	-4.431441e-06	-1.608113e-09	-3.077210e+01	-1.059455e+02
7.600000e-07	-4.403248e-06	-1.605957e-09	-3.057632e+01	-1.056080e+02
7.700000e-07	-4.374764e-06	-1.578820e-09	-3.037853e+01	-1.052683e+02
7.800000e-07	-4.345870e-06	-1.575932e-09	-3.017789e+01	-1.049263e+02
7.900000e-07	-4.316609e-06	-1.574798e-09	-2.997470e+01	-1.045821e+02
8.000000e-07	-4.287054e-06	-1.562317e-09	-2.976947e+01	-1.042357e+02
8.100000e-07	-4.257245e-06	-1.559044e-09	-2.956248e+01	-1.038870e+02
8.200000e-07	-4.227200e-06	-1.564303e-09	-2.935384e+01	-1.035357e+02
8.300000e-07	-4.196827e-06	-1.550097e-09	-2.914293e+01	-1.031819e+02
8.400000e-07	-4.166155e-06	-1.541887e-09	-2.892994e+01	-1.028253e+02
8.500000e-07	-4.135211e-06	-1.546904e-09	-2.871507e+01	-1.024657e+02
8.600000e-07	-4.103899e-06	-1.542277e-09	-2.849763e+01	-1.021028e+02
8.700000e-07	-4.072314e-06	-1.529812e-09	-2.827831e+01	-1.017365e+02
8.800000e-07	-4.040562e-06	-1.531313e-09	-2.805782e+01	-1.013664e+02
8.900000e-07	-4.008697e-06	-1.528634e-09	-2.783655e+01	-1.009922e+02
9.000000e-07	-3.976666e-06	-1.512781e-09	-2.761412e+01	-1.006137e+02
9.100000e-07	-3.944394e-06	-1.505865e-09	-2.739003e+01	-1.002307e+02
9.200000e-07	-3.911822e-06	-1.500521e-09	-2.716384e+01	-9.984272e+01
9.300000e-07	-3.878882e-06	-1.487051e-09	-2.693511e+01	-9.944967e+01
9.400000e-07	-3.845454e-06	-1.482603e-09	-2.670298e+01	-9.905127e+01
9.500000e-07	-3.811546e-06	-1.489279e-09	-2.646752e+01	-9.864731e+01
9.600000e-07	-3.777221e-06	-1.479428e-09	-2.622917e+01	-9.823762e+01
9.700000e-07	-3.742482e-06	-1.463936e-09	-2.598794e+01	-9.782205e+01
9.800000e-07	-3.707329e-06	-1.455077e-09	-2.574384e+01	-9.740051e+01
9.900000e-07	-3.671859e-06	-1.442423e-09	-2.549754e+01	-9.697293e+01
1.000000e-06	-3.636227e-06	-1.424691e-09	-2.525010e+01	-9.653929e+01
1.010000e-06	-3.600460e-06	-1.423441e-09	-2.500173e+01	-9.609960e+01
1.020000e-06	-3.564539e-06	-1.422444e-09	-2.475230e+01	-9.565394e+01
1.030000e-06	-3.528448e-06	-1.413969e-09	-2.450168e+01	-9.520242e+01
1.040000e-06	-3.492230e-06	-1.406119e-09	-2.425018e+01	-9.474516e+01
1.050000e-06	-3.455786e-06	-1.401943e-09	-2.399712e+01	-9.428236e+01
1.060000e-06	-3.419028e-06	-1.385869e-09	-2.374187e+01	-9.381422e+01
1.070000e-06	-3.381998e-06	-1.369011e-09	-2.348473e+01	-9.334096e+01
1.080000e-06	-3.344761e-06	-1.360791e-09	-2.322615e+01	-9.286285e+01
1.090000e-06	-3.307286e-06	-1.355649e-09	-2.296592e+01	-9.238015e+01
1.100000e-06	-3.269553e-06	-1.346327e-09	-2.270390e+01	-9.189313e+01
1.110000e-06	-3.231575e-06	-1.341823e-09	-2.244019e+01	-9.140205e+01
1.120000e-06	-3.193368e-06	-1.329827e-09	-2.217487e+01	-9.090716e+01
1.130000e-06	-3.154990e-06	-1.311256e-09	-2.190838e+01	-9.040871e+01
1.140000e-06	-3.116431e-06	-1.300188e-09	-2.164062e+01	-8.990690e+01
1.150000e-06	-3.077641e-06	-1.300086e-09	-2.137126e+01	-8.940191e+01
1.160000e-06	-3.038604e-06	-1.298794e-09	-2.110018e+01	-8.889387e+01
1.170000e-06	-2.999356e-06	-1.294391e-09	-2.082765e+01	-8.838286e+01
1.180000e-06	-2.959925e-06	-1.290437e-09	-2.055384e+01	-8.786894e+01
1.190000e-06	-2.920360e-06	-1.280300e-09	-2.027909e+01	-8.735205e+01
1.200000e-06	-2.880671e-06	-1.263278e-09	-2.000349e+01	-8.683213e+01
1.210000e-06	-2.840839e-06	-1.246765e-09	-1.972689e+01	-8.630902e+01
1.220000e-06	-2.800860e-06	-1.235070e-09	-1.944928e+01	-8.578251e+01
1.230000e-06	-2.760732e-06	-1.224910e-09	-1.917063e+01	-8.525231e+01
1.240000e-06	-2.720456e-06	-1.217979e-09	-1.889095e+01	-8.471808e+01
1.250000e-06	-2.679956e-06	-1.212676e-09	-1.860972e+01	-8.417940e+01
1.260000e-06	-2.639267e-06	-1.207295e-09	-1.832718e+01	-8.363583e+01
1.270000e-06	-2.598402e-06	-1.199465e-09	-1.804341e+01	-8.308683e+01
1.280000e-06	-2.557227e-06	-1.189665e-09	-1.775748e+01	-8.253186e+01
1.290000e-06	-2.515743e-06	-1.176323e-09	-1.746942e+01	-8.197029e+01
1.300000e-06	-2.473970e-06	-1.163680e-09	-1.717935e+01	-8.140151e+01
1.310000e-06	-2.431815e-06	-1.152158e-09	-1.688662e+01	-8.082486e+01
1.320000e-06	-2.389321e-06	-1.141664e-09	-1.659154e+01	-8.023968e+01
1.330000e-06	-2.346582e-06	-1.130997e-09	-1.629476e+01	-7.964529e+01
1.340000e-06	-2.303544e-06	-1.123133e-09	-1.599590e+01	-7.904103e+01
1.350000e-06	-2.260227e-06	-1.119199e-09	-1.569511e+01	-7.842627e+01
1.360000e-06	-2.216793e-06	-1.115747e-09	-1.539350e+01	-7.780038e+01
1.370000e-06	-2.173253e-06	-1.108519e-09	-1.509115e+01	-7.716279e+01
1.380000e-06	-2.129541e-06	-1.096076e-09	-1.478762e+01	-7.651297e+01
1.390000e-06	-2.085764e-06	-1.079705e-09	-1.448363e+01	-7.585043e+01
1.400000e-06	-2.041986e-06	-1.063247e-09	-1.417963e+01	-7.517474e+01
1.410000e-06	-1.998105e-06	-1.047582e-09	-1.387492e+01	-7.448556e+01
1.420000e-06	-1.954106e-06	-1.036451e-09	-1.356939e+01	-7.378257e+01
1.430000e-06	-1.910054e-06	-1.027162e-09	-1.326349e+01	-7.306556e+01
1.440000e-06	-1.865925e-06	-1.021283e-09	-1.295706e+01	-7.233437e+01
1.450000e-06	-1.821676e-06	-1.015255e-09	-1.264979e+01	-7.158891e+01
1.460000e-06	-1.777310e-06	-1.005934e-09	-1.234171e+01	-7.082914e+01
1.470000e-06	-1.732859e-06	-9.932278e-10	-1.203304e+01	-7.005510e+01
1.480000e-06	-1.688268e-06	-9.789544e-10	-1.172340e+01	-6.926688e+01
1.490000e-06	-1.643532e-06	-9.660639e-10	-1.141275e+01	-6.846458e+01
1.500000e-06	-1.598674e-06	-9.518002e-10	-1.110126e+01	-6.764837e+01
1.510000e-06	-1.553676e-06	-9.346307e-10	-1.078879e+01	-6.681843e+01
1.520000e-06	-1.508556e-06	-9.185256e-10	-1.047547e+01	-6.597493e+01
1.530000e-06	-1.463232e-06	-9.030979e-10	-1.016074e+01	-6.511807e+01
1.540000e-06	-1.417780e-06	-8.899997e-10	-9.845121e+00	-6.424799e+01
1.550000e-06	-1.372318e-06	-8.784552e-10	-9.529432e+00	-6.336484e+01
1.560000e-06	-1.326795e-06	-8.662692e-10	-9.213319e+00	-6.246868e+01
1.570000e-06	-1.281249e-06	-8.514182e-10	-8.897045e+00	-6.155953e+01
1.580000e-06	-1.235625e-06	-8.340232e-10	-8.580226e+00	-6.063732e+01
1.590000e-06	-1.189863e-06	-8.184475e-10	-8.262456e+00	-5.970191e+01
1.600000e-06	-1.143997e-06	-8.020680e-10	-7.943956e+00	-5.875305e+01
1.610000e-06	-1.097998e-06	-7.840277e-10	-7.624543e+00	-5.779035e+01
1.620000e-06	-1.051874e-06	-7.671919e-10	-7.304254e+00	-5.681333e+01
1.630000e-06	-1.005724e-06	-7.546106e-10	-6.983788e+00	-5.582138e+01
1.640000e-06	-9.595402e-07	-7.432758e-10	-6.663084e+00	-5.481372e+01
1.650000e-06	-9.133384e-07	-7.298773e-10	-6.342257e+00	-5.378948e+01
1.660000e-06	-8.671062e-07	-7.144390e-10	-6.021220e+00	-5.274762e+01
1.670000e-06	-8.207775e-07	-6.976357e-10	-5.699511e+00	-5.168697e+01
1.680000e-06	-7.743735e-07	-6.788124e-10	-5.377280e+00	-5.060624e+01
1.690000e-06	-7.278941e-07	-6.599696e-10	-5.054525e+00	-4.950401e+01
1.700000e-06	-6.814889e-07	-6.424191e-10	-4.732285e+00	-4.837876e+01
1.710000e-06	-6.350339e-07	-6.224776e-10	-4.409700e+00	-4.722885e+01
1.720000e-06	-5.884547e-07	-5.967054e-10	-4.086252e+00	-4.605258e+01
1.730000e-06	-5.418871e-07	-5.720675e-10	-3.762885e+00	-4.484817e+01
1.740000e-06	-4.952405e-07	-5.496103e-10	-3.438970e+00	-4.361381e+01
1.750000e-06	-4.484925e-07	-5.340077e-10	-3.114349e+00	-4.234764e+01
1.760000e-06	-4.016770e-07	-5.199050e-10	-2.789261e+00	-4.104784e+01
1.770000e-06	-3.548811e-07	-5.017997e-10	-2.464308e+00	-3.971260e+01
1.780000e-06	-3.081242e-07	-4.785493e-10	-2.139627e+00	-3.834014e+01
1.790000e-06	-2.613222e-07	-4.533665e-10	-1.814631e+00	-3.692879e+01
1.800000e-06	-2.144596e-07	-4.292543e-10	-1.489216e+00	-3.547697e+01
1.810000e-06	-1.675759e-07	-4.055037e-10	-1.163653e+00	-3.398325e+01
1.820000e-06	-1.207118e-07	-3.850507e-10	-8.382274e-01	-3.244632e+01
1.830000e-06	-7.378188e-08	-3.654289e-10	-5.123442e-01	-3.086509e+01
1.840000e-06	-2.684005e-08	-3.459645e-10	-1.863783e-01	-2.923866e+01
1.850000e-06	2.003303e-08	-3.254923e-10	1.391102e-01	-2.756635e+01
1.860000e-06	6.686307e-08	-3.036070e-10	4.642998e-01	-2.584775e+01
1.870000e-06	1.137801e-07	-2.803455e-10	7.900933e-01	-2.408268e+01
1.880000e-06	1.607307e-07	-2.541181e-10	1.116120e+00	-2.227127e+01
1.890000e-06	2.075898e-07	-2.265714e-10	1.441512e+00	-2.041392e+01
1.900000e-06	2.544552e-07	-1.997187e-10	1.766947e+00	-1.851132e+01
1.910000e-06	3.013225e-07	-1.722563e-10	2.092395e+00	-1.656447e+01
1.920000e-06	3.481837e-07	-1.456088e-10	2.417801e+00	-1.457468e+01
1.930000e-06	3.950293e-07	-1.168749e-10	2.743099e+00	-1.254356e+01
1.940000e-06	4.418169e-07	-8.993826e-11	3.067993e+00	-1.047298e+01
1.950000e-06	4.885413e-07	-6.299944e-11	3.392450e+00	-8.365123e+00
1.960000e-06	5.351672e-07	-3.440396e-11	3.716222e+00	-6.222443e+00
1.970000e-06	5.817116e-07	-5.875080e-12	4.039428e+00	-4.047636e+00
1.980000e-06	6.282674e-07	2.277780e-11	4.362713e+00	-1.843636e+00
1.990000e-06	6.747740e-07	5.288351e-11	4.685657e+00	3.864091e-01
2.000000e-06	7.211851e-07	8.546453e-11	5.007938e+00	2.639164e+00
2.010000e-06	7.674786e-07	1.191416e-10	5.329401e+00	4.911131e+00
2.020000e-06	8.136591e-07	1.523348e-10	5.650081e+00	7.198680e+00
2.030000e-06	8.598089e-07	1.851538e-10	5.970547e+00	9.498079e+00
2.040000e-06	9.059092e-07	2.161078e-10	6.290669e+00	1.180552e+01
2.050000e-06	9.520477e-07	2.460628e-10	6.611056e+00	1.411716e+01
2.060000e-06	9.982017e-07	2.767594e-10	6.931551e+00	1.642914e+01
2.070000e-06	1.044205e-06	3.079738e-10	7.250997e+00	1.873763e+01
2.080000e-06	1.090101e-06	3.398068e-10	7.569706e+00	2.103885e+01
2.090000e-06	1.135931e-06	3.721039e-10	7.887949e+00	2.332909e+01
2.100000e-06	1.181700e-06	4.050808e-10	8.205773e+00	2.560478e+01
2.110000e-06	1.227457e-06	4.368705e-10	8.523510e+00	2.786245e+01
2.120000e-06	1.273165e-06	4.673421e-10	8.840906e+00	3.009884e+01
2.130000e-06	1.318772e-06	4.975866e-10	9.157603e+00	3.231082e+01
2.140000e-06	1.364260e-06	5.278106e-10	9.473472e+00	3.449550e+01
2.150000e-06	1.409584e-06	5.557802e-10	9.788206e+00	3.665020e+01
2.160000e-06	1.454792e-06	5.821410e-10	1.010213e+01	3.877248e+01
2.170000e-06	1.499929e-06	6.075548e-10	1.041557e+01	4.086014e+01
2.180000e-06	1.544968e-06	6.331318e-10	1.072832e+01	4.291122e+01
2.190000e-06	1.589905e-06	6.604007e-10	1.104036e+01	4.492405e+01
2.200000e-06	1.634722e-06	6.899433e-10	1.135157e+01	4.689718e+01
2.210000e-06	1.679363e-06	7.223247e-10	1.166156e+01	4.882946e+01
2.220000e-06	1.723849e-06	7.549032e-10	1.197047e+01	5.071996e+01
2.230000e-06	1.768262e-06	7.822174e-10	1.227888e+01	5.256800e+01
2.240000e-06	1.812589e-06	8.045248e-10	1.258669e+01	5.437317e+01
2.250000e-06	1.856817e-06	8.223797e-10	1.289381e+01	5.613525e+01
2.260000e-06	1.900908e-06	8.383436e-10	1.319998e+01	5.785425e+01
2.270000e-06	1.944910e-06	8.566054e-10	1.350553e+01	5.953037e+01
2.280000e-06	1.988853e-06	8.791299e-10	1.381067e+01	6.116400e+01
2.290000e-06	2.032749e-06	9.049913e-10	1.411549e+01	6.275568e+01
2.300000e-06	2.076632e-06	9.315114e-10	1.442021e+01	6.430612e+01
2.310000e-06	2.120480e-06	9.562755e-10	1.472470e+01	6.581612e+01
2.320000e-06	2.164258e-06	9.783746e-10	1.502869e+01	6.728662e+01
2.330000e-06	2.207910e-06	9.965217e-10	1.533181e+01	6.871863e+01
2.340000e-06	2.251418e-06	1.011290e-09	1.563394e+01	7.011323e+01
2.350000e-06	2.294714e-06	1.026382e-09	1.593458e+01	7.147154e+01
2.360000e-06	2.337726e-06	1.043968e-09	1.623326e+01	7.279475e+01
2.370000e-06	2.380395e-06	1.063438e-09	1.652956e+01	7.408402e+01
2.380000e-06	2.422694e-06	1.083288e-09	1.682328e+01	7.534054e+01
2.390000e-06	2.464737e-06	1.102214e-09	1.711523e+01	7.656548e+01
2.400000e-06	2.506524e-06	1.120427e-09	1.740540e+01	7.776000e+01
2.410000e-06	2.547984e-06	1.137936e-09	1.769330e+01	7.892520e+01
2.420000e-06	2.589098e-06	1.153118e-09	1.797880e+01	8.006216e+01
2.430000e-06	2.629889e-06	1.166251e-09	1.826205e+01	8.117189e+01
2.440000e-06	2.670491e-06	1.180362e-09	1.854399e+01	8.225537e+01
2.450000e-06	2.710948e-06	1.197192e-09	1.882493e+01	8.331350e+01
2.460000e-06	2.751191e-06	1.213909e-09	1.910438e+01	8.434712e+01
2.470000e-06	2.791243e-06	1.227403e-09	1.938250e+01	8.535700e+01
2.480000e-06	2.831223e-06	1.241251e-09	1.966013e+01	8.634387e+01
2.490000e-06	2.871136e-06	1.257359e-09	1.993728e+01	8.730837e+01
2.500000e-06	2.910915e-06	1.271546e-09	2.021350e+01	8.825111e+01
2.510000e-06	2.950576e-06	1.285332e-09	2.048892e+01	8.917261e+01
2.520000e-06	2.990071e-06	1.299066e-09	2.076317e+01	9.007337e+01
2.530000e-06	3.029289e-06	1.312355e-09	2.103550e+01	9.095382e+01
2.540000e-06	3.068264e-06	1.325856e-09	2.130614e+01	9.181436e+01
2.550000e-06	3.107067e-06	1.339391e-09	2.157559e+01	9.265535e+01
2.560000e-06	3.145653e-06	1.347667e-09	2.184353e+01	9.347712e+01
2.570000e-06	3.183970e-06	1.353237e-09	2.210961e+01	9.427996e+01
2.580000e-06	3.222042e-06	1.360614e-09	2.237399e+01	9.506416e+01
2.590000e-06	3.259962e-06	1.368616e-09	2.263731e+01	9.582999e+01
2.600000e-06	3.297723e-06	1.379394e-09	2.289952e+01	9.657769e+01
2.610000e-06	3.335245e-06	1.394321e-09	2.316007e+01	9.730750e+01
2.620000e-06	3.372518e-06	1.410176e-09	2.341890e+01	9.801968e+01
2.630000e-06	3.409552e-06	1.422370e-09	2.367606e+01	9.871445e+01
2.640000e-06	3.446283e-06	1.428800e-09	2.393112e+01	9.939205e+01
2.650000e-06	3.482657e-06	1.433189e-09	2.418371e+01	1.000527e+02
2.660000e-06	3.518809e-06	1.436319e-09	2.443474e+01	1.006967e+02
2.670000e-06	3.554872e-06	1.439452e-09	2.468517e+01	1.013243e+02
2.680000e-06	3.590841e-06	1.447030e-09	2.493494e+01	1.019357e+02
2.690000e-06	3.626648e-06	1.459061e-09	2.518359e+01	1.025312e+02
2.700000e-06	3.662286e-06	1.473125e-09	2.543105e+01	1.031110e+02
2.710000e-06	3.697778e-06	1.483409e-09	2.567751e+01	1.036754e+02
2.720000e-06	3.733091e-06	1.489887e-09	2.592273e+01	1.042247e+02
2.730000e-06	3.768093e-06	1.494434e-09	2.616579e+01	1.047591e+02
2.740000e-06	3.802608e-06	1.498347e-09	2.640546e+01	1.052789e+02
2.750000e-06	3.836605e-06	1.502693e-09	2.664154e+01	1.057844e+02
2.760000e-06	3.870113e-06	1.507976e-09	2.687421e+01	1.062758e+02
2.770000e-06	3.903114e-06	1.516370e-09	2.710337e+01	1.067533e+02
2.780000e-06	3.935739e-06	1.526410e-09	2.732992e+01	1.072172e+02
2.790000e-06	3.968064e-06	1.536315e-09	2.755439e+01	1.076678e+02
2.800000e-06	4.000162e-06	1.546538e-09	2.777728e+01	1.081052e+02
2.810000e-06	4.032125e-06	1.554419e-09	2.799923e+01	1.085297e+02
2.820000e-06	4.063933e-06	1.559709e-09	2.822011e+01	1.089415e+02
2.830000e-06	4.095596e-06	1.563776e-09	2.843998e+01	1.093408e+02
2.840000e-06	4.127071e-06	1.568521e-09	2.865854e+01	1.097278e+02
2.850000e-06	4.158196e-06	1.573284e-09	2.887468e+01	1.101027e+02
2.860000e-06	4.188969e-06	1.578972e-09	2.908837e+01	1.104657e+02
2.870000e-06	4.219467e-06	1.586007e-09	2.930014e+01	1.108170e+02
2.880000e-06	4.249650e-06	1.592422e-09	2.950974e+01	1.111569e+02
2.890000e-06	4.279508e-06	1.596754e-09	2.971707e+01	1.114854e+02
2.900000e-06	4.309073e-06	1.601402e-09	2.992237e+01	1.118029e+02
