# Temperatura_=_13.6
# Concentracion g/m^3_=_1620.0
# C_Vs_to_Am_M_A/Vsm_=_65563218390.804596
# pendiente_HvsI_1/m_=_3716.3
# ordenada_HvsI_A/m_=_1297.0
# frecuencia_Hz_=_135106.98981387145

Tiempo_(s)	Campo_(V.s)	Magnetizacion_(V.s)	Campo_(kA/m)	Magnetizacion_(A/m)
0.000000e+00	-5.524451e-06	-1.851164e-09	-3.837116e+01	-1.204992e+02
1.000000e-08	-5.524715e-06	-1.846948e-09	-3.837299e+01	-1.204431e+02
2.000000e-08	-5.524732e-06	-1.848298e-09	-3.837311e+01	-1.203871e+02
3.000000e-08	-5.524338e-06	-1.852760e-09	-3.837037e+01	-1.203314e+02
4.000000e-08	-5.523413e-06	-1.856016e-09	-3.836395e+01	-1.202760e+02
5.000000e-08	-5.521960e-06	-1.854892e-09	-3.835386e+01	-1.202209e+02
6.000000e-08	-5.520031e-06	-1.845865e-09	-3.834046e+01	-1.201661e+02
7.000000e-08	-5.517590e-06	-1.845745e-09	-3.832351e+01	-1.201115e+02
8.000000e-08	-5.514591e-06	-1.881582e-09	-3.830267e+01	-1.200570e+02
9.000000e-08	-5.511054e-06	-1.899000e-09	-3.827811e+01	-1.200022e+02
1.000000e-07	-5.507009e-06	-1.845456e-09	-3.825002e+01	-1.199471e+02
1.100000e-07	-5.502631e-06	-1.817552e-09	-3.821960e+01	-1.198912e+02
1.200000e-07	-5.498109e-06	-1.863881e-09	-3.818820e+01	-1.198342e+02
1.300000e-07	-5.493375e-06	-1.871534e-09	-3.815532e+01	-1.197757e+02
1.400000e-07	-5.488282e-06	-1.825807e-09	-3.811994e+01	-1.197153e+02
1.500000e-07	-5.482863e-06	-1.792671e-09	-3.808230e+01	-1.196525e+02
1.600000e-07	-5.477081e-06	-1.882056e-09	-3.804214e+01	-1.195869e+02
1.700000e-07	-5.470766e-06	-1.908827e-09	-3.799828e+01	-1.195179e+02
1.800000e-07	-5.463956e-06	-1.830029e-09	-3.795098e+01	-1.194451e+02
1.900000e-07	-5.456849e-06	-1.771031e-09	-3.790162e+01	-1.193680e+02
2.000000e-07	-5.449520e-06	-1.818664e-09	-3.785071e+01	-1.192862e+02
2.100000e-07	-5.441907e-06	-1.883946e-09	-3.779783e+01	-1.191991e+02
2.200000e-07	-5.434005e-06	-1.854385e-09	-3.774295e+01	-1.191064e+02
2.300000e-07	-5.425870e-06	-1.821772e-09	-3.768645e+01	-1.190078e+02
2.400000e-07	-5.417261e-06	-1.826600e-09	-3.762665e+01	-1.189028e+02
2.500000e-07	-5.407950e-06	-1.854066e-09	-3.756198e+01	-1.187912e+02
2.600000e-07	-5.397965e-06	-1.822731e-09	-3.749262e+01	-1.186727e+02
2.700000e-07	-5.387346e-06	-1.804230e-09	-3.741887e+01	-1.185473e+02
2.800000e-07	-5.376266e-06	-1.811139e-09	-3.734191e+01	-1.184147e+02
2.900000e-07	-5.364870e-06	-1.834771e-09	-3.726276e+01	-1.182749e+02
3.000000e-07	-5.353095e-06	-1.803204e-09	-3.718097e+01	-1.181280e+02
3.100000e-07	-5.340891e-06	-1.778672e-09	-3.709620e+01	-1.179740e+02
3.200000e-07	-5.328182e-06	-1.787150e-09	-3.700793e+01	-1.178130e+02
3.300000e-07	-5.315073e-06	-1.807873e-09	-3.691689e+01	-1.176453e+02
3.400000e-07	-5.301698e-06	-1.772262e-09	-3.682399e+01	-1.174710e+02
3.500000e-07	-5.287894e-06	-1.753458e-09	-3.672811e+01	-1.172904e+02
3.600000e-07	-5.273577e-06	-1.794139e-09	-3.662866e+01	-1.171038e+02
3.700000e-07	-5.258770e-06	-1.810326e-09	-3.652582e+01	-1.169116e+02
3.800000e-07	-5.243454e-06	-1.767771e-09	-3.641944e+01	-1.167142e+02
3.900000e-07	-5.227664e-06	-1.774093e-09	-3.630977e+01	-1.165119e+02
4.000000e-07	-5.211424e-06	-1.803390e-09	-3.619697e+01	-1.163051e+02
4.100000e-07	-5.194798e-06	-1.753682e-09	-3.608149e+01	-1.160941e+02
4.200000e-07	-5.177838e-06	-1.729120e-09	-3.596369e+01	-1.158795e+02
4.300000e-07	-5.160619e-06	-1.794426e-09	-3.584409e+01	-1.156615e+02
4.400000e-07	-5.143155e-06	-1.797561e-09	-3.572279e+01	-1.154404e+02
4.500000e-07	-5.125280e-06	-1.727389e-09	-3.559864e+01	-1.152166e+02
4.600000e-07	-5.106893e-06	-1.762901e-09	-3.547093e+01	-1.149903e+02
4.700000e-07	-5.088065e-06	-1.801219e-09	-3.534016e+01	-1.147618e+02
4.800000e-07	-5.068920e-06	-1.737694e-09	-3.520718e+01	-1.145313e+02
4.900000e-07	-5.049516e-06	-1.717187e-09	-3.507240e+01	-1.142988e+02
5.000000e-07	-5.029923e-06	-1.771052e-09	-3.493632e+01	-1.140644e+02
5.100000e-07	-5.010110e-06	-1.722148e-09	-3.479870e+01	-1.138283e+02
5.200000e-07	-4.990004e-06	-1.685777e-09	-3.465905e+01	-1.135903e+02
5.300000e-07	-4.969575e-06	-1.753604e-09	-3.451716e+01	-1.133504e+02
5.400000e-07	-4.948731e-06	-1.758361e-09	-3.437239e+01	-1.131085e+02
5.500000e-07	-4.927458e-06	-1.683053e-09	-3.422462e+01	-1.128644e+02
5.600000e-07	-4.905858e-06	-1.717517e-09	-3.407460e+01	-1.126180e+02
5.700000e-07	-4.883956e-06	-1.755097e-09	-3.392248e+01	-1.123690e+02
5.800000e-07	-4.861763e-06	-1.698556e-09	-3.376833e+01	-1.121172e+02
5.900000e-07	-4.839170e-06	-1.685912e-09	-3.361140e+01	-1.118623e+02
6.000000e-07	-4.816227e-06	-1.728182e-09	-3.345205e+01	-1.116041e+02
6.100000e-07	-4.793021e-06	-1.691565e-09	-3.329087e+01	-1.113422e+02
6.200000e-07	-4.769568e-06	-1.662421e-09	-3.312797e+01	-1.110764e+02
6.300000e-07	-4.745927e-06	-1.695795e-09	-3.296377e+01	-1.108065e+02
6.400000e-07	-4.722007e-06	-1.691923e-09	-3.279763e+01	-1.105321e+02
6.500000e-07	-4.697697e-06	-1.663103e-09	-3.262878e+01	-1.102530e+02
6.600000e-07	-4.672983e-06	-1.681850e-09	-3.245712e+01	-1.099691e+02
6.700000e-07	-4.647718e-06	-1.681801e-09	-3.228164e+01	-1.096801e+02
6.800000e-07	-4.621879e-06	-1.648320e-09	-3.210217e+01	-1.093859e+02
6.900000e-07	-4.595526e-06	-1.646746e-09	-3.191913e+01	-1.090863e+02
7.000000e-07	-4.568669e-06	-1.648091e-09	-3.173259e+01	-1.087813e+02
7.100000e-07	-4.541450e-06	-1.626313e-09	-3.154353e+01	-1.084709e+02
7.200000e-07	-4.513962e-06	-1.624958e-09	-3.135261e+01	-1.081550e+02
7.300000e-07	-4.486283e-06	-1.640481e-09	-3.116036e+01	-1.078336e+02
7.400000e-07	-4.458396e-06	-1.630144e-09	-3.096666e+01	-1.075067e+02
7.500000e-07	-4.430260e-06	-1.620008e-09	-3.077124e+01	-1.071746e+02
7.600000e-07	-4.401907e-06	-1.617555e-09	-3.057431e+01	-1.068371e+02
7.700000e-07	-4.373295e-06	-1.606444e-09	-3.037558e+01	-1.064945e+02
7.800000e-07	-4.344308e-06	-1.593570e-09	-3.017424e+01	-1.061469e+02
7.900000e-07	-4.314968e-06	-1.595309e-09	-2.997046e+01	-1.057944e+02
8.000000e-07	-4.285390e-06	-1.585585e-09	-2.976502e+01	-1.054371e+02
8.100000e-07	-4.255605e-06	-1.573054e-09	-2.955814e+01	-1.050752e+02
8.200000e-07	-4.225579e-06	-1.571532e-09	-2.934959e+01	-1.047087e+02
8.300000e-07	-4.195280e-06	-1.568855e-09	-2.913914e+01	-1.043378e+02
8.400000e-07	-4.164658e-06	-1.555391e-09	-2.892645e+01	-1.039626e+02
8.500000e-07	-4.133721e-06	-1.556941e-09	-2.871157e+01	-1.035831e+02
8.600000e-07	-4.102558e-06	-1.562231e-09	-2.849513e+01	-1.031993e+02
8.700000e-07	-4.071205e-06	-1.554351e-09	-2.827735e+01	-1.028113e+02
8.800000e-07	-4.039613e-06	-1.540280e-09	-2.805792e+01	-1.024191e+02
8.900000e-07	-4.007823e-06	-1.537368e-09	-2.783712e+01	-1.020226e+02
9.000000e-07	-3.975861e-06	-1.522818e-09	-2.761512e+01	-1.016218e+02
9.100000e-07	-3.943592e-06	-1.506838e-09	-2.739099e+01	-1.012165e+02
9.200000e-07	-3.910964e-06	-1.504605e-09	-2.716437e+01	-1.008067e+02
9.300000e-07	-3.877916e-06	-1.503142e-09	-2.693483e+01	-1.003923e+02
9.400000e-07	-3.844324e-06	-1.493029e-09	-2.670151e+01	-9.997303e+01
9.500000e-07	-3.810218e-06	-1.490308e-09	-2.646462e+01	-9.954884e+01
9.600000e-07	-3.775646e-06	-1.489134e-09	-2.622449e+01	-9.911956e+01
9.700000e-07	-3.740743e-06	-1.474600e-09	-2.598207e+01	-9.868506e+01
9.800000e-07	-3.705575e-06	-1.461034e-09	-2.573780e+01	-9.824520e+01
9.900000e-07	-3.670188e-06	-1.455695e-09	-2.549201e+01	-9.779986e+01
1.000000e-06	-3.634612e-06	-1.445089e-09	-2.524491e+01	-9.734894e+01
1.010000e-06	-3.598885e-06	-1.430273e-09	-2.499676e+01	-9.689239e+01
1.020000e-06	-3.563051e-06	-1.425606e-09	-2.474787e+01	-9.643014e+01
1.030000e-06	-3.527050e-06	-1.420118e-09	-2.449782e+01	-9.596220e+01
1.040000e-06	-3.490842e-06	-1.412465e-09	-2.424633e+01	-9.548859e+01
1.050000e-06	-3.454387e-06	-1.409226e-09	-2.399313e+01	-9.500937e+01
1.060000e-06	-3.417665e-06	-1.407736e-09	-2.373806e+01	-9.452466e+01
1.070000e-06	-3.380625e-06	-1.393749e-09	-2.348079e+01	-9.403458e+01
1.080000e-06	-3.343348e-06	-1.376995e-09	-2.322188e+01	-9.353932e+01
1.090000e-06	-3.305838e-06	-1.362379e-09	-2.296135e+01	-9.303908e+01
1.100000e-06	-3.268081e-06	-1.349153e-09	-2.269910e+01	-9.253410e+01
1.110000e-06	-3.230151e-06	-1.337008e-09	-2.243565e+01	-9.202462e+01
1.120000e-06	-3.191967e-06	-1.332795e-09	-2.217044e+01	-9.151093e+01
1.130000e-06	-3.153567e-06	-1.327668e-09	-2.190372e+01	-9.099329e+01
1.140000e-06	-3.114948e-06	-1.319193e-09	-2.163548e+01	-9.047200e+01
1.150000e-06	-3.076112e-06	-1.313246e-09	-2.136574e+01	-8.994731e+01
1.160000e-06	-3.037088e-06	-1.308322e-09	-2.109469e+01	-8.941948e+01
1.170000e-06	-2.997851e-06	-1.295636e-09	-2.082216e+01	-8.888874e+01
1.180000e-06	-2.958459e-06	-1.283275e-09	-2.054856e+01	-8.835526e+01
1.190000e-06	-2.918952e-06	-1.273661e-09	-2.027415e+01	-8.781920e+01
1.200000e-06	-2.879291e-06	-1.263214e-09	-1.999868e+01	-8.728062e+01
1.210000e-06	-2.839467e-06	-1.251097e-09	-1.972208e+01	-8.673958e+01
1.220000e-06	-2.799523e-06	-1.243025e-09	-1.944464e+01	-8.619601e+01
1.230000e-06	-2.759419e-06	-1.235120e-09	-1.916609e+01	-8.564980e+01
1.240000e-06	-2.719104e-06	-1.223759e-09	-1.888607e+01	-8.510077e+01
1.250000e-06	-2.678527e-06	-1.213635e-09	-1.860424e+01	-8.454864e+01
1.260000e-06	-2.637624e-06	-1.205673e-09	-1.832014e+01	-8.399306e+01
1.270000e-06	-2.596406e-06	-1.197160e-09	-1.803384e+01	-8.343360e+01
1.280000e-06	-2.554998e-06	-1.185308e-09	-1.774624e+01	-8.286975e+01
1.290000e-06	-2.513380e-06	-1.173738e-09	-1.745717e+01	-8.230093e+01
1.300000e-06	-2.471446e-06	-1.162642e-09	-1.716591e+01	-8.172651e+01
1.310000e-06	-2.429146e-06	-1.149445e-09	-1.687211e+01	-8.114577e+01
1.320000e-06	-2.386565e-06	-1.134918e-09	-1.657636e+01	-8.055796e+01
1.330000e-06	-2.343751e-06	-1.120898e-09	-1.627898e+01	-7.996229e+01
1.340000e-06	-2.300743e-06	-1.109141e-09	-1.598026e+01	-7.935794e+01
1.350000e-06	-2.257577e-06	-1.102503e-09	-1.568044e+01	-7.874407e+01
1.360000e-06	-2.214204e-06	-1.098674e-09	-1.537919e+01	-7.811985e+01
1.370000e-06	-2.170680e-06	-1.094382e-09	-1.507688e+01	-7.748445e+01
1.380000e-06	-2.127055e-06	-1.084473e-09	-1.477388e+01	-7.683704e+01
1.390000e-06	-2.083358e-06	-1.068986e-09	-1.447037e+01	-7.617687e+01
1.400000e-06	-2.039624e-06	-1.048042e-09	-1.416661e+01	-7.550321e+01
1.410000e-06	-1.995815e-06	-1.028193e-09	-1.386232e+01	-7.481537e+01
1.420000e-06	-1.951916e-06	-1.012608e-09	-1.355742e+01	-7.411276e+01
1.430000e-06	-1.907978e-06	-1.002129e-09	-1.325224e+01	-7.339484e+01
1.440000e-06	-1.863902e-06	-9.959391e-10	-1.294610e+01	-7.266116e+01
1.450000e-06	-1.819660e-06	-9.908478e-10	-1.263880e+01	-7.191135e+01
1.460000e-06	-1.775300e-06	-9.822553e-10	-1.233070e+01	-7.114513e+01
1.470000e-06	-1.730792e-06	-9.695335e-10	-1.202156e+01	-7.036229e+01
1.480000e-06	-1.686144e-06	-9.542273e-10	-1.171145e+01	-6.956273e+01
1.490000e-06	-1.641370e-06	-9.388111e-10	-1.140046e+01	-6.874638e+01
1.500000e-06	-1.596481e-06	-9.213826e-10	-1.108867e+01	-6.791330e+01
1.510000e-06	-1.551451e-06	-9.033881e-10	-1.077591e+01	-6.706356e+01
1.520000e-06	-1.506305e-06	-8.869882e-10	-1.046233e+01	-6.619731e+01
1.530000e-06	-1.461018e-06	-8.736424e-10	-1.014779e+01	-6.531472e+01
1.540000e-06	-1.415581e-06	-8.623743e-10	-9.832199e+00	-6.441599e+01
1.550000e-06	-1.370101e-06	-8.524700e-10	-9.516303e+00	-6.350131e+01
1.560000e-06	-1.324584e-06	-8.399977e-10	-9.200155e+00	-6.257087e+01
1.570000e-06	-1.278981e-06	-8.226358e-10	-8.883411e+00	-6.162485e+01
1.580000e-06	-1.233323e-06	-8.045037e-10	-8.566286e+00	-6.066333e+01
1.590000e-06	-1.187605e-06	-7.853799e-10	-8.248744e+00	-5.968638e+01
1.600000e-06	-1.141776e-06	-7.638006e-10	-7.930431e+00	-5.869395e+01
1.610000e-06	-1.095889e-06	-7.427405e-10	-7.611711e+00	-5.768593e+01
1.620000e-06	-1.049909e-06	-7.258274e-10	-7.292349e+00	-5.666205e+01
1.630000e-06	-1.003808e-06	-7.117775e-10	-6.972142e+00	-5.562197e+01
1.640000e-06	-9.577059e-07	-6.999403e-10	-6.651934e+00	-5.456518e+01
1.650000e-06	-9.115122e-07	-6.888440e-10	-6.331087e+00	-5.349103e+01
1.660000e-06	-8.651388e-07	-6.757957e-10	-6.008991e+00	-5.239875e+01
1.670000e-06	-8.186946e-07	-6.593313e-10	-5.686404e+00	-5.128740e+01
1.680000e-06	-7.721997e-07	-6.397837e-10	-5.363465e+00	-5.015591e+01
1.690000e-06	-7.255993e-07	-6.194650e-10	-5.039792e+00	-4.900305e+01
1.700000e-06	-6.789772e-07	-5.997960e-10	-4.715970e+00	-4.782746e+01
1.710000e-06	-6.323931e-07	-5.773775e-10	-4.392410e+00	-4.662769e+01
1.720000e-06	-5.857725e-07	-5.544128e-10	-4.068598e+00	-4.540214e+01
1.730000e-06	-5.391081e-07	-5.339348e-10	-3.744481e+00	-4.414915e+01
1.740000e-06	-4.923981e-07	-5.182445e-10	-3.420048e+00	-4.286698e+01
1.750000e-06	-4.456999e-07	-5.042824e-10	-3.095697e+00	-4.155384e+01
1.760000e-06	-3.990125e-07	-4.874754e-10	-2.771420e+00	-4.020794e+01
1.770000e-06	-3.522544e-07	-4.672081e-10	-2.446652e+00	-3.882748e+01
1.780000e-06	-3.054431e-07	-4.453988e-10	-2.121515e+00	-3.741071e+01
1.790000e-06	-2.586013e-07	-4.236699e-10	-1.796166e+00	-3.595592e+01
1.800000e-06	-2.117165e-07	-4.033704e-10	-1.470518e+00	-3.446154e+01
1.810000e-06	-1.648795e-07	-3.830598e-10	-1.145203e+00	-3.292608e+01
1.820000e-06	-1.180266e-07	-3.607494e-10	-8.197767e-01	-3.134823e+01
1.830000e-06	-7.114116e-08	-3.377884e-10	-4.941249e-01	-2.972686e+01
1.840000e-06	-2.427314e-08	-3.158617e-10	-1.685939e-01	-2.806105e+01
1.850000e-06	2.260178e-08	-2.943311e-10	1.569851e-01	-2.635012e+01
1.860000e-06	6.945346e-08	-2.727242e-10	4.824027e-01	-2.459363e+01
1.870000e-06	1.162734e-07	-2.502582e-10	8.076000e-01	-2.279143e+01
1.880000e-06	1.630785e-07	-2.257407e-10	1.132694e+00	-2.094366e+01
1.890000e-06	2.099483e-07	-2.000452e-10	1.458237e+00	-1.905076e+01
1.900000e-06	2.568241e-07	-1.727435e-10	1.783823e+00	-1.711348e+01
1.910000e-06	3.036981e-07	-1.431872e-10	2.109395e+00	-1.513290e+01
1.920000e-06	3.505681e-07	-1.119304e-10	2.434940e+00	-1.311039e+01
1.930000e-06	3.973822e-07	-8.160543e-11	2.760096e+00	-1.104767e+01
1.940000e-06	4.441064e-07	-5.396182e-11	3.084628e+00	-8.946726e+00
1.950000e-06	4.907645e-07	-2.967578e-11	3.408701e+00	-6.809859e+00
1.960000e-06	5.373702e-07	-6.000724e-12	3.732411e+00	-4.639639e+00
1.970000e-06	5.838951e-07	2.036358e-11	4.055558e+00	-2.438893e+00
1.980000e-06	6.303969e-07	4.950593e-11	4.378546e+00	-2.106813e-01
1.990000e-06	6.768437e-07	8.162143e-11	4.701151e+00	2.041728e+00
2.000000e-06	7.231894e-07	1.161000e-10	5.023054e+00	4.314888e+00
2.010000e-06	7.694420e-07	1.518167e-10	5.344311e+00	6.605204e+00
2.020000e-06	8.156476e-07	1.886017e-10	5.665241e+00	8.908963e+00
2.030000e-06	8.618983e-07	2.244886e-10	5.986484e+00	1.122237e+01
2.040000e-06	9.081132e-07	2.574145e-10	6.307478e+00	1.354158e+01
2.050000e-06	9.541844e-07	2.860393e-10	6.627475e+00	1.586274e+01
2.060000e-06	1.000187e-06	3.130742e-10	6.946998e+00	1.818201e+01
2.070000e-06	1.046166e-06	3.398828e-10	7.266352e+00	2.049559e+01
2.080000e-06	1.092094e-06	3.704206e-10	7.585357e+00	2.279979e+01
2.090000e-06	1.138002e-06	4.055195e-10	7.904216e+00	2.509101e+01
2.100000e-06	1.183819e-06	4.421202e-10	8.222451e+00	2.736580e+01
2.110000e-06	1.229457e-06	4.774825e-10	8.539437e+00	2.962087e+01
2.120000e-06	1.275026e-06	5.082217e-10	8.855946e+00	3.185312e+01
2.130000e-06	1.320552e-06	5.358597e-10	9.172151e+00	3.405967e+01
2.140000e-06	1.365979e-06	5.629268e-10	9.487674e+00	3.623785e+01
2.150000e-06	1.411315e-06	5.901882e-10	9.802564e+00	3.838522e+01
2.160000e-06	1.456578e-06	6.172026e-10	1.011695e+01	4.049959e+01
2.170000e-06	1.501755e-06	6.425233e-10	1.043073e+01	4.257904e+01
2.180000e-06	1.546806e-06	6.690789e-10	1.074365e+01	4.462187e+01
2.190000e-06	1.591726e-06	6.980802e-10	1.105565e+01	4.662667e+01
2.200000e-06	1.636571e-06	7.276840e-10	1.136712e+01	4.859224e+01
2.210000e-06	1.681301e-06	7.584857e-10	1.167780e+01	5.051766e+01
2.220000e-06	1.725821e-06	7.892547e-10	1.198703e+01	5.240221e+01
2.230000e-06	1.770158e-06	8.175039e-10	1.229498e+01	5.424542e+01
2.240000e-06	1.814332e-06	8.403545e-10	1.260180e+01	5.604700e+01
2.250000e-06	1.858395e-06	8.592121e-10	1.290785e+01	5.780689e+01
2.260000e-06	1.902376e-06	8.757433e-10	1.321333e+01	5.952516e+01
2.270000e-06	1.946299e-06	8.935302e-10	1.351840e+01	6.120209e+01
2.280000e-06	1.990187e-06	9.135949e-10	1.382324e+01	6.283805e+01
2.290000e-06	2.033986e-06	9.372239e-10	1.412745e+01	6.443357e+01
2.300000e-06	2.077659e-06	9.656979e-10	1.443079e+01	6.598927e+01
2.310000e-06	2.121276e-06	9.942946e-10	1.473374e+01	6.750584e+01
2.320000e-06	2.164859e-06	1.016716e-09	1.503645e+01	6.898408e+01
2.330000e-06	2.208357e-06	1.031372e-09	1.533858e+01	7.042479e+01
2.340000e-06	2.251747e-06	1.043545e-09	1.563995e+01	7.182885e+01
2.350000e-06	2.294988e-06	1.057247e-09	1.594029e+01	7.319713e+01
2.360000e-06	2.338015e-06	1.073506e-09	1.623914e+01	7.453053e+01
2.370000e-06	2.380815e-06	1.092639e-09	1.653642e+01	7.582993e+01
2.380000e-06	2.423353e-06	1.113531e-09	1.683187e+01	7.709623e+01
2.390000e-06	2.465539e-06	1.133668e-09	1.712488e+01	7.833027e+01
2.400000e-06	2.507402e-06	1.151743e-09	1.741565e+01	7.953290e+01
2.410000e-06	2.548965e-06	1.169572e-09	1.770434e+01	8.070491e+01
2.420000e-06	2.590260e-06	1.186389e-09	1.799116e+01	8.184708e+01
2.430000e-06	2.631241e-06	1.200788e-09	1.827580e+01	8.296015e+01
2.440000e-06	2.671928e-06	1.214902e-09	1.855840e+01	8.404482e+01
2.450000e-06	2.712460e-06	1.229328e-09	1.883993e+01	8.510176e+01
2.460000e-06	2.752737e-06	1.244708e-09	1.911967e+01	8.613159e+01
2.470000e-06	2.792737e-06	1.260330e-09	1.939750e+01	8.713493e+01
2.480000e-06	2.832629e-06	1.273538e-09	1.967458e+01	8.811236e+01
2.490000e-06	2.872449e-06	1.287054e-09	1.995116e+01	8.906441e+01
2.500000e-06	2.912163e-06	1.299040e-09	2.022700e+01	8.999164e+01
2.510000e-06	2.951722e-06	1.309225e-09	2.050177e+01	9.089456e+01
2.520000e-06	2.991135e-06	1.318861e-09	2.077552e+01	9.177367e+01
2.530000e-06	3.030393e-06	1.329620e-09	2.104819e+01	9.262949e+01
2.540000e-06	3.069410e-06	1.345495e-09	2.131919e+01	9.346250e+01
2.550000e-06	3.108178e-06	1.361576e-09	2.158846e+01	9.427321e+01
2.560000e-06	3.146781e-06	1.373831e-09	2.185659e+01	9.506210e+01
2.570000e-06	3.185177e-06	1.381142e-09	2.212327e+01	9.582970e+01
2.580000e-06	3.223303e-06	1.386083e-09	2.238809e+01	9.657649e+01
2.590000e-06	3.261200e-06	1.389862e-09	2.265131e+01	9.730301e+01
2.600000e-06	3.298875e-06	1.395570e-09	2.291298e+01	9.800977e+01
2.610000e-06	3.336346e-06	1.408599e-09	2.317324e+01	9.869731e+01
2.620000e-06	3.373566e-06	1.427024e-09	2.343176e+01	9.936615e+01
2.630000e-06	3.410491e-06	1.444338e-09	2.368824e+01	1.000169e+02
2.640000e-06	3.447144e-06	1.456941e-09	2.394282e+01	1.006499e+02
2.650000e-06	3.483536e-06	1.463645e-09	2.419558e+01	1.012660e+02
2.660000e-06	3.519725e-06	1.462630e-09	2.444694e+01	1.018655e+02
2.670000e-06	3.555774e-06	1.459531e-09	2.469732e+01	1.024490e+02
2.680000e-06	3.591650e-06	1.461198e-09	2.494651e+01	1.030171e+02
2.690000e-06	3.627346e-06	1.470031e-09	2.519444e+01	1.035703e+02
2.700000e-06	3.662943e-06	1.484729e-09	2.544169e+01	1.041090e+02
2.710000e-06	3.698462e-06	1.499729e-09	2.568840e+01	1.046338e+02
2.720000e-06	3.733803e-06	1.513048e-09	2.593386e+01	1.051452e+02
2.730000e-06	3.768835e-06	1.521129e-09	2.617718e+01	1.056436e+02
2.740000e-06	3.803509e-06	1.525292e-09	2.641802e+01	1.061294e+02
2.750000e-06	3.837739e-06	1.527540e-09	2.665577e+01	1.066031e+02
2.760000e-06	3.871434e-06	1.529584e-09	2.688981e+01	1.070650e+02
2.770000e-06	3.904618e-06	1.533810e-09	2.712029e+01	1.075156e+02
2.780000e-06	3.937317e-06	1.539774e-09	2.734741e+01	1.079550e+02
2.790000e-06	3.969669e-06	1.547396e-09	2.757212e+01	1.083838e+02
2.800000e-06	4.001750e-06	1.558601e-09	2.779494e+01	1.088021e+02
2.810000e-06	4.033590e-06	1.571109e-09	2.801609e+01	1.092103e+02
2.820000e-06	4.065296e-06	1.580237e-09	2.823631e+01	1.096085e+02
2.830000e-06	4.096847e-06	1.587031e-09	2.845546e+01	1.099971e+02
2.840000e-06	4.128219e-06	1.590829e-09	2.867335e+01	1.103761e+02
2.850000e-06	4.159274e-06	1.590851e-09	2.888905e+01	1.107459e+02
2.860000e-06	4.189963e-06	1.590812e-09	2.910221e+01	1.111066e+02
2.870000e-06	4.220420e-06	1.597093e-09	2.931376e+01	1.114583e+02
2.880000e-06	4.250590e-06	1.608650e-09	2.952331e+01	1.118013e+02
2.890000e-06	4.280358e-06	1.620205e-09	2.973007e+01	1.121356e+02
2.900000e-06	4.309801e-06	1.630395e-09	2.993457e+01	1.124614e+02
