# Temperatura_=_-20.95
# Concentracion g/m^3_=_1620.0
# C_Vs_to_Am_M_A/Vsm_=_65563218390.804596
# pendiente_HvsI_1/m_=_3716.3
# ordenada_HvsI_A/m_=_1297.0
# frecuencia_Hz_=_135095.20868530252

Tiempo_(s)	Campo_(V.s)	Magnetizacion_(V.s)	Campo_(kA/m)	Magnetizacion_(A/m)
0.000000e+00	-5.519983e-06	-1.145808e-09	-3.838344e+01	-7.399399e+01
1.000000e-08	-5.520087e-06	-1.145879e-09	-3.838416e+01	-7.401247e+01
2.000000e-08	-5.520005e-06	-1.149129e-09	-3.838359e+01	-7.403457e+01
3.000000e-08	-5.519531e-06	-1.153004e-09	-3.838029e+01	-7.406020e+01
4.000000e-08	-5.518618e-06	-1.153205e-09	-3.837395e+01	-7.408921e+01
5.000000e-08	-5.517220e-06	-1.146662e-09	-3.836422e+01	-7.412139e+01
6.000000e-08	-5.515174e-06	-1.129622e-09	-3.834999e+01	-7.415645e+01
7.000000e-08	-5.512518e-06	-1.118702e-09	-3.833153e+01	-7.419404e+01
8.000000e-08	-5.509326e-06	-1.149191e-09	-3.830934e+01	-7.423377e+01
9.000000e-08	-5.505595e-06	-1.206659e-09	-3.828339e+01	-7.427519e+01
1.000000e-07	-5.501410e-06	-1.222111e-09	-3.825429e+01	-7.431781e+01
1.100000e-07	-5.496930e-06	-1.130187e-09	-3.822314e+01	-7.436110e+01
1.200000e-07	-5.492327e-06	-1.101810e-09	-3.819113e+01	-7.440453e+01
1.300000e-07	-5.487551e-06	-1.113537e-09	-3.815792e+01	-7.444753e+01
1.400000e-07	-5.482305e-06	-1.187750e-09	-3.812145e+01	-7.448956e+01
1.500000e-07	-5.476515e-06	-1.150095e-09	-3.808118e+01	-7.453005e+01
1.600000e-07	-5.470467e-06	-1.129719e-09	-3.803913e+01	-7.456849e+01
1.700000e-07	-5.464129e-06	-1.144803e-09	-3.799506e+01	-7.460437e+01
1.800000e-07	-5.457295e-06	-1.173310e-09	-3.794754e+01	-7.463725e+01
1.900000e-07	-5.450032e-06	-1.175895e-09	-3.789703e+01	-7.466672e+01
2.000000e-07	-5.442430e-06	-1.124107e-09	-3.784417e+01	-7.469242e+01
2.100000e-07	-5.434583e-06	-1.135464e-09	-3.778960e+01	-7.471408e+01
2.200000e-07	-5.426532e-06	-1.159275e-09	-3.773362e+01	-7.473149e+01
2.300000e-07	-5.418243e-06	-1.198649e-09	-3.767599e+01	-7.474452e+01
2.400000e-07	-5.409494e-06	-1.160745e-09	-3.761514e+01	-7.475310e+01
2.500000e-07	-5.399989e-06	-1.163909e-09	-3.754906e+01	-7.475727e+01
2.600000e-07	-5.389693e-06	-1.148052e-09	-3.747746e+01	-7.475712e+01
2.700000e-07	-5.378846e-06	-1.168815e-09	-3.740203e+01	-7.475283e+01
2.800000e-07	-5.367590e-06	-1.138925e-09	-3.732377e+01	-7.474466e+01
2.900000e-07	-5.355903e-06	-1.162376e-09	-3.724250e+01	-7.473294e+01
3.000000e-07	-5.343844e-06	-1.160595e-09	-3.715864e+01	-7.471804e+01
3.100000e-07	-5.331430e-06	-1.168080e-09	-3.707233e+01	-7.470040e+01
3.200000e-07	-5.318611e-06	-1.142556e-09	-3.698319e+01	-7.468049e+01
3.300000e-07	-5.305423e-06	-1.150184e-09	-3.689149e+01	-7.465884e+01
3.400000e-07	-5.291864e-06	-1.150385e-09	-3.679720e+01	-7.463598e+01
3.500000e-07	-5.277907e-06	-1.154219e-09	-3.670015e+01	-7.461246e+01
3.600000e-07	-5.263431e-06	-1.146618e-09	-3.659949e+01	-7.458883e+01
3.700000e-07	-5.248522e-06	-1.159962e-09	-3.649582e+01	-7.456563e+01
3.800000e-07	-5.233100e-06	-1.159730e-09	-3.638858e+01	-7.454337e+01
3.900000e-07	-5.217022e-06	-1.150292e-09	-3.627678e+01	-7.452254e+01
4.000000e-07	-5.200396e-06	-1.154520e-09	-3.616118e+01	-7.450358e+01
4.100000e-07	-5.183450e-06	-1.158559e-09	-3.604334e+01	-7.448689e+01
4.200000e-07	-5.166244e-06	-1.154873e-09	-3.592370e+01	-7.447278e+01
4.300000e-07	-5.148677e-06	-1.144901e-09	-3.580155e+01	-7.446154e+01
4.400000e-07	-5.130936e-06	-1.175362e-09	-3.567818e+01	-7.445335e+01
4.500000e-07	-5.112909e-06	-1.171496e-09	-3.555283e+01	-7.444835e+01
4.600000e-07	-5.094316e-06	-1.162310e-09	-3.542354e+01	-7.444658e+01
4.700000e-07	-5.075214e-06	-1.148506e-09	-3.529071e+01	-7.444804e+01
4.800000e-07	-5.055818e-06	-1.175452e-09	-3.515584e+01	-7.445261e+01
4.900000e-07	-5.036169e-06	-1.160428e-09	-3.501922e+01	-7.446014e+01
5.000000e-07	-5.016350e-06	-1.157055e-09	-3.488141e+01	-7.447040e+01
5.100000e-07	-4.996380e-06	-1.145331e-09	-3.474254e+01	-7.448312e+01
5.200000e-07	-4.976121e-06	-1.152659e-09	-3.460167e+01	-7.449795e+01
5.300000e-07	-4.955463e-06	-1.140640e-09	-3.445802e+01	-7.451453e+01
5.400000e-07	-4.934455e-06	-1.164338e-09	-3.431194e+01	-7.453245e+01
5.500000e-07	-4.913054e-06	-1.160730e-09	-3.416313e+01	-7.455128e+01
5.600000e-07	-4.891285e-06	-1.154643e-09	-3.401176e+01	-7.457058e+01
5.700000e-07	-4.869284e-06	-1.145834e-09	-3.385877e+01	-7.458992e+01
5.800000e-07	-4.846997e-06	-1.158062e-09	-3.370380e+01	-7.460885e+01
5.900000e-07	-4.824287e-06	-1.145264e-09	-3.354588e+01	-7.462697e+01
6.000000e-07	-4.801221e-06	-1.142985e-09	-3.338549e+01	-7.464387e+01
6.100000e-07	-4.777935e-06	-1.144107e-09	-3.322357e+01	-7.465922e+01
6.200000e-07	-4.754308e-06	-1.147892e-09	-3.305928e+01	-7.467269e+01
6.300000e-07	-4.730430e-06	-1.146109e-09	-3.289325e+01	-7.468402e+01
6.400000e-07	-4.706352e-06	-1.154113e-09	-3.272582e+01	-7.469299e+01
6.500000e-07	-4.681946e-06	-1.152519e-09	-3.255611e+01	-7.469943e+01
6.600000e-07	-4.657197e-06	-1.144965e-09	-3.238402e+01	-7.470325e+01
6.700000e-07	-4.631951e-06	-1.143290e-09	-3.220847e+01	-7.470438e+01
6.800000e-07	-4.606049e-06	-1.138939e-09	-3.202836e+01	-7.470283e+01
6.900000e-07	-4.579631e-06	-1.136545e-09	-3.184466e+01	-7.469864e+01
7.000000e-07	-4.552757e-06	-1.138871e-09	-3.165779e+01	-7.469190e+01
7.100000e-07	-4.525411e-06	-1.143349e-09	-3.146764e+01	-7.468276e+01
7.200000e-07	-4.497733e-06	-1.137944e-09	-3.127518e+01	-7.467135e+01
7.300000e-07	-4.469905e-06	-1.145703e-09	-3.108168e+01	-7.465789e+01
7.400000e-07	-4.441998e-06	-1.140509e-09	-3.088763e+01	-7.464255e+01
7.500000e-07	-4.413893e-06	-1.132212e-09	-3.069220e+01	-7.462556e+01
7.600000e-07	-4.385533e-06	-1.126357e-09	-3.049499e+01	-7.460712e+01
7.700000e-07	-4.356872e-06	-1.134987e-09	-3.029570e+01	-7.458741e+01
7.800000e-07	-4.327860e-06	-1.127040e-09	-3.009396e+01	-7.456661e+01
7.900000e-07	-4.298437e-06	-1.131985e-09	-2.988937e+01	-7.454488e+01
8.000000e-07	-4.268718e-06	-1.135349e-09	-2.968271e+01	-7.452230e+01
8.100000e-07	-4.238818e-06	-1.131794e-09	-2.947480e+01	-7.449897e+01
8.200000e-07	-4.208651e-06	-1.119881e-09	-2.926503e+01	-7.447489e+01
8.300000e-07	-4.178230e-06	-1.126095e-09	-2.905350e+01	-7.445005e+01
8.400000e-07	-4.147439e-06	-1.123152e-09	-2.883939e+01	-7.442436e+01
8.500000e-07	-4.116262e-06	-1.126207e-09	-2.862261e+01	-7.439769e+01
8.600000e-07	-4.084877e-06	-1.131084e-09	-2.840437e+01	-7.436987e+01
8.700000e-07	-4.053312e-06	-1.135924e-09	-2.818488e+01	-7.434066e+01
8.800000e-07	-4.021560e-06	-1.128266e-09	-2.796409e+01	-7.430979e+01
8.900000e-07	-3.989695e-06	-1.128418e-09	-2.774251e+01	-7.427696e+01
9.000000e-07	-3.957714e-06	-1.124433e-09	-2.752014e+01	-7.424180e+01
9.100000e-07	-3.925379e-06	-1.117991e-09	-2.729529e+01	-7.420397e+01
9.200000e-07	-3.892669e-06	-1.113385e-09	-2.706784e+01	-7.416307e+01
9.300000e-07	-3.859580e-06	-1.118371e-09	-2.683776e+01	-7.411872e+01
9.400000e-07	-3.826007e-06	-1.119986e-09	-2.660430e+01	-7.407053e+01
9.500000e-07	-3.792018e-06	-1.116735e-09	-2.636796e+01	-7.401814e+01
9.600000e-07	-3.757512e-06	-1.115290e-09	-2.612802e+01	-7.396121e+01
9.700000e-07	-3.722525e-06	-1.112875e-09	-2.588473e+01	-7.389941e+01
9.800000e-07	-3.687283e-06	-1.107894e-09	-2.563968e+01	-7.383249e+01
9.900000e-07	-3.651823e-06	-1.104537e-09	-2.539311e+01	-7.376024e+01
1.000000e-06	-3.616146e-06	-1.105148e-09	-2.514503e+01	-7.368249e+01
1.010000e-06	-3.580305e-06	-1.099947e-09	-2.489580e+01	-7.359915e+01
1.020000e-06	-3.544344e-06	-1.101147e-09	-2.464574e+01	-7.351019e+01
1.030000e-06	-3.508267e-06	-1.102676e-09	-2.439488e+01	-7.341566e+01
1.040000e-06	-3.472051e-06	-1.102839e-09	-2.414305e+01	-7.331568e+01
1.050000e-06	-3.435560e-06	-1.098868e-09	-2.388931e+01	-7.321042e+01
1.060000e-06	-3.398779e-06	-1.098314e-09	-2.363355e+01	-7.310014e+01
1.070000e-06	-3.361745e-06	-1.089929e-09	-2.337604e+01	-7.298515e+01
1.080000e-06	-3.324375e-06	-1.084044e-09	-2.311618e+01	-7.286580e+01
1.090000e-06	-3.286741e-06	-1.079581e-09	-2.285449e+01	-7.274251e+01
1.100000e-06	-3.248955e-06	-1.080566e-09	-2.259175e+01	-7.261571e+01
1.110000e-06	-3.210982e-06	-1.075016e-09	-2.232770e+01	-7.248589e+01
1.120000e-06	-3.172793e-06	-1.070270e-09	-2.206215e+01	-7.235352e+01
1.130000e-06	-3.134392e-06	-1.065603e-09	-2.179513e+01	-7.221907e+01
1.140000e-06	-3.095751e-06	-1.064843e-09	-2.152643e+01	-7.208302e+01
1.150000e-06	-3.056880e-06	-1.062927e-09	-2.125615e+01	-7.194580e+01
1.160000e-06	-3.017796e-06	-1.061903e-09	-2.098437e+01	-7.180780e+01
1.170000e-06	-2.978499e-06	-1.058066e-09	-2.071112e+01	-7.166938e+01
1.180000e-06	-2.938984e-06	-1.055794e-09	-2.043635e+01	-7.153080e+01
1.190000e-06	-2.899327e-06	-1.053651e-09	-2.016060e+01	-7.139227e+01
1.200000e-06	-2.859560e-06	-1.049622e-09	-1.988407e+01	-7.125390e+01
1.210000e-06	-2.819641e-06	-1.042283e-09	-1.960649e+01	-7.111573e+01
1.220000e-06	-2.779618e-06	-1.039516e-09	-1.932819e+01	-7.097766e+01
1.230000e-06	-2.739451e-06	-1.036976e-09	-1.904889e+01	-7.083953e+01
1.240000e-06	-2.699024e-06	-1.033825e-09	-1.876778e+01	-7.070106e+01
1.250000e-06	-2.658417e-06	-1.030952e-09	-1.848541e+01	-7.056186e+01
1.260000e-06	-2.617800e-06	-1.029267e-09	-1.820298e+01	-7.042144e+01
1.270000e-06	-2.576988e-06	-1.026646e-09	-1.791920e+01	-7.027924e+01
1.280000e-06	-2.535820e-06	-1.018810e-09	-1.763293e+01	-7.013459e+01
1.290000e-06	-2.494262e-06	-1.013518e-09	-1.734395e+01	-6.998675e+01
1.300000e-06	-2.452385e-06	-1.008261e-09	-1.705276e+01	-6.983491e+01
1.310000e-06	-2.410237e-06	-1.003173e-09	-1.675969e+01	-6.967823e+01
1.320000e-06	-2.367757e-06	-9.970534e-10	-1.646430e+01	-6.951580e+01
1.330000e-06	-2.325043e-06	-9.933620e-10	-1.616729e+01	-6.934671e+01
1.340000e-06	-2.282090e-06	-9.906324e-10	-1.586861e+01	-6.917003e+01
1.350000e-06	-2.238852e-06	-9.909323e-10	-1.556795e+01	-6.898486e+01
1.360000e-06	-2.195384e-06	-9.906412e-10	-1.526570e+01	-6.879032e+01
1.370000e-06	-2.151829e-06	-9.901220e-10	-1.496283e+01	-6.858556e+01
1.380000e-06	-2.108177e-06	-9.856218e-10	-1.465930e+01	-6.836979e+01
1.390000e-06	-2.064381e-06	-9.793690e-10	-1.435476e+01	-6.814231e+01
1.400000e-06	-2.020524e-06	-9.694265e-10	-1.404980e+01	-6.790249e+01
1.410000e-06	-1.976629e-06	-9.604766e-10	-1.374457e+01	-6.764980e+01
1.420000e-06	-1.932680e-06	-9.533239e-10	-1.343897e+01	-6.738379e+01
1.430000e-06	-1.888645e-06	-9.513721e-10	-1.313278e+01	-6.710416e+01
1.440000e-06	-1.844490e-06	-9.502497e-10	-1.282574e+01	-6.681070e+01
1.450000e-06	-1.800240e-06	-9.466852e-10	-1.251805e+01	-6.650329e+01
1.460000e-06	-1.755901e-06	-9.419692e-10	-1.220973e+01	-6.618196e+01
1.470000e-06	-1.711498e-06	-9.347059e-10	-1.190098e+01	-6.584682e+01
1.480000e-06	-1.666971e-06	-9.268285e-10	-1.159135e+01	-6.549808e+01
1.490000e-06	-1.622191e-06	-9.225432e-10	-1.127997e+01	-6.513605e+01
1.500000e-06	-1.577253e-06	-9.153524e-10	-1.096750e+01	-6.476110e+01
1.510000e-06	-1.532238e-06	-9.050279e-10	-1.065449e+01	-6.437366e+01
1.520000e-06	-1.487037e-06	-8.975940e-10	-1.034018e+01	-6.397421e+01
1.530000e-06	-1.441738e-06	-8.935661e-10	-1.002519e+01	-6.356325e+01
1.540000e-06	-1.396361e-06	-8.891871e-10	-9.709654e+00	-6.314128e+01
1.550000e-06	-1.350823e-06	-8.852377e-10	-9.393003e+00	-6.270879e+01
1.560000e-06	-1.305246e-06	-8.781289e-10	-9.076081e+00	-6.226622e+01
1.570000e-06	-1.259603e-06	-8.668658e-10	-8.758700e+00	-6.181397e+01
1.580000e-06	-1.213885e-06	-8.573800e-10	-8.440802e+00	-6.135234e+01
1.590000e-06	-1.168126e-06	-8.485784e-10	-8.122612e+00	-6.088155e+01
1.600000e-06	-1.122274e-06	-8.380419e-10	-7.803782e+00	-6.040168e+01
1.610000e-06	-1.076288e-06	-8.267554e-10	-7.484016e+00	-5.991271e+01
1.620000e-06	-1.030177e-06	-8.189643e-10	-7.163381e+00	-5.941443e+01
1.630000e-06	-9.840330e-07	-8.126478e-10	-6.842515e+00	-5.890652e+01
1.640000e-06	-9.379035e-07	-8.079135e-10	-6.521752e+00	-5.838844e+01
1.650000e-06	-8.917903e-07	-8.022214e-10	-6.201102e+00	-5.785952e+01
1.660000e-06	-8.455129e-07	-7.953719e-10	-5.879310e+00	-5.731888e+01
1.670000e-06	-7.990861e-07	-7.856225e-10	-5.556479e+00	-5.676549e+01
1.680000e-06	-7.526967e-07	-7.746888e-10	-5.233909e+00	-5.619814e+01
1.690000e-06	-7.062626e-07	-7.644808e-10	-4.911027e+00	-5.561544e+01
1.700000e-06	-6.597692e-07	-7.516376e-10	-4.587733e+00	-5.501586e+01
1.710000e-06	-6.132175e-07	-7.360022e-10	-4.264034e+00	-5.439774e+01
1.720000e-06	-5.666494e-07	-7.228977e-10	-3.940221e+00	-5.375928e+01
1.730000e-06	-5.200935e-07	-7.120147e-10	-3.616493e+00	-5.309859e+01
1.740000e-06	-4.734433e-07	-7.049632e-10	-3.292108e+00	-5.241369e+01
1.750000e-06	-4.267358e-07	-6.982248e-10	-2.967326e+00	-5.170255e+01
1.760000e-06	-3.800072e-07	-6.866197e-10	-2.642396e+00	-5.096310e+01
1.770000e-06	-3.333068e-07	-6.705814e-10	-2.317663e+00	-5.019327e+01
1.780000e-06	-2.865552e-07	-6.543911e-10	-1.992574e+00	-4.939103e+01
1.790000e-06	-2.397259e-07	-6.407474e-10	-1.666944e+00	-4.855438e+01
1.800000e-06	-1.928960e-07	-6.281461e-10	-1.341310e+00	-4.768141e+01
1.810000e-06	-1.460039e-07	-6.158592e-10	-1.015244e+00	-4.677032e+01
1.820000e-06	-9.915841e-08	-6.045134e-10	-6.895023e-01	-4.581945e+01
1.830000e-06	-5.239741e-08	-5.933894e-10	-3.643476e-01	-4.482727e+01
1.840000e-06	-5.628570e-09	-5.803913e-10	-3.913850e-02	-4.379248e+01
1.850000e-06	4.117917e-08	-5.652855e-10	2.863411e-01	-4.271393e+01
1.860000e-06	8.795751e-08	-5.488388e-10	6.116163e-01	-4.159074e+01
1.870000e-06	1.346900e-07	-5.313430e-10	9.365724e-01	-4.042224e+01
1.880000e-06	1.813684e-07	-5.137895e-10	1.261153e+00	-3.920800e+01
1.890000e-06	2.281094e-07	-4.955945e-10	1.586168e+00	-3.794789e+01
1.900000e-06	2.749506e-07	-4.763983e-10	1.911881e+00	-3.664200e+01
1.910000e-06	3.217300e-07	-4.577785e-10	2.237163e+00	-3.529071e+01
1.920000e-06	3.685051e-07	-4.378371e-10	2.562416e+00	-3.389467e+01
1.930000e-06	4.153192e-07	-4.184016e-10	2.887940e+00	-3.245479e+01
1.940000e-06	4.619954e-07	-3.997870e-10	3.212505e+00	-3.097223e+01
1.950000e-06	5.085616e-07	-3.798871e-10	3.536305e+00	-2.944840e+01
1.960000e-06	5.550993e-07	-3.572985e-10	3.859906e+00	-2.788496e+01
1.970000e-06	6.016478e-07	-3.335587e-10	4.183584e+00	-2.628376e+01
1.980000e-06	6.481528e-07	-3.099849e-10	4.506958e+00	-2.464689e+01
1.990000e-06	6.944912e-07	-2.860127e-10	4.829174e+00	-2.297659e+01
2.000000e-06	7.407619e-07	-2.626074e-10	5.150920e+00	-2.127529e+01
2.010000e-06	7.869719e-07	-2.400898e-10	5.472243e+00	-1.954555e+01
2.020000e-06	8.331778e-07	-2.148747e-10	5.793538e+00	-1.779004e+01
2.030000e-06	8.793614e-07	-1.865152e-10	6.114677e+00	-1.601156e+01
2.040000e-06	9.255041e-07	-1.597091e-10	6.435533e+00	-1.421295e+01
2.050000e-06	9.716152e-07	-1.363741e-10	6.756168e+00	-1.239713e+01
2.060000e-06	1.017624e-06	-1.143438e-10	7.076091e+00	-1.056703e+01
2.070000e-06	1.063579e-06	-9.208529e-11	7.395641e+00	-8.725601e+00
2.080000e-06	1.109476e-06	-6.960271e-11	7.714786e+00	-6.875782e+00
2.090000e-06	1.155311e-06	-4.575833e-11	8.033501e+00	-5.020480e+00
2.100000e-06	1.201080e-06	-1.835475e-11	8.351760e+00	-3.162557e+00
2.110000e-06	1.246742e-06	9.941386e-12	8.669271e+00	-1.304809e+00
2.120000e-06	1.292335e-06	3.575668e-11	8.986308e+00	5.500414e-01
2.130000e-06	1.337839e-06	6.137639e-11	9.302719e+00	2.399363e+00
2.140000e-06	1.383214e-06	8.550187e-11	9.618236e+00	4.240624e+00
2.150000e-06	1.428495e-06	1.054756e-10	9.933102e+00	6.071401e+00
2.160000e-06	1.473663e-06	1.244126e-10	1.024718e+01	7.889389e+00
2.170000e-06	1.518690e-06	1.438647e-10	1.056028e+01	9.692403e+00
2.180000e-06	1.563630e-06	1.672383e-10	1.087277e+01	1.147838e+01
2.190000e-06	1.608500e-06	1.953523e-10	1.118478e+01	1.324540e+01
2.200000e-06	1.653237e-06	2.249277e-10	1.149586e+01	1.499165e+01
2.210000e-06	1.697826e-06	2.552236e-10	1.180591e+01	1.671547e+01
2.220000e-06	1.742257e-06	2.848204e-10	1.211486e+01	1.841531e+01
2.230000e-06	1.786487e-06	3.090228e-10	1.242241e+01	2.008975e+01
2.240000e-06	1.830609e-06	3.258498e-10	1.272921e+01	2.173751e+01
2.250000e-06	1.874665e-06	3.397169e-10	1.303556e+01	2.335741e+01
2.260000e-06	1.918656e-06	3.553873e-10	1.334145e+01	2.494840e+01
2.270000e-06	1.962608e-06	3.748540e-10	1.364708e+01	2.650955e+01
2.280000e-06	2.006524e-06	3.965099e-10	1.395245e+01	2.804002e+01
2.290000e-06	2.050415e-06	4.208174e-10	1.425765e+01	2.953911e+01
2.300000e-06	2.094210e-06	4.446263e-10	1.456218e+01	3.100619e+01
2.310000e-06	2.137887e-06	4.661287e-10	1.486589e+01	3.244074e+01
2.320000e-06	2.181461e-06	4.844624e-10	1.516888e+01	3.384235e+01
2.330000e-06	2.224907e-06	4.986154e-10	1.547099e+01	3.521069e+01
2.340000e-06	2.268179e-06	5.112554e-10	1.577188e+01	3.654551e+01
2.350000e-06	2.311350e-06	5.260303e-10	1.607207e+01	3.784667e+01
2.360000e-06	2.354223e-06	5.436466e-10	1.637019e+01	3.911409e+01
2.370000e-06	2.396707e-06	5.624918e-10	1.666561e+01	4.034778e+01
2.380000e-06	2.438913e-06	5.834296e-10	1.695909e+01	4.154782e+01
2.390000e-06	2.480764e-06	6.052759e-10	1.725010e+01	4.271438e+01
2.400000e-06	2.522365e-06	6.223654e-10	1.753937e+01	4.384770e+01
2.410000e-06	2.563687e-06	6.348786e-10	1.782670e+01	4.494806e+01
2.420000e-06	2.604611e-06	6.456253e-10	1.811127e+01	4.601583e+01
2.430000e-06	2.645165e-06	6.558748e-10	1.839327e+01	4.705144e+01
2.440000e-06	2.685561e-06	6.695589e-10	1.867416e+01	4.805538e+01
2.450000e-06	2.725876e-06	6.849483e-10	1.895450e+01	4.902818e+01
2.460000e-06	2.765973e-06	7.015539e-10	1.923331e+01	4.997043e+01
2.470000e-06	2.805885e-06	7.163135e-10	1.951084e+01	5.088276e+01
2.480000e-06	2.845744e-06	7.292138e-10	1.978800e+01	5.176585e+01
2.490000e-06	2.885526e-06	7.413125e-10	2.006463e+01	5.262040e+01
2.500000e-06	2.925148e-06	7.499483e-10	2.034014e+01	5.344716e+01
2.510000e-06	2.964560e-06	7.601920e-10	2.061419e+01	5.424687e+01
2.520000e-06	3.003743e-06	7.707942e-10	2.088666e+01	5.502033e+01
2.530000e-06	3.042766e-06	7.837982e-10	2.115800e+01	5.576832e+01
2.540000e-06	3.081617e-06	7.987746e-10	2.142815e+01	5.649163e+01
2.550000e-06	3.120292e-06	8.110548e-10	2.169708e+01	5.719107e+01
2.560000e-06	3.158766e-06	8.196420e-10	2.196461e+01	5.786742e+01
2.570000e-06	3.196983e-06	8.246068e-10	2.223036e+01	5.852147e+01
2.580000e-06	3.234957e-06	8.297202e-10	2.249441e+01	5.915396e+01
2.590000e-06	3.272779e-06	8.356002e-10	2.275741e+01	5.976566e+01
2.600000e-06	3.310438e-06	8.456708e-10	2.301927e+01	6.035726e+01
2.610000e-06	3.347738e-06	8.574664e-10	2.327864e+01	6.092945e+01
2.620000e-06	3.384771e-06	8.703790e-10	2.353615e+01	6.148288e+01
2.630000e-06	3.421617e-06	8.809613e-10	2.379236e+01	6.201817e+01
2.640000e-06	3.458125e-06	8.858843e-10	2.404622e+01	6.253590e+01
2.650000e-06	3.494345e-06	8.884579e-10	2.429808e+01	6.303660e+01
2.660000e-06	3.530412e-06	8.912575e-10	2.454887e+01	6.352076e+01
2.670000e-06	3.566380e-06	8.952115e-10	2.479898e+01	6.398886e+01
2.680000e-06	3.602269e-06	9.007389e-10	2.504853e+01	6.444131e+01
2.690000e-06	3.638030e-06	9.111569e-10	2.529720e+01	6.487849e+01
2.700000e-06	3.673557e-06	9.220492e-10	2.554424e+01	6.530075e+01
2.710000e-06	3.708870e-06	9.276898e-10	2.578979e+01	6.570842e+01
2.720000e-06	3.743972e-06	9.302944e-10	2.603387e+01	6.610178e+01
2.730000e-06	3.778631e-06	9.320027e-10	2.627487e+01	6.648110e+01
2.740000e-06	3.812803e-06	9.356076e-10	2.651249e+01	6.684661e+01
2.750000e-06	3.846505e-06	9.399490e-10	2.674684e+01	6.719855e+01
2.760000e-06	3.879689e-06	9.448694e-10	2.697758e+01	6.753712e+01
2.770000e-06	3.912446e-06	9.526647e-10	2.720536e+01	6.786253e+01
2.780000e-06	3.944848e-06	9.623090e-10	2.743067e+01	6.817497e+01
2.790000e-06	3.976971e-06	9.712748e-10	2.765404e+01	6.847465e+01
2.800000e-06	4.008890e-06	9.759940e-10	2.787599e+01	6.876177e+01
2.810000e-06	4.040632e-06	9.776615e-10	2.809671e+01	6.903652e+01
2.820000e-06	4.072221e-06	9.792309e-10	2.831636e+01	6.929912e+01
2.830000e-06	4.103626e-06	9.827030e-10	2.853474e+01	6.954980e+01
2.840000e-06	4.134765e-06	9.862771e-10	2.875126e+01	6.978879e+01
2.850000e-06	4.165543e-06	9.894590e-10	2.896528e+01	7.001636e+01
2.860000e-06	4.196050e-06	9.943682e-10	2.917741e+01	7.023276e+01
2.870000e-06	4.226330e-06	1.000694e-09	2.938796e+01	7.043828e+01
2.880000e-06	4.256332e-06	1.004292e-09	2.959659e+01	7.063322e+01
2.890000e-06	4.286042e-06	1.004002e-09	2.980318e+01	7.081789e+01
2.900000e-06	4.315479e-06	1.004891e-09	3.000787e+01	7.099264e+01
