# Temperatura_=_4.27
# Concentracion g/m^3_=_1620.0
# C_Vs_to_Am_M_A/Vsm_=_65563218390.804596
# pendiente_HvsI_1/m_=_3716.3
# ordenada_HvsI_A/m_=_1297.0
# frecuencia_Hz_=_135108.6806221655

Tiempo_(s)	Campo_(V.s)	Magnetizacion_(V.s)	Campo_(kA/m)	Magnetizacion_(A/m)
0.000000e+00	-5.521347e-06	-1.556297e-09	-3.837342e+01	-1.024524e+02
1.000000e-08	-5.521542e-06	-1.555044e-09	-3.837477e+01	-1.024131e+02
2.000000e-08	-5.521548e-06	-1.559425e-09	-3.837481e+01	-1.023771e+02
3.000000e-08	-5.521241e-06	-1.565914e-09	-3.837268e+01	-1.023446e+02
4.000000e-08	-5.520504e-06	-1.567678e-09	-3.836756e+01	-1.023157e+02
5.000000e-08	-5.519172e-06	-1.561997e-09	-3.835830e+01	-1.022902e+02
6.000000e-08	-5.517146e-06	-1.547758e-09	-3.834422e+01	-1.022683e+02
7.000000e-08	-5.514543e-06	-1.529135e-09	-3.832613e+01	-1.022496e+02
8.000000e-08	-5.511484e-06	-1.529904e-09	-3.830487e+01	-1.022340e+02
9.000000e-08	-5.507940e-06	-1.585037e-09	-3.828024e+01	-1.022212e+02
1.000000e-07	-5.503947e-06	-1.643560e-09	-3.825249e+01	-1.022109e+02
1.100000e-07	-5.499580e-06	-1.582125e-09	-3.822213e+01	-1.022025e+02
1.200000e-07	-5.494956e-06	-1.497828e-09	-3.819000e+01	-1.021957e+02
1.300000e-07	-5.490130e-06	-1.508672e-09	-3.815646e+01	-1.021898e+02
1.400000e-07	-5.484954e-06	-1.573768e-09	-3.812049e+01	-1.021842e+02
1.500000e-07	-5.479339e-06	-1.588898e-09	-3.808146e+01	-1.021783e+02
1.600000e-07	-5.473407e-06	-1.510564e-09	-3.804023e+01	-1.021714e+02
1.700000e-07	-5.467207e-06	-1.546516e-09	-3.799714e+01	-1.021628e+02
1.800000e-07	-5.460469e-06	-1.585465e-09	-3.795032e+01	-1.021517e+02
1.900000e-07	-5.453210e-06	-1.585735e-09	-3.789986e+01	-1.021375e+02
2.000000e-07	-5.445670e-06	-1.511271e-09	-3.784746e+01	-1.021193e+02
2.100000e-07	-5.437950e-06	-1.529570e-09	-3.779380e+01	-1.020966e+02
2.200000e-07	-5.430007e-06	-1.584822e-09	-3.773860e+01	-1.020685e+02
2.300000e-07	-5.421848e-06	-1.610294e-09	-3.768190e+01	-1.020345e+02
2.400000e-07	-5.413426e-06	-1.572994e-09	-3.762336e+01	-1.019939e+02
2.500000e-07	-5.404330e-06	-1.558951e-09	-3.756015e+01	-1.019462e+02
2.600000e-07	-5.394289e-06	-1.569510e-09	-3.749036e+01	-1.018908e+02
2.700000e-07	-5.383585e-06	-1.566165e-09	-3.741597e+01	-1.018274e+02
2.800000e-07	-5.372417e-06	-1.559091e-09	-3.733835e+01	-1.017556e+02
2.900000e-07	-5.360770e-06	-1.554512e-09	-3.725741e+01	-1.016752e+02
3.000000e-07	-5.348776e-06	-1.581700e-09	-3.717405e+01	-1.015859e+02
3.100000e-07	-5.336492e-06	-1.569609e-09	-3.708867e+01	-1.014877e+02
3.200000e-07	-5.323774e-06	-1.557943e-09	-3.700028e+01	-1.013806e+02
3.300000e-07	-5.310636e-06	-1.534017e-09	-3.690897e+01	-1.012647e+02
3.400000e-07	-5.297230e-06	-1.559449e-09	-3.681580e+01	-1.011401e+02
3.500000e-07	-5.283446e-06	-1.541867e-09	-3.672000e+01	-1.010071e+02
3.600000e-07	-5.269087e-06	-1.538498e-09	-3.662020e+01	-1.008660e+02
3.700000e-07	-5.254310e-06	-1.549581e-09	-3.651751e+01	-1.007173e+02
3.800000e-07	-5.239163e-06	-1.578341e-09	-3.641223e+01	-1.005613e+02
3.900000e-07	-5.223278e-06	-1.530436e-09	-3.630184e+01	-1.003988e+02
4.000000e-07	-5.206826e-06	-1.524637e-09	-3.618749e+01	-1.002302e+02
4.100000e-07	-5.190127e-06	-1.547166e-09	-3.607143e+01	-1.000561e+02
4.200000e-07	-5.173105e-06	-1.530314e-09	-3.595313e+01	-9.987717e+01
4.300000e-07	-5.155732e-06	-1.483903e-09	-3.583239e+01	-9.969410e+01
4.400000e-07	-5.138117e-06	-1.536210e-09	-3.570996e+01	-9.950752e+01
4.500000e-07	-5.120264e-06	-1.567166e-09	-3.558588e+01	-9.931807e+01
4.600000e-07	-5.101891e-06	-1.515704e-09	-3.545820e+01	-9.912639e+01
4.700000e-07	-5.082961e-06	-1.506980e-09	-3.532663e+01	-9.893308e+01
4.800000e-07	-5.063756e-06	-1.552128e-09	-3.519316e+01	-9.873868e+01
4.900000e-07	-5.044268e-06	-1.515220e-09	-3.505771e+01	-9.854372e+01
5.000000e-07	-5.024498e-06	-1.475378e-09	-3.492031e+01	-9.834864e+01
5.100000e-07	-5.004596e-06	-1.513664e-09	-3.478199e+01	-9.815382e+01
5.200000e-07	-4.984458e-06	-1.507277e-09	-3.464203e+01	-9.795959e+01
5.300000e-07	-4.963937e-06	-1.467669e-09	-3.449941e+01	-9.776618e+01
5.400000e-07	-4.943124e-06	-1.505185e-09	-3.435476e+01	-9.757375e+01
5.500000e-07	-4.921962e-06	-1.533664e-09	-3.420768e+01	-9.738240e+01
5.600000e-07	-4.900361e-06	-1.475811e-09	-3.405756e+01	-9.719212e+01
5.700000e-07	-4.878490e-06	-1.473137e-09	-3.390555e+01	-9.700285e+01
5.800000e-07	-4.856365e-06	-1.506736e-09	-3.375178e+01	-9.681444e+01
5.900000e-07	-4.833802e-06	-1.483077e-09	-3.359497e+01	-9.662668e+01
6.000000e-07	-4.810769e-06	-1.460742e-09	-3.343489e+01	-9.643929e+01
6.100000e-07	-4.787367e-06	-1.494455e-09	-3.327225e+01	-9.625193e+01
6.200000e-07	-4.763698e-06	-1.478048e-09	-3.310775e+01	-9.606421e+01
6.300000e-07	-4.739887e-06	-1.450758e-09	-3.294226e+01	-9.587573e+01
6.400000e-07	-4.715943e-06	-1.461883e-09	-3.277585e+01	-9.568601e+01
6.500000e-07	-4.691714e-06	-1.469534e-09	-3.260746e+01	-9.549459e+01
6.600000e-07	-4.667029e-06	-1.446132e-09	-3.243590e+01	-9.530097e+01
6.700000e-07	-4.641860e-06	-1.456273e-09	-3.226097e+01	-9.510467e+01
6.800000e-07	-4.616142e-06	-1.457760e-09	-3.208223e+01	-9.490519e+01
6.900000e-07	-4.589769e-06	-1.438870e-09	-3.189894e+01	-9.470209e+01
7.000000e-07	-4.562904e-06	-1.427245e-09	-3.171223e+01	-9.449492e+01
7.100000e-07	-4.535726e-06	-1.432227e-09	-3.152334e+01	-9.428327e+01
7.200000e-07	-4.508224e-06	-1.421057e-09	-3.133220e+01	-9.406677e+01
7.300000e-07	-4.480496e-06	-1.422876e-09	-3.113949e+01	-9.384512e+01
7.400000e-07	-4.452668e-06	-1.429216e-09	-3.094609e+01	-9.361803e+01
7.500000e-07	-4.424677e-06	-1.424166e-09	-3.075155e+01	-9.338531e+01
7.600000e-07	-4.396395e-06	-1.414849e-09	-3.055499e+01	-9.314679e+01
7.700000e-07	-4.367736e-06	-1.415109e-09	-3.035581e+01	-9.290237e+01
7.800000e-07	-4.338677e-06	-1.404990e-09	-3.015385e+01	-9.265203e+01
7.900000e-07	-4.309315e-06	-1.393529e-09	-2.994978e+01	-9.239576e+01
8.000000e-07	-4.279733e-06	-1.394138e-09	-2.974419e+01	-9.213365e+01
8.100000e-07	-4.249904e-06	-1.390515e-09	-2.953688e+01	-9.186581e+01
8.200000e-07	-4.219750e-06	-1.378300e-09	-2.932730e+01	-9.159241e+01
8.300000e-07	-4.189284e-06	-1.374353e-09	-2.911556e+01	-9.131365e+01
8.400000e-07	-4.158574e-06	-1.376030e-09	-2.890213e+01	-9.102977e+01
8.500000e-07	-4.127646e-06	-1.368200e-09	-2.868718e+01	-9.074104e+01
8.600000e-07	-4.096412e-06	-1.368142e-09	-2.847010e+01	-9.044774e+01
8.700000e-07	-4.064853e-06	-1.369938e-09	-2.825077e+01	-9.015016e+01
8.800000e-07	-4.033113e-06	-1.363484e-09	-2.803017e+01	-8.984862e+01
8.900000e-07	-4.001276e-06	-1.351959e-09	-2.780891e+01	-8.954340e+01
9.000000e-07	-3.969298e-06	-1.353038e-09	-2.758666e+01	-8.923481e+01
9.100000e-07	-3.937034e-06	-1.344858e-09	-2.736242e+01	-8.892312e+01
9.200000e-07	-3.904356e-06	-1.332734e-09	-2.713531e+01	-8.860858e+01
9.300000e-07	-3.871331e-06	-1.327976e-09	-2.690579e+01	-8.829144e+01
9.400000e-07	-3.837905e-06	-1.329216e-09	-2.667348e+01	-8.797190e+01
9.500000e-07	-3.803964e-06	-1.319536e-09	-2.643759e+01	-8.765012e+01
9.600000e-07	-3.769594e-06	-1.315811e-09	-2.619872e+01	-8.732624e+01
9.700000e-07	-3.734816e-06	-1.312193e-09	-2.595701e+01	-8.700037e+01
9.800000e-07	-3.699674e-06	-1.303669e-09	-2.571277e+01	-8.667258e+01
9.900000e-07	-3.664253e-06	-1.292362e-09	-2.546659e+01	-8.634290e+01
1.000000e-06	-3.628611e-06	-1.290646e-09	-2.521888e+01	-8.601132e+01
1.010000e-06	-3.592862e-06	-1.283176e-09	-2.497042e+01	-8.567782e+01
1.020000e-06	-3.556990e-06	-1.273731e-09	-2.472112e+01	-8.534232e+01
1.030000e-06	-3.520965e-06	-1.269014e-09	-2.447074e+01	-8.500476e+01
1.040000e-06	-3.484814e-06	-1.267155e-09	-2.421949e+01	-8.466500e+01
1.050000e-06	-3.448401e-06	-1.261921e-09	-2.396642e+01	-8.432294e+01
1.060000e-06	-3.411658e-06	-1.260069e-09	-2.371106e+01	-8.397844e+01
1.070000e-06	-3.374626e-06	-1.257552e-09	-2.345369e+01	-8.363134e+01
1.080000e-06	-3.337378e-06	-1.248048e-09	-2.319481e+01	-8.328149e+01
1.090000e-06	-3.299927e-06	-1.237405e-09	-2.293452e+01	-8.292875e+01
1.100000e-06	-3.262159e-06	-1.230145e-09	-2.267203e+01	-8.257295e+01
1.110000e-06	-3.224090e-06	-1.221619e-09	-2.240746e+01	-8.221396e+01
1.120000e-06	-3.185807e-06	-1.209021e-09	-2.214139e+01	-8.185163e+01
1.130000e-06	-3.147336e-06	-1.200380e-09	-2.187402e+01	-8.148583e+01
1.140000e-06	-3.108701e-06	-1.194629e-09	-2.160551e+01	-8.111645e+01
1.150000e-06	-3.069860e-06	-1.191078e-09	-2.133555e+01	-8.074336e+01
1.160000e-06	-3.030776e-06	-1.186802e-09	-2.106392e+01	-8.036648e+01
1.170000e-06	-2.991489e-06	-1.183206e-09	-2.079088e+01	-7.998569e+01
1.180000e-06	-2.951987e-06	-1.176187e-09	-2.051634e+01	-7.960091e+01
1.190000e-06	-2.912362e-06	-1.169893e-09	-2.024094e+01	-7.921205e+01
1.200000e-06	-2.872680e-06	-1.160785e-09	-1.996516e+01	-7.881903e+01
1.210000e-06	-2.832888e-06	-1.149021e-09	-1.968860e+01	-7.842175e+01
1.220000e-06	-2.793017e-06	-1.137098e-09	-1.941150e+01	-7.802010e+01
1.230000e-06	-2.752999e-06	-1.132126e-09	-1.913337e+01	-7.761398e+01
1.240000e-06	-2.712736e-06	-1.126184e-09	-1.885354e+01	-7.720325e+01
1.250000e-06	-2.672282e-06	-1.120084e-09	-1.857238e+01	-7.678777e+01
1.260000e-06	-2.631585e-06	-1.113851e-09	-1.828954e+01	-7.636735e+01
1.270000e-06	-2.590566e-06	-1.106667e-09	-1.800446e+01	-7.594181e+01
1.280000e-06	-2.549208e-06	-1.095904e-09	-1.771702e+01	-7.551090e+01
1.290000e-06	-2.507512e-06	-1.085419e-09	-1.742724e+01	-7.507436e+01
1.300000e-06	-2.465568e-06	-1.075810e-09	-1.713572e+01	-7.463189e+01
1.310000e-06	-2.423350e-06	-1.065332e-09	-1.684231e+01	-7.418317e+01
1.320000e-06	-2.380896e-06	-1.051912e-09	-1.654725e+01	-7.372783e+01
1.330000e-06	-2.338201e-06	-1.040213e-09	-1.625052e+01	-7.326548e+01
1.340000e-06	-2.295196e-06	-1.031212e-09	-1.595164e+01	-7.279568e+01
1.350000e-06	-2.251970e-06	-1.024699e-09	-1.565121e+01	-7.231798e+01
1.360000e-06	-2.208576e-06	-1.020615e-09	-1.534962e+01	-7.183191e+01
1.370000e-06	-2.165082e-06	-1.018675e-09	-1.504734e+01	-7.133697e+01
1.380000e-06	-2.121474e-06	-1.013861e-09	-1.474426e+01	-7.083265e+01
1.390000e-06	-2.077742e-06	-1.003450e-09	-1.444033e+01	-7.031844e+01
1.400000e-06	-2.033963e-06	-9.883389e-10	-1.413607e+01	-6.979381e+01
1.410000e-06	-1.990157e-06	-9.704938e-10	-1.383161e+01	-6.925826e+01
1.420000e-06	-1.946295e-06	-9.549300e-10	-1.352677e+01	-6.871126e+01
1.430000e-06	-1.902292e-06	-9.442923e-10	-1.322095e+01	-6.815235e+01
1.440000e-06	-1.858146e-06	-9.384359e-10	-1.291413e+01	-6.758104e+01
1.450000e-06	-1.813898e-06	-9.330740e-10	-1.260661e+01	-6.699690e+01
1.460000e-06	-1.769535e-06	-9.268070e-10	-1.229829e+01	-6.639952e+01
1.470000e-06	-1.725077e-06	-9.168827e-10	-1.198930e+01	-6.578851e+01
1.480000e-06	-1.680508e-06	-9.058515e-10	-1.167955e+01	-6.516354e+01
1.490000e-06	-1.635792e-06	-8.945498e-10	-1.136877e+01	-6.452429e+01
1.500000e-06	-1.590994e-06	-8.806085e-10	-1.105742e+01	-6.387051e+01
1.510000e-06	-1.546096e-06	-8.659406e-10	-1.074538e+01	-6.320195e+01
1.520000e-06	-1.501051e-06	-8.544442e-10	-1.043232e+01	-6.251842e+01
1.530000e-06	-1.455877e-06	-8.439102e-10	-1.011836e+01	-6.181972e+01
1.540000e-06	-1.410569e-06	-8.369575e-10	-9.803471e+00	-6.110572e+01
1.550000e-06	-1.365189e-06	-8.285974e-10	-9.488074e+00	-6.037626e+01
1.560000e-06	-1.319788e-06	-8.165878e-10	-9.172537e+00	-5.963120e+01
1.570000e-06	-1.274262e-06	-8.023988e-10	-8.856134e+00	-5.887041e+01
1.580000e-06	-1.228529e-06	-7.884352e-10	-8.538290e+00	-5.809373e+01
1.590000e-06	-1.182673e-06	-7.734973e-10	-8.219589e+00	-5.730099e+01
1.600000e-06	-1.136772e-06	-7.549686e-10	-7.900573e+00	-5.649197e+01
1.610000e-06	-1.090818e-06	-7.370998e-10	-7.581193e+00	-5.566641e+01
1.620000e-06	-1.044749e-06	-7.257311e-10	-7.261015e+00	-5.482399e+01
1.630000e-06	-9.986365e-07	-7.177618e-10	-6.940533e+00	-5.396434e+01
1.640000e-06	-9.525208e-07	-7.093745e-10	-6.620029e+00	-5.308699e+01
1.650000e-06	-9.063719e-07	-6.977186e-10	-6.299294e+00	-5.219140e+01
1.660000e-06	-8.601896e-07	-6.849737e-10	-5.978327e+00	-5.127695e+01
1.670000e-06	-8.139270e-07	-6.719868e-10	-5.656801e+00	-5.034289e+01
1.680000e-06	-7.675738e-07	-6.583850e-10	-5.334646e+00	-4.938841e+01
1.690000e-06	-7.211385e-07	-6.448795e-10	-5.011920e+00	-4.841257e+01
1.700000e-06	-6.746431e-07	-6.297906e-10	-4.688776e+00	-4.741435e+01
1.710000e-06	-6.280923e-07	-6.087481e-10	-4.365247e+00	-4.639263e+01
1.720000e-06	-5.814984e-07	-5.851614e-10	-4.041420e+00	-4.534618e+01
1.730000e-06	-5.349135e-07	-5.640621e-10	-3.717654e+00	-4.427373e+01
1.740000e-06	-4.883242e-07	-5.455064e-10	-3.393858e+00	-4.317390e+01
1.750000e-06	-4.416336e-07	-5.325037e-10	-3.069358e+00	-4.204528e+01
1.760000e-06	-3.948502e-07	-5.172297e-10	-2.744213e+00	-4.088641e+01
1.770000e-06	-3.480816e-07	-4.999959e-10	-2.419170e+00	-3.969582e+01
1.780000e-06	-3.013405e-07	-4.818723e-10	-2.094319e+00	-3.847201e+01
1.790000e-06	-2.545566e-07	-4.623060e-10	-1.769171e+00	-3.721353e+01
1.800000e-06	-2.077609e-07	-4.422335e-10	-1.443940e+00	-3.591895e+01
1.810000e-06	-1.610415e-07	-4.205666e-10	-1.119240e+00	-3.458694e+01
1.820000e-06	-1.142807e-07	-4.013626e-10	-7.942517e-01	-3.321621e+01
1.830000e-06	-6.732966e-08	-3.852222e-10	-4.679418e-01	-3.180564e+01
1.840000e-06	-2.032640e-08	-3.695275e-10	-1.412687e-01	-3.035421e+01
1.850000e-06	2.657895e-08	-3.523785e-10	1.847240e-01	-2.886109e+01
1.860000e-06	7.347397e-08	-3.330623e-10	5.106448e-01	-2.732562e+01
1.870000e-06	1.203153e-07	-3.108864e-10	8.361927e-01	-2.574736e+01
1.880000e-06	1.670705e-07	-2.866253e-10	1.161142e+00	-2.412609e+01
1.890000e-06	2.138811e-07	-2.627706e-10	1.486476e+00	-2.246184e+01
1.900000e-06	2.607108e-07	-2.375099e-10	1.811943e+00	-2.075490e+01
1.910000e-06	3.075037e-07	-2.117374e-10	2.137154e+00	-1.900581e+01
1.920000e-06	3.542127e-07	-1.855133e-10	2.461782e+00	-1.721542e+01
1.930000e-06	4.008589e-07	-1.590361e-10	2.785974e+00	-1.538483e+01
1.940000e-06	4.475598e-07	-1.323834e-10	3.110545e+00	-1.351546e+01
1.950000e-06	4.942438e-07	-1.065476e-10	3.434999e+00	-1.160897e+01
1.960000e-06	5.408585e-07	-8.212188e-11	3.758972e+00	-9.667316e+00
1.970000e-06	5.874029e-07	-5.604586e-11	4.082456e+00	-7.692721e+00
1.980000e-06	6.338936e-07	-3.057356e-11	4.405566e+00	-5.687649e+00
1.990000e-06	6.803890e-07	-3.861515e-12	4.728710e+00	-3.654797e+00
2.000000e-06	7.268220e-07	2.449388e-11	5.051420e+00	-1.597077e+00
2.010000e-06	7.732037e-07	5.332311e-11	5.373773e+00	4.824108e-01
2.020000e-06	8.195336e-07	8.576818e-11	5.695767e+00	2.580404e+00
2.030000e-06	8.657369e-07	1.195979e-10	6.016880e+00	4.693505e+00
2.040000e-06	9.118881e-07	1.516564e-10	6.337631e+00	6.818209e+00
2.050000e-06	9.579627e-07	1.809124e-10	6.657850e+00	8.950940e+00
2.060000e-06	1.003957e-06	2.095357e-10	6.977514e+00	1.108808e+01
2.070000e-06	1.049938e-06	2.380732e-10	7.297080e+00	1.322599e+01
2.080000e-06	1.095811e-06	2.672631e-10	7.615897e+00	1.536106e+01
2.090000e-06	1.141629e-06	2.975647e-10	7.934331e+00	1.748975e+01
2.100000e-06	1.187405e-06	3.297307e-10	8.252478e+00	1.960859e+01
2.110000e-06	1.233074e-06	3.615464e-10	8.569878e+00	2.171420e+01
2.120000e-06	1.278643e-06	3.894266e-10	8.886581e+00	2.380337e+01
2.130000e-06	1.324102e-06	4.178232e-10	9.202525e+00	2.587306e+01
2.140000e-06	1.369510e-06	4.457808e-10	9.518108e+00	2.792038e+01
2.150000e-06	1.414812e-06	4.712009e-10	9.832955e+00	2.994268e+01
2.160000e-06	1.459933e-06	4.943712e-10	1.014655e+01	3.193751e+01
2.170000e-06	1.504991e-06	5.176120e-10	1.045971e+01	3.390265e+01
2.180000e-06	1.549961e-06	5.426653e-10	1.077224e+01	3.583615e+01
2.190000e-06	1.594750e-06	5.696694e-10	1.108353e+01	3.773628e+01
2.200000e-06	1.639467e-06	5.979892e-10	1.139431e+01	3.960157e+01
2.210000e-06	1.684077e-06	6.282372e-10	1.170435e+01	4.143079e+01
2.220000e-06	1.728563e-06	6.575713e-10	1.201353e+01	4.322297e+01
2.230000e-06	1.772908e-06	6.840751e-10	1.232173e+01	4.497735e+01
2.240000e-06	1.817083e-06	7.062499e-10	1.262874e+01	4.669343e+01
2.250000e-06	1.861188e-06	7.244600e-10	1.293527e+01	4.837089e+01
2.260000e-06	1.905226e-06	7.406374e-10	1.324134e+01	5.000963e+01
2.270000e-06	1.949153e-06	7.573024e-10	1.354663e+01	5.160971e+01
2.280000e-06	1.992984e-06	7.768943e-10	1.385126e+01	5.317138e+01
2.290000e-06	2.036750e-06	7.984422e-10	1.415543e+01	5.469501e+01
2.300000e-06	2.080461e-06	8.227914e-10	1.445922e+01	5.618108e+01
2.310000e-06	2.124121e-06	8.466376e-10	1.476266e+01	5.763022e+01
2.320000e-06	2.167670e-06	8.670236e-10	1.506533e+01	5.904308e+01
2.330000e-06	2.211084e-06	8.825673e-10	1.536705e+01	6.042043e+01
2.340000e-06	2.254415e-06	8.950770e-10	1.566820e+01	6.176304e+01
2.350000e-06	2.297678e-06	9.089320e-10	1.596888e+01	6.307173e+01
2.360000e-06	2.340743e-06	9.250131e-10	1.626818e+01	6.434731e+01
2.370000e-06	2.383441e-06	9.430689e-10	1.656494e+01	6.559060e+01
2.380000e-06	2.425811e-06	9.625589e-10	1.685941e+01	6.680239e+01
2.390000e-06	2.467830e-06	9.810316e-10	1.715145e+01	6.798345e+01
2.400000e-06	2.509551e-06	9.972787e-10	1.744140e+01	6.913449e+01
2.410000e-06	2.551066e-06	1.011095e-09	1.772993e+01	7.025620e+01
2.420000e-06	2.592317e-06	1.024245e-09	1.801663e+01	7.134920e+01
2.430000e-06	2.633223e-06	1.037825e-09	1.830093e+01	7.241408e+01
2.440000e-06	2.673809e-06	1.053794e-09	1.858300e+01	7.345136e+01
2.450000e-06	2.714186e-06	1.070235e-09	1.886362e+01	7.446151e+01
2.460000e-06	2.754423e-06	1.084885e-09	1.914327e+01	7.544495e+01
2.470000e-06	2.794525e-06	1.096283e-09	1.942198e+01	7.640206e+01
2.480000e-06	2.834463e-06	1.106076e-09	1.969955e+01	7.733320e+01
2.490000e-06	2.874229e-06	1.115743e-09	1.997592e+01	7.823867e+01
2.500000e-06	2.913848e-06	1.125865e-09	2.025127e+01	7.911876e+01
2.510000e-06	2.953303e-06	1.140068e-09	2.052548e+01	7.997376e+01
2.520000e-06	2.992614e-06	1.155544e-09	2.079870e+01	8.080394e+01
2.530000e-06	3.031783e-06	1.169830e-09	2.107092e+01	8.160957e+01
2.540000e-06	3.070748e-06	1.184836e-09	2.134173e+01	8.239094e+01
2.550000e-06	3.109470e-06	1.197795e-09	2.161085e+01	8.314836e+01
2.560000e-06	3.147976e-06	1.205607e-09	2.187846e+01	8.388217e+01
2.570000e-06	3.186252e-06	1.209769e-09	2.214448e+01	8.459271e+01
2.580000e-06	3.224273e-06	1.215099e-09	2.240873e+01	8.528042e+01
2.590000e-06	3.262090e-06	1.222389e-09	2.267156e+01	8.594572e+01
2.600000e-06	3.299687e-06	1.232414e-09	2.293286e+01	8.658910e+01
2.610000e-06	3.337085e-06	1.245848e-09	2.319277e+01	8.721111e+01
2.620000e-06	3.374224e-06	1.261555e-09	2.345089e+01	8.781233e+01
2.630000e-06	3.411084e-06	1.275248e-09	2.370707e+01	8.839337e+01
2.640000e-06	3.447704e-06	1.284522e-09	2.396158e+01	8.895490e+01
2.650000e-06	3.484049e-06	1.293447e-09	2.421418e+01	8.949763e+01
2.660000e-06	3.520200e-06	1.300462e-09	2.446542e+01	9.002229e+01
2.670000e-06	3.556223e-06	1.303802e-09	2.471579e+01	9.052964e+01
2.680000e-06	3.592092e-06	1.306609e-09	2.496508e+01	9.102045e+01
2.690000e-06	3.627842e-06	1.313678e-09	2.521354e+01	9.149551e+01
2.700000e-06	3.663483e-06	1.324352e-09	2.546124e+01	9.195561e+01
2.710000e-06	3.698970e-06	1.333922e-09	2.570788e+01	9.240155e+01
2.720000e-06	3.734202e-06	1.341001e-09	2.595274e+01	9.283408e+01
2.730000e-06	3.769111e-06	1.346274e-09	2.619536e+01	9.325395e+01
2.740000e-06	3.803598e-06	1.349991e-09	2.643504e+01	9.366188e+01
2.750000e-06	3.837600e-06	1.352837e-09	2.667136e+01	9.405855e+01
2.760000e-06	3.871182e-06	1.356123e-09	2.690475e+01	9.444459e+01
2.770000e-06	3.904347e-06	1.361282e-09	2.713525e+01	9.482058e+01
2.780000e-06	3.937056e-06	1.367950e-09	2.736258e+01	9.518704e+01
2.790000e-06	3.969335e-06	1.375672e-09	2.758692e+01	9.554443e+01
2.800000e-06	4.001349e-06	1.383500e-09	2.780942e+01	9.589316e+01
2.810000e-06	4.033204e-06	1.390176e-09	2.803081e+01	9.623356e+01
2.820000e-06	4.064883e-06	1.394109e-09	2.825098e+01	9.656589e+01
2.830000e-06	4.096416e-06	1.397404e-09	2.847013e+01	9.689036e+01
2.840000e-06	4.127785e-06	1.402582e-09	2.868815e+01	9.720710e+01
2.850000e-06	4.158879e-06	1.410142e-09	2.890425e+01	9.751620e+01
2.860000e-06	4.189726e-06	1.418577e-09	2.911864e+01	9.781767e+01
2.870000e-06	4.220209e-06	1.426131e-09	2.933049e+01	9.811149e+01
2.880000e-06	4.250266e-06	1.430978e-09	2.953939e+01	9.839759e+01
2.890000e-06	4.280048e-06	1.431143e-09	2.974637e+01	9.867586e+01
2.900000e-06	4.309590e-06	1.431061e-09	2.995169e+01	9.894614e+01
