# Temperatura_=_-27.96
# Concentracion g/m^3_=_1620.0
# C_Vs_to_Am_M_A/Vsm_=_65563218390.804596
# pendiente_HvsI_1/m_=_3716.3
# ordenada_HvsI_A/m_=_1297.0
# frecuencia_Hz_=_135092.32690970475

Tiempo_(s)	Campo_(V.s)	Magnetizacion_(V.s)	Campo_(kA/m)	Magnetizacion_(A/m)
0.000000e+00	-5.518345e-06	-1.148466e-09	-3.837781e+01	-7.253178e+01
1.000000e-08	-5.518462e-06	-1.148152e-09	-3.837862e+01	-7.253820e+01
2.000000e-08	-5.518329e-06	-1.151188e-09	-3.837770e+01	-7.254574e+01
3.000000e-08	-5.517845e-06	-1.151982e-09	-3.837433e+01	-7.255468e+01
4.000000e-08	-5.516914e-06	-1.149002e-09	-3.836785e+01	-7.256528e+01
5.000000e-08	-5.515455e-06	-1.143202e-09	-3.835771e+01	-7.257781e+01
6.000000e-08	-5.513334e-06	-1.130165e-09	-3.834295e+01	-7.259255e+01
7.000000e-08	-5.510562e-06	-1.137603e-09	-3.832368e+01	-7.260973e+01
8.000000e-08	-5.507286e-06	-1.182135e-09	-3.830090e+01	-7.262958e+01
9.000000e-08	-5.503538e-06	-1.170354e-09	-3.827483e+01	-7.265231e+01
1.000000e-07	-5.499414e-06	-1.118410e-09	-3.824615e+01	-7.267807e+01
1.100000e-07	-5.495034e-06	-1.158949e-09	-3.821569e+01	-7.270700e+01
1.200000e-07	-5.490382e-06	-1.166449e-09	-3.818334e+01	-7.273918e+01
1.300000e-07	-5.485455e-06	-1.154325e-09	-3.814907e+01	-7.277464e+01
1.400000e-07	-5.480224e-06	-1.084759e-09	-3.811269e+01	-7.281339e+01
1.500000e-07	-5.474622e-06	-1.122225e-09	-3.807373e+01	-7.285536e+01
1.600000e-07	-5.468562e-06	-1.198413e-09	-3.803159e+01	-7.290044e+01
1.700000e-07	-5.462057e-06	-1.151289e-09	-3.798634e+01	-7.294847e+01
1.800000e-07	-5.455184e-06	-1.105223e-09	-3.793855e+01	-7.299923e+01
1.900000e-07	-5.447926e-06	-1.111075e-09	-3.788807e+01	-7.305247e+01
2.000000e-07	-5.440317e-06	-1.172951e-09	-3.783516e+01	-7.310789e+01
2.100000e-07	-5.432485e-06	-1.142851e-09	-3.778069e+01	-7.316512e+01
2.200000e-07	-5.424487e-06	-1.129055e-09	-3.772506e+01	-7.322380e+01
2.300000e-07	-5.416190e-06	-1.136830e-09	-3.766736e+01	-7.328352e+01
2.400000e-07	-5.407447e-06	-1.177010e-09	-3.760656e+01	-7.334382e+01
2.500000e-07	-5.398073e-06	-1.144715e-09	-3.754137e+01	-7.340427e+01
2.600000e-07	-5.387947e-06	-1.130173e-09	-3.747094e+01	-7.346440e+01
2.700000e-07	-5.377204e-06	-1.128704e-09	-3.739623e+01	-7.352374e+01
2.800000e-07	-5.365985e-06	-1.155512e-09	-3.731821e+01	-7.358184e+01
2.900000e-07	-5.354345e-06	-1.164170e-09	-3.723726e+01	-7.363823e+01
3.000000e-07	-5.342337e-06	-1.148271e-09	-3.715374e+01	-7.369250e+01
3.100000e-07	-5.329891e-06	-1.140899e-09	-3.706719e+01	-7.374424e+01
3.200000e-07	-5.316955e-06	-1.156688e-09	-3.697722e+01	-7.379307e+01
3.300000e-07	-5.303716e-06	-1.156921e-09	-3.688515e+01	-7.383867e+01
3.400000e-07	-5.290165e-06	-1.112029e-09	-3.679091e+01	-7.388072e+01
3.500000e-07	-5.276152e-06	-1.115555e-09	-3.669346e+01	-7.391900e+01
3.600000e-07	-5.261690e-06	-1.160147e-09	-3.659288e+01	-7.395328e+01
3.700000e-07	-5.246810e-06	-1.148410e-09	-3.648939e+01	-7.398344e+01
3.800000e-07	-5.231334e-06	-1.120351e-09	-3.638177e+01	-7.400936e+01
3.900000e-07	-5.215296e-06	-1.165530e-09	-3.627022e+01	-7.403100e+01
4.000000e-07	-5.198839e-06	-1.157761e-09	-3.615578e+01	-7.404836e+01
4.100000e-07	-5.181928e-06	-1.089580e-09	-3.603817e+01	-7.406150e+01
4.200000e-07	-5.164712e-06	-1.117447e-09	-3.591844e+01	-7.407051e+01
4.300000e-07	-5.147265e-06	-1.195122e-09	-3.579710e+01	-7.407552e+01
4.400000e-07	-5.129473e-06	-1.123000e-09	-3.567337e+01	-7.407672e+01
4.500000e-07	-5.111288e-06	-1.095919e-09	-3.554690e+01	-7.407432e+01
4.600000e-07	-5.092712e-06	-1.181815e-09	-3.541770e+01	-7.406856e+01
4.700000e-07	-5.073765e-06	-1.169958e-09	-3.528594e+01	-7.405968e+01
4.800000e-07	-5.054485e-06	-1.077143e-09	-3.515185e+01	-7.404798e+01
4.900000e-07	-5.034921e-06	-1.146850e-09	-3.501579e+01	-7.403374e+01
5.000000e-07	-5.015089e-06	-1.180693e-09	-3.487787e+01	-7.401726e+01
5.100000e-07	-4.995022e-06	-1.084522e-09	-3.473831e+01	-7.399883e+01
5.200000e-07	-4.974579e-06	-1.096902e-09	-3.459614e+01	-7.397873e+01
5.300000e-07	-4.953859e-06	-1.191298e-09	-3.445204e+01	-7.395726e+01
5.400000e-07	-4.932905e-06	-1.122449e-09	-3.430632e+01	-7.393467e+01
5.500000e-07	-4.911574e-06	-1.081214e-09	-3.415797e+01	-7.391121e+01
5.600000e-07	-4.889931e-06	-1.168113e-09	-3.400745e+01	-7.388711e+01
5.700000e-07	-4.867882e-06	-1.157612e-09	-3.385410e+01	-7.386258e+01
5.800000e-07	-4.845416e-06	-1.085390e-09	-3.369786e+01	-7.383780e+01
5.900000e-07	-4.822594e-06	-1.142065e-09	-3.353915e+01	-7.381291e+01
6.000000e-07	-4.799393e-06	-1.167004e-09	-3.337779e+01	-7.378805e+01
6.100000e-07	-4.776005e-06	-1.096545e-09	-3.321514e+01	-7.376331e+01
6.200000e-07	-4.752484e-06	-1.110203e-09	-3.305156e+01	-7.373876e+01
6.300000e-07	-4.728695e-06	-1.153976e-09	-3.288612e+01	-7.371447e+01
6.400000e-07	-4.704633e-06	-1.116067e-09	-3.271878e+01	-7.369044e+01
6.500000e-07	-4.680263e-06	-1.109021e-09	-3.254929e+01	-7.366669e+01
6.600000e-07	-4.655443e-06	-1.149888e-09	-3.237668e+01	-7.364320e+01
6.700000e-07	-4.630170e-06	-1.128988e-09	-3.220091e+01	-7.361992e+01
6.800000e-07	-4.604373e-06	-1.107388e-09	-3.202151e+01	-7.359681e+01
6.900000e-07	-4.577951e-06	-1.131441e-09	-3.183776e+01	-7.357381e+01
7.000000e-07	-4.551056e-06	-1.135975e-09	-3.165071e+01	-7.355083e+01
7.100000e-07	-4.523841e-06	-1.115365e-09	-3.146144e+01	-7.352779e+01
7.200000e-07	-4.496367e-06	-1.132449e-09	-3.127037e+01	-7.350460e+01
7.300000e-07	-4.468691e-06	-1.135263e-09	-3.107790e+01	-7.348116e+01
7.400000e-07	-4.440855e-06	-1.119021e-09	-3.088431e+01	-7.345735e+01
7.500000e-07	-4.412799e-06	-1.112808e-09	-3.068919e+01	-7.343306e+01
7.600000e-07	-4.384483e-06	-1.121862e-09	-3.049227e+01	-7.340818e+01
7.700000e-07	-4.355938e-06	-1.117106e-09	-3.029375e+01	-7.338260e+01
7.800000e-07	-4.327083e-06	-1.123698e-09	-3.009307e+01	-7.335617e+01
7.900000e-07	-4.297802e-06	-1.131528e-09	-2.988944e+01	-7.332879e+01
8.000000e-07	-4.268154e-06	-1.126864e-09	-2.968325e+01	-7.330031e+01
8.100000e-07	-4.238206e-06	-1.115147e-09	-2.947497e+01	-7.327059e+01
8.200000e-07	-4.207987e-06	-1.114660e-09	-2.926481e+01	-7.323950e+01
8.300000e-07	-4.177463e-06	-1.106219e-09	-2.905253e+01	-7.320688e+01
8.400000e-07	-4.146661e-06	-1.097758e-09	-2.883831e+01	-7.317258e+01
8.500000e-07	-4.115584e-06	-1.108254e-09	-2.862218e+01	-7.313645e+01
8.600000e-07	-4.084294e-06	-1.122479e-09	-2.840457e+01	-7.309830e+01
8.700000e-07	-4.052814e-06	-1.116936e-09	-2.818564e+01	-7.305797e+01
8.800000e-07	-4.021125e-06	-1.116996e-09	-2.796526e+01	-7.301528e+01
8.900000e-07	-3.989288e-06	-1.119905e-09	-2.774385e+01	-7.297005e+01
9.000000e-07	-3.957280e-06	-1.106205e-09	-2.752125e+01	-7.292209e+01
9.100000e-07	-3.924982e-06	-1.095274e-09	-2.729663e+01	-7.287122e+01
9.200000e-07	-3.892398e-06	-1.099667e-09	-2.707002e+01	-7.281725e+01
9.300000e-07	-3.859435e-06	-1.097974e-09	-2.684078e+01	-7.275999e+01
9.400000e-07	-3.825808e-06	-1.090752e-09	-2.660691e+01	-7.269929e+01
9.500000e-07	-3.791715e-06	-1.098228e-09	-2.636981e+01	-7.263497e+01
9.600000e-07	-3.757312e-06	-1.096839e-09	-2.613055e+01	-7.256688e+01
9.700000e-07	-3.722544e-06	-1.083242e-09	-2.588876e+01	-7.249489e+01
9.800000e-07	-3.687462e-06	-1.080021e-09	-2.564477e+01	-7.241889e+01
9.900000e-07	-3.652043e-06	-1.089340e-09	-2.539845e+01	-7.233879e+01
1.000000e-06	-3.616408e-06	-1.085611e-09	-2.515062e+01	-7.225453e+01
1.010000e-06	-3.580635e-06	-1.080735e-09	-2.490184e+01	-7.216606e+01
1.020000e-06	-3.544698e-06	-1.083120e-09	-2.465191e+01	-7.207340e+01
1.030000e-06	-3.508602e-06	-1.081100e-09	-2.440087e+01	-7.197657e+01
1.040000e-06	-3.472330e-06	-1.071154e-09	-2.414862e+01	-7.187564e+01
1.050000e-06	-3.435862e-06	-1.074077e-09	-2.389500e+01	-7.177070e+01
1.060000e-06	-3.399097e-06	-1.074445e-09	-2.363931e+01	-7.166190e+01
1.070000e-06	-3.361966e-06	-1.065566e-09	-2.338108e+01	-7.154941e+01
1.080000e-06	-3.324564e-06	-1.062816e-09	-2.312097e+01	-7.143341e+01
1.090000e-06	-3.286983e-06	-1.067096e-09	-2.285961e+01	-7.131414e+01
1.100000e-06	-3.249305e-06	-1.060673e-09	-2.259757e+01	-7.119184e+01
1.110000e-06	-3.211447e-06	-1.054244e-09	-2.233429e+01	-7.106678e+01
1.120000e-06	-3.173193e-06	-1.051108e-09	-2.206824e+01	-7.093924e+01
1.130000e-06	-3.134643e-06	-1.044246e-09	-2.180014e+01	-7.080950e+01
1.140000e-06	-3.095967e-06	-1.034339e-09	-2.153117e+01	-7.067786e+01
1.150000e-06	-3.057132e-06	-1.034734e-09	-2.126109e+01	-7.054457e+01
1.160000e-06	-3.018028e-06	-1.037016e-09	-2.098914e+01	-7.040991e+01
1.170000e-06	-2.978666e-06	-1.033694e-09	-2.071539e+01	-7.027411e+01
1.180000e-06	-2.939179e-06	-1.033677e-09	-2.044077e+01	-7.013736e+01
1.190000e-06	-2.899548e-06	-1.036802e-09	-2.016516e+01	-6.999983e+01
1.200000e-06	-2.859762e-06	-1.031487e-09	-1.988846e+01	-6.986163e+01
1.210000e-06	-2.819861e-06	-1.022722e-09	-1.961097e+01	-6.972282e+01
1.220000e-06	-2.779841e-06	-1.019272e-09	-1.933265e+01	-6.958340e+01
1.230000e-06	-2.739736e-06	-1.012754e-09	-1.905373e+01	-6.944330e+01
1.240000e-06	-2.699488e-06	-1.003623e-09	-1.877382e+01	-6.930238e+01
1.250000e-06	-2.659027e-06	-9.996106e-10	-1.849244e+01	-6.916045e+01
1.260000e-06	-2.618362e-06	-1.002387e-09	-1.820962e+01	-6.901721e+01
1.270000e-06	-2.577382e-06	-1.002618e-09	-1.792463e+01	-6.887231e+01
1.280000e-06	-2.536068e-06	-1.001813e-09	-1.763730e+01	-6.872533e+01
1.290000e-06	-2.494586e-06	-1.001605e-09	-1.734881e+01	-6.857577e+01
1.300000e-06	-2.452907e-06	-9.975130e-10	-1.705895e+01	-6.842308e+01
1.310000e-06	-2.410754e-06	-9.864134e-10	-1.676579e+01	-6.826665e+01
1.320000e-06	-2.368248e-06	-9.780805e-10	-1.647018e+01	-6.810581e+01
1.330000e-06	-2.325565e-06	-9.707417e-10	-1.617334e+01	-6.793987e+01
1.340000e-06	-2.282621e-06	-9.660042e-10	-1.587468e+01	-6.776808e+01
1.350000e-06	-2.239451e-06	-9.646509e-10	-1.557446e+01	-6.758970e+01
1.360000e-06	-2.196087e-06	-9.659033e-10	-1.527288e+01	-6.740396e+01
1.370000e-06	-2.152496e-06	-9.656724e-10	-1.496972e+01	-6.721010e+01
1.380000e-06	-2.108770e-06	-9.644571e-10	-1.466562e+01	-6.700739e+01
1.390000e-06	-2.065051e-06	-9.588928e-10	-1.436157e+01	-6.679510e+01
1.400000e-06	-2.021215e-06	-9.480743e-10	-1.405671e+01	-6.657256e+01
1.410000e-06	-1.977288e-06	-9.376991e-10	-1.375122e+01	-6.633915e+01
1.420000e-06	-1.933347e-06	-9.310268e-10	-1.344563e+01	-6.609428e+01
1.430000e-06	-1.889317e-06	-9.257723e-10	-1.313942e+01	-6.583747e+01
1.440000e-06	-1.845177e-06	-9.204472e-10	-1.283244e+01	-6.556829e+01
1.450000e-06	-1.800915e-06	-9.169077e-10	-1.252462e+01	-6.528639e+01
1.460000e-06	-1.756580e-06	-9.149200e-10	-1.221628e+01	-6.499151e+01
1.470000e-06	-1.712150e-06	-9.099867e-10	-1.190730e+01	-6.468348e+01
1.480000e-06	-1.667528e-06	-9.029055e-10	-1.159697e+01	-6.436221e+01
1.490000e-06	-1.622760e-06	-8.968462e-10	-1.128563e+01	-6.402769e+01
1.500000e-06	-1.577864e-06	-8.875109e-10	-1.097339e+01	-6.367999e+01
1.510000e-06	-1.532856e-06	-8.768446e-10	-1.066038e+01	-6.331926e+01
1.520000e-06	-1.487729e-06	-8.692004e-10	-1.034654e+01	-6.294570e+01
1.530000e-06	-1.442458e-06	-8.626901e-10	-1.003170e+01	-6.255957e+01
1.540000e-06	-1.397159e-06	-8.550150e-10	-9.716664e+00	-6.216115e+01
1.550000e-06	-1.351872e-06	-8.462008e-10	-9.401710e+00	-6.175078e+01
1.560000e-06	-1.306449e-06	-8.351618e-10	-9.085811e+00	-6.132878e+01
1.570000e-06	-1.260839e-06	-8.235427e-10	-8.768614e+00	-6.089546e+01
1.580000e-06	-1.215177e-06	-8.156134e-10	-8.451052e+00	-6.045112e+01
1.590000e-06	-1.169478e-06	-8.095695e-10	-8.133235e+00	-5.999602e+01
1.600000e-06	-1.123673e-06	-8.008308e-10	-7.814678e+00	-5.953035e+01
1.610000e-06	-1.077765e-06	-7.918806e-10	-7.495411e+00	-5.905423e+01
1.620000e-06	-1.031817e-06	-7.845170e-10	-7.175859e+00	-5.856769e+01
1.630000e-06	-9.858122e-07	-7.768567e-10	-6.855916e+00	-5.807064e+01
1.640000e-06	-9.397031e-07	-7.667362e-10	-6.535247e+00	-5.756288e+01
1.650000e-06	-8.935229e-07	-7.583485e-10	-6.214082e+00	-5.704409e+01
1.660000e-06	-8.472255e-07	-7.514320e-10	-5.892103e+00	-5.651380e+01
1.670000e-06	-8.008263e-07	-7.448453e-10	-5.569415e+00	-5.597139e+01
1.680000e-06	-7.544278e-07	-7.376668e-10	-5.246733e+00	-5.541610e+01
1.690000e-06	-7.080334e-07	-7.310185e-10	-4.924080e+00	-5.484700e+01
1.700000e-06	-6.615835e-07	-7.207984e-10	-4.601040e+00	-5.426304e+01
1.710000e-06	-6.151078e-07	-7.066931e-10	-4.277820e+00	-5.366301e+01
1.720000e-06	-5.686630e-07	-6.929080e-10	-3.954816e+00	-5.304556e+01
1.730000e-06	-5.221556e-07	-6.779701e-10	-3.631376e+00	-5.240923e+01
1.740000e-06	-4.755072e-07	-6.666678e-10	-3.306956e+00	-5.175243e+01
1.750000e-06	-4.287621e-07	-6.590365e-10	-2.981863e+00	-5.107350e+01
1.760000e-06	-3.820234e-07	-6.489647e-10	-2.656815e+00	-5.037069e+01
1.770000e-06	-3.352809e-07	-6.388264e-10	-2.331740e+00	-4.964219e+01
1.780000e-06	-2.885269e-07	-6.295744e-10	-2.006585e+00	-4.888618e+01
1.790000e-06	-2.417094e-07	-6.198078e-10	-1.680989e+00	-4.810081e+01
1.800000e-06	-1.949103e-07	-6.080802e-10	-1.355520e+00	-4.728428e+01
1.810000e-06	-1.481511e-07	-5.952973e-10	-1.030330e+00	-4.643479e+01
1.820000e-06	-1.013413e-07	-5.825287e-10	-7.047868e-01	-4.555066e+01
1.830000e-06	-5.453454e-08	-5.679753e-10	-3.792652e-01	-4.463027e+01
1.840000e-06	-7.792383e-09	-5.526575e-10	-5.419280e-02	-4.367214e+01
1.850000e-06	3.885640e-08	-5.381467e-10	2.702302e-01	-4.267493e+01
1.860000e-06	8.554183e-08	-5.253416e-10	5.949080e-01	-4.163749e+01
1.870000e-06	1.322766e-07	-5.131591e-10	9.199289e-01	-4.055883e+01
1.880000e-06	1.790515e-07	-5.003873e-10	1.245229e+00	-3.943818e+01
1.890000e-06	2.258053e-07	-4.848856e-10	1.570382e+00	-3.827500e+01
1.900000e-06	2.725299e-07	-4.663623e-10	1.895333e+00	-3.706899e+01
1.910000e-06	3.193045e-07	-4.473107e-10	2.220631e+00	-3.582007e+01
1.920000e-06	3.660360e-07	-4.286314e-10	2.545629e+00	-3.452845e+01
1.930000e-06	4.126883e-07	-4.106852e-10	2.870076e+00	-3.319458e+01
1.940000e-06	4.593181e-07	-3.937479e-10	3.194368e+00	-3.181916e+01
1.950000e-06	5.059356e-07	-3.771585e-10	3.518573e+00	-3.040315e+01
1.960000e-06	5.525153e-07	-3.607822e-10	3.842516e+00	-2.894776e+01
1.970000e-06	5.990549e-07	-3.436980e-10	4.166179e+00	-2.745443e+01
1.980000e-06	6.454928e-07	-3.249988e-10	4.489136e+00	-2.592484e+01
1.990000e-06	6.918225e-07	-3.042383e-10	4.811339e+00	-2.436087e+01
2.000000e-06	7.381807e-07	-2.827336e-10	5.133742e+00	-2.276459e+01
2.010000e-06	7.845117e-07	-2.601409e-10	5.455955e+00	-2.113824e+01
2.020000e-06	8.306880e-07	-2.332121e-10	5.777091e+00	-1.948422e+01
2.030000e-06	8.766886e-07	-2.043242e-10	6.097007e+00	-1.780507e+01
2.040000e-06	9.226893e-07	-1.780161e-10	6.416923e+00	-1.610341e+01
2.050000e-06	9.687745e-07	-1.554502e-10	6.737426e+00	-1.438196e+01
2.060000e-06	1.014800e-06	-1.349487e-10	7.057513e+00	-1.264351e+01
2.070000e-06	1.060706e-06	-1.123835e-10	7.376769e+00	-1.089086e+01
2.080000e-06	1.106531e-06	-8.968729e-11	7.695464e+00	-9.126837e+00
2.090000e-06	1.152296e-06	-6.555355e-11	8.013740e+00	-7.354256e+00
2.100000e-06	1.197972e-06	-3.919468e-11	8.331400e+00	-5.575902e+00
2.110000e-06	1.243603e-06	-1.178035e-11	8.648744e+00	-3.794510e+00
2.120000e-06	1.289080e-06	1.566898e-11	8.965017e+00	-2.012748e+00
2.130000e-06	1.334468e-06	4.178500e-11	9.280675e+00	-2.332007e-01
2.140000e-06	1.379825e-06	6.811663e-11	9.596115e+00	1.541641e+00
2.150000e-06	1.425099e-06	9.120896e-11	9.910973e+00	3.309396e+00
2.160000e-06	1.470325e-06	1.141477e-10	1.022550e+01	5.067798e+00
2.170000e-06	1.515461e-06	1.339608e-10	1.053941e+01	6.814704e+00
2.180000e-06	1.560474e-06	1.522371e-10	1.085245e+01	8.548100e+00
2.190000e-06	1.605327e-06	1.746582e-10	1.116438e+01	1.026610e+01
2.200000e-06	1.649984e-06	1.984985e-10	1.147496e+01	1.196696e+01
2.210000e-06	1.694488e-06	2.284795e-10	1.178446e+01	1.364905e+01
2.220000e-06	1.738815e-06	2.582294e-10	1.209274e+01	1.531089e+01
2.230000e-06	1.783016e-06	2.844120e-10	1.240014e+01	1.695110e+01
2.240000e-06	1.827215e-06	3.057974e-10	1.270752e+01	1.856844e+01
2.250000e-06	1.871295e-06	3.218151e-10	1.301408e+01	2.016177e+01
2.260000e-06	1.915276e-06	3.355443e-10	1.331995e+01	2.173007e+01
2.270000e-06	1.959242e-06	3.525312e-10	1.362572e+01	2.327242e+01
2.280000e-06	2.003136e-06	3.723482e-10	1.393098e+01	2.478799e+01
2.290000e-06	2.046951e-06	3.950714e-10	1.423570e+01	2.627604e+01
2.300000e-06	2.090705e-06	4.197661e-10	1.453999e+01	2.773591e+01
2.310000e-06	2.134411e-06	4.448180e-10	1.484395e+01	2.916701e+01
2.320000e-06	2.177956e-06	4.653302e-10	1.514679e+01	3.056883e+01
2.330000e-06	2.221318e-06	4.784449e-10	1.544835e+01	3.194093e+01
2.340000e-06	2.264609e-06	4.898540e-10	1.574942e+01	3.328292e+01
2.350000e-06	2.307656e-06	5.051544e-10	1.604879e+01	3.459447e+01
2.360000e-06	2.350458e-06	5.240668e-10	1.634646e+01	3.587531e+01
2.370000e-06	2.393103e-06	5.446142e-10	1.664304e+01	3.712521e+01
2.380000e-06	2.435400e-06	5.660395e-10	1.693720e+01	3.834403e+01
2.390000e-06	2.477204e-06	5.848400e-10	1.722793e+01	3.953163e+01
2.400000e-06	2.518622e-06	6.002003e-10	1.751598e+01	4.068798e+01
2.410000e-06	2.559794e-06	6.119046e-10	1.780231e+01	4.181307e+01
2.420000e-06	2.600752e-06	6.224591e-10	1.808716e+01	4.290694e+01
2.430000e-06	2.641533e-06	6.344239e-10	1.837077e+01	4.396972e+01
2.440000e-06	2.682140e-06	6.479426e-10	1.865317e+01	4.500158e+01
2.450000e-06	2.722481e-06	6.618088e-10	1.893373e+01	4.600274e+01
2.460000e-06	2.762581e-06	6.781597e-10	1.921261e+01	4.697350e+01
2.470000e-06	2.802502e-06	6.936188e-10	1.949024e+01	4.791421e+01
2.480000e-06	2.842293e-06	7.074265e-10	1.976697e+01	4.882528e+01
2.490000e-06	2.882049e-06	7.177052e-10	2.004346e+01	4.970720e+01
2.500000e-06	2.921650e-06	7.239683e-10	2.031887e+01	5.056049e+01
2.510000e-06	2.961109e-06	7.307922e-10	2.059329e+01	5.138575e+01
2.520000e-06	3.000363e-06	7.403424e-10	2.086628e+01	5.218362e+01
2.530000e-06	3.039368e-06	7.529743e-10	2.113755e+01	5.295480e+01
2.540000e-06	3.078271e-06	7.690476e-10	2.140810e+01	5.370003e+01
2.550000e-06	3.116946e-06	7.839546e-10	2.167707e+01	5.442007e+01
2.560000e-06	3.155284e-06	7.954852e-10	2.194369e+01	5.511575e+01
2.570000e-06	3.193348e-06	8.028033e-10	2.220842e+01	5.578789e+01
2.580000e-06	3.231258e-06	8.087510e-10	2.247206e+01	5.643734e+01
2.590000e-06	3.268997e-06	8.140035e-10	2.273452e+01	5.706497e+01
2.600000e-06	3.306550e-06	8.205774e-10	2.299569e+01	5.767162e+01
2.610000e-06	3.343932e-06	8.292182e-10	2.325566e+01	5.825815e+01
2.620000e-06	3.381012e-06	8.432209e-10	2.351354e+01	5.882538e+01
2.630000e-06	3.417805e-06	8.581989e-10	2.376942e+01	5.937414e+01
2.640000e-06	3.454406e-06	8.696059e-10	2.402396e+01	5.990518e+01
2.650000e-06	3.490747e-06	8.783006e-10	2.427670e+01	6.041925e+01
2.660000e-06	3.526851e-06	8.823179e-10	2.452779e+01	6.091704e+01
2.670000e-06	3.562816e-06	8.848031e-10	2.477791e+01	6.139917e+01
2.680000e-06	3.598661e-06	8.879514e-10	2.502720e+01	6.186624e+01
2.690000e-06	3.634388e-06	8.952665e-10	2.527567e+01	6.231876e+01
2.700000e-06	3.669921e-06	9.052766e-10	2.552278e+01	6.275720e+01
2.710000e-06	3.705277e-06	9.128512e-10	2.576867e+01	6.318195e+01
2.720000e-06	3.740412e-06	9.177605e-10	2.601302e+01	6.359337e+01
2.730000e-06	3.775105e-06	9.223301e-10	2.625429e+01	6.399172e+01
2.740000e-06	3.809288e-06	9.268225e-10	2.649202e+01	6.437724e+01
2.750000e-06	3.843001e-06	9.309425e-10	2.672649e+01	6.475010e+01
2.760000e-06	3.876250e-06	9.352858e-10	2.695772e+01	6.511043e+01
2.770000e-06	3.909047e-06	9.407033e-10	2.718580e+01	6.545832e+01
2.780000e-06	3.941440e-06	9.470780e-10	2.741108e+01	6.579383e+01
2.790000e-06	3.973555e-06	9.544143e-10	2.763443e+01	6.611700e+01
2.800000e-06	4.005507e-06	9.615375e-10	2.785665e+01	6.642784e+01
2.810000e-06	4.037285e-06	9.666357e-10	2.807765e+01	6.672636e+01
2.820000e-06	4.068931e-06	9.697414e-10	2.829773e+01	6.701257e+01
2.830000e-06	4.100514e-06	9.744236e-10	2.851738e+01	6.728649e+01
2.840000e-06	4.131885e-06	9.785966e-10	2.873555e+01	6.754816e+01
2.850000e-06	4.162838e-06	9.822571e-10	2.895082e+01	6.779763e+01
2.860000e-06	4.193427e-06	9.873195e-10	2.916355e+01	6.803499e+01
2.870000e-06	4.223742e-06	9.943067e-10	2.937438e+01	6.826037e+01
2.880000e-06	4.253748e-06	9.989158e-10	2.958306e+01	6.847393e+01
2.890000e-06	4.283435e-06	1.000192e-09	2.978952e+01	6.867589e+01
2.900000e-06	4.312874e-06	1.004226e-09	2.999426e+01	6.886649e+01
