# Temperatura_=_10.12
# Concentracion g/m^3_=_1620.0
# C_Vs_to_Am_M_A/Vsm_=_65563218390.804596
# pendiente_HvsI_1/m_=_3716.3
# ordenada_HvsI_A/m_=_1297.0
# frecuencia_Hz_=_135108.5747706549

Tiempo_(s)	Campo_(V.s)	Magnetizacion_(V.s)	Campo_(kA/m)	Magnetizacion_(A/m)
0.000000e+00	-5.534721e-06	-1.629831e-09	-3.836740e+01	-1.068305e+02
1.000000e-08	-5.534897e-06	-1.627490e-09	-3.836863e+01	-1.067719e+02
2.000000e-08	-5.534840e-06	-1.628467e-09	-3.836823e+01	-1.067138e+02
3.000000e-08	-5.534300e-06	-1.632034e-09	-3.836449e+01	-1.066563e+02
4.000000e-08	-5.533045e-06	-1.633689e-09	-3.835579e+01	-1.065995e+02
5.000000e-08	-5.531160e-06	-1.624716e-09	-3.834273e+01	-1.065433e+02
6.000000e-08	-5.528782e-06	-1.600480e-09	-3.832624e+01	-1.064877e+02
7.000000e-08	-5.525898e-06	-1.585816e-09	-3.830625e+01	-1.064326e+02
8.000000e-08	-5.522585e-06	-1.646365e-09	-3.828328e+01	-1.063778e+02
9.000000e-08	-5.518821e-06	-1.749168e-09	-3.825719e+01	-1.063231e+02
1.000000e-07	-5.514539e-06	-1.720952e-09	-3.822751e+01	-1.062683e+02
1.100000e-07	-5.510021e-06	-1.563462e-09	-3.819618e+01	-1.062130e+02
1.200000e-07	-5.505472e-06	-1.541532e-09	-3.816465e+01	-1.061569e+02
1.300000e-07	-5.500630e-06	-1.633342e-09	-3.813108e+01	-1.060997e+02
1.400000e-07	-5.495288e-06	-1.688687e-09	-3.809406e+01	-1.060409e+02
1.500000e-07	-5.489550e-06	-1.581526e-09	-3.805428e+01	-1.059801e+02
1.600000e-07	-5.483500e-06	-1.568814e-09	-3.801234e+01	-1.059169e+02
1.700000e-07	-5.477046e-06	-1.665621e-09	-3.796760e+01	-1.058508e+02
1.800000e-07	-5.470048e-06	-1.679270e-09	-3.791909e+01	-1.057814e+02
1.900000e-07	-5.462650e-06	-1.591364e-09	-3.786780e+01	-1.057083e+02
2.000000e-07	-5.455090e-06	-1.546538e-09	-3.781539e+01	-1.056310e+02
2.100000e-07	-5.447282e-06	-1.638664e-09	-3.776127e+01	-1.055492e+02
2.200000e-07	-5.439208e-06	-1.690400e-09	-3.770530e+01	-1.054623e+02
2.300000e-07	-5.430790e-06	-1.667389e-09	-3.764695e+01	-1.053703e+02
2.400000e-07	-5.421879e-06	-1.618340e-09	-3.758518e+01	-1.052726e+02
2.500000e-07	-5.412305e-06	-1.650889e-09	-3.751881e+01	-1.051691e+02
2.600000e-07	-5.401974e-06	-1.650416e-09	-3.744719e+01	-1.050597e+02
2.700000e-07	-5.391120e-06	-1.628072e-09	-3.737195e+01	-1.049441e+02
2.800000e-07	-5.379825e-06	-1.598239e-09	-3.729365e+01	-1.048223e+02
2.900000e-07	-5.368093e-06	-1.636276e-09	-3.721232e+01	-1.046942e+02
3.000000e-07	-5.356053e-06	-1.640218e-09	-3.712886e+01	-1.045600e+02
3.100000e-07	-5.343611e-06	-1.610622e-09	-3.704261e+01	-1.044197e+02
3.200000e-07	-5.330612e-06	-1.579072e-09	-3.695249e+01	-1.042734e+02
3.300000e-07	-5.317295e-06	-1.605785e-09	-3.686018e+01	-1.041214e+02
3.400000e-07	-5.303759e-06	-1.611518e-09	-3.676635e+01	-1.039639e+02
3.500000e-07	-5.289762e-06	-1.574403e-09	-3.666932e+01	-1.038013e+02
3.600000e-07	-5.275126e-06	-1.578242e-09	-3.656786e+01	-1.036338e+02
3.700000e-07	-5.259982e-06	-1.617967e-09	-3.646288e+01	-1.034618e+02
3.800000e-07	-5.244379e-06	-1.584342e-09	-3.635472e+01	-1.032858e+02
3.900000e-07	-5.228181e-06	-1.536860e-09	-3.624243e+01	-1.031061e+02
4.000000e-07	-5.211582e-06	-1.587906e-09	-3.612737e+01	-1.029231e+02
4.100000e-07	-5.194808e-06	-1.596968e-09	-3.601109e+01	-1.027373e+02
4.200000e-07	-5.177671e-06	-1.527157e-09	-3.589229e+01	-1.025491e+02
4.300000e-07	-5.160110e-06	-1.544829e-09	-3.577055e+01	-1.023589e+02
4.400000e-07	-5.142367e-06	-1.625922e-09	-3.564756e+01	-1.021670e+02
4.500000e-07	-5.124251e-06	-1.562452e-09	-3.552198e+01	-1.019737e+02
4.600000e-07	-5.105544e-06	-1.512697e-09	-3.539229e+01	-1.017795e+02
4.700000e-07	-5.086420e-06	-1.577583e-09	-3.525973e+01	-1.015846e+02
4.800000e-07	-5.067028e-06	-1.588255e-09	-3.512530e+01	-1.013891e+02
4.900000e-07	-5.047429e-06	-1.511556e-09	-3.498944e+01	-1.011933e+02
5.000000e-07	-5.027714e-06	-1.546419e-09	-3.485277e+01	-1.009973e+02
5.100000e-07	-5.007827e-06	-1.563788e-09	-3.471491e+01	-1.008012e+02
5.200000e-07	-4.987556e-06	-1.494898e-09	-3.457439e+01	-1.006050e+02
5.300000e-07	-4.966777e-06	-1.507689e-09	-3.443034e+01	-1.004086e+02
5.400000e-07	-4.945695e-06	-1.584991e-09	-3.428420e+01	-1.002120e+02
5.500000e-07	-4.924328e-06	-1.524235e-09	-3.413609e+01	-1.000151e+02
5.600000e-07	-4.902520e-06	-1.479858e-09	-3.398491e+01	-9.981771e+01
5.700000e-07	-4.880358e-06	-1.537890e-09	-3.383128e+01	-9.961957e+01
5.800000e-07	-4.857923e-06	-1.531737e-09	-3.367575e+01	-9.942047e+01
5.900000e-07	-4.835087e-06	-1.469864e-09	-3.351745e+01	-9.922013e+01
6.000000e-07	-4.811897e-06	-1.501885e-09	-3.335670e+01	-9.901826e+01
6.100000e-07	-4.788504e-06	-1.514230e-09	-3.319453e+01	-9.881454e+01
6.200000e-07	-4.764874e-06	-1.465366e-09	-3.303073e+01	-9.860864e+01
6.300000e-07	-4.741042e-06	-1.472877e-09	-3.286552e+01	-9.840023e+01
6.400000e-07	-4.716959e-06	-1.500574e-09	-3.269857e+01	-9.818898e+01
6.500000e-07	-4.692321e-06	-1.471299e-09	-3.252778e+01	-9.797457e+01
6.600000e-07	-4.667098e-06	-1.465921e-09	-3.235293e+01	-9.775668e+01
6.700000e-07	-4.641478e-06	-1.488772e-09	-3.217533e+01	-9.753503e+01
6.800000e-07	-4.615374e-06	-1.466298e-09	-3.199437e+01	-9.730933e+01
6.900000e-07	-4.588719e-06	-1.448893e-09	-3.180960e+01	-9.707934e+01
7.000000e-07	-4.561565e-06	-1.461575e-09	-3.162136e+01	-9.684485e+01
7.100000e-07	-4.534117e-06	-1.454515e-09	-3.143109e+01	-9.660567e+01
7.200000e-07	-4.506547e-06	-1.439339e-09	-3.123997e+01	-9.636163e+01
7.300000e-07	-4.478832e-06	-1.455499e-09	-3.104785e+01	-9.611263e+01
7.400000e-07	-4.450952e-06	-1.454184e-09	-3.085458e+01	-9.585857e+01
7.500000e-07	-4.422751e-06	-1.441370e-09	-3.065908e+01	-9.559940e+01
7.600000e-07	-4.394210e-06	-1.441122e-09	-3.046124e+01	-9.533509e+01
7.700000e-07	-4.365403e-06	-1.437566e-09	-3.026154e+01	-9.506565e+01
7.800000e-07	-4.336250e-06	-1.414910e-09	-3.005945e+01	-9.479111e+01
7.900000e-07	-4.306729e-06	-1.416320e-09	-2.985481e+01	-9.451152e+01
8.000000e-07	-4.276883e-06	-1.419335e-09	-2.964791e+01	-9.422697e+01
8.100000e-07	-4.246783e-06	-1.404496e-09	-2.943925e+01	-9.393755e+01
8.200000e-07	-4.216447e-06	-1.394611e-09	-2.922896e+01	-9.364336e+01
8.300000e-07	-4.185854e-06	-1.406154e-09	-2.901689e+01	-9.334452e+01
8.400000e-07	-4.154936e-06	-1.398373e-09	-2.880256e+01	-9.304117e+01
8.500000e-07	-4.123687e-06	-1.390306e-09	-2.858593e+01	-9.273342e+01
8.600000e-07	-4.092241e-06	-1.396546e-09	-2.836795e+01	-9.242140e+01
8.700000e-07	-4.060659e-06	-1.393678e-09	-2.814902e+01	-9.210526e+01
8.800000e-07	-4.028902e-06	-1.375611e-09	-2.792887e+01	-9.178509e+01
8.900000e-07	-3.996997e-06	-1.374028e-09	-2.770771e+01	-9.146103e+01
9.000000e-07	-3.964845e-06	-1.372661e-09	-2.748482e+01	-9.113318e+01
9.100000e-07	-3.932272e-06	-1.357267e-09	-2.725902e+01	-9.080164e+01
9.200000e-07	-3.899284e-06	-1.350474e-09	-2.703035e+01	-9.046650e+01
9.300000e-07	-3.865932e-06	-1.355744e-09	-2.679914e+01	-9.012784e+01
9.400000e-07	-3.832104e-06	-1.346399e-09	-2.656464e+01	-8.978572e+01
9.500000e-07	-3.797676e-06	-1.334708e-09	-2.632598e+01	-8.944021e+01
9.600000e-07	-3.762740e-06	-1.337056e-09	-2.608381e+01	-8.909136e+01
9.700000e-07	-3.727492e-06	-1.331113e-09	-2.583946e+01	-8.873921e+01
9.800000e-07	-3.692064e-06	-1.315503e-09	-2.559387e+01	-8.838381e+01
9.900000e-07	-3.656561e-06	-1.310189e-09	-2.534776e+01	-8.802518e+01
1.000000e-06	-3.620979e-06	-1.307512e-09	-2.510110e+01	-8.766336e+01
1.010000e-06	-3.585206e-06	-1.291028e-09	-2.485311e+01	-8.729838e+01
1.020000e-06	-3.549248e-06	-1.283487e-09	-2.460385e+01	-8.693026e+01
1.030000e-06	-3.513112e-06	-1.282606e-09	-2.435335e+01	-8.655903e+01
1.040000e-06	-3.476743e-06	-1.276467e-09	-2.410124e+01	-8.618471e+01
1.050000e-06	-3.440080e-06	-1.268806e-09	-2.384708e+01	-8.580733e+01
1.060000e-06	-3.403082e-06	-1.269298e-09	-2.359061e+01	-8.542690e+01
1.070000e-06	-3.365848e-06	-1.260708e-09	-2.333250e+01	-8.504345e+01
1.080000e-06	-3.328400e-06	-1.246846e-09	-2.307290e+01	-8.465700e+01
1.090000e-06	-3.290743e-06	-1.235963e-09	-2.281186e+01	-8.426754e+01
1.100000e-06	-3.252850e-06	-1.226585e-09	-2.254918e+01	-8.387510e+01
1.110000e-06	-3.214675e-06	-1.211496e-09	-2.228455e+01	-8.347966e+01
1.120000e-06	-3.176256e-06	-1.202423e-09	-2.201822e+01	-8.308120e+01
1.130000e-06	-3.137622e-06	-1.199194e-09	-2.175041e+01	-8.267968e+01
1.140000e-06	-3.098784e-06	-1.196290e-09	-2.148117e+01	-8.227505e+01
1.150000e-06	-3.059750e-06	-1.193791e-09	-2.121059e+01	-8.186722e+01
1.160000e-06	-3.020501e-06	-1.191953e-09	-2.093851e+01	-8.145610e+01
1.170000e-06	-2.981065e-06	-1.181165e-09	-2.066513e+01	-8.104155e+01
1.180000e-06	-2.941539e-06	-1.166787e-09	-2.039113e+01	-8.062340e+01
1.190000e-06	-2.901904e-06	-1.156690e-09	-2.011637e+01	-8.020145e+01
1.200000e-06	-2.862134e-06	-1.147696e-09	-1.984069e+01	-7.977547e+01
1.210000e-06	-2.822245e-06	-1.140174e-09	-1.956417e+01	-7.934518e+01
1.220000e-06	-2.782260e-06	-1.138195e-09	-1.928699e+01	-7.891027e+01
1.230000e-06	-2.742129e-06	-1.134909e-09	-1.900880e+01	-7.847038e+01
1.240000e-06	-2.701765e-06	-1.125269e-09	-1.872899e+01	-7.802513e+01
1.250000e-06	-2.661034e-06	-1.114996e-09	-1.844664e+01	-7.757409e+01
1.260000e-06	-2.619981e-06	-1.105950e-09	-1.816205e+01	-7.711681e+01
1.270000e-06	-2.578581e-06	-1.095565e-09	-1.787506e+01	-7.665281e+01
1.280000e-06	-2.536795e-06	-1.084049e-09	-1.758540e+01	-7.618156e+01
1.290000e-06	-2.494719e-06	-1.075522e-09	-1.729372e+01	-7.570255e+01
1.300000e-06	-2.452417e-06	-1.068028e-09	-1.700047e+01	-7.521522e+01
1.310000e-06	-2.409949e-06	-1.060370e-09	-1.670608e+01	-7.471902e+01
1.320000e-06	-2.367186e-06	-1.050944e-09	-1.640964e+01	-7.421340e+01
1.330000e-06	-2.324112e-06	-1.040237e-09	-1.611105e+01	-7.369781e+01
1.340000e-06	-2.280811e-06	-1.029441e-09	-1.581088e+01	-7.317172e+01
1.350000e-06	-2.237344e-06	-1.021098e-09	-1.550956e+01	-7.263460e+01
1.360000e-06	-2.193770e-06	-1.014951e-09	-1.520750e+01	-7.208598e+01
1.370000e-06	-2.150088e-06	-1.010652e-09	-1.490469e+01	-7.152540e+01
1.380000e-06	-2.106337e-06	-1.003358e-09	-1.460141e+01	-7.095245e+01
1.390000e-06	-2.062555e-06	-9.916204e-10	-1.429790e+01	-7.036677e+01
1.400000e-06	-2.018740e-06	-9.762538e-10	-1.399417e+01	-6.976804e+01
1.410000e-06	-1.974875e-06	-9.610555e-10	-1.369009e+01	-6.915600e+01
1.420000e-06	-1.930937e-06	-9.456081e-10	-1.338550e+01	-6.853044e+01
1.430000e-06	-1.886907e-06	-9.334535e-10	-1.308028e+01	-6.789122e+01
1.440000e-06	-1.842745e-06	-9.263180e-10	-1.277415e+01	-6.723825e+01
1.450000e-06	-1.798441e-06	-9.227761e-10	-1.246703e+01	-6.657149e+01
1.460000e-06	-1.754001e-06	-9.185550e-10	-1.215897e+01	-6.589096e+01
1.470000e-06	-1.709447e-06	-9.125200e-10	-1.185011e+01	-6.519673e+01
1.480000e-06	-1.664755e-06	-9.025193e-10	-1.154030e+01	-6.448889e+01
1.490000e-06	-1.619917e-06	-8.870884e-10	-1.122947e+01	-6.376759e+01
1.500000e-06	-1.574904e-06	-8.658330e-10	-1.091744e+01	-6.303297e+01
1.510000e-06	-1.529735e-06	-8.474535e-10	-1.060432e+01	-6.228521e+01
1.520000e-06	-1.484436e-06	-8.386065e-10	-1.029030e+01	-6.152448e+01
1.530000e-06	-1.439010e-06	-8.346405e-10	-9.975402e+00	-6.075094e+01
1.540000e-06	-1.393528e-06	-8.298026e-10	-9.660119e+00	-5.996472e+01
1.550000e-06	-1.347925e-06	-8.197806e-10	-9.343995e+00	-5.916593e+01
1.560000e-06	-1.302227e-06	-8.037461e-10	-9.027205e+00	-5.835459e+01
1.570000e-06	-1.256485e-06	-7.825551e-10	-8.710115e+00	-5.753070e+01
1.580000e-06	-1.210663e-06	-7.620746e-10	-8.392477e+00	-5.669415e+01
1.590000e-06	-1.164812e-06	-7.454783e-10	-8.074626e+00	-5.584476e+01
1.600000e-06	-1.118851e-06	-7.311022e-10	-7.756024e+00	-5.498224e+01
1.610000e-06	-1.072786e-06	-7.188266e-10	-7.436691e+00	-5.410619e+01
1.620000e-06	-1.026735e-06	-7.098733e-10	-7.117464e+00	-5.321608e+01
1.630000e-06	-9.806005e-07	-6.999154e-10	-6.797650e+00	-5.231128e+01
1.640000e-06	-9.342771e-07	-6.887728e-10	-6.476531e+00	-5.139101e+01
1.650000e-06	-8.877840e-07	-6.764327e-10	-6.154234e+00	-5.045437e+01
1.660000e-06	-8.412537e-07	-6.625075e-10	-5.831680e+00	-4.950032e+01
1.670000e-06	-7.947335e-07	-6.477695e-10	-5.509196e+00	-4.852768e+01
1.680000e-06	-7.482535e-07	-6.318301e-10	-5.186991e+00	-4.753518e+01
1.690000e-06	-7.017182e-07	-6.139278e-10	-4.864402e+00	-4.652140e+01
1.700000e-06	-6.550267e-07	-5.930987e-10	-4.540730e+00	-4.548484e+01
1.710000e-06	-6.083405e-07	-5.706699e-10	-4.217096e+00	-4.442389e+01
1.720000e-06	-5.616479e-07	-5.505952e-10	-3.893417e+00	-4.333687e+01
1.730000e-06	-5.148752e-07	-5.327089e-10	-3.569182e+00	-4.222204e+01
1.740000e-06	-4.680207e-07	-5.158961e-10	-3.244381e+00	-4.107761e+01
1.750000e-06	-4.211793e-07	-4.980373e-10	-2.919670e+00	-3.990179e+01
1.760000e-06	-3.743412e-07	-4.776175e-10	-2.594982e+00	-3.869278e+01
1.770000e-06	-3.274344e-07	-4.565799e-10	-2.269818e+00	-3.744880e+01
1.780000e-06	-2.804854e-07	-4.383707e-10	-1.944361e+00	-3.616813e+01
1.790000e-06	-2.335397e-07	-4.214446e-10	-1.618928e+00	-3.484914e+01
1.800000e-06	-1.866785e-07	-4.013022e-10	-1.294080e+00	-3.349028e+01
1.810000e-06	-1.398075e-07	-3.798061e-10	-9.691636e-01	-3.209014e+01
1.820000e-06	-9.288676e-08	-3.591398e-10	-6.439031e-01	-3.064745e+01
1.830000e-06	-4.600536e-08	-3.378230e-10	-3.189151e-01	-2.916113e+01
1.840000e-06	8.616225e-10	-3.168041e-10	5.972879e-03	-2.763029e+01
1.850000e-06	4.777141e-08	-2.968936e-10	3.311577e-01	-2.605425e+01
1.860000e-06	9.467799e-08	-2.771075e-10	6.563201e-01	-2.443257e+01
1.870000e-06	1.415304e-07	-2.569210e-10	9.811069e-01	-2.276507e+01
1.880000e-06	1.884178e-07	-2.344318e-10	1.306137e+00	-2.105180e+01
1.890000e-06	2.353630e-07	-2.076618e-10	1.631567e+00	-1.929313e+01
1.900000e-06	2.823515e-07	-1.777292e-10	1.957297e+00	-1.748968e+01
1.910000e-06	3.293643e-07	-1.484920e-10	2.283196e+00	-1.564236e+01
1.920000e-06	3.763249e-07	-1.216372e-10	2.608734e+00	-1.375237e+01
1.930000e-06	4.231897e-07	-9.828804e-11	2.933607e+00	-1.182119e+01
1.940000e-06	4.699304e-07	-7.632687e-11	3.257619e+00	-9.850584e+00
1.950000e-06	5.165561e-07	-5.296631e-11	3.580834e+00	-7.842579e+00
1.960000e-06	5.631383e-07	-2.838547e-11	3.903748e+00	-5.799460e+00
1.970000e-06	6.097325e-07	-2.745665e-12	4.226745e+00	-3.723758e+00
1.980000e-06	6.563380e-07	2.516037e-11	4.549821e+00	-1.618225e+00
1.990000e-06	7.029358e-07	5.623129e-11	4.872843e+00	5.141782e-01
2.000000e-06	7.494576e-07	8.926223e-11	5.195338e+00	2.670310e+00
2.010000e-06	7.958921e-07	1.210960e-10	5.517228e+00	4.846867e+00
2.020000e-06	8.422797e-07	1.526650e-10	5.838793e+00	7.040414e+00
2.030000e-06	8.885888e-07	1.839774e-10	6.159813e+00	9.247408e+00
2.040000e-06	9.348021e-07	2.129183e-10	6.480170e+00	1.146423e+01
2.050000e-06	9.809350e-07	2.404278e-10	6.799969e+00	1.368719e+01
2.060000e-06	1.027055e-06	2.687747e-10	7.119680e+00	1.591261e+01
2.070000e-06	1.073164e-06	2.979001e-10	7.439310e+00	1.813678e+01
2.080000e-06	1.119132e-06	3.281143e-10	7.757970e+00	2.035605e+01
2.090000e-06	1.164974e-06	3.594926e-10	8.075749e+00	2.256681e+01
2.100000e-06	1.210717e-06	3.920398e-10	8.392849e+00	2.476554e+01
2.110000e-06	1.256389e-06	4.249170e-10	8.709455e+00	2.694883e+01
2.120000e-06	1.302017e-06	4.548704e-10	9.025751e+00	2.911340e+01
2.130000e-06	1.347507e-06	4.823210e-10	9.341096e+00	3.125612e+01
2.140000e-06	1.392897e-06	5.086861e-10	9.655747e+00	3.337403e+01
2.150000e-06	1.438214e-06	5.343410e-10	9.969887e+00	3.546434e+01
2.160000e-06	1.483415e-06	5.594850e-10	1.028322e+01	3.752448e+01
2.170000e-06	1.528579e-06	5.859621e-10	1.059631e+01	3.955207e+01
2.180000e-06	1.573696e-06	6.144526e-10	1.090907e+01	4.154497e+01
2.190000e-06	1.618689e-06	6.433752e-10	1.122097e+01	4.350124e+01
2.200000e-06	1.663530e-06	6.713965e-10	1.153181e+01	4.541918e+01
2.210000e-06	1.708133e-06	6.987892e-10	1.184100e+01	4.729733e+01
2.220000e-06	1.752545e-06	7.245431e-10	1.214887e+01	4.913442e+01
2.230000e-06	1.796914e-06	7.483769e-10	1.245644e+01	5.092946e+01
2.240000e-06	1.841166e-06	7.688927e-10	1.276320e+01	5.268163e+01
2.250000e-06	1.885209e-06	7.861846e-10	1.306852e+01	5.439036e+01
2.260000e-06	1.929155e-06	8.033451e-10	1.337316e+01	5.605525e+01
2.270000e-06	1.973060e-06	8.211558e-10	1.367751e+01	5.767614e+01
2.280000e-06	2.016902e-06	8.413584e-10	1.398142e+01	5.925301e+01
2.290000e-06	2.060694e-06	8.646037e-10	1.428500e+01	6.078603e+01
2.300000e-06	2.104410e-06	8.896556e-10	1.458804e+01	6.227554e+01
2.310000e-06	2.148069e-06	9.129735e-10	1.489070e+01	6.372200e+01
2.320000e-06	2.191655e-06	9.324608e-10	1.519283e+01	6.512602e+01
2.330000e-06	2.235118e-06	9.483238e-10	1.549413e+01	6.648832e+01
2.340000e-06	2.278481e-06	9.614985e-10	1.579473e+01	6.780971e+01
2.350000e-06	2.321793e-06	9.750242e-10	1.609497e+01	6.909111e+01
2.360000e-06	2.364948e-06	9.898597e-10	1.639413e+01	7.033350e+01
2.370000e-06	2.407833e-06	1.006424e-09	1.669141e+01	7.153792e+01
2.380000e-06	2.450417e-06	1.025578e-09	1.698661e+01	7.270545e+01
2.390000e-06	2.492694e-06	1.044870e-09	1.727968e+01	7.383722e+01
2.400000e-06	2.534685e-06	1.061662e-09	1.757076e+01	7.493437e+01
2.410000e-06	2.576308e-06	1.076282e-09	1.785930e+01	7.599807e+01
2.420000e-06	2.617586e-06	1.089788e-09	1.814545e+01	7.702946e+01
2.430000e-06	2.658558e-06	1.103566e-09	1.842947e+01	7.802970e+01
2.440000e-06	2.699153e-06	1.117604e-09	1.871088e+01	7.899993e+01
2.450000e-06	2.739452e-06	1.131605e-09	1.899024e+01	7.994125e+01
2.460000e-06	2.779609e-06	1.145349e-09	1.926861e+01	8.085475e+01
2.470000e-06	2.819627e-06	1.156279e-09	1.954602e+01	8.174148e+01
2.480000e-06	2.859487e-06	1.166315e-09	1.982233e+01	8.260245e+01
2.490000e-06	2.899220e-06	1.177859e-09	2.009777e+01	8.343863e+01
2.500000e-06	2.938832e-06	1.190390e-09	2.037237e+01	8.425095e+01
2.510000e-06	2.978337e-06	1.206285e-09	2.064622e+01	8.504026e+01
2.520000e-06	3.017715e-06	1.220726e-09	2.091919e+01	8.580741e+01
2.530000e-06	3.056843e-06	1.233283e-09	2.119043e+01	8.655317e+01
2.540000e-06	3.095728e-06	1.243748e-09	2.145999e+01	8.727827e+01
2.550000e-06	3.134446e-06	1.249209e-09	2.172839e+01	8.798338e+01
2.560000e-06	3.172891e-06	1.252443e-09	2.199489e+01	8.866914e+01
2.570000e-06	3.211030e-06	1.257919e-09	2.225928e+01	8.933614e+01
2.580000e-06	3.248984e-06	1.267079e-09	2.252238e+01	8.998491e+01
2.590000e-06	3.286787e-06	1.277648e-09	2.278443e+01	9.061596e+01
2.600000e-06	3.324376e-06	1.290638e-09	2.304501e+01	9.122974e+01
2.610000e-06	3.361785e-06	1.305214e-09	2.330433e+01	9.182669e+01
2.620000e-06	3.398994e-06	1.319306e-09	2.356227e+01	9.240719e+01
2.630000e-06	3.435891e-06	1.327039e-09	2.381805e+01	9.297160e+01
2.640000e-06	3.472432e-06	1.330122e-09	2.407135e+01	9.352025e+01
2.650000e-06	3.508697e-06	1.333661e-09	2.432274e+01	9.405346e+01
2.660000e-06	3.544781e-06	1.338235e-09	2.457288e+01	9.457150e+01
2.670000e-06	3.580691e-06	1.344109e-09	2.482182e+01	9.507467e+01
2.680000e-06	3.616460e-06	1.352491e-09	2.506977e+01	9.556320e+01
2.690000e-06	3.652120e-06	1.363208e-09	2.531697e+01	9.603735e+01
2.700000e-06	3.687719e-06	1.372539e-09	2.556375e+01	9.649735e+01
2.710000e-06	3.723222e-06	1.377510e-09	2.580986e+01	9.694344e+01
2.720000e-06	3.758450e-06	1.379667e-09	2.605406e+01	9.737585e+01
2.730000e-06	3.793288e-06	1.381049e-09	2.629557e+01	9.779481e+01
2.740000e-06	3.827844e-06	1.385366e-09	2.653511e+01	9.820055e+01
2.750000e-06	3.862022e-06	1.392414e-09	2.677204e+01	9.859331e+01
2.760000e-06	3.895576e-06	1.399851e-09	2.700464e+01	9.897333e+01
2.770000e-06	3.928501e-06	1.408216e-09	2.723288e+01	9.934085e+01
2.780000e-06	3.960924e-06	1.415182e-09	2.745764e+01	9.969614e+01
2.790000e-06	3.992987e-06	1.419681e-09	2.767991e+01	1.000395e+02
2.800000e-06	4.024855e-06	1.423067e-09	2.790082e+01	1.003711e+02
2.810000e-06	4.056602e-06	1.427284e-09	2.812090e+01	1.006913e+02
2.820000e-06	4.088244e-06	1.433155e-09	2.834024e+01	1.010003e+02
2.830000e-06	4.119781e-06	1.440394e-09	2.855886e+01	1.012986e+02
2.840000e-06	4.151139e-06	1.447216e-09	2.877624e+01	1.015863e+02
2.850000e-06	4.182210e-06	1.452254e-09	2.899162e+01	1.018638e+02
2.860000e-06	4.212870e-06	1.455984e-09	2.920416e+01	1.021314e+02
2.870000e-06	4.243088e-06	1.458481e-09	2.941364e+01	1.023895e+02
2.880000e-06	4.272971e-06	1.460076e-09	2.962079e+01	1.026382e+02
2.890000e-06	4.302600e-06	1.463524e-09	2.982619e+01	1.028781e+02
2.900000e-06	4.332028e-06	1.469844e-09	3.003018e+01	1.031093e+02
