# Temperatura_=_-2.23
# Concentracion g/m^3_=_1620.0
# C_Vs_to_Am_M_A/Vsm_=_65563218390.804596
# pendiente_HvsI_1/m_=_3716.3
# ordenada_HvsI_A/m_=_1297.0
# frecuencia_Hz_=_135108.21816019496

Tiempo_(s)	Campo_(V.s)	Magnetizacion_(V.s)	Campo_(kA/m)	Magnetizacion_(A/m)
0.000000e+00	-5.533589e-06	-1.398690e-09	-3.837528e+01	-9.050975e+01
1.000000e-08	-5.533619e-06	-1.395345e-09	-3.837548e+01	-9.047012e+01
2.000000e-08	-5.533383e-06	-1.394804e-09	-3.837384e+01	-9.043264e+01
3.000000e-08	-5.532730e-06	-1.394714e-09	-3.836932e+01	-9.039725e+01
4.000000e-08	-5.531529e-06	-1.393408e-09	-3.836099e+01	-9.036382e+01
5.000000e-08	-5.529716e-06	-1.394160e-09	-3.834841e+01	-9.033216e+01
6.000000e-08	-5.527328e-06	-1.400004e-09	-3.833185e+01	-9.030205e+01
7.000000e-08	-5.524462e-06	-1.401328e-09	-3.831198e+01	-9.027318e+01
8.000000e-08	-5.521123e-06	-1.383757e-09	-3.828882e+01	-9.024521e+01
9.000000e-08	-5.517372e-06	-1.386923e-09	-3.826281e+01	-9.021777e+01
1.000000e-07	-5.513207e-06	-1.430256e-09	-3.823392e+01	-9.019044e+01
1.100000e-07	-5.508660e-06	-1.426264e-09	-3.820239e+01	-9.016277e+01
1.200000e-07	-5.503890e-06	-1.377690e-09	-3.816931e+01	-9.013427e+01
1.300000e-07	-5.498882e-06	-1.333025e-09	-3.813458e+01	-9.010448e+01
1.400000e-07	-5.493514e-06	-1.393040e-09	-3.809736e+01	-9.007287e+01
1.500000e-07	-5.487697e-06	-1.431030e-09	-3.805702e+01	-9.003897e+01
1.600000e-07	-5.481447e-06	-1.388892e-09	-3.801367e+01	-9.000227e+01
1.700000e-07	-5.474819e-06	-1.348286e-09	-3.796770e+01	-8.996229e+01
1.800000e-07	-5.467765e-06	-1.384188e-09	-3.791879e+01	-8.991858e+01
1.900000e-07	-5.460341e-06	-1.443896e-09	-3.786730e+01	-8.987070e+01
2.000000e-07	-5.452753e-06	-1.399265e-09	-3.781468e+01	-8.981825e+01
2.100000e-07	-5.444891e-06	-1.368419e-09	-3.776015e+01	-8.976089e+01
2.200000e-07	-5.436678e-06	-1.384138e-09	-3.770320e+01	-8.969830e+01
2.300000e-07	-5.428233e-06	-1.429874e-09	-3.764464e+01	-8.963021e+01
2.400000e-07	-5.419289e-06	-1.404575e-09	-3.758261e+01	-8.955642e+01
2.500000e-07	-5.409604e-06	-1.392206e-09	-3.751544e+01	-8.947678e+01
2.600000e-07	-5.399162e-06	-1.390935e-09	-3.744303e+01	-8.939119e+01
2.700000e-07	-5.388198e-06	-1.403769e-09	-3.736699e+01	-8.929961e+01
2.800000e-07	-5.376899e-06	-1.377710e-09	-3.728863e+01	-8.920207e+01
2.900000e-07	-5.365159e-06	-1.377334e-09	-3.720722e+01	-8.909864e+01
3.000000e-07	-5.352981e-06	-1.390756e-09	-3.712276e+01	-8.898946e+01
3.100000e-07	-5.340436e-06	-1.404286e-09	-3.703576e+01	-8.887472e+01
3.200000e-07	-5.327508e-06	-1.388102e-09	-3.694611e+01	-8.875465e+01
3.300000e-07	-5.314191e-06	-1.369518e-09	-3.685376e+01	-8.862954e+01
3.400000e-07	-5.300485e-06	-1.379780e-09	-3.675870e+01	-8.849970e+01
3.500000e-07	-5.286312e-06	-1.383551e-09	-3.666042e+01	-8.836549e+01
3.600000e-07	-5.271641e-06	-1.367765e-09	-3.655867e+01	-8.822730e+01
3.700000e-07	-5.256568e-06	-1.360975e-09	-3.645414e+01	-8.808553e+01
3.800000e-07	-5.240995e-06	-1.392019e-09	-3.634614e+01	-8.794059e+01
3.900000e-07	-5.224807e-06	-1.379482e-09	-3.623388e+01	-8.779293e+01
4.000000e-07	-5.208197e-06	-1.351849e-09	-3.611869e+01	-8.764297e+01
4.100000e-07	-5.191279e-06	-1.360725e-09	-3.600136e+01	-8.749115e+01
4.200000e-07	-5.174019e-06	-1.384444e-09	-3.588167e+01	-8.733787e+01
4.300000e-07	-5.156449e-06	-1.344189e-09	-3.575982e+01	-8.718354e+01
4.400000e-07	-5.138611e-06	-1.340884e-09	-3.563612e+01	-8.702854e+01
4.500000e-07	-5.120355e-06	-1.373447e-09	-3.550951e+01	-8.687322e+01
4.600000e-07	-5.101586e-06	-1.367789e-09	-3.537934e+01	-8.671789e+01
4.700000e-07	-5.082424e-06	-1.325831e-09	-3.524646e+01	-8.656285e+01
4.800000e-07	-5.062964e-06	-1.352811e-09	-3.511150e+01	-8.640834e+01
4.900000e-07	-5.043255e-06	-1.359506e-09	-3.497482e+01	-8.625456e+01
5.000000e-07	-5.023356e-06	-1.327742e-09	-3.483682e+01	-8.610168e+01
5.100000e-07	-5.003249e-06	-1.323962e-09	-3.469738e+01	-8.594982e+01
5.200000e-07	-4.982846e-06	-1.345376e-09	-3.455589e+01	-8.579904e+01
5.300000e-07	-4.962002e-06	-1.314936e-09	-3.441133e+01	-8.564940e+01
5.400000e-07	-4.940746e-06	-1.313503e-09	-3.426392e+01	-8.550086e+01
5.500000e-07	-4.919183e-06	-1.346029e-09	-3.411439e+01	-8.535340e+01
5.600000e-07	-4.897253e-06	-1.334496e-09	-3.396230e+01	-8.520693e+01
5.700000e-07	-4.874981e-06	-1.302457e-09	-3.380785e+01	-8.506132e+01
5.800000e-07	-4.852449e-06	-1.322877e-09	-3.365159e+01	-8.491644e+01
5.900000e-07	-4.829609e-06	-1.328324e-09	-3.349319e+01	-8.477210e+01
6.000000e-07	-4.806408e-06	-1.298040e-09	-3.333230e+01	-8.462811e+01
6.100000e-07	-4.782933e-06	-1.296468e-09	-3.316950e+01	-8.448425e+01
6.200000e-07	-4.759268e-06	-1.311015e-09	-3.300538e+01	-8.434031e+01
6.300000e-07	-4.735374e-06	-1.299108e-09	-3.283968e+01	-8.419603e+01
6.400000e-07	-4.711127e-06	-1.292152e-09	-3.267152e+01	-8.405117e+01
6.500000e-07	-4.686412e-06	-1.304957e-09	-3.250013e+01	-8.390550e+01
6.600000e-07	-4.661208e-06	-1.295322e-09	-3.232534e+01	-8.375876e+01
6.700000e-07	-4.635625e-06	-1.281517e-09	-3.214792e+01	-8.361071e+01
6.800000e-07	-4.609551e-06	-1.280617e-09	-3.196710e+01	-8.346114e+01
6.900000e-07	-4.582903e-06	-1.279664e-09	-3.178229e+01	-8.330982e+01
7.000000e-07	-4.555821e-06	-1.265493e-09	-3.159448e+01	-8.315654e+01
7.100000e-07	-4.528390e-06	-1.266901e-09	-3.140425e+01	-8.300111e+01
7.200000e-07	-4.500735e-06	-1.269488e-09	-3.121246e+01	-8.284336e+01
7.300000e-07	-4.472908e-06	-1.267309e-09	-3.101948e+01	-8.268312e+01
7.400000e-07	-4.444913e-06	-1.262144e-09	-3.082534e+01	-8.252025e+01
7.500000e-07	-4.416626e-06	-1.267269e-09	-3.062917e+01	-8.235463e+01
7.600000e-07	-4.387977e-06	-1.260328e-09	-3.043049e+01	-8.218613e+01
7.700000e-07	-4.358992e-06	-1.252972e-09	-3.022948e+01	-8.201467e+01
7.800000e-07	-4.329672e-06	-1.247490e-09	-3.002615e+01	-8.184016e+01
7.900000e-07	-4.300098e-06	-1.247323e-09	-2.982105e+01	-8.166251e+01
8.000000e-07	-4.270297e-06	-1.241937e-09	-2.961438e+01	-8.148168e+01
8.100000e-07	-4.240249e-06	-1.240306e-09	-2.940600e+01	-8.129761e+01
8.200000e-07	-4.209984e-06	-1.233737e-09	-2.919611e+01	-8.111024e+01
8.300000e-07	-4.179470e-06	-1.228735e-09	-2.898450e+01	-8.091954e+01
8.400000e-07	-4.148574e-06	-1.228462e-09	-2.877024e+01	-8.072547e+01
8.500000e-07	-4.117317e-06	-1.232752e-09	-2.855347e+01	-8.052799e+01
8.600000e-07	-4.085870e-06	-1.231402e-09	-2.833539e+01	-8.032708e+01
8.700000e-07	-4.054280e-06	-1.229260e-09	-2.811631e+01	-8.012270e+01
8.800000e-07	-4.022481e-06	-1.225696e-09	-2.789578e+01	-7.991482e+01
8.900000e-07	-3.990485e-06	-1.219773e-09	-2.767389e+01	-7.970343e+01
9.000000e-07	-3.958252e-06	-1.216015e-09	-2.745036e+01	-7.948848e+01
9.100000e-07	-3.925640e-06	-1.212222e-09	-2.722420e+01	-7.926996e+01
9.200000e-07	-3.892532e-06	-1.204443e-09	-2.699459e+01	-7.904784e+01
9.300000e-07	-3.858962e-06	-1.197204e-09	-2.676179e+01	-7.882212e+01
9.400000e-07	-3.825014e-06	-1.195969e-09	-2.652636e+01	-7.859278e+01
9.500000e-07	-3.790653e-06	-1.193193e-09	-2.628807e+01	-7.835981e+01
9.600000e-07	-3.755915e-06	-1.188920e-09	-2.604716e+01	-7.812322e+01
9.700000e-07	-3.720865e-06	-1.183088e-09	-2.580409e+01	-7.788304e+01
9.800000e-07	-3.685560e-06	-1.179392e-09	-2.555924e+01	-7.763927e+01
9.900000e-07	-3.650039e-06	-1.173143e-09	-2.531291e+01	-7.739198e+01
1.000000e-06	-3.614336e-06	-1.168294e-09	-2.506531e+01	-7.714122e+01
1.010000e-06	-3.578531e-06	-1.160049e-09	-2.481701e+01	-7.688705e+01
1.020000e-06	-3.542606e-06	-1.153446e-09	-2.456786e+01	-7.662957e+01
1.030000e-06	-3.506452e-06	-1.148115e-09	-2.431714e+01	-7.636888e+01
1.040000e-06	-3.470065e-06	-1.148075e-09	-2.406480e+01	-7.610510e+01
1.050000e-06	-3.433403e-06	-1.145817e-09	-2.381055e+01	-7.583837e+01
1.060000e-06	-3.396445e-06	-1.141231e-09	-2.355425e+01	-7.556884e+01
1.070000e-06	-3.359228e-06	-1.133769e-09	-2.329614e+01	-7.529667e+01
1.080000e-06	-3.321742e-06	-1.127907e-09	-2.303618e+01	-7.502203e+01
1.090000e-06	-3.284006e-06	-1.119743e-09	-2.277449e+01	-7.474510e+01
1.100000e-06	-3.246080e-06	-1.113122e-09	-2.251147e+01	-7.446605e+01
1.110000e-06	-3.207905e-06	-1.105827e-09	-2.224672e+01	-7.418506e+01
1.120000e-06	-3.169522e-06	-1.097923e-09	-2.198054e+01	-7.390229e+01
1.130000e-06	-3.130924e-06	-1.091537e-09	-2.171287e+01	-7.361790e+01
1.140000e-06	-3.092027e-06	-1.089933e-09	-2.144311e+01	-7.333204e+01
1.150000e-06	-3.052950e-06	-1.089627e-09	-2.117212e+01	-7.304480e+01
1.160000e-06	-3.013703e-06	-1.086910e-09	-2.089994e+01	-7.275627e+01
1.170000e-06	-2.974286e-06	-1.080912e-09	-2.062659e+01	-7.246651e+01
1.180000e-06	-2.934741e-06	-1.074542e-09	-2.035234e+01	-7.217553e+01
1.190000e-06	-2.895037e-06	-1.068427e-09	-2.007699e+01	-7.188328e+01
1.200000e-06	-2.855160e-06	-1.061734e-09	-1.980045e+01	-7.158969e+01
1.210000e-06	-2.815160e-06	-1.056936e-09	-1.952305e+01	-7.129462e+01
1.220000e-06	-2.774999e-06	-1.052167e-09	-1.924454e+01	-7.099787e+01
1.230000e-06	-2.734633e-06	-1.046172e-09	-1.896460e+01	-7.069919e+01
1.240000e-06	-2.694106e-06	-1.037838e-09	-1.868355e+01	-7.039828e+01
1.250000e-06	-2.653400e-06	-1.030120e-09	-1.840125e+01	-7.009475e+01
1.260000e-06	-2.612371e-06	-1.023394e-09	-1.811672e+01	-6.978819e+01
1.270000e-06	-2.570951e-06	-1.017796e-09	-1.782946e+01	-6.947809e+01
1.280000e-06	-2.529318e-06	-1.010672e-09	-1.754074e+01	-6.916393e+01
1.290000e-06	-2.487397e-06	-1.004336e-09	-1.725002e+01	-6.884510e+01
1.300000e-06	-2.445185e-06	-9.971752e-10	-1.695728e+01	-6.852097e+01
1.310000e-06	-2.402726e-06	-9.890777e-10	-1.666283e+01	-6.819086e+01
1.320000e-06	-2.359982e-06	-9.805653e-10	-1.636640e+01	-6.785407e+01
1.330000e-06	-2.316993e-06	-9.737330e-10	-1.606827e+01	-6.750987e+01
1.340000e-06	-2.273748e-06	-9.688468e-10	-1.576837e+01	-6.715751e+01
1.350000e-06	-2.230368e-06	-9.671894e-10	-1.546754e+01	-6.679624e+01
1.360000e-06	-2.186855e-06	-9.636961e-10	-1.516577e+01	-6.642531e+01
1.370000e-06	-2.143242e-06	-9.578848e-10	-1.486332e+01	-6.604398e+01
1.380000e-06	-2.099570e-06	-9.504193e-10	-1.456046e+01	-6.565156e+01
1.390000e-06	-2.055814e-06	-9.416361e-10	-1.425701e+01	-6.524736e+01
1.400000e-06	-2.011909e-06	-9.314670e-10	-1.395253e+01	-6.483075e+01
1.410000e-06	-1.967892e-06	-9.208870e-10	-1.364727e+01	-6.440113e+01
1.420000e-06	-1.923872e-06	-9.091970e-10	-1.334200e+01	-6.395797e+01
1.430000e-06	-1.879763e-06	-8.984613e-10	-1.303610e+01	-6.350081e+01
1.440000e-06	-1.835458e-06	-8.909200e-10	-1.272885e+01	-6.302924e+01
1.450000e-06	-1.791045e-06	-8.846051e-10	-1.242084e+01	-6.254294e+01
1.460000e-06	-1.746519e-06	-8.781924e-10	-1.211206e+01	-6.204164e+01
1.470000e-06	-1.701861e-06	-8.724923e-10	-1.180235e+01	-6.152515e+01
1.480000e-06	-1.657112e-06	-8.657457e-10	-1.149202e+01	-6.099337e+01
1.490000e-06	-1.612193e-06	-8.553088e-10	-1.118051e+01	-6.044624e+01
1.500000e-06	-1.567042e-06	-8.399855e-10	-1.086739e+01	-5.988377e+01
1.510000e-06	-1.521782e-06	-8.245369e-10	-1.055351e+01	-5.930603e+01
1.520000e-06	-1.476477e-06	-8.126403e-10	-1.023932e+01	-5.871314e+01
1.530000e-06	-1.431021e-06	-8.042852e-10	-9.924089e+00	-5.810525e+01
1.540000e-06	-1.385495e-06	-7.987202e-10	-9.608366e+00	-5.748252e+01
1.550000e-06	-1.339998e-06	-7.917935e-10	-9.292849e+00	-5.684516e+01
1.560000e-06	-1.294472e-06	-7.806902e-10	-8.977123e+00	-5.619335e+01
1.570000e-06	-1.248825e-06	-7.662638e-10	-8.660565e+00	-5.552725e+01
1.580000e-06	-1.203087e-06	-7.532245e-10	-8.343372e+00	-5.484700e+01
1.590000e-06	-1.157169e-06	-7.406265e-10	-8.024935e+00	-5.415270e+01
1.600000e-06	-1.111117e-06	-7.261507e-10	-7.705562e+00	-5.344438e+01
1.610000e-06	-1.065061e-06	-7.118763e-10	-7.386163e+00	-5.272199e+01
1.620000e-06	-1.018970e-06	-7.001405e-10	-7.066525e+00	-5.198542e+01
1.630000e-06	-9.728610e-07	-6.917450e-10	-6.746762e+00	-5.123441e+01
1.640000e-06	-9.266512e-07	-6.853326e-10	-6.426298e+00	-5.046864e+01
1.650000e-06	-8.803280e-07	-6.752813e-10	-6.105048e+00	-4.968764e+01
1.660000e-06	-8.338634e-07	-6.618707e-10	-5.782818e+00	-4.889080e+01
1.670000e-06	-7.873345e-07	-6.467909e-10	-5.460141e+00	-4.807742e+01
1.680000e-06	-7.408383e-07	-6.318604e-10	-5.137692e+00	-4.724663e+01
1.690000e-06	-6.942831e-07	-6.176445e-10	-4.814833e+00	-4.639743e+01
1.700000e-06	-6.476933e-07	-6.017758e-10	-4.491733e+00	-4.552870e+01
1.710000e-06	-6.010030e-07	-5.824297e-10	-4.167938e+00	-4.463919e+01
1.720000e-06	-5.542186e-07	-5.630670e-10	-3.843489e+00	-4.372751e+01
1.730000e-06	-5.074562e-07	-5.461776e-10	-3.519193e+00	-4.279220e+01
1.740000e-06	-4.605893e-07	-5.327570e-10	-3.194173e+00	-4.183169e+01
1.750000e-06	-4.136698e-07	-5.194561e-10	-2.868787e+00	-4.084432e+01
1.760000e-06	-3.667382e-07	-5.036192e-10	-2.543319e+00	-3.982841e+01
1.770000e-06	-3.198301e-07	-4.866353e-10	-2.218012e+00	-3.878220e+01
1.780000e-06	-2.730293e-07	-4.697378e-10	-1.893450e+00	-3.770395e+01
1.790000e-06	-2.261986e-07	-4.529197e-10	-1.568681e+00	-3.659192e+01
1.800000e-06	-1.792532e-07	-4.357378e-10	-1.243116e+00	-3.544443e+01
1.810000e-06	-1.322129e-07	-4.175196e-10	-9.168927e-01	-3.425982e+01
1.820000e-06	-8.514806e-08	-3.986145e-10	-5.904993e-01	-3.303657e+01
1.830000e-06	-3.815668e-08	-3.819872e-10	-2.646154e-01	-3.177326e+01
1.840000e-06	8.719180e-09	-3.668413e-10	6.046725e-02	-3.046861e+01
1.850000e-06	5.559774e-08	-3.511799e-10	3.855687e-01	-2.912151e+01
1.860000e-06	1.025350e-07	-3.338600e-10	7.110771e-01	-2.773108e+01
1.870000e-06	1.494551e-07	-3.138342e-10	1.036467e+00	-2.629661e+01
1.880000e-06	1.963637e-07	-2.916433e-10	1.361776e+00	-2.481767e+01
1.890000e-06	2.432772e-07	-2.689296e-10	1.687120e+00	-2.329407e+01
1.900000e-06	2.901144e-07	-2.452139e-10	2.011935e+00	-2.172589e+01
1.910000e-06	3.369052e-07	-2.218595e-10	2.336428e+00	-2.011351e+01
1.920000e-06	3.836519e-07	-1.986205e-10	2.660615e+00	-1.845759e+01
1.930000e-06	4.304054e-07	-1.744409e-10	2.984848e+00	-1.675910e+01
1.940000e-06	4.771829e-07	-1.503710e-10	3.309249e+00	-1.501930e+01
1.950000e-06	5.238787e-07	-1.267940e-10	3.633083e+00	-1.323975e+01
1.960000e-06	5.705460e-07	-1.034495e-10	3.956720e+00	-1.142232e+01
1.970000e-06	6.171799e-07	-8.017800e-11	4.280124e+00	-9.569142e+00
1.980000e-06	6.637610e-07	-5.514993e-11	4.603163e+00	-7.682619e+00
1.990000e-06	7.103483e-07	-2.807142e-11	4.926244e+00	-5.765413e+00
2.000000e-06	7.568616e-07	4.779775e-13	5.248812e+00	-3.820415e+00
2.010000e-06	8.033849e-07	2.912435e-11	5.571450e+00	-1.850725e+00
2.020000e-06	8.497986e-07	5.811482e-11	5.893328e+00	1.403737e-01
2.030000e-06	8.960180e-07	8.720257e-11	6.213858e+00	2.149441e+00
2.040000e-06	9.422517e-07	1.146377e-10	6.534487e+00	4.172913e+00
2.050000e-06	9.883967e-07	1.397511e-10	6.854501e+00	6.207131e+00
2.060000e-06	1.034449e-06	1.633960e-10	7.173871e+00	8.248372e+00
2.070000e-06	1.080454e-06	1.888995e-10	7.492919e+00	1.029288e+01
2.080000e-06	1.126404e-06	2.167399e-10	7.811578e+00	1.233692e+01
2.090000e-06	1.172287e-06	2.460372e-10	8.129774e+00	1.437676e+01
2.100000e-06	1.218048e-06	2.770100e-10	8.447124e+00	1.640877e+01
2.110000e-06	1.263684e-06	3.073640e-10	8.763608e+00	1.842938e+01
2.120000e-06	1.309264e-06	3.367358e-10	9.079707e+00	2.043518e+01
2.130000e-06	1.354752e-06	3.653875e-10	9.395161e+00	2.242289e+01
2.140000e-06	1.400131e-06	3.902860e-10	9.709864e+00	2.438939e+01
2.150000e-06	1.445495e-06	4.116567e-10	1.002447e+01	2.633180e+01
2.160000e-06	1.490789e-06	4.326471e-10	1.033858e+01	2.824741e+01
2.170000e-06	1.535948e-06	4.564897e-10	1.065175e+01	3.013377e+01
2.180000e-06	1.580942e-06	4.832667e-10	1.096379e+01	3.198864e+01
2.190000e-06	1.625758e-06	5.120950e-10	1.127458e+01	3.381006e+01
2.200000e-06	1.670440e-06	5.422222e-10	1.158445e+01	3.559629e+01
2.210000e-06	1.715050e-06	5.717264e-10	1.189382e+01	3.734589e+01
2.220000e-06	1.759534e-06	5.980336e-10	1.220231e+01	3.905763e+01
2.230000e-06	1.803835e-06	6.202304e-10	1.250954e+01	4.073055e+01
2.240000e-06	1.848010e-06	6.382073e-10	1.281589e+01	4.236393e+01
2.250000e-06	1.892062e-06	6.533692e-10	1.312139e+01	4.395728e+01
2.260000e-06	1.936023e-06	6.695568e-10	1.342626e+01	4.551034e+01
2.270000e-06	1.979967e-06	6.890315e-10	1.373101e+01	4.702302e+01
2.280000e-06	2.023847e-06	7.108621e-10	1.403532e+01	4.849546e+01
2.290000e-06	2.067621e-06	7.346667e-10	1.433889e+01	4.992795e+01
2.300000e-06	2.111352e-06	7.571334e-10	1.464216e+01	5.132093e+01
2.310000e-06	2.155067e-06	7.773183e-10	1.494532e+01	5.267498e+01
2.320000e-06	2.198693e-06	7.943936e-10	1.524787e+01	5.399077e+01
2.330000e-06	2.242153e-06	8.088444e-10	1.554926e+01	5.526910e+01
2.340000e-06	2.285441e-06	8.232822e-10	1.584947e+01	5.651080e+01
2.350000e-06	2.328573e-06	8.382248e-10	1.614858e+01	5.771680e+01
2.360000e-06	2.371557e-06	8.540019e-10	1.644668e+01	5.888802e+01
2.370000e-06	2.414291e-06	8.704782e-10	1.674303e+01	6.002543e+01
2.380000e-06	2.456622e-06	8.878783e-10	1.703660e+01	6.112999e+01
2.390000e-06	2.498619e-06	9.030447e-10	1.732785e+01	6.220265e+01
2.400000e-06	2.540331e-06	9.167198e-10	1.761712e+01	6.324435e+01
2.410000e-06	2.581775e-06	9.293262e-10	1.790453e+01	6.425600e+01
2.420000e-06	2.622952e-06	9.407936e-10	1.819010e+01	6.523845e+01
2.430000e-06	2.663784e-06	9.530590e-10	1.847326e+01	6.619252e+01
2.440000e-06	2.704334e-06	9.676774e-10	1.875448e+01	6.711899e+01
2.450000e-06	2.744652e-06	9.832665e-10	1.903408e+01	6.801856e+01
2.460000e-06	2.784783e-06	9.979402e-10	1.931239e+01	6.889191e+01
2.470000e-06	2.824838e-06	1.009412e-09	1.959017e+01	6.973964e+01
2.480000e-06	2.864762e-06	1.018931e-09	1.986704e+01	7.056233e+01
2.490000e-06	2.904497e-06	1.027836e-09	2.014260e+01	7.136049e+01
2.500000e-06	2.944096e-06	1.037536e-09	2.041721e+01	7.213461e+01
2.510000e-06	2.983570e-06	1.050289e-09	2.069097e+01	7.288514e+01
2.520000e-06	3.022840e-06	1.062871e-09	2.096331e+01	7.361248e+01
2.530000e-06	3.061936e-06	1.076780e-09	2.123443e+01	7.431706e+01
2.540000e-06	3.100816e-06	1.092864e-09	2.150407e+01	7.499924e+01
2.550000e-06	3.139373e-06	1.104829e-09	2.177146e+01	7.565941e+01
2.560000e-06	3.177751e-06	1.110717e-09	2.203761e+01	7.629795e+01
2.570000e-06	3.215933e-06	1.114571e-09	2.230240e+01	7.691524e+01
2.580000e-06	3.253883e-06	1.117782e-09	2.256558e+01	7.751168e+01
2.590000e-06	3.291668e-06	1.122760e-09	2.282762e+01	7.808769e+01
2.600000e-06	3.329224e-06	1.133063e-09	2.308807e+01	7.864369e+01
2.610000e-06	3.366532e-06	1.147210e-09	2.334680e+01	7.918015e+01
2.620000e-06	3.403619e-06	1.161918e-09	2.360400e+01	7.969755e+01
2.630000e-06	3.440456e-06	1.172236e-09	2.385946e+01	8.019640e+01
2.640000e-06	3.477040e-06	1.176899e-09	2.411317e+01	8.067723e+01
2.650000e-06	3.513422e-06	1.177971e-09	2.436548e+01	8.114061e+01
2.660000e-06	3.549649e-06	1.178279e-09	2.461671e+01	8.158712e+01
2.670000e-06	3.585634e-06	1.180711e-09	2.486626e+01	8.201736e+01
2.680000e-06	3.621392e-06	1.185855e-09	2.511425e+01	8.243195e+01
2.690000e-06	3.657020e-06	1.193407e-09	2.536132e+01	8.283151e+01
2.700000e-06	3.692519e-06	1.200564e-09	2.560751e+01	8.321669e+01
2.710000e-06	3.727853e-06	1.205725e-09	2.585255e+01	8.358811e+01
2.720000e-06	3.762880e-06	1.208720e-09	2.609546e+01	8.394640e+01
2.730000e-06	3.797531e-06	1.210195e-09	2.633576e+01	8.429217e+01
2.740000e-06	3.831841e-06	1.211298e-09	2.657371e+01	8.462601e+01
2.750000e-06	3.865729e-06	1.213590e-09	2.680871e+01	8.494850e+01
2.760000e-06	3.899163e-06	1.217699e-09	2.704058e+01	8.526016e+01
2.770000e-06	3.932160e-06	1.222467e-09	2.726941e+01	8.556150e+01
2.780000e-06	3.964702e-06	1.228063e-09	2.749509e+01	8.585299e+01
2.790000e-06	3.996889e-06	1.235041e-09	2.771830e+01	8.613503e+01
2.800000e-06	4.028846e-06	1.240935e-09	2.793992e+01	8.640800e+01
2.810000e-06	4.060638e-06	1.244046e-09	2.816040e+01	8.667222e+01
2.820000e-06	4.092277e-06	1.247411e-09	2.837982e+01	8.692797e+01
2.830000e-06	4.123736e-06	1.252228e-09	2.859799e+01	8.717547e+01
2.840000e-06	4.154949e-06	1.256313e-09	2.881444e+01	8.741489e+01
2.850000e-06	4.185876e-06	1.260502e-09	2.902892e+01	8.764637e+01
2.860000e-06	4.216593e-06	1.266536e-09	2.924194e+01	8.786999e+01
2.870000e-06	4.246968e-06	1.271785e-09	2.945260e+01	8.808581e+01
2.880000e-06	4.276963e-06	1.272509e-09	2.966061e+01	8.829383e+01
2.890000e-06	4.306730e-06	1.271727e-09	2.986704e+01	8.849405e+01
2.900000e-06	4.336195e-06	1.272811e-09	3.007138e+01	8.868643e+01
