# Temperatura_=_-1.35
# Concentracion g/m^3_=_1620.0
# C_Vs_to_Am_M_A/Vsm_=_65563218390.804596
# pendiente_HvsI_1/m_=_3716.3
# ordenada_HvsI_A/m_=_1297.0
# frecuencia_Hz_=_135108.0663457779

Tiempo_(s)	Campo_(V.s)	Magnetizacion_(V.s)	Campo_(kA/m)	Magnetizacion_(A/m)
0.000000e+00	-5.528452e-06	-1.437647e-09	-3.836598e+01	-9.251325e+01
1.000000e-08	-5.528755e-06	-1.433049e-09	-3.836808e+01	-9.245465e+01
2.000000e-08	-5.528881e-06	-1.430506e-09	-3.836896e+01	-9.240031e+01
3.000000e-08	-5.528633e-06	-1.429664e-09	-3.836724e+01	-9.235018e+01
4.000000e-08	-5.527850e-06	-1.428732e-09	-3.836181e+01	-9.230410e+01
5.000000e-08	-5.526527e-06	-1.427543e-09	-3.835263e+01	-9.226182e+01
6.000000e-08	-5.524619e-06	-1.420687e-09	-3.833939e+01	-9.222301e+01
7.000000e-08	-5.522090e-06	-1.413380e-09	-3.832183e+01	-9.218723e+01
8.000000e-08	-5.519012e-06	-1.427435e-09	-3.830047e+01	-9.215400e+01
9.000000e-08	-5.515547e-06	-1.444319e-09	-3.827643e+01	-9.212274e+01
1.000000e-07	-5.511713e-06	-1.455332e-09	-3.824982e+01	-9.209283e+01
1.100000e-07	-5.507471e-06	-1.485311e-09	-3.822038e+01	-9.206360e+01
1.200000e-07	-5.502879e-06	-1.469227e-09	-3.818851e+01	-9.203435e+01
1.300000e-07	-5.498062e-06	-1.385627e-09	-3.815509e+01	-9.200436e+01
1.400000e-07	-5.493006e-06	-1.378555e-09	-3.812000e+01	-9.197290e+01
1.500000e-07	-5.487600e-06	-1.427986e-09	-3.808248e+01	-9.193926e+01
1.600000e-07	-5.481800e-06	-1.490157e-09	-3.804224e+01	-9.190271e+01
1.700000e-07	-5.475589e-06	-1.418545e-09	-3.799913e+01	-9.186260e+01
1.800000e-07	-5.469036e-06	-1.377599e-09	-3.795365e+01	-9.181830e+01
1.900000e-07	-5.462074e-06	-1.422531e-09	-3.790534e+01	-9.176921e+01
2.000000e-07	-5.454726e-06	-1.471095e-09	-3.785435e+01	-9.171484e+01
2.100000e-07	-5.447158e-06	-1.422876e-09	-3.780182e+01	-9.165473e+01
2.200000e-07	-5.439326e-06	-1.385295e-09	-3.774748e+01	-9.158853e+01
2.300000e-07	-5.431246e-06	-1.434736e-09	-3.769140e+01	-9.151594e+01
2.400000e-07	-5.422823e-06	-1.484493e-09	-3.763295e+01	-9.143677e+01
2.500000e-07	-5.413810e-06	-1.458940e-09	-3.757040e+01	-9.135091e+01
2.600000e-07	-5.404043e-06	-1.393722e-09	-3.750262e+01	-9.125835e+01
2.700000e-07	-5.393551e-06	-1.403382e-09	-3.742981e+01	-9.115913e+01
2.800000e-07	-5.382595e-06	-1.419283e-09	-3.735378e+01	-9.105342e+01
2.900000e-07	-5.371278e-06	-1.414984e-09	-3.727524e+01	-9.094143e+01
3.000000e-07	-5.359499e-06	-1.378040e-09	-3.719349e+01	-9.082346e+01
3.100000e-07	-5.347303e-06	-1.396463e-09	-3.710886e+01	-9.069986e+01
3.200000e-07	-5.334800e-06	-1.405207e-09	-3.702209e+01	-9.057106e+01
3.300000e-07	-5.321896e-06	-1.397287e-09	-3.693254e+01	-9.043751e+01
3.400000e-07	-5.308528e-06	-1.351864e-09	-3.683977e+01	-9.029970e+01
3.500000e-07	-5.294771e-06	-1.368597e-09	-3.674430e+01	-9.015815e+01
3.600000e-07	-5.280633e-06	-1.389203e-09	-3.664619e+01	-9.001339e+01
3.700000e-07	-5.266000e-06	-1.379105e-09	-3.654464e+01	-8.986594e+01
3.800000e-07	-5.250760e-06	-1.352518e-09	-3.643887e+01	-8.971633e+01
3.900000e-07	-5.235075e-06	-1.392639e-09	-3.633003e+01	-8.956506e+01
4.000000e-07	-5.218967e-06	-1.393646e-09	-3.621824e+01	-8.941261e+01
4.100000e-07	-5.202411e-06	-1.348472e-09	-3.610334e+01	-8.925940e+01
4.200000e-07	-5.185523e-06	-1.361139e-09	-3.598615e+01	-8.910584e+01
4.300000e-07	-5.168324e-06	-1.402631e-09	-3.586680e+01	-8.895225e+01
4.400000e-07	-5.150765e-06	-1.356177e-09	-3.574494e+01	-8.879894e+01
4.500000e-07	-5.132851e-06	-1.332186e-09	-3.562062e+01	-8.864612e+01
4.600000e-07	-5.114560e-06	-1.401512e-09	-3.549368e+01	-8.849395e+01
4.700000e-07	-5.095815e-06	-1.386844e-09	-3.536360e+01	-8.834254e+01
4.800000e-07	-5.076664e-06	-1.319065e-09	-3.523069e+01	-8.819193e+01
4.900000e-07	-5.057240e-06	-1.358202e-09	-3.509590e+01	-8.804210e+01
5.000000e-07	-5.037652e-06	-1.391804e-09	-3.495997e+01	-8.789298e+01
5.100000e-07	-5.017827e-06	-1.312773e-09	-3.482238e+01	-8.774444e+01
5.200000e-07	-4.997693e-06	-1.320541e-09	-3.468266e+01	-8.759631e+01
5.300000e-07	-4.977225e-06	-1.384057e-09	-3.454062e+01	-8.744839e+01
5.400000e-07	-4.956391e-06	-1.338715e-09	-3.439604e+01	-8.730043e+01
5.500000e-07	-4.935218e-06	-1.303078e-09	-3.424910e+01	-8.715218e+01
5.600000e-07	-4.913743e-06	-1.380937e-09	-3.410007e+01	-8.700334e+01
5.700000e-07	-4.891896e-06	-1.367579e-09	-3.394846e+01	-8.685365e+01
5.800000e-07	-4.869630e-06	-1.304410e-09	-3.379394e+01	-8.670280e+01
5.900000e-07	-4.847054e-06	-1.343537e-09	-3.363727e+01	-8.655053e+01
6.000000e-07	-4.824202e-06	-1.369076e-09	-3.347868e+01	-8.639658e+01
6.100000e-07	-4.801043e-06	-1.298145e-09	-3.331796e+01	-8.624071e+01
6.200000e-07	-4.777632e-06	-1.303928e-09	-3.315549e+01	-8.608269e+01
6.300000e-07	-4.753954e-06	-1.340430e-09	-3.299118e+01	-8.592237e+01
6.400000e-07	-4.729991e-06	-1.304711e-09	-3.282488e+01	-8.575959e+01
6.500000e-07	-4.705779e-06	-1.290952e-09	-3.265685e+01	-8.559425e+01
6.600000e-07	-4.681196e-06	-1.330633e-09	-3.248625e+01	-8.542628e+01
6.700000e-07	-4.656172e-06	-1.309963e-09	-3.231259e+01	-8.525567e+01
6.800000e-07	-4.630558e-06	-1.283707e-09	-3.213484e+01	-8.508241e+01
6.900000e-07	-4.604327e-06	-1.302117e-09	-3.195280e+01	-8.490657e+01
7.000000e-07	-4.577636e-06	-1.297270e-09	-3.176758e+01	-8.472822e+01
7.100000e-07	-4.550515e-06	-1.273872e-09	-3.157936e+01	-8.454748e+01
7.200000e-07	-4.523074e-06	-1.293054e-09	-3.138893e+01	-8.436448e+01
7.300000e-07	-4.495412e-06	-1.305963e-09	-3.119696e+01	-8.417938e+01
7.400000e-07	-4.467595e-06	-1.289591e-09	-3.100392e+01	-8.399233e+01
7.500000e-07	-4.439595e-06	-1.291169e-09	-3.080961e+01	-8.380350e+01
7.600000e-07	-4.411306e-06	-1.295792e-09	-3.061329e+01	-8.361307e+01
7.700000e-07	-4.382738e-06	-1.279466e-09	-3.041503e+01	-8.342119e+01
7.800000e-07	-4.353882e-06	-1.268436e-09	-3.021478e+01	-8.322799e+01
7.900000e-07	-4.324689e-06	-1.268240e-09	-3.001219e+01	-8.303362e+01
8.000000e-07	-4.295169e-06	-1.253704e-09	-2.980733e+01	-8.283815e+01
8.100000e-07	-4.265344e-06	-1.248032e-09	-2.960035e+01	-8.264165e+01
8.200000e-07	-4.235229e-06	-1.254480e-09	-2.939136e+01	-8.244416e+01
8.300000e-07	-4.204805e-06	-1.251769e-09	-2.918023e+01	-8.224566e+01
8.400000e-07	-4.174094e-06	-1.241248e-09	-2.896710e+01	-8.204610e+01
8.500000e-07	-4.143127e-06	-1.246707e-09	-2.875220e+01	-8.184540e+01
8.600000e-07	-4.111889e-06	-1.246171e-09	-2.853541e+01	-8.164343e+01
8.700000e-07	-4.080414e-06	-1.236869e-09	-2.831699e+01	-8.144002e+01
8.800000e-07	-4.048808e-06	-1.232459e-09	-2.809765e+01	-8.123496e+01
8.900000e-07	-4.017074e-06	-1.235031e-09	-2.787743e+01	-8.102804e+01
9.000000e-07	-3.985190e-06	-1.224781e-09	-2.765616e+01	-8.081898e+01
9.100000e-07	-3.953021e-06	-1.222443e-09	-2.743291e+01	-8.060751e+01
9.200000e-07	-3.920405e-06	-1.223975e-09	-2.720657e+01	-8.039334e+01
9.300000e-07	-3.887335e-06	-1.213619e-09	-2.697707e+01	-8.017616e+01
9.400000e-07	-3.853851e-06	-1.200948e-09	-2.674470e+01	-7.995568e+01
9.500000e-07	-3.819895e-06	-1.203431e-09	-2.650905e+01	-7.973159e+01
9.600000e-07	-3.785469e-06	-1.198526e-09	-2.627014e+01	-7.950362e+01
9.700000e-07	-3.750671e-06	-1.184300e-09	-2.602866e+01	-7.927151e+01
9.800000e-07	-3.715595e-06	-1.180398e-09	-2.578524e+01	-7.903503e+01
9.900000e-07	-3.680336e-06	-1.182743e-09	-2.554055e+01	-7.879399e+01
1.000000e-06	-3.644851e-06	-1.176886e-09	-2.529429e+01	-7.854822e+01
1.010000e-06	-3.609198e-06	-1.173284e-09	-2.504687e+01	-7.829762e+01
1.020000e-06	-3.573455e-06	-1.173318e-09	-2.479883e+01	-7.804211e+01
1.030000e-06	-3.537537e-06	-1.165766e-09	-2.454957e+01	-7.778167e+01
1.040000e-06	-3.501389e-06	-1.156051e-09	-2.429871e+01	-7.751635e+01
1.050000e-06	-3.464960e-06	-1.154059e-09	-2.404590e+01	-7.724622e+01
1.060000e-06	-3.428172e-06	-1.151193e-09	-2.379060e+01	-7.697140e+01
1.070000e-06	-3.391131e-06	-1.141331e-09	-2.353355e+01	-7.669206e+01
1.080000e-06	-3.353923e-06	-1.135530e-09	-2.327533e+01	-7.640842e+01
1.090000e-06	-3.316506e-06	-1.128639e-09	-2.301567e+01	-7.612070e+01
1.100000e-06	-3.278845e-06	-1.116748e-09	-2.275431e+01	-7.582919e+01
1.110000e-06	-3.240861e-06	-1.108086e-09	-2.249071e+01	-7.553416e+01
1.120000e-06	-3.202707e-06	-1.105165e-09	-2.222593e+01	-7.523592e+01
1.130000e-06	-3.164455e-06	-1.095427e-09	-2.196047e+01	-7.493474e+01
1.140000e-06	-3.125892e-06	-1.086643e-09	-2.169286e+01	-7.463093e+01
1.150000e-06	-3.087061e-06	-1.085245e-09	-2.142338e+01	-7.432475e+01
1.160000e-06	-3.047996e-06	-1.086977e-09	-2.115228e+01	-7.401643e+01
1.170000e-06	-3.008724e-06	-1.083262e-09	-2.087974e+01	-7.370619e+01
1.180000e-06	-2.969386e-06	-1.079904e-09	-2.060675e+01	-7.339418e+01
1.190000e-06	-2.929891e-06	-1.075047e-09	-2.033266e+01	-7.308051e+01
1.200000e-06	-2.890246e-06	-1.067611e-09	-2.005754e+01	-7.276521e+01
1.210000e-06	-2.850486e-06	-1.057825e-09	-1.978162e+01	-7.244827e+01
1.220000e-06	-2.810565e-06	-1.050330e-09	-1.950457e+01	-7.212959e+01
1.230000e-06	-2.770462e-06	-1.042656e-09	-1.922627e+01	-7.180902e+01
1.240000e-06	-2.730125e-06	-1.036543e-09	-1.894634e+01	-7.148629e+01
1.250000e-06	-2.689560e-06	-1.030471e-09	-1.866483e+01	-7.116112e+01
1.260000e-06	-2.648759e-06	-1.022491e-09	-1.838168e+01	-7.083310e+01
1.270000e-06	-2.607694e-06	-1.015014e-09	-1.809670e+01	-7.050177e+01
1.280000e-06	-2.566351e-06	-1.008128e-09	-1.780979e+01	-7.016663e+01
1.290000e-06	-2.524644e-06	-9.999717e-10	-1.752036e+01	-6.982708e+01
1.300000e-06	-2.482573e-06	-9.923392e-10	-1.722839e+01	-6.948251e+01
1.310000e-06	-2.440240e-06	-9.863104e-10	-1.693461e+01	-6.913223e+01
1.320000e-06	-2.397658e-06	-9.804768e-10	-1.663911e+01	-6.877557e+01
1.330000e-06	-2.354855e-06	-9.743937e-10	-1.634207e+01	-6.841178e+01
1.340000e-06	-2.311852e-06	-9.684326e-10	-1.604364e+01	-6.804015e+01
1.350000e-06	-2.268661e-06	-9.639595e-10	-1.574390e+01	-6.765995e+01
1.360000e-06	-2.225329e-06	-9.608669e-10	-1.544319e+01	-6.727047e+01
1.370000e-06	-2.181914e-06	-9.575943e-10	-1.514190e+01	-6.687103e+01
1.380000e-06	-2.138396e-06	-9.519868e-10	-1.483990e+01	-6.646097e+01
1.390000e-06	-2.094738e-06	-9.435238e-10	-1.453692e+01	-6.603971e+01
1.400000e-06	-2.050974e-06	-9.295678e-10	-1.423322e+01	-6.560669e+01
1.410000e-06	-2.007132e-06	-9.157788e-10	-1.392896e+01	-6.516144e+01
1.420000e-06	-1.963188e-06	-9.041507e-10	-1.362400e+01	-6.470355e+01
1.430000e-06	-1.919114e-06	-8.928597e-10	-1.331814e+01	-6.423267e+01
1.440000e-06	-1.874936e-06	-8.845931e-10	-1.301156e+01	-6.374856e+01
1.450000e-06	-1.830733e-06	-8.796734e-10	-1.270480e+01	-6.325103e+01
1.460000e-06	-1.786403e-06	-8.738004e-10	-1.239716e+01	-6.273998e+01
1.470000e-06	-1.741843e-06	-8.657427e-10	-1.208792e+01	-6.221537e+01
1.480000e-06	-1.697109e-06	-8.575543e-10	-1.177748e+01	-6.167724e+01
1.490000e-06	-1.652254e-06	-8.494609e-10	-1.146620e+01	-6.112568e+01
1.500000e-06	-1.607342e-06	-8.384360e-10	-1.115453e+01	-6.056085e+01
1.510000e-06	-1.562362e-06	-8.262562e-10	-1.084238e+01	-5.998292e+01
1.520000e-06	-1.517253e-06	-8.134469e-10	-1.052933e+01	-5.939210e+01
1.530000e-06	-1.472007e-06	-8.031716e-10	-1.021533e+01	-5.878862e+01
1.540000e-06	-1.426650e-06	-7.943480e-10	-9.900572e+00	-5.817271e+01
1.550000e-06	-1.381235e-06	-7.888270e-10	-9.585402e+00	-5.754456e+01
1.560000e-06	-1.335759e-06	-7.808360e-10	-9.269809e+00	-5.690436e+01
1.570000e-06	-1.290198e-06	-7.691994e-10	-8.953634e+00	-5.625221e+01
1.580000e-06	-1.244514e-06	-7.533783e-10	-8.636593e+00	-5.558817e+01
1.590000e-06	-1.198693e-06	-7.381849e-10	-8.318608e+00	-5.491223e+01
1.600000e-06	-1.152791e-06	-7.259290e-10	-8.000059e+00	-5.422425e+01
1.610000e-06	-1.106831e-06	-7.146732e-10	-7.681112e+00	-5.352401e+01
1.620000e-06	-1.060767e-06	-7.059308e-10	-7.361441e+00	-5.281117e+01
1.630000e-06	-1.014578e-06	-6.976983e-10	-7.040900e+00	-5.208523e+01
1.640000e-06	-9.683162e-07	-6.885889e-10	-6.719857e+00	-5.134559e+01
1.650000e-06	-9.220278e-07	-6.777272e-10	-6.398628e+00	-5.059148e+01
1.660000e-06	-8.757507e-07	-6.653998e-10	-6.077477e+00	-4.982201e+01
1.670000e-06	-8.295006e-07	-6.510446e-10	-5.756513e+00	-4.903613e+01
1.680000e-06	-7.831843e-07	-6.366221e-10	-5.435090e+00	-4.823265e+01
1.690000e-06	-7.367243e-07	-6.227039e-10	-5.112670e+00	-4.741024e+01
1.700000e-06	-6.901709e-07	-6.092137e-10	-4.789602e+00	-4.656747e+01
1.710000e-06	-6.436208e-07	-5.924950e-10	-4.466557e+00	-4.570276e+01
1.720000e-06	-5.970847e-07	-5.738636e-10	-4.143609e+00	-4.481445e+01
1.730000e-06	-5.504583e-07	-5.537763e-10	-3.820034e+00	-4.390079e+01
1.740000e-06	-5.038542e-07	-5.351122e-10	-3.496614e+00	-4.295996e+01
1.750000e-06	-4.572862e-07	-5.194592e-10	-3.173445e+00	-4.199011e+01
1.760000e-06	-4.106484e-07	-5.058520e-10	-2.849791e+00	-4.098935e+01
1.770000e-06	-3.638589e-07	-4.918142e-10	-2.525084e+00	-3.995581e+01
1.780000e-06	-3.169863e-07	-4.767650e-10	-2.199801e+00	-3.888764e+01
1.790000e-06	-2.700607e-07	-4.616352e-10	-1.874149e+00	-3.778304e+01
1.800000e-06	-2.230581e-07	-4.478497e-10	-1.547964e+00	-3.664030e+01
1.810000e-06	-1.761519e-07	-4.327033e-10	-1.222447e+00	-3.545781e+01
1.820000e-06	-1.293034e-07	-4.150647e-10	-8.973314e-01	-3.423409e+01
1.830000e-06	-8.242029e-08	-3.951598e-10	-5.719749e-01	-3.296784e+01
1.840000e-06	-3.551527e-08	-3.757376e-10	-2.464665e-01	-3.165791e+01
1.850000e-06	1.140248e-08	-3.574060e-10	7.913020e-02	-3.030337e+01
1.860000e-06	5.832358e-08	-3.399566e-10	4.047501e-01	-2.890352e+01
1.870000e-06	1.051892e-07	-3.217461e-10	7.299847e-01	-2.745788e+01
1.880000e-06	1.520238e-07	-3.022878e-10	1.055005e+00	-2.596624e+01
1.890000e-06	1.988606e-07	-2.813053e-10	1.380039e+00	-2.442867e+01
1.900000e-06	2.457379e-07	-2.578496e-10	1.705355e+00	-2.284549e+01
1.910000e-06	2.926560e-07	-2.332724e-10	2.030955e+00	-2.121733e+01
1.920000e-06	3.395724e-07	-2.096052e-10	2.356542e+00	-1.954507e+01
1.930000e-06	3.864236e-07	-1.867825e-10	2.681677e+00	-1.782992e+01
1.940000e-06	4.331974e-07	-1.648873e-10	3.006275e+00	-1.607335e+01
1.950000e-06	4.799179e-07	-1.449596e-10	3.330502e+00	-1.427708e+01
1.960000e-06	5.264849e-07	-1.235677e-10	3.653665e+00	-1.244315e+01
1.970000e-06	5.730227e-07	-9.917142e-11	3.976625e+00	-1.057379e+01
1.980000e-06	6.195897e-07	-7.239645e-11	4.299788e+00	-8.671505e+00
1.990000e-06	6.660754e-07	-4.414818e-11	4.622386e+00	-6.738997e+00
2.000000e-06	7.125758e-07	-1.487358e-11	4.945087e+00	-4.779166e+00
2.010000e-06	7.591034e-07	1.470246e-11	5.267975e+00	-2.795081e+00
2.020000e-06	8.055214e-07	4.426320e-11	5.590104e+00	-7.899558e-01
2.030000e-06	8.517856e-07	7.360011e-11	5.911166e+00	1.232877e+00
2.040000e-06	8.979593e-07	1.028695e-10	6.231599e+00	3.269992e+00
2.050000e-06	9.440794e-07	1.298096e-10	6.551660e+00	5.317904e+00
2.060000e-06	9.900687e-07	1.559487e-10	6.870813e+00	7.373088e+00
2.070000e-06	1.036007e-06	1.821409e-10	7.189614e+00	9.432018e+00
2.080000e-06	1.081991e-06	2.092132e-10	7.508728e+00	1.149118e+01
2.090000e-06	1.127942e-06	2.379088e-10	7.827615e+00	1.354712e+01
2.100000e-06	1.173792e-06	2.689336e-10	8.145807e+00	1.559645e+01
2.110000e-06	1.219492e-06	3.001364e-10	8.462950e+00	1.763588e+01
2.120000e-06	1.265122e-06	3.280445e-10	8.779608e+00	1.966224e+01
2.130000e-06	1.310647e-06	3.537517e-10	9.095539e+00	2.167251e+01
2.140000e-06	1.356041e-06	3.800246e-10	9.410562e+00	2.366380e+01
2.150000e-06	1.401423e-06	4.060751e-10	9.725504e+00	2.563343e+01
2.160000e-06	1.446701e-06	4.306938e-10	1.003972e+01	2.757890e+01
2.170000e-06	1.491889e-06	4.545175e-10	1.035331e+01	2.949790e+01
2.180000e-06	1.537073e-06	4.803500e-10	1.066688e+01	3.138833e+01
2.190000e-06	1.582161e-06	5.085535e-10	1.097977e+01	3.324830e+01
2.200000e-06	1.627102e-06	5.374949e-10	1.129165e+01	3.507616e+01
2.210000e-06	1.671918e-06	5.668078e-10	1.160266e+01	3.687044e+01
2.220000e-06	1.716547e-06	5.931242e-10	1.191238e+01	3.862993e+01
2.230000e-06	1.761025e-06	6.159211e-10	1.222104e+01	4.035360e+01
2.240000e-06	1.805365e-06	6.366063e-10	1.252875e+01	4.204064e+01
2.250000e-06	1.849532e-06	6.538666e-10	1.283526e+01	4.369042e+01
2.260000e-06	1.893497e-06	6.695819e-10	1.314036e+01	4.530252e+01
2.270000e-06	1.937328e-06	6.890623e-10	1.344454e+01	4.687668e+01
2.280000e-06	1.981141e-06	7.111607e-10	1.374859e+01	4.841283e+01
2.290000e-06	2.024909e-06	7.340542e-10	1.405233e+01	4.991101e+01
2.300000e-06	2.068624e-06	7.574576e-10	1.435570e+01	5.137142e+01
2.310000e-06	2.112289e-06	7.800221e-10	1.465872e+01	5.279439e+01
2.320000e-06	2.155882e-06	7.995799e-10	1.496125e+01	5.418032e+01
2.330000e-06	2.199410e-06	8.153537e-10	1.526332e+01	5.552974e+01
2.340000e-06	2.242857e-06	8.294352e-10	1.556483e+01	5.684323e+01
2.350000e-06	2.286132e-06	8.441942e-10	1.586515e+01	5.812144e+01
2.360000e-06	2.329232e-06	8.614582e-10	1.616425e+01	5.936506e+01
2.370000e-06	2.372159e-06	8.804958e-10	1.646215e+01	6.057481e+01
2.380000e-06	2.414905e-06	8.985398e-10	1.675880e+01	6.175145e+01
2.390000e-06	2.457396e-06	9.152121e-10	1.705367e+01	6.289572e+01
2.400000e-06	2.499505e-06	9.288997e-10	1.734590e+01	6.400837e+01
2.410000e-06	2.541232e-06	9.411188e-10	1.763547e+01	6.509015e+01
2.420000e-06	2.582608e-06	9.544761e-10	1.792261e+01	6.614179e+01
2.430000e-06	2.623683e-06	9.681436e-10	1.820766e+01	6.716398e+01
2.440000e-06	2.664518e-06	9.828100e-10	1.849105e+01	6.815740e+01
2.450000e-06	2.705139e-06	9.986013e-10	1.877294e+01	6.912268e+01
2.460000e-06	2.745529e-06	1.015681e-09	1.905324e+01	7.006043e+01
2.470000e-06	2.785693e-06	1.032158e-09	1.933197e+01	7.097121e+01
2.480000e-06	2.825668e-06	1.045029e-09	1.960938e+01	7.185557e+01
2.490000e-06	2.865514e-06	1.054896e-09	1.988591e+01	7.271400e+01
2.500000e-06	2.905231e-06	1.062789e-09	2.016153e+01	7.354697e+01
2.510000e-06	2.944780e-06	1.072202e-09	2.043599e+01	7.435491e+01
2.520000e-06	2.984231e-06	1.085379e-09	2.070977e+01	7.513824e+01
2.530000e-06	3.023566e-06	1.098712e-09	2.098274e+01	7.589734e+01
2.540000e-06	3.062691e-06	1.112662e-09	2.125426e+01	7.663261e+01
2.550000e-06	3.101546e-06	1.124208e-09	2.152391e+01	7.734438e+01
2.560000e-06	3.140169e-06	1.131406e-09	2.179194e+01	7.803303e+01
2.570000e-06	3.178512e-06	1.136428e-09	2.205803e+01	7.869891e+01
2.580000e-06	3.216542e-06	1.140380e-09	2.232194e+01	7.934238e+01
2.590000e-06	3.254388e-06	1.145214e-09	2.258459e+01	7.996379e+01
2.600000e-06	3.292106e-06	1.152491e-09	2.284634e+01	8.056354e+01
2.610000e-06	3.329730e-06	1.163535e-09	2.310744e+01	8.114201e+01
2.620000e-06	3.367153e-06	1.177124e-09	2.336714e+01	8.169961e+01
2.630000e-06	3.404192e-06	1.189856e-09	2.362419e+01	8.223678e+01
2.640000e-06	3.440930e-06	1.197950e-09	2.387914e+01	8.275397e+01
2.650000e-06	3.477493e-06	1.203952e-09	2.413288e+01	8.325166e+01
2.660000e-06	3.513771e-06	1.207808e-09	2.438464e+01	8.373035e+01
2.670000e-06	3.549774e-06	1.209275e-09	2.463448e+01	8.419057e+01
2.680000e-06	3.585645e-06	1.212460e-09	2.488342e+01	8.463287e+01
2.690000e-06	3.621377e-06	1.218132e-09	2.513139e+01	8.505780e+01
2.700000e-06	3.656972e-06	1.225079e-09	2.537842e+01	8.546596e+01
2.710000e-06	3.692422e-06	1.231893e-09	2.562443e+01	8.585795e+01
2.720000e-06	3.727701e-06	1.237767e-09	2.586925e+01	8.623437e+01
2.730000e-06	3.762805e-06	1.241382e-09	2.611286e+01	8.659583e+01
2.740000e-06	3.797606e-06	1.241456e-09	2.635437e+01	8.694296e+01
2.750000e-06	3.831861e-06	1.241922e-09	2.659209e+01	8.727636e+01
2.760000e-06	3.865646e-06	1.245314e-09	2.682656e+01	8.759664e+01
2.770000e-06	3.899043e-06	1.250546e-09	2.705832e+01	8.790440e+01
2.780000e-06	3.931938e-06	1.257614e-09	2.728660e+01	8.820020e+01
2.790000e-06	3.964376e-06	1.265949e-09	2.751171e+01	8.848460e+01
2.800000e-06	3.996456e-06	1.274592e-09	2.773434e+01	8.875812e+01
2.810000e-06	4.028359e-06	1.280328e-09	2.795574e+01	8.902127e+01
2.820000e-06	4.060135e-06	1.281935e-09	2.817625e+01	8.927450e+01
2.830000e-06	4.091721e-06	1.282421e-09	2.839545e+01	8.951823e+01
2.840000e-06	4.123168e-06	1.284567e-09	2.861369e+01	8.975287e+01
2.850000e-06	4.154400e-06	1.286818e-09	2.883043e+01	8.997876e+01
2.860000e-06	4.185280e-06	1.288595e-09	2.904473e+01	9.019621e+01
2.870000e-06	4.215817e-06	1.293237e-09	2.925665e+01	9.040549e+01
2.880000e-06	4.246066e-06	1.299468e-09	2.946657e+01	9.060684e+01
2.890000e-06	4.276016e-06	1.304201e-09	2.967441e+01	9.080047e+01
2.900000e-06	4.305625e-06	1.308193e-09	2.987989e+01	9.098652e+01
