# Temperatura_=_13.6
# Concentracion g/m^3_=_1620.0
# C_Vs_to_Am_M_A/Vsm_=_65563218390.804596
# pendiente_HvsI_1/m_=_3716.3
# ordenada_HvsI_A/m_=_1297.0
# frecuencia_Hz_=_135105.84229907763

Tiempo_(s)	Campo_(V.s)	Magnetizacion_(V.s)	Campo_(kA/m)	Magnetizacion_(A/m)
0.000000e+00	-5.526760e-06	-1.847747e-09	-3.836834e+01	-1.195315e+02
1.000000e-08	-5.527085e-06	-1.846676e-09	-3.837060e+01	-1.194984e+02
2.000000e-08	-5.527139e-06	-1.849165e-09	-3.837097e+01	-1.194638e+02
3.000000e-08	-5.526827e-06	-1.850076e-09	-3.836881e+01	-1.194278e+02
4.000000e-08	-5.526148e-06	-1.847890e-09	-3.836409e+01	-1.193906e+02
5.000000e-08	-5.524984e-06	-1.845321e-09	-3.835602e+01	-1.193524e+02
6.000000e-08	-5.523228e-06	-1.850996e-09	-3.834382e+01	-1.193132e+02
7.000000e-08	-5.520836e-06	-1.861111e-09	-3.832722e+01	-1.192730e+02
8.000000e-08	-5.517920e-06	-1.855353e-09	-3.830697e+01	-1.192321e+02
9.000000e-08	-5.514567e-06	-1.811884e-09	-3.828370e+01	-1.191903e+02
1.000000e-07	-5.510775e-06	-1.788369e-09	-3.825737e+01	-1.191477e+02
1.100000e-07	-5.506611e-06	-1.845135e-09	-3.822846e+01	-1.191043e+02
1.200000e-07	-5.502095e-06	-1.932613e-09	-3.819711e+01	-1.190599e+02
1.300000e-07	-5.497258e-06	-1.846133e-09	-3.816353e+01	-1.190144e+02
1.400000e-07	-5.492099e-06	-1.752689e-09	-3.812772e+01	-1.189676e+02
1.500000e-07	-5.486681e-06	-1.797849e-09	-3.809010e+01	-1.189193e+02
1.600000e-07	-5.480976e-06	-1.907926e-09	-3.805049e+01	-1.188693e+02
1.700000e-07	-5.474872e-06	-1.870602e-09	-3.800812e+01	-1.188173e+02
1.800000e-07	-5.468324e-06	-1.712851e-09	-3.796266e+01	-1.187629e+02
1.900000e-07	-5.461387e-06	-1.755704e-09	-3.791450e+01	-1.187058e+02
2.000000e-07	-5.454063e-06	-1.868318e-09	-3.786366e+01	-1.186455e+02
2.100000e-07	-5.446370e-06	-1.886285e-09	-3.781025e+01	-1.185818e+02
2.200000e-07	-5.438439e-06	-1.776165e-09	-3.775519e+01	-1.185141e+02
2.300000e-07	-5.430271e-06	-1.780777e-09	-3.769849e+01	-1.184421e+02
2.400000e-07	-5.421697e-06	-1.834685e-09	-3.763896e+01	-1.183651e+02
2.500000e-07	-5.412567e-06	-1.839724e-09	-3.757558e+01	-1.182829e+02
2.600000e-07	-5.402834e-06	-1.769838e-09	-3.750802e+01	-1.181950e+02
2.700000e-07	-5.392507e-06	-1.775018e-09	-3.743632e+01	-1.181008e+02
2.800000e-07	-5.381580e-06	-1.813208e-09	-3.736046e+01	-1.180001e+02
2.900000e-07	-5.370183e-06	-1.815346e-09	-3.728134e+01	-1.178924e+02
3.000000e-07	-5.358443e-06	-1.777458e-09	-3.719983e+01	-1.177773e+02
3.100000e-07	-5.346360e-06	-1.770837e-09	-3.711595e+01	-1.176545e+02
3.200000e-07	-5.333883e-06	-1.797441e-09	-3.702934e+01	-1.175238e+02
3.300000e-07	-5.320939e-06	-1.781281e-09	-3.693948e+01	-1.173850e+02
3.400000e-07	-5.307552e-06	-1.745892e-09	-3.684654e+01	-1.172377e+02
3.500000e-07	-5.293720e-06	-1.735583e-09	-3.675051e+01	-1.170819e+02
3.600000e-07	-5.279488e-06	-1.784973e-09	-3.665171e+01	-1.169175e+02
3.700000e-07	-5.264864e-06	-1.784228e-09	-3.655019e+01	-1.167445e+02
3.800000e-07	-5.249703e-06	-1.757120e-09	-3.644493e+01	-1.165629e+02
3.900000e-07	-5.233885e-06	-1.763598e-09	-3.633512e+01	-1.163728e+02
4.000000e-07	-5.217669e-06	-1.787551e-09	-3.622254e+01	-1.161743e+02
4.100000e-07	-5.201141e-06	-1.728965e-09	-3.610780e+01	-1.159676e+02
4.200000e-07	-5.184196e-06	-1.724131e-09	-3.599017e+01	-1.157530e+02
4.300000e-07	-5.166942e-06	-1.784756e-09	-3.587038e+01	-1.155307e+02
4.400000e-07	-5.149375e-06	-1.771500e-09	-3.574843e+01	-1.153011e+02
4.500000e-07	-5.131467e-06	-1.690058e-09	-3.562411e+01	-1.150645e+02
4.600000e-07	-5.113165e-06	-1.750100e-09	-3.549705e+01	-1.148214e+02
4.700000e-07	-5.094450e-06	-1.801026e-09	-3.536712e+01	-1.145721e+02
4.800000e-07	-5.075388e-06	-1.720921e-09	-3.523479e+01	-1.143172e+02
4.900000e-07	-5.056034e-06	-1.692305e-09	-3.510043e+01	-1.140569e+02
5.000000e-07	-5.036431e-06	-1.768475e-09	-3.496434e+01	-1.137919e+02
5.100000e-07	-5.016560e-06	-1.721278e-09	-3.482639e+01	-1.135225e+02
5.200000e-07	-4.996415e-06	-1.663705e-09	-3.468654e+01	-1.132493e+02
5.300000e-07	-4.976027e-06	-1.730765e-09	-3.454500e+01	-1.129726e+02
5.400000e-07	-4.955292e-06	-1.735281e-09	-3.440105e+01	-1.126930e+02
5.500000e-07	-4.934073e-06	-1.653178e-09	-3.425374e+01	-1.124108e+02
5.600000e-07	-4.912504e-06	-1.704070e-09	-3.410400e+01	-1.121264e+02
5.700000e-07	-4.890689e-06	-1.758737e-09	-3.395256e+01	-1.118401e+02
5.800000e-07	-4.868567e-06	-1.675668e-09	-3.379898e+01	-1.115523e+02
5.900000e-07	-4.846118e-06	-1.654598e-09	-3.364313e+01	-1.112633e+02
6.000000e-07	-4.823285e-06	-1.713648e-09	-3.348462e+01	-1.109733e+02
6.100000e-07	-4.800127e-06	-1.667905e-09	-3.332385e+01	-1.106826e+02
6.200000e-07	-4.776733e-06	-1.619078e-09	-3.316144e+01	-1.103913e+02
6.300000e-07	-4.753038e-06	-1.677088e-09	-3.299694e+01	-1.100994e+02
6.400000e-07	-4.729063e-06	-1.678900e-09	-3.283051e+01	-1.098072e+02
6.500000e-07	-4.704751e-06	-1.633872e-09	-3.266172e+01	-1.095147e+02
6.600000e-07	-4.680085e-06	-1.656712e-09	-3.249049e+01	-1.092218e+02
6.700000e-07	-4.655067e-06	-1.670428e-09	-3.231680e+01	-1.089285e+02
6.800000e-07	-4.629463e-06	-1.619374e-09	-3.213905e+01	-1.086347e+02
6.900000e-07	-4.603269e-06	-1.621446e-09	-3.195721e+01	-1.083404e+02
7.000000e-07	-4.576594e-06	-1.638605e-09	-3.177202e+01	-1.080453e+02
7.100000e-07	-4.549482e-06	-1.614089e-09	-3.158380e+01	-1.077494e+02
7.200000e-07	-4.522060e-06	-1.605038e-09	-3.139343e+01	-1.074523e+02
7.300000e-07	-4.494424e-06	-1.629226e-09	-3.120157e+01	-1.071539e+02
7.400000e-07	-4.466589e-06	-1.610663e-09	-3.100833e+01	-1.068538e+02
7.500000e-07	-4.438546e-06	-1.590900e-09	-3.081365e+01	-1.065519e+02
7.600000e-07	-4.410263e-06	-1.595678e-09	-3.061730e+01	-1.062478e+02
7.700000e-07	-4.381705e-06	-1.592735e-09	-3.041904e+01	-1.059411e+02
7.800000e-07	-4.352849e-06	-1.577475e-09	-3.021872e+01	-1.056317e+02
7.900000e-07	-4.323685e-06	-1.582822e-09	-3.001625e+01	-1.053191e+02
8.000000e-07	-4.294181e-06	-1.577852e-09	-2.981143e+01	-1.050030e+02
8.100000e-07	-4.264402e-06	-1.564837e-09	-2.960469e+01	-1.046830e+02
8.200000e-07	-4.234372e-06	-1.561752e-09	-2.939622e+01	-1.043589e+02
8.300000e-07	-4.204064e-06	-1.557458e-09	-2.918581e+01	-1.040302e+02
8.400000e-07	-4.173494e-06	-1.538839e-09	-2.897359e+01	-1.036966e+02
8.500000e-07	-4.142535e-06	-1.536086e-09	-2.875866e+01	-1.033578e+02
8.600000e-07	-4.111262e-06	-1.544901e-09	-2.854155e+01	-1.030135e+02
8.700000e-07	-4.079796e-06	-1.536653e-09	-2.832311e+01	-1.026633e+02
8.800000e-07	-4.048148e-06	-1.523774e-09	-2.810340e+01	-1.023071e+02
8.900000e-07	-4.016355e-06	-1.521946e-09	-2.788268e+01	-1.019444e+02
9.000000e-07	-3.984382e-06	-1.511710e-09	-2.766072e+01	-1.015752e+02
9.100000e-07	-3.952180e-06	-1.494959e-09	-2.743716e+01	-1.011990e+02
9.200000e-07	-3.919652e-06	-1.494205e-09	-2.721134e+01	-1.008159e+02
9.300000e-07	-3.886624e-06	-1.490758e-09	-2.698205e+01	-1.004255e+02
9.400000e-07	-3.853132e-06	-1.477830e-09	-2.674954e+01	-1.000278e+02
9.500000e-07	-3.819269e-06	-1.473345e-09	-2.651445e+01	-9.962260e+01
9.600000e-07	-3.784854e-06	-1.476205e-09	-2.627554e+01	-9.920996e+01
9.700000e-07	-3.749934e-06	-1.460647e-09	-2.603311e+01	-9.878981e+01
9.800000e-07	-3.714761e-06	-1.446375e-09	-2.578893e+01	-9.836217e+01
9.900000e-07	-3.679428e-06	-1.440396e-09	-2.554364e+01	-9.792710e+01
1.000000e-06	-3.643906e-06	-1.433075e-09	-2.529703e+01	-9.748469e+01
1.010000e-06	-3.608189e-06	-1.421810e-09	-2.504908e+01	-9.703509e+01
1.020000e-06	-3.572364e-06	-1.420963e-09	-2.480037e+01	-9.657846e+01
1.030000e-06	-3.536388e-06	-1.416790e-09	-2.455062e+01	-9.611502e+01
1.040000e-06	-3.500171e-06	-1.404827e-09	-2.429919e+01	-9.564501e+01
1.050000e-06	-3.463764e-06	-1.394766e-09	-2.404644e+01	-9.516871e+01
1.060000e-06	-3.427172e-06	-1.390109e-09	-2.379240e+01	-9.468640e+01
1.070000e-06	-3.390207e-06	-1.378083e-09	-2.353578e+01	-9.419842e+01
1.080000e-06	-3.352873e-06	-1.368280e-09	-2.327660e+01	-9.370510e+01
1.090000e-06	-3.315388e-06	-1.363163e-09	-2.301637e+01	-9.320678e+01
1.100000e-06	-3.277751e-06	-1.355708e-09	-2.275508e+01	-9.270383e+01
1.110000e-06	-3.239887e-06	-1.342904e-09	-2.249222e+01	-9.219657e+01
1.120000e-06	-3.201817e-06	-1.332342e-09	-2.222792e+01	-9.168536e+01
1.130000e-06	-3.163504e-06	-1.319545e-09	-2.196195e+01	-9.117052e+01
1.140000e-06	-3.124936e-06	-1.305387e-09	-2.169419e+01	-9.065233e+01
1.150000e-06	-3.086180e-06	-1.298080e-09	-2.142514e+01	-9.013106e+01
1.160000e-06	-3.047200e-06	-1.297722e-09	-2.115453e+01	-8.960694e+01
1.170000e-06	-3.007964e-06	-1.295660e-09	-2.088215e+01	-8.908014e+01
1.180000e-06	-2.968585e-06	-1.288482e-09	-2.060876e+01	-8.855079e+01
1.190000e-06	-2.929135e-06	-1.279555e-09	-2.033489e+01	-8.801894e+01
1.200000e-06	-2.889582e-06	-1.267535e-09	-2.006030e+01	-8.748459e+01
1.210000e-06	-2.849834e-06	-1.253415e-09	-1.978436e+01	-8.694768e+01
1.220000e-06	-2.809894e-06	-1.240605e-09	-1.950709e+01	-8.640807e+01
1.230000e-06	-2.769808e-06	-1.231516e-09	-1.922879e+01	-8.586553e+01
1.240000e-06	-2.729503e-06	-1.221791e-09	-1.894899e+01	-8.531979e+01
1.250000e-06	-2.688963e-06	-1.214413e-09	-1.866755e+01	-8.477047e+01
1.260000e-06	-2.648135e-06	-1.208879e-09	-1.838411e+01	-8.421713e+01
1.270000e-06	-2.606971e-06	-1.202505e-09	-1.809833e+01	-8.365928e+01
1.280000e-06	-2.565491e-06	-1.191975e-09	-1.781037e+01	-8.309634e+01
1.290000e-06	-2.523717e-06	-1.180479e-09	-1.752036e+01	-8.252768e+01
1.300000e-06	-2.481722e-06	-1.168270e-09	-1.722882e+01	-8.195262e+01
1.310000e-06	-2.439550e-06	-1.154307e-09	-1.693605e+01	-8.137043e+01
1.320000e-06	-2.397056e-06	-1.139889e-09	-1.664104e+01	-8.078036e+01
1.330000e-06	-2.354160e-06	-1.129991e-09	-1.634325e+01	-8.018163e+01
1.340000e-06	-2.310985e-06	-1.121514e-09	-1.604351e+01	-7.957343e+01
1.350000e-06	-2.267674e-06	-1.115201e-09	-1.574284e+01	-7.895497e+01
1.360000e-06	-2.224301e-06	-1.109500e-09	-1.544173e+01	-7.832546e+01
1.370000e-06	-2.180794e-06	-1.102527e-09	-1.513969e+01	-7.768413e+01
1.380000e-06	-2.137164e-06	-1.091624e-09	-1.483680e+01	-7.703024e+01
1.390000e-06	-2.093487e-06	-1.079817e-09	-1.453358e+01	-7.636309e+01
1.400000e-06	-2.049764e-06	-1.065790e-09	-1.423004e+01	-7.568205e+01
1.410000e-06	-2.005919e-06	-1.049570e-09	-1.392566e+01	-7.498653e+01
1.420000e-06	-1.961960e-06	-1.033663e-09	-1.362048e+01	-7.427602e+01
1.430000e-06	-1.917955e-06	-1.021250e-09	-1.331499e+01	-7.355008e+01
1.440000e-06	-1.873858e-06	-1.010555e-09	-1.300885e+01	-7.280835e+01
1.450000e-06	-1.829665e-06	-1.000657e-09	-1.270206e+01	-7.205055e+01
1.460000e-06	-1.785368e-06	-9.913429e-10	-1.239453e+01	-7.127649e+01
1.470000e-06	-1.740978e-06	-9.805172e-10	-1.208637e+01	-7.048607e+01
1.480000e-06	-1.696451e-06	-9.680586e-10	-1.177725e+01	-6.967924e+01
1.490000e-06	-1.651744e-06	-9.558398e-10	-1.146688e+01	-6.885605e+01
1.500000e-06	-1.606902e-06	-9.437002e-10	-1.115557e+01	-6.801660e+01
1.510000e-06	-1.561851e-06	-9.284954e-10	-1.084282e+01	-6.716106e+01
1.520000e-06	-1.516671e-06	-9.120525e-10	-1.052916e+01	-6.628964e+01
1.530000e-06	-1.471427e-06	-8.962416e-10	-1.021506e+01	-6.540258e+01
1.540000e-06	-1.426033e-06	-8.809089e-10	-9.899929e+00	-6.450015e+01
1.550000e-06	-1.380546e-06	-8.661038e-10	-9.584143e+00	-6.358260e+01
1.560000e-06	-1.335038e-06	-8.514077e-10	-9.268215e+00	-6.265021e+01
1.570000e-06	-1.289408e-06	-8.353693e-10	-8.951441e+00	-6.170319e+01
1.580000e-06	-1.243681e-06	-8.191771e-10	-8.633990e+00	-6.074171e+01
1.590000e-06	-1.197981e-06	-8.033152e-10	-8.316723e+00	-5.976591e+01
1.600000e-06	-1.152229e-06	-7.859892e-10	-7.999105e+00	-5.877582e+01
1.610000e-06	-1.106375e-06	-7.653158e-10	-7.680767e+00	-5.777138e+01
1.620000e-06	-1.060360e-06	-7.451261e-10	-7.361320e+00	-5.675243e+01
1.630000e-06	-1.014258e-06	-7.268010e-10	-7.041267e+00	-5.571868e+01
1.640000e-06	-9.681797e-07	-7.100685e-10	-6.721379e+00	-5.466973e+01
1.650000e-06	-9.219655e-07	-6.957116e-10	-6.400547e+00	-5.360501e+01
1.660000e-06	-8.756473e-07	-6.842436e-10	-6.078993e+00	-5.252382e+01
1.670000e-06	-8.293208e-07	-6.715080e-10	-5.757382e+00	-5.142531e+01
1.680000e-06	-7.829609e-07	-6.559014e-10	-5.435537e+00	-5.030848e+01
1.690000e-06	-7.364789e-07	-6.377100e-10	-5.112846e+00	-4.917219e+01
1.700000e-06	-6.899390e-07	-6.178530e-10	-4.789753e+00	-4.801516e+01
1.710000e-06	-6.434119e-07	-5.943166e-10	-4.466749e+00	-4.683596e+01
1.720000e-06	-5.968756e-07	-5.693110e-10	-4.143680e+00	-4.563307e+01
1.730000e-06	-5.502884e-07	-5.474659e-10	-3.820259e+00	-4.440484e+01
1.740000e-06	-5.035783e-07	-5.314561e-10	-3.495984e+00	-4.314955e+01
1.750000e-06	-4.567900e-07	-5.174858e-10	-3.171167e+00	-4.186542e+01
1.760000e-06	-4.099372e-07	-5.004725e-10	-2.845901e+00	-4.055062e+01
1.770000e-06	-3.631125e-07	-4.798199e-10	-2.520831e+00	-3.920332e+01
1.780000e-06	-3.162761e-07	-4.564702e-10	-2.195679e+00	-3.782168e+01
1.790000e-06	-2.693612e-07	-4.329715e-10	-1.869983e+00	-3.640391e+01
1.800000e-06	-2.224180e-07	-4.103882e-10	-1.544089e+00	-3.494830e+01
1.810000e-06	-1.754252e-07	-3.896126e-10	-1.217852e+00	-3.345322e+01
1.820000e-06	-1.284204e-07	-3.715994e-10	-8.915308e-01	-3.191719e+01
1.830000e-06	-8.145530e-08	-3.527913e-10	-5.654859e-01	-3.033888e+01
1.840000e-06	-3.454284e-08	-3.305588e-10	-2.398062e-01	-2.871715e+01
1.850000e-06	1.230401e-08	-3.067221e-10	8.541793e-02	-2.705105e+01
1.860000e-06	5.905762e-08	-2.829639e-10	4.099948e-01	-2.533989e+01
1.870000e-06	1.058065e-07	-2.600675e-10	7.345389e-01	-2.358323e+01
1.880000e-06	1.526624e-07	-2.367862e-10	1.059826e+00	-2.178092e+01
1.890000e-06	1.995400e-07	-2.133161e-10	1.385263e+00	-1.993308e+01
1.900000e-06	2.463556e-07	-1.888931e-10	1.710271e+00	-1.804016e+01
1.910000e-06	2.931595e-07	-1.631251e-10	2.035197e+00	-1.610291e+01
1.920000e-06	3.399798e-07	-1.346387e-10	2.360237e+00	-1.412240e+01
1.930000e-06	3.868342e-07	-1.033856e-10	2.685514e+00	-1.210002e+01
1.940000e-06	4.336700e-07	-7.293786e-11	3.010660e+00	-1.003748e+01
1.950000e-06	4.804132e-07	-4.505665e-11	3.335165e+00	-7.936791e+00
1.960000e-06	5.271143e-07	-1.675187e-11	3.659378e+00	-5.800278e+00
1.970000e-06	5.737345e-07	1.191428e-11	3.983028e+00	-3.630530e+00
1.980000e-06	6.202728e-07	4.018084e-11	4.306111e+00	-1.430408e+00
1.990000e-06	6.668129e-07	6.927512e-11	4.629205e+00	7.969922e-01
2.000000e-06	7.133130e-07	1.002822e-10	4.952022e+00	3.048355e+00
2.010000e-06	7.597090e-07	1.327062e-10	5.274117e+00	5.320182e+00
2.020000e-06	8.060127e-07	1.667021e-10	5.595570e+00	7.608815e+00
2.030000e-06	8.522301e-07	2.015390e-10	5.916424e+00	9.910473e+00
2.040000e-06	8.983603e-07	2.353130e-10	6.236673e+00	1.222129e+01
2.050000e-06	9.444762e-07	2.666389e-10	6.556823e+00	1.453732e+01
2.060000e-06	9.906331e-07	2.945487e-10	6.877258e+00	1.685464e+01
2.070000e-06	1.036704e-06	3.225610e-10	7.197096e+00	1.916929e+01
2.080000e-06	1.082655e-06	3.526662e-10	7.516100e+00	2.147739e+01
2.090000e-06	1.128514e-06	3.838528e-10	7.834469e+00	2.377512e+01
2.100000e-06	1.174320e-06	4.167505e-10	8.152467e+00	2.605879e+01
2.110000e-06	1.220054e-06	4.500461e-10	8.469961e+00	2.832483e+01
2.120000e-06	1.265615e-06	4.821636e-10	8.786263e+00	3.056984e+01
2.130000e-06	1.311079e-06	5.134245e-10	9.101881e+00	3.279063e+01
2.140000e-06	1.356455e-06	5.429115e-10	9.416899e+00	3.498419e+01
2.150000e-06	1.401767e-06	5.711025e-10	9.731465e+00	3.714776e+01
2.160000e-06	1.447106e-06	5.987012e-10	1.004622e+01	3.927882e+01
2.170000e-06	1.492335e-06	6.248970e-10	1.036022e+01	4.137511e+01
2.180000e-06	1.537390e-06	6.497809e-10	1.067300e+01	4.343462e+01
2.190000e-06	1.582306e-06	6.749470e-10	1.098482e+01	4.545561e+01
2.200000e-06	1.627074e-06	7.027072e-10	1.129561e+01	4.743663e+01
2.210000e-06	1.671729e-06	7.336483e-10	1.160562e+01	4.937647e+01
2.220000e-06	1.716208e-06	7.635054e-10	1.191441e+01	5.127419e+01
2.230000e-06	1.760507e-06	7.898387e-10	1.222194e+01	5.312910e+01
2.240000e-06	1.804701e-06	8.128585e-10	1.252875e+01	5.494076e+01
2.250000e-06	1.848847e-06	8.322930e-10	1.283522e+01	5.670895e+01
2.260000e-06	1.892943e-06	8.497929e-10	1.314135e+01	5.843366e+01
2.270000e-06	1.936924e-06	8.680638e-10	1.344668e+01	6.011508e+01
2.280000e-06	1.980805e-06	8.879943e-10	1.375131e+01	6.175359e+01
2.290000e-06	2.024622e-06	9.096402e-10	1.405550e+01	6.334972e+01
2.300000e-06	2.068376e-06	9.334329e-10	1.435925e+01	6.490412e+01
2.310000e-06	2.112056e-06	9.591936e-10	1.466249e+01	6.641760e+01
2.320000e-06	2.155691e-06	9.822839e-10	1.496542e+01	6.789103e+01
2.330000e-06	2.199267e-06	9.998823e-10	1.526794e+01	6.932539e+01
2.340000e-06	2.242713e-06	1.014733e-09	1.556955e+01	7.072171e+01
2.350000e-06	2.285971e-06	1.030362e-09	1.586986e+01	7.208106e+01
2.360000e-06	2.329036e-06	1.047830e-09	1.616883e+01	7.340454e+01
2.370000e-06	2.371906e-06	1.065937e-09	1.646645e+01	7.469327e+01
2.380000e-06	2.414538e-06	1.084923e-09	1.676241e+01	7.594835e+01
2.390000e-06	2.456790e-06	1.103844e-09	1.705574e+01	7.717090e+01
2.400000e-06	2.498688e-06	1.120941e-09	1.734660e+01	7.836198e+01
2.410000e-06	2.540348e-06	1.136746e-09	1.763582e+01	7.952264e+01
2.420000e-06	2.581654e-06	1.151365e-09	1.792258e+01	8.065388e+01
2.430000e-06	2.622564e-06	1.164770e-09	1.820658e+01	8.175666e+01
2.440000e-06	2.663235e-06	1.179903e-09	1.848894e+01	8.283188e+01
2.450000e-06	2.703755e-06	1.195876e-09	1.877024e+01	8.388040e+01
2.460000e-06	2.744079e-06	1.211993e-09	1.905018e+01	8.490303e+01
2.470000e-06	2.784215e-06	1.228805e-09	1.932881e+01	8.590052e+01
2.480000e-06	2.824209e-06	1.242235e-09	1.960646e+01	8.687358e+01
2.490000e-06	2.864078e-06	1.252777e-09	1.988324e+01	8.782286e+01
2.500000e-06	2.903813e-06	1.262500e-09	2.015910e+01	8.874898e+01
2.510000e-06	2.943376e-06	1.274087e-09	2.043376e+01	8.965250e+01
2.520000e-06	2.982805e-06	1.287802e-09	2.070749e+01	9.053395e+01
2.530000e-06	3.022062e-06	1.301010e-09	2.098001e+01	9.139384e+01
2.540000e-06	3.061128e-06	1.316402e-09	2.125123e+01	9.223265e+01
2.550000e-06	3.099964e-06	1.332014e-09	2.152083e+01	9.305081e+01
2.560000e-06	3.138503e-06	1.343357e-09	2.178838e+01	9.384875e+01
2.570000e-06	3.176895e-06	1.349864e-09	2.205491e+01	9.462690e+01
2.580000e-06	3.215045e-06	1.354806e-09	2.231976e+01	9.538565e+01
2.590000e-06	3.252914e-06	1.360661e-09	2.258266e+01	9.612539e+01
2.600000e-06	3.290628e-06	1.370070e-09	2.284448e+01	9.684651e+01
2.610000e-06	3.328152e-06	1.384544e-09	2.310498e+01	9.754937e+01
2.620000e-06	3.365460e-06	1.401471e-09	2.336398e+01	9.823437e+01
2.630000e-06	3.402510e-06	1.418010e-09	2.362119e+01	9.890187e+01
2.640000e-06	3.439262e-06	1.428256e-09	2.387634e+01	9.955224e+01
2.650000e-06	3.475732e-06	1.432002e-09	2.412952e+01	1.001858e+02
2.660000e-06	3.511971e-06	1.434829e-09	2.438110e+01	1.008031e+02
2.670000e-06	3.548038e-06	1.440917e-09	2.463149e+01	1.014042e+02
2.680000e-06	3.583952e-06	1.451048e-09	2.488082e+01	1.019897e+02
2.690000e-06	3.619748e-06	1.462283e-09	2.512932e+01	1.025599e+02
2.700000e-06	3.655383e-06	1.474300e-09	2.537671e+01	1.031151e+02
2.710000e-06	3.690886e-06	1.483989e-09	2.562318e+01	1.036557e+02
2.720000e-06	3.726210e-06	1.488782e-09	2.586841e+01	1.041819e+02
2.730000e-06	3.761198e-06	1.493903e-09	2.611131e+01	1.046942e+02
2.740000e-06	3.795804e-06	1.500798e-09	2.635155e+01	1.051927e+02
2.750000e-06	3.830021e-06	1.507335e-09	2.658910e+01	1.056779e+02
2.760000e-06	3.863788e-06	1.514046e-09	2.682352e+01	1.061500e+02
2.770000e-06	3.897114e-06	1.523021e-09	2.705487e+01	1.066092e+02
2.780000e-06	3.930014e-06	1.533506e-09	2.728328e+01	1.070559e+02
2.790000e-06	3.962506e-06	1.542003e-09	2.750885e+01	1.074903e+02
2.800000e-06	3.994695e-06	1.548010e-09	2.773231e+01	1.079126e+02
2.810000e-06	4.026645e-06	1.551842e-09	2.795412e+01	1.083230e+02
2.820000e-06	4.058416e-06	1.555203e-09	2.817468e+01	1.087218e+02
2.830000e-06	4.089999e-06	1.560914e-09	2.839394e+01	1.091092e+02
2.840000e-06	4.121370e-06	1.568826e-09	2.861172e+01	1.094855e+02
2.850000e-06	4.152508e-06	1.576634e-09	2.882790e+01	1.098507e+02
2.860000e-06	4.183353e-06	1.583484e-09	2.904203e+01	1.102052e+02
2.870000e-06	4.213859e-06	1.590498e-09	2.925381e+01	1.105492e+02
2.880000e-06	4.244114e-06	1.597494e-09	2.946385e+01	1.108828e+02
2.890000e-06	4.274116e-06	1.602794e-09	2.967213e+01	1.112062e+02
2.900000e-06	4.303751e-06	1.605940e-09	2.987787e+01	1.115198e+02
