# Temperatura_=_-30.58
# Concentracion g/m^3_=_1620.0
# C_Vs_to_Am_M_A/Vsm_=_65563218390.804596
# pendiente_HvsI_1/m_=_3716.3
# ordenada_HvsI_A/m_=_1297.0
# frecuencia_Hz_=_135089.86909970146

Tiempo_(s)	Campo_(V.s)	Magnetizacion_(V.s)	Campo_(kA/m)	Magnetizacion_(A/m)
0.000000e+00	-5.520470e-06	-1.054765e-09	-3.837733e+01	-6.819805e+01
1.000000e-08	-5.520435e-06	-1.054619e-09	-3.837708e+01	-6.818076e+01
2.000000e-08	-5.520286e-06	-1.058121e-09	-3.837605e+01	-6.816432e+01
3.000000e-08	-5.519833e-06	-1.060189e-09	-3.837290e+01	-6.814925e+01
4.000000e-08	-5.518961e-06	-1.057461e-09	-3.836684e+01	-6.813606e+01
5.000000e-08	-5.517566e-06	-1.050628e-09	-3.835714e+01	-6.812529e+01
6.000000e-08	-5.515557e-06	-1.033053e-09	-3.834317e+01	-6.811749e+01
7.000000e-08	-5.513012e-06	-1.028533e-09	-3.832548e+01	-6.811317e+01
8.000000e-08	-5.509847e-06	-1.064997e-09	-3.830348e+01	-6.811286e+01
9.000000e-08	-5.506099e-06	-1.091429e-09	-3.827742e+01	-6.811702e+01
1.000000e-07	-5.501978e-06	-1.081247e-09	-3.824878e+01	-6.812608e+01
1.100000e-07	-5.497633e-06	-1.077485e-09	-3.821856e+01	-6.814043e+01
1.200000e-07	-5.493141e-06	-9.946910e-10	-3.818734e+01	-6.816038e+01
1.300000e-07	-5.488324e-06	-1.004956e-09	-3.815385e+01	-6.818617e+01
1.400000e-07	-5.483069e-06	-1.034433e-09	-3.811732e+01	-6.821798e+01
1.500000e-07	-5.477411e-06	-1.067089e-09	-3.807799e+01	-6.825587e+01
1.600000e-07	-5.471339e-06	-1.052781e-09	-3.803578e+01	-6.829983e+01
1.700000e-07	-5.464899e-06	-9.925603e-10	-3.799100e+01	-6.834977e+01
1.800000e-07	-5.458118e-06	-1.029904e-09	-3.794386e+01	-6.840547e+01
1.900000e-07	-5.450891e-06	-1.049894e-09	-3.789363e+01	-6.846665e+01
2.000000e-07	-5.443263e-06	-1.063778e-09	-3.784060e+01	-6.853293e+01
2.100000e-07	-5.435435e-06	-1.033568e-09	-3.778618e+01	-6.860383e+01
2.200000e-07	-5.427383e-06	-1.063919e-09	-3.773020e+01	-6.867881e+01
2.300000e-07	-5.419043e-06	-1.079101e-09	-3.767222e+01	-6.875724e+01
2.400000e-07	-5.410305e-06	-1.085804e-09	-3.761148e+01	-6.883844e+01
2.500000e-07	-5.400873e-06	-1.032185e-09	-3.754591e+01	-6.892168e+01
2.600000e-07	-5.390666e-06	-1.043583e-09	-3.747495e+01	-6.900619e+01
2.700000e-07	-5.379934e-06	-1.069643e-09	-3.740034e+01	-6.909117e+01
2.800000e-07	-5.368867e-06	-1.083491e-09	-3.732341e+01	-6.917581e+01
2.900000e-07	-5.357314e-06	-1.072103e-09	-3.724309e+01	-6.925929e+01
3.000000e-07	-5.345296e-06	-1.071663e-09	-3.715955e+01	-6.934083e+01
3.100000e-07	-5.332934e-06	-1.077687e-09	-3.707361e+01	-6.941965e+01
3.200000e-07	-5.320117e-06	-1.064676e-09	-3.698451e+01	-6.949503e+01
3.300000e-07	-5.306812e-06	-1.045157e-09	-3.689201e+01	-6.956630e+01
3.400000e-07	-5.293175e-06	-1.038283e-09	-3.679721e+01	-6.963285e+01
3.500000e-07	-5.279176e-06	-1.071504e-09	-3.669989e+01	-6.969416e+01
3.600000e-07	-5.264780e-06	-1.088151e-09	-3.659981e+01	-6.974976e+01
3.700000e-07	-5.249911e-06	-1.075210e-09	-3.649645e+01	-6.979931e+01
3.800000e-07	-5.234601e-06	-1.072576e-09	-3.639002e+01	-6.984254e+01
3.900000e-07	-5.218780e-06	-1.095632e-09	-3.628003e+01	-6.987928e+01
4.000000e-07	-5.202281e-06	-1.058881e-09	-3.616534e+01	-6.990946e+01
4.100000e-07	-5.185384e-06	-1.039327e-09	-3.604786e+01	-6.993311e+01
4.200000e-07	-5.168257e-06	-1.069756e-09	-3.592881e+01	-6.995034e+01
4.300000e-07	-5.150754e-06	-1.085846e-09	-3.580713e+01	-6.996138e+01
4.400000e-07	-5.132969e-06	-1.041392e-09	-3.568349e+01	-6.996652e+01
4.500000e-07	-5.114963e-06	-1.082904e-09	-3.555831e+01	-6.996612e+01
4.600000e-07	-5.096577e-06	-1.114500e-09	-3.543050e+01	-6.996063e+01
4.700000e-07	-5.077614e-06	-1.062530e-09	-3.529867e+01	-6.995054e+01
4.800000e-07	-5.058163e-06	-1.044185e-09	-3.516345e+01	-6.993639e+01
4.900000e-07	-5.038475e-06	-1.103871e-09	-3.502658e+01	-6.991874e+01
5.000000e-07	-5.018593e-06	-1.057728e-09	-3.488837e+01	-6.989820e+01
5.100000e-07	-4.998547e-06	-1.008885e-09	-3.474901e+01	-6.987536e+01
5.200000e-07	-4.978267e-06	-1.065269e-09	-3.460802e+01	-6.985082e+01
5.300000e-07	-4.957619e-06	-1.087372e-09	-3.446448e+01	-6.982517e+01
5.400000e-07	-4.936605e-06	-1.031891e-09	-3.431840e+01	-6.979896e+01
5.500000e-07	-4.915243e-06	-1.069782e-09	-3.416990e+01	-6.977271e+01
5.600000e-07	-4.893483e-06	-1.105095e-09	-3.401862e+01	-6.974691e+01
5.700000e-07	-4.871416e-06	-1.045588e-09	-3.386522e+01	-6.972198e+01
5.800000e-07	-4.849097e-06	-1.036371e-09	-3.371006e+01	-6.969829e+01
5.900000e-07	-4.826362e-06	-1.083016e-09	-3.355201e+01	-6.967613e+01
6.000000e-07	-4.803101e-06	-1.047416e-09	-3.339030e+01	-6.965576e+01
6.100000e-07	-4.779635e-06	-1.018323e-09	-3.322717e+01	-6.963734e+01
6.200000e-07	-4.756080e-06	-1.066317e-09	-3.306342e+01	-6.962097e+01
6.300000e-07	-4.732302e-06	-1.064783e-09	-3.289812e+01	-6.960669e+01
6.400000e-07	-4.708284e-06	-1.036071e-09	-3.273115e+01	-6.959448e+01
6.500000e-07	-4.683903e-06	-1.060734e-09	-3.256166e+01	-6.958424e+01
6.600000e-07	-4.659136e-06	-1.068587e-09	-3.238949e+01	-6.957584e+01
6.700000e-07	-4.633974e-06	-1.031236e-09	-3.221456e+01	-6.956909e+01
6.800000e-07	-4.608232e-06	-1.040073e-09	-3.203561e+01	-6.956376e+01
6.900000e-07	-4.581723e-06	-1.053791e-09	-3.185133e+01	-6.955959e+01
7.000000e-07	-4.554568e-06	-1.035673e-09	-3.166255e+01	-6.955629e+01
7.100000e-07	-4.527077e-06	-1.036240e-09	-3.147143e+01	-6.955356e+01
7.200000e-07	-4.499407e-06	-1.056745e-09	-3.127908e+01	-6.955109e+01
7.300000e-07	-4.471575e-06	-1.043605e-09	-3.108559e+01	-6.954856e+01
7.400000e-07	-4.443586e-06	-1.038475e-09	-3.089102e+01	-6.954566e+01
7.500000e-07	-4.415451e-06	-1.041233e-09	-3.069543e+01	-6.954211e+01
7.600000e-07	-4.387051e-06	-1.038556e-09	-3.049800e+01	-6.953762e+01
7.700000e-07	-4.358276e-06	-1.032354e-09	-3.029796e+01	-6.953195e+01
7.800000e-07	-4.329241e-06	-1.044125e-09	-3.009611e+01	-6.952487e+01
7.900000e-07	-4.299926e-06	-1.043685e-09	-2.989232e+01	-6.951620e+01
8.000000e-07	-4.270234e-06	-1.038789e-09	-2.968591e+01	-6.950577e+01
8.100000e-07	-4.240250e-06	-1.038994e-09	-2.947747e+01	-6.949346e+01
8.200000e-07	-4.210008e-06	-1.036208e-09	-2.926723e+01	-6.947919e+01
8.300000e-07	-4.179506e-06	-1.024558e-09	-2.905518e+01	-6.946290e+01
8.400000e-07	-4.148696e-06	-1.029734e-09	-2.884100e+01	-6.944456e+01
8.500000e-07	-4.117514e-06	-1.041718e-09	-2.862422e+01	-6.942419e+01
8.600000e-07	-4.086058e-06	-1.045972e-09	-2.840555e+01	-6.940180e+01
8.700000e-07	-4.054431e-06	-1.044553e-09	-2.818568e+01	-6.937745e+01
8.800000e-07	-4.022623e-06	-1.050068e-09	-2.796456e+01	-6.935121e+01
8.900000e-07	-3.990677e-06	-1.044535e-09	-2.774248e+01	-6.932315e+01
9.000000e-07	-3.958567e-06	-1.031686e-09	-2.751926e+01	-6.929337e+01
9.100000e-07	-3.926158e-06	-1.029224e-09	-2.729395e+01	-6.926195e+01
9.200000e-07	-3.893337e-06	-1.029492e-09	-2.706578e+01	-6.922898e+01
9.300000e-07	-3.860261e-06	-1.029297e-09	-2.683585e+01	-6.919454e+01
9.400000e-07	-3.826859e-06	-1.033698e-09	-2.660365e+01	-6.915869e+01
9.500000e-07	-3.792867e-06	-1.038270e-09	-2.636734e+01	-6.912151e+01
9.600000e-07	-3.758358e-06	-1.029836e-09	-2.612743e+01	-6.908303e+01
9.700000e-07	-3.723362e-06	-1.023273e-09	-2.588415e+01	-6.904328e+01
9.800000e-07	-3.688040e-06	-1.021216e-09	-2.563860e+01	-6.900226e+01
9.900000e-07	-3.652495e-06	-1.019781e-09	-2.539150e+01	-6.895997e+01
1.000000e-06	-3.616721e-06	-1.016047e-09	-2.514280e+01	-6.891638e+01
1.010000e-06	-3.580844e-06	-1.018528e-09	-2.489339e+01	-6.887144e+01
1.020000e-06	-3.544910e-06	-1.018979e-09	-2.464358e+01	-6.882508e+01
1.030000e-06	-3.508881e-06	-1.017849e-09	-2.439311e+01	-6.877724e+01
1.040000e-06	-3.472676e-06	-1.018060e-09	-2.414143e+01	-6.872781e+01
1.050000e-06	-3.436180e-06	-1.022219e-09	-2.388772e+01	-6.867672e+01
1.060000e-06	-3.399364e-06	-1.018464e-09	-2.363177e+01	-6.862385e+01
1.070000e-06	-3.362223e-06	-1.014681e-09	-2.337357e+01	-6.856910e+01
1.080000e-06	-3.324783e-06	-1.012316e-09	-2.311330e+01	-6.851237e+01
1.090000e-06	-3.287202e-06	-1.010445e-09	-2.285204e+01	-6.845354e+01
1.100000e-06	-3.249391e-06	-1.005101e-09	-2.258919e+01	-6.839252e+01
1.110000e-06	-3.211349e-06	-1.002866e-09	-2.232473e+01	-6.832921e+01
1.120000e-06	-3.173125e-06	-9.975625e-10	-2.205900e+01	-6.826353e+01
1.130000e-06	-3.134611e-06	-9.914308e-10	-2.179126e+01	-6.819538e+01
1.140000e-06	-3.095834e-06	-9.894468e-10	-2.152169e+01	-6.812471e+01
1.150000e-06	-3.056865e-06	-9.924061e-10	-2.125078e+01	-6.805143e+01
1.160000e-06	-3.017823e-06	-9.934275e-10	-2.097937e+01	-6.797549e+01
1.170000e-06	-2.978534e-06	-9.932090e-10	-2.070624e+01	-6.789682e+01
1.180000e-06	-2.938885e-06	-9.935243e-10	-2.043061e+01	-6.781537e+01
1.190000e-06	-2.899160e-06	-9.929285e-10	-2.015445e+01	-6.773107e+01
1.200000e-06	-2.859395e-06	-9.879017e-10	-1.987801e+01	-6.764384e+01
1.210000e-06	-2.819433e-06	-9.798238e-10	-1.960020e+01	-6.755360e+01
1.220000e-06	-2.779381e-06	-9.748346e-10	-1.932177e+01	-6.746027e+01
1.230000e-06	-2.739305e-06	-9.721246e-10	-1.904316e+01	-6.736371e+01
1.240000e-06	-2.699078e-06	-9.701361e-10	-1.876351e+01	-6.726379e+01
1.250000e-06	-2.658627e-06	-9.676659e-10	-1.848230e+01	-6.716035e+01
1.260000e-06	-2.617916e-06	-9.698520e-10	-1.819928e+01	-6.705319e+01
1.270000e-06	-2.576913e-06	-9.703072e-10	-1.791424e+01	-6.694208e+01
1.280000e-06	-2.535701e-06	-9.659544e-10	-1.762774e+01	-6.682676e+01
1.290000e-06	-2.494243e-06	-9.591632e-10	-1.733954e+01	-6.670694e+01
1.300000e-06	-2.452426e-06	-9.521408e-10	-1.704883e+01	-6.658229e+01
1.310000e-06	-2.410294e-06	-9.440342e-10	-1.675594e+01	-6.645243e+01
1.320000e-06	-2.367758e-06	-9.408642e-10	-1.646023e+01	-6.631698e+01
1.330000e-06	-2.324880e-06	-9.393185e-10	-1.616215e+01	-6.617551e+01
1.340000e-06	-2.281799e-06	-9.399177e-10	-1.586266e+01	-6.602756e+01
1.350000e-06	-2.238516e-06	-9.429260e-10	-1.556177e+01	-6.587266e+01
1.360000e-06	-2.195025e-06	-9.462786e-10	-1.525943e+01	-6.571033e+01
1.370000e-06	-2.151396e-06	-9.462361e-10	-1.495612e+01	-6.554007e+01
1.380000e-06	-2.107686e-06	-9.428033e-10	-1.465226e+01	-6.536140e+01
1.390000e-06	-2.063879e-06	-9.334532e-10	-1.434772e+01	-6.517381e+01
1.400000e-06	-2.020014e-06	-9.230074e-10	-1.404278e+01	-6.497685e+01
1.410000e-06	-1.976093e-06	-9.150845e-10	-1.373745e+01	-6.477006e+01
1.420000e-06	-1.932078e-06	-9.100771e-10	-1.343146e+01	-6.455301e+01
1.430000e-06	-1.887998e-06	-9.081414e-10	-1.312503e+01	-6.432534e+01
1.440000e-06	-1.843881e-06	-9.082388e-10	-1.281833e+01	-6.408670e+01
1.450000e-06	-1.799633e-06	-9.090572e-10	-1.251073e+01	-6.383681e+01
1.460000e-06	-1.755301e-06	-9.074556e-10	-1.220254e+01	-6.357543e+01
1.470000e-06	-1.710933e-06	-9.013150e-10	-1.189410e+01	-6.330238e+01
1.480000e-06	-1.666453e-06	-8.947614e-10	-1.158488e+01	-6.301756e+01
1.490000e-06	-1.621716e-06	-8.902422e-10	-1.127388e+01	-6.272091e+01
1.500000e-06	-1.576768e-06	-8.834144e-10	-1.096141e+01	-6.241243e+01
1.510000e-06	-1.531785e-06	-8.752657e-10	-1.064870e+01	-6.209217e+01
1.520000e-06	-1.486682e-06	-8.678913e-10	-1.033515e+01	-6.176025e+01
1.530000e-06	-1.441363e-06	-8.620896e-10	-1.002010e+01	-6.141682e+01
1.540000e-06	-1.395911e-06	-8.586340e-10	-9.704128e+00	-6.106206e+01
1.550000e-06	-1.350408e-06	-8.540191e-10	-9.387798e+00	-6.069618e+01
1.560000e-06	-1.304858e-06	-8.461012e-10	-9.071138e+00	-6.031940e+01
1.570000e-06	-1.259163e-06	-8.359588e-10	-8.753474e+00	-5.993194e+01
1.580000e-06	-1.213426e-06	-8.262621e-10	-8.435524e+00	-5.953400e+01
1.590000e-06	-1.167643e-06	-8.174803e-10	-8.117247e+00	-5.912578e+01
1.600000e-06	-1.121734e-06	-8.073918e-10	-7.798099e+00	-5.870739e+01
1.610000e-06	-1.075754e-06	-7.995684e-10	-7.478452e+00	-5.827891e+01
1.620000e-06	-1.029686e-06	-7.933783e-10	-7.158192e+00	-5.784035e+01
1.630000e-06	-9.836239e-07	-7.880378e-10	-6.837978e+00	-5.739161e+01
1.640000e-06	-9.375091e-07	-7.811869e-10	-6.517397e+00	-5.693250e+01
1.650000e-06	-8.912412e-07	-7.756504e-10	-6.195751e+00	-5.646271e+01
1.660000e-06	-8.449165e-07	-7.707129e-10	-5.873709e+00	-5.598183e+01
1.670000e-06	-7.985554e-07	-7.636007e-10	-5.551415e+00	-5.548928e+01
1.680000e-06	-7.521189e-07	-7.535631e-10	-5.228597e+00	-5.498436e+01
1.690000e-06	-7.057137e-07	-7.446249e-10	-4.905996e+00	-5.446624e+01
1.700000e-06	-6.593429e-07	-7.364660e-10	-4.583635e+00	-5.393392e+01
1.710000e-06	-6.128162e-07	-7.239438e-10	-4.260189e+00	-5.338627e+01
1.720000e-06	-5.661642e-07	-7.101450e-10	-3.935873e+00	-5.282204e+01
1.730000e-06	-5.195766e-07	-6.983733e-10	-3.612004e+00	-5.223982e+01
1.740000e-06	-4.730185e-07	-6.906762e-10	-3.288340e+00	-5.163811e+01
1.750000e-06	-4.263821e-07	-6.851756e-10	-2.964132e+00	-5.101528e+01
1.760000e-06	-3.797001e-07	-6.775760e-10	-2.639608e+00	-5.036962e+01
1.770000e-06	-3.329665e-07	-6.682932e-10	-2.314724e+00	-4.969937e+01
1.780000e-06	-2.861821e-07	-6.571374e-10	-1.989487e+00	-4.900268e+01
1.790000e-06	-2.393583e-07	-6.470575e-10	-1.663976e+00	-4.827771e+01
1.800000e-06	-1.924630e-07	-6.370778e-10	-1.337969e+00	-4.752259e+01
1.810000e-06	-1.455741e-07	-6.252830e-10	-1.012005e+00	-4.673550e+01
1.820000e-06	-9.880879e-08	-6.129408e-10	-6.869011e-01	-4.591465e+01
1.830000e-06	-5.198409e-08	-5.989999e-10	-3.613842e-01	-4.505833e+01
1.840000e-06	-5.136174e-09	-5.840440e-10	-3.570577e-02	-4.416493e+01
1.850000e-06	4.163752e-08	-5.720575e-10	2.894566e-01	-4.323298e+01
1.860000e-06	8.847365e-08	-5.619847e-10	6.150531e-01	-4.226114e+01
1.870000e-06	1.352639e-07	-5.503237e-10	9.403302e-01	-4.124827e+01
1.880000e-06	1.819842e-07	-5.383256e-10	1.265122e+00	-4.019342e+01
1.890000e-06	2.287420e-07	-5.222843e-10	1.590173e+00	-3.909584e+01
1.900000e-06	2.755419e-07	-5.041218e-10	1.915518e+00	-3.795503e+01
1.910000e-06	3.223263e-07	-4.842144e-10	2.240755e+00	-3.677073e+01
1.920000e-06	3.691870e-07	-4.643693e-10	2.566523e+00	-3.554293e+01
1.930000e-06	4.160744e-07	-4.480848e-10	2.892475e+00	-3.427190e+01
1.940000e-06	4.628276e-07	-4.327573e-10	3.217495e+00	-3.295814e+01
1.950000e-06	5.094764e-07	-4.190655e-10	3.541789e+00	-3.160245e+01
1.960000e-06	5.560034e-07	-4.013134e-10	3.865237e+00	-3.020588e+01
1.970000e-06	6.024366e-07	-3.831296e-10	4.188032e+00	-2.876973e+01
1.980000e-06	6.488788e-07	-3.634843e-10	4.510890e+00	-2.729554e+01
1.990000e-06	6.952462e-07	-3.403744e-10	4.833228e+00	-2.578509e+01
2.000000e-06	7.415780e-07	-3.158700e-10	5.155318e+00	-2.424037e+01
2.010000e-06	7.878897e-07	-2.935466e-10	5.477269e+00	-2.266355e+01
2.020000e-06	8.341445e-07	-2.701225e-10	5.798824e+00	-2.105700e+01
2.030000e-06	8.804242e-07	-2.463178e-10	6.120553e+00	-1.942323e+01
2.040000e-06	9.266181e-07	-2.249560e-10	6.441684e+00	-1.776485e+01
2.050000e-06	9.726230e-07	-2.051624e-10	6.761502e+00	-1.608462e+01
2.060000e-06	1.018533e-06	-1.836845e-10	7.080661e+00	-1.438532e+01
2.070000e-06	1.064492e-06	-1.591621e-10	7.400156e+00	-1.266984e+01
2.080000e-06	1.110438e-06	-1.366950e-10	7.719564e+00	-1.094104e+01
2.090000e-06	1.156273e-06	-1.140283e-10	8.038202e+00	-9.201815e+00
2.100000e-06	1.202036e-06	-9.009698e-11	8.356340e+00	-7.455020e+00
2.110000e-06	1.247703e-06	-6.557435e-11	8.673813e+00	-5.703470e+00
2.120000e-06	1.293217e-06	-4.215465e-11	8.990213e+00	-3.949915e+00
2.130000e-06	1.338615e-06	-1.547564e-11	9.305812e+00	-2.197022e+00
2.140000e-06	1.383919e-06	1.035386e-11	9.620758e+00	-4.473560e-01
2.150000e-06	1.429094e-06	3.142943e-11	9.934807e+00	1.296626e+00
2.160000e-06	1.474228e-06	5.096439e-11	1.024857e+01	3.032592e+00
2.170000e-06	1.519263e-06	7.109733e-11	1.056165e+01	4.758341e+00
2.180000e-06	1.564190e-06	9.245834e-11	1.087397e+01	6.471809e+00
2.190000e-06	1.609036e-06	1.185804e-10	1.118573e+01	8.171071e+00
2.200000e-06	1.653754e-06	1.459165e-10	1.149660e+01	9.854344e+00
2.210000e-06	1.698271e-06	1.742165e-10	1.180608e+01	1.151998e+01
2.220000e-06	1.742569e-06	2.010908e-10	1.211403e+01	1.316649e+01
2.230000e-06	1.786844e-06	2.239155e-10	1.242182e+01	1.479247e+01
2.240000e-06	1.831092e-06	2.409557e-10	1.272943e+01	1.639670e+01
2.250000e-06	1.875216e-06	2.546455e-10	1.303617e+01	1.797803e+01
2.260000e-06	1.919304e-06	2.687325e-10	1.334266e+01	1.953545e+01
2.270000e-06	1.963361e-06	2.876139e-10	1.364894e+01	2.106803e+01
2.280000e-06	2.007318e-06	3.094645e-10	1.395452e+01	2.257495e+01
2.290000e-06	2.051165e-06	3.335838e-10	1.425933e+01	2.405546e+01
2.300000e-06	2.094945e-06	3.611103e-10	1.456368e+01	2.550890e+01
2.310000e-06	2.138705e-06	3.856655e-10	1.486790e+01	2.693466e+01
2.320000e-06	2.182301e-06	4.055013e-10	1.517097e+01	2.833220e+01
2.330000e-06	2.225700e-06	4.215823e-10	1.547267e+01	2.970104e+01
2.340000e-06	2.269050e-06	4.361629e-10	1.577404e+01	3.104072e+01
2.350000e-06	2.312262e-06	4.508009e-10	1.607444e+01	3.235086e+01
2.360000e-06	2.355039e-06	4.658448e-10	1.637181e+01	3.363110e+01
2.370000e-06	2.397473e-06	4.822582e-10	1.666681e+01	3.488112e+01
2.380000e-06	2.439724e-06	5.017123e-10	1.696053e+01	3.610065e+01
2.390000e-06	2.481606e-06	5.212248e-10	1.725168e+01	3.728946e+01
2.400000e-06	2.523192e-06	5.369484e-10	1.754078e+01	3.844736e+01
2.410000e-06	2.564578e-06	5.494779e-10	1.782849e+01	3.957419e+01
2.420000e-06	2.605563e-06	5.605444e-10	1.811341e+01	4.066985e+01
2.430000e-06	2.646206e-06	5.734051e-10	1.839595e+01	4.173431e+01
2.440000e-06	2.686667e-06	5.897245e-10	1.867723e+01	4.276757e+01
2.450000e-06	2.726941e-06	6.065687e-10	1.895721e+01	4.376970e+01
2.460000e-06	2.767039e-06	6.235242e-10	1.923596e+01	4.474083e+01
2.470000e-06	2.806971e-06	6.377919e-10	1.951356e+01	4.568118e+01
2.480000e-06	2.846806e-06	6.501551e-10	1.979049e+01	4.659100e+01
2.490000e-06	2.886531e-06	6.607205e-10	2.006665e+01	4.747065e+01
2.500000e-06	2.926205e-06	6.709655e-10	2.034246e+01	4.832055e+01
2.510000e-06	2.965778e-06	6.854543e-10	2.061756e+01	4.914118e+01
2.520000e-06	3.005115e-06	7.006799e-10	2.089102e+01	4.993312e+01
2.530000e-06	3.044256e-06	7.143660e-10	2.116313e+01	5.069701e+01
2.540000e-06	3.083180e-06	7.279785e-10	2.143372e+01	5.143354e+01
2.550000e-06	3.121844e-06	7.385827e-10	2.170251e+01	5.214348e+01
2.560000e-06	3.160193e-06	7.438356e-10	2.196910e+01	5.282765e+01
2.570000e-06	3.198314e-06	7.474429e-10	2.223411e+01	5.348691e+01
2.580000e-06	3.236290e-06	7.538326e-10	2.249812e+01	5.412218e+01
2.590000e-06	3.274165e-06	7.622125e-10	2.276141e+01	5.473437e+01
2.600000e-06	3.311796e-06	7.747866e-10	2.302302e+01	5.532445e+01
2.610000e-06	3.349122e-06	7.901244e-10	2.328250e+01	5.589338e+01
2.620000e-06	3.386229e-06	8.044958e-10	2.354046e+01	5.644211e+01
2.630000e-06	3.422976e-06	8.148015e-10	2.379592e+01	5.697157e+01
2.640000e-06	3.459482e-06	8.205509e-10	2.404970e+01	5.748269e+01
2.650000e-06	3.495777e-06	8.248640e-10	2.430202e+01	5.797635e+01
2.660000e-06	3.531852e-06	8.282965e-10	2.455281e+01	5.845338e+01
2.670000e-06	3.567854e-06	8.322474e-10	2.480308e+01	5.891455e+01
2.680000e-06	3.603732e-06	8.378152e-10	2.505250e+01	5.936057e+01
2.690000e-06	3.639510e-06	8.461736e-10	2.530122e+01	5.979211e+01
2.700000e-06	3.675168e-06	8.555357e-10	2.554911e+01	6.020972e+01
2.710000e-06	3.710484e-06	8.631299e-10	2.579463e+01	6.061390e+01
2.720000e-06	3.745390e-06	8.679065e-10	2.603728e+01	6.100506e+01
2.730000e-06	3.780022e-06	8.705043e-10	2.627804e+01	6.138354e+01
2.740000e-06	3.814220e-06	8.726554e-10	2.651578e+01	6.174960e+01
2.750000e-06	3.847940e-06	8.756158e-10	2.675019e+01	6.210342e+01
2.760000e-06	3.881251e-06	8.808351e-10	2.698177e+01	6.244511e+01
2.770000e-06	3.914034e-06	8.880571e-10	2.720967e+01	6.277474e+01
2.780000e-06	3.946418e-06	8.943168e-10	2.743480e+01	6.309229e+01
2.790000e-06	3.978556e-06	8.999080e-10	2.765821e+01	6.339773e+01
2.800000e-06	4.010558e-06	9.047541e-10	2.788068e+01	6.369098e+01
2.810000e-06	4.042394e-06	9.079104e-10	2.810200e+01	6.397193e+01
2.820000e-06	4.074054e-06	9.104207e-10	2.832210e+01	6.424047e+01
2.830000e-06	4.105548e-06	9.150349e-10	2.854104e+01	6.449649e+01
2.840000e-06	4.136723e-06	9.208144e-10	2.875776e+01	6.473988e+01
2.850000e-06	4.167562e-06	9.246382e-10	2.897215e+01	6.497056e+01
2.860000e-06	4.198065e-06	9.302645e-10	2.918420e+01	6.518848e+01
2.870000e-06	4.228326e-06	9.364168e-10	2.939457e+01	6.539363e+01
2.880000e-06	4.258436e-06	9.380716e-10	2.960389e+01	6.558605e+01
2.890000e-06	4.288313e-06	9.371039e-10	2.981159e+01	6.576585e+01
2.900000e-06	4.317859e-06	9.384791e-10	3.001699e+01	6.593318e+01
