# Temperatura_=_13.38
# Concentracion g/m^3_=_1620.0
# C_Vs_to_Am_M_A/Vsm_=_65563218390.804596
# pendiente_HvsI_1/m_=_3716.3
# ordenada_HvsI_A/m_=_1297.0
# frecuencia_Hz_=_135108.41461325894

Tiempo_(s)	Campo_(V.s)	Magnetizacion_(V.s)	Campo_(kA/m)	Magnetizacion_(A/m)
0.000000e+00	-5.518751e-06	-1.823117e-09	-3.837696e+01	-1.189269e+02
1.000000e-08	-5.518848e-06	-1.823567e-09	-3.837762e+01	-1.188778e+02
2.000000e-08	-5.518659e-06	-1.826286e-09	-3.837631e+01	-1.188247e+02
3.000000e-08	-5.518111e-06	-1.829516e-09	-3.837250e+01	-1.187675e+02
4.000000e-08	-5.517110e-06	-1.830470e-09	-3.836554e+01	-1.187059e+02
5.000000e-08	-5.515581e-06	-1.825217e-09	-3.835491e+01	-1.186397e+02
6.000000e-08	-5.513475e-06	-1.811852e-09	-3.834026e+01	-1.185687e+02
7.000000e-08	-5.510789e-06	-1.801692e-09	-3.832158e+01	-1.184928e+02
8.000000e-08	-5.507530e-06	-1.818154e-09	-3.829892e+01	-1.184117e+02
9.000000e-08	-5.503786e-06	-1.879532e-09	-3.827289e+01	-1.183254e+02
1.000000e-07	-5.499666e-06	-1.926010e-09	-3.824424e+01	-1.182336e+02
1.100000e-07	-5.495175e-06	-1.828471e-09	-3.821301e+01	-1.181363e+02
1.200000e-07	-5.490526e-06	-1.720834e-09	-3.818068e+01	-1.180335e+02
1.300000e-07	-5.485774e-06	-1.764989e-09	-3.814763e+01	-1.179252e+02
1.400000e-07	-5.480502e-06	-1.871139e-09	-3.811097e+01	-1.178112e+02
1.500000e-07	-5.474676e-06	-1.860820e-09	-3.807046e+01	-1.176918e+02
1.600000e-07	-5.468566e-06	-1.756585e-09	-3.802797e+01	-1.175668e+02
1.700000e-07	-5.462183e-06	-1.787568e-09	-3.798358e+01	-1.174365e+02
1.800000e-07	-5.455392e-06	-1.859002e-09	-3.793636e+01	-1.173010e+02
1.900000e-07	-5.448176e-06	-1.842031e-09	-3.788618e+01	-1.171603e+02
2.000000e-07	-5.440626e-06	-1.732741e-09	-3.783368e+01	-1.170147e+02
2.100000e-07	-5.432769e-06	-1.741704e-09	-3.777904e+01	-1.168644e+02
2.200000e-07	-5.424656e-06	-1.817482e-09	-3.772263e+01	-1.167095e+02
2.300000e-07	-5.416279e-06	-1.848444e-09	-3.766437e+01	-1.165504e+02
2.400000e-07	-5.407459e-06	-1.787484e-09	-3.760303e+01	-1.163871e+02
2.500000e-07	-5.397933e-06	-1.759597e-09	-3.753679e+01	-1.162200e+02
2.600000e-07	-5.387591e-06	-1.782707e-09	-3.746488e+01	-1.160492e+02
2.700000e-07	-5.376665e-06	-1.787325e-09	-3.738890e+01	-1.158751e+02
2.800000e-07	-5.365371e-06	-1.756407e-09	-3.731036e+01	-1.156977e+02
2.900000e-07	-5.353679e-06	-1.752879e-09	-3.722906e+01	-1.155174e+02
3.000000e-07	-5.341606e-06	-1.781338e-09	-3.714510e+01	-1.153343e+02
3.100000e-07	-5.329199e-06	-1.769233e-09	-3.705882e+01	-1.151486e+02
3.200000e-07	-5.316331e-06	-1.735671e-09	-3.696934e+01	-1.149604e+02
3.300000e-07	-5.303039e-06	-1.714310e-09	-3.687691e+01	-1.147700e+02
3.400000e-07	-5.289529e-06	-1.744874e-09	-3.678296e+01	-1.145773e+02
3.500000e-07	-5.275692e-06	-1.740818e-09	-3.668674e+01	-1.143826e+02
3.600000e-07	-5.261310e-06	-1.726775e-09	-3.658673e+01	-1.141858e+02
3.700000e-07	-5.246427e-06	-1.736082e-09	-3.648323e+01	-1.139871e+02
3.800000e-07	-5.231086e-06	-1.766486e-09	-3.637655e+01	-1.137864e+02
3.900000e-07	-5.215126e-06	-1.717888e-09	-3.626557e+01	-1.135838e+02
4.000000e-07	-5.198632e-06	-1.693161e-09	-3.615087e+01	-1.133792e+02
4.100000e-07	-5.181920e-06	-1.727772e-09	-3.603465e+01	-1.131726e+02
4.200000e-07	-5.164881e-06	-1.726363e-09	-3.591617e+01	-1.129639e+02
4.300000e-07	-5.147381e-06	-1.668907e-09	-3.579448e+01	-1.127532e+02
4.400000e-07	-5.129591e-06	-1.713278e-09	-3.567077e+01	-1.125402e+02
4.500000e-07	-5.111492e-06	-1.760191e-09	-3.554490e+01	-1.123249e+02
4.600000e-07	-5.092982e-06	-1.697299e-09	-3.541619e+01	-1.121073e+02
4.700000e-07	-5.074106e-06	-1.659309e-09	-3.528492e+01	-1.118872e+02
4.800000e-07	-5.054947e-06	-1.724468e-09	-3.515170e+01	-1.116644e+02
4.900000e-07	-5.035487e-06	-1.703185e-09	-3.501637e+01	-1.114390e+02
5.000000e-07	-5.015718e-06	-1.642118e-09	-3.487890e+01	-1.112108e+02
5.100000e-07	-4.995727e-06	-1.677097e-09	-3.473988e+01	-1.109798e+02
5.200000e-07	-4.975498e-06	-1.695616e-09	-3.459922e+01	-1.107457e+02
5.300000e-07	-4.954885e-06	-1.638936e-09	-3.445587e+01	-1.105087e+02
5.400000e-07	-4.933922e-06	-1.664423e-09	-3.431010e+01	-1.102685e+02
5.500000e-07	-4.912656e-06	-1.707973e-09	-3.416221e+01	-1.100252e+02
5.600000e-07	-4.891019e-06	-1.643298e-09	-3.401175e+01	-1.097786e+02
5.700000e-07	-4.869007e-06	-1.617993e-09	-3.385868e+01	-1.095288e+02
5.800000e-07	-4.846621e-06	-1.674727e-09	-3.370302e+01	-1.092758e+02
5.900000e-07	-4.823887e-06	-1.653677e-09	-3.354493e+01	-1.090194e+02
6.000000e-07	-4.800781e-06	-1.601818e-09	-3.338424e+01	-1.087598e+02
6.100000e-07	-4.777307e-06	-1.632497e-09	-3.322101e+01	-1.084969e+02
6.200000e-07	-4.753671e-06	-1.632146e-09	-3.305665e+01	-1.082308e+02
6.300000e-07	-4.729911e-06	-1.588905e-09	-3.289142e+01	-1.079614e+02
6.400000e-07	-4.705910e-06	-1.602504e-09	-3.272452e+01	-1.076887e+02
6.500000e-07	-4.681528e-06	-1.626915e-09	-3.255497e+01	-1.074129e+02
6.600000e-07	-4.656754e-06	-1.593514e-09	-3.238269e+01	-1.071338e+02
6.700000e-07	-4.631571e-06	-1.591501e-09	-3.220757e+01	-1.068515e+02
6.800000e-07	-4.605759e-06	-1.602679e-09	-3.202808e+01	-1.065661e+02
6.900000e-07	-4.579256e-06	-1.579266e-09	-3.184378e+01	-1.062774e+02
7.000000e-07	-4.552196e-06	-1.562385e-09	-3.165561e+01	-1.059855e+02
7.100000e-07	-4.524837e-06	-1.577949e-09	-3.146536e+01	-1.056904e+02
7.200000e-07	-4.497269e-06	-1.567356e-09	-3.127365e+01	-1.053920e+02
7.300000e-07	-4.469531e-06	-1.559803e-09	-3.108076e+01	-1.050902e+02
7.400000e-07	-4.441655e-06	-1.568628e-09	-3.088691e+01	-1.047849e+02
7.500000e-07	-4.413532e-06	-1.560660e-09	-3.069135e+01	-1.044762e+02
7.600000e-07	-4.385107e-06	-1.538595e-09	-3.049368e+01	-1.041637e+02
7.700000e-07	-4.356413e-06	-1.539955e-09	-3.029415e+01	-1.038475e+02
7.800000e-07	-4.327400e-06	-1.534113e-09	-3.009239e+01	-1.035274e+02
7.900000e-07	-4.298009e-06	-1.522623e-09	-2.988801e+01	-1.032032e+02
8.000000e-07	-4.268343e-06	-1.526202e-09	-2.968172e+01	-1.028746e+02
8.100000e-07	-4.238428e-06	-1.527827e-09	-2.947369e+01	-1.025417e+02
8.200000e-07	-4.208217e-06	-1.510299e-09	-2.926360e+01	-1.022040e+02
8.300000e-07	-4.177709e-06	-1.506247e-09	-2.905145e+01	-1.018615e+02
8.400000e-07	-4.146842e-06	-1.512915e-09	-2.883681e+01	-1.015139e+02
8.500000e-07	-4.115677e-06	-1.504849e-09	-2.862009e+01	-1.011611e+02
8.600000e-07	-4.084297e-06	-1.499259e-09	-2.840187e+01	-1.008027e+02
8.700000e-07	-4.052702e-06	-1.501840e-09	-2.818217e+01	-1.004387e+02
8.800000e-07	-4.020961e-06	-1.493970e-09	-2.796144e+01	-1.000688e+02
8.900000e-07	-3.989069e-06	-1.478426e-09	-2.773966e+01	-9.969290e+01
9.000000e-07	-3.956970e-06	-1.475851e-09	-2.751645e+01	-9.931083e+01
9.100000e-07	-3.924584e-06	-1.469022e-09	-2.729125e+01	-9.892247e+01
9.200000e-07	-3.891838e-06	-1.455279e-09	-2.706353e+01	-9.852774e+01
9.300000e-07	-3.858723e-06	-1.452219e-09	-2.683325e+01	-9.812655e+01
9.400000e-07	-3.825140e-06	-1.456170e-09	-2.659972e+01	-9.771889e+01
9.500000e-07	-3.790981e-06	-1.446266e-09	-2.636218e+01	-9.730476e+01
9.600000e-07	-3.756285e-06	-1.439208e-09	-2.612091e+01	-9.688419e+01
9.700000e-07	-3.721204e-06	-1.436127e-09	-2.587695e+01	-9.645726e+01
9.800000e-07	-3.685888e-06	-1.425298e-09	-2.563137e+01	-9.602409e+01
9.900000e-07	-3.650411e-06	-1.409646e-09	-2.538466e+01	-9.558481e+01
1.000000e-06	-3.614805e-06	-1.407177e-09	-2.513706e+01	-9.513962e+01
1.010000e-06	-3.579025e-06	-1.399722e-09	-2.488825e+01	-9.468873e+01
1.020000e-06	-3.543057e-06	-1.388028e-09	-2.463814e+01	-9.423238e+01
1.030000e-06	-3.507019e-06	-1.382316e-09	-2.438753e+01	-9.377084e+01
1.040000e-06	-3.470838e-06	-1.380650e-09	-2.413593e+01	-9.330440e+01
1.050000e-06	-3.434341e-06	-1.371836e-09	-2.388213e+01	-9.283338e+01
1.060000e-06	-3.397420e-06	-1.362902e-09	-2.362538e+01	-9.235808e+01
1.070000e-06	-3.360235e-06	-1.353013e-09	-2.336681e+01	-9.187884e+01
1.080000e-06	-3.322910e-06	-1.340634e-09	-2.310725e+01	-9.139597e+01
1.090000e-06	-3.285398e-06	-1.327034e-09	-2.284640e+01	-9.090977e+01
1.100000e-06	-3.247617e-06	-1.317824e-09	-2.258367e+01	-9.042056e+01
1.110000e-06	-3.209546e-06	-1.307293e-09	-2.231893e+01	-8.992860e+01
1.120000e-06	-3.171326e-06	-1.294363e-09	-2.205315e+01	-8.943412e+01
1.130000e-06	-3.132960e-06	-1.286613e-09	-2.178635e+01	-8.893735e+01
1.140000e-06	-3.094309e-06	-1.282639e-09	-2.151758e+01	-8.843843e+01
1.150000e-06	-3.055460e-06	-1.278375e-09	-2.124743e+01	-8.793748e+01
1.160000e-06	-3.016505e-06	-1.271002e-09	-2.097653e+01	-8.743456e+01
1.170000e-06	-2.977255e-06	-1.263049e-09	-2.070359e+01	-8.692966e+01
1.180000e-06	-2.937751e-06	-1.250815e-09	-2.042888e+01	-8.642272e+01
1.190000e-06	-2.898110e-06	-1.238404e-09	-2.015323e+01	-8.591360e+01
1.200000e-06	-2.858358e-06	-1.228795e-09	-1.987679e+01	-8.540210e+01
1.210000e-06	-2.818524e-06	-1.220467e-09	-1.959979e+01	-8.488796e+01
1.220000e-06	-2.778536e-06	-1.212659e-09	-1.932172e+01	-8.437084e+01
1.230000e-06	-2.738413e-06	-1.207110e-09	-1.904271e+01	-8.385033e+01
1.240000e-06	-2.698215e-06	-1.198966e-09	-1.876317e+01	-8.332596e+01
1.250000e-06	-2.657885e-06	-1.188266e-09	-1.848272e+01	-8.279721e+01
1.260000e-06	-2.617353e-06	-1.178446e-09	-1.820087e+01	-8.226349e+01
1.270000e-06	-2.576456e-06	-1.167495e-09	-1.791647e+01	-8.172417e+01
1.280000e-06	-2.535165e-06	-1.154376e-09	-1.762933e+01	-8.117858e+01
1.290000e-06	-2.493510e-06	-1.146037e-09	-1.733967e+01	-8.062601e+01
1.300000e-06	-2.451558e-06	-1.137357e-09	-1.704794e+01	-8.006573e+01
1.310000e-06	-2.409382e-06	-1.127875e-09	-1.675465e+01	-7.949700e+01
1.320000e-06	-2.366867e-06	-1.116076e-09	-1.645900e+01	-7.891905e+01
1.330000e-06	-2.324081e-06	-1.104029e-09	-1.616147e+01	-7.833115e+01
1.340000e-06	-2.281132e-06	-1.092011e-09	-1.586281e+01	-7.773256e+01
1.350000e-06	-2.237920e-06	-1.080965e-09	-1.556232e+01	-7.712258e+01
1.360000e-06	-2.194498e-06	-1.071434e-09	-1.526036e+01	-7.650052e+01
1.370000e-06	-2.150977e-06	-1.063554e-09	-1.495772e+01	-7.586576e+01
1.380000e-06	-2.107368e-06	-1.054665e-09	-1.465447e+01	-7.521771e+01
1.390000e-06	-2.063652e-06	-1.043580e-09	-1.435047e+01	-7.455584e+01
1.400000e-06	-2.019832e-06	-1.028772e-09	-1.404575e+01	-7.387971e+01
1.410000e-06	-1.975961e-06	-1.013384e-09	-1.374067e+01	-7.318891e+01
1.420000e-06	-1.932057e-06	-9.978987e-10	-1.343537e+01	-7.248312e+01
1.430000e-06	-1.888063e-06	-9.837261e-10	-1.312944e+01	-7.176209e+01
1.440000e-06	-1.843878e-06	-9.733159e-10	-1.282218e+01	-7.102565e+01
1.450000e-06	-1.799587e-06	-9.675969e-10	-1.251418e+01	-7.027369e+01
1.460000e-06	-1.755287e-06	-9.615203e-10	-1.220612e+01	-6.950617e+01
1.470000e-06	-1.710920e-06	-9.503018e-10	-1.189760e+01	-6.872311e+01
1.480000e-06	-1.666354e-06	-9.383311e-10	-1.158769e+01	-6.792459e+01
1.490000e-06	-1.621560e-06	-9.257867e-10	-1.127620e+01	-6.711072e+01
1.500000e-06	-1.576590e-06	-9.076128e-10	-1.096348e+01	-6.628168e+01
1.510000e-06	-1.531523e-06	-8.860465e-10	-1.065009e+01	-6.543763e+01
1.520000e-06	-1.486394e-06	-8.687379e-10	-1.033627e+01	-6.457877e+01
1.530000e-06	-1.441098e-06	-8.568668e-10	-1.002128e+01	-6.370530e+01
1.540000e-06	-1.395721e-06	-8.491941e-10	-9.705734e+00	-6.281739e+01
1.550000e-06	-1.350285e-06	-8.413933e-10	-9.389775e+00	-6.191518e+01
1.560000e-06	-1.304713e-06	-8.305932e-10	-9.072870e+00	-6.099878e+01
1.570000e-06	-1.259067e-06	-8.135712e-10	-8.755451e+00	-6.006823e+01
1.580000e-06	-1.213408e-06	-7.952384e-10	-8.437940e+00	-5.912348e+01
1.590000e-06	-1.167766e-06	-7.757467e-10	-8.120554e+00	-5.816443e+01
1.600000e-06	-1.122039e-06	-7.540849e-10	-7.802568e+00	-5.719085e+01
1.610000e-06	-1.076156e-06	-7.337765e-10	-7.483500e+00	-5.620242e+01
1.620000e-06	-1.030127e-06	-7.196854e-10	-7.163417e+00	-5.519868e+01
1.630000e-06	-9.839980e-07	-7.090546e-10	-6.842643e+00	-5.417907e+01
1.640000e-06	-9.378063e-07	-6.972823e-10	-6.521430e+00	-5.314289e+01
1.650000e-06	-8.915675e-07	-6.835307e-10	-6.199889e+00	-5.208929e+01
1.660000e-06	-8.452374e-07	-6.683984e-10	-5.877713e+00	-5.101731e+01
1.670000e-06	-7.988426e-07	-6.503762e-10	-5.555087e+00	-4.992585e+01
1.680000e-06	-7.525105e-07	-6.311180e-10	-5.232898e+00	-4.881368e+01
1.690000e-06	-7.062090e-07	-6.142518e-10	-4.910921e+00	-4.767947e+01
1.700000e-06	-6.598887e-07	-5.966834e-10	-4.588813e+00	-4.652177e+01
1.710000e-06	-6.134956e-07	-5.751416e-10	-4.266199e+00	-4.533904e+01
1.720000e-06	-5.670190e-07	-5.523888e-10	-3.943004e+00	-4.412966e+01
1.730000e-06	-5.204651e-07	-5.311490e-10	-3.619273e+00	-4.289196e+01
1.740000e-06	-4.737693e-07	-5.127060e-10	-3.294554e+00	-4.162423e+01
1.750000e-06	-4.270128e-07	-4.952687e-10	-2.969413e+00	-4.032475e+01
1.760000e-06	-3.802578e-07	-4.753286e-10	-2.644282e+00	-3.899178e+01
1.770000e-06	-3.334190e-07	-4.530854e-10	-2.318569e+00	-3.762365e+01
1.780000e-06	-2.864987e-07	-4.311995e-10	-1.992289e+00	-3.621874e+01
1.790000e-06	-2.395499e-07	-4.115575e-10	-1.665810e+00	-3.477549e+01
1.800000e-06	-1.926693e-07	-3.924919e-10	-1.339807e+00	-3.329249e+01
1.810000e-06	-1.458855e-07	-3.724520e-10	-1.014476e+00	-3.176844e+01
1.820000e-06	-9.913394e-08	-3.499261e-10	-6.893695e-01	-3.020222e+01
1.830000e-06	-5.235224e-08	-3.260586e-10	-3.640533e-01	-2.859289e+01
1.840000e-06	-5.503360e-09	-3.022379e-10	-3.826992e-02	-2.693971e+01
1.850000e-06	4.136410e-08	-2.788735e-10	2.876426e-01	-2.524220e+01
1.860000e-06	8.820966e-08	-2.553213e-10	6.134029e-01	-2.350010e+01
1.870000e-06	1.350685e-07	-2.307843e-10	9.392553e-01	-2.171342e+01
1.880000e-06	1.819432e-07	-2.064732e-10	1.265218e+00	-1.988245e+01
1.890000e-06	2.287390e-07	-1.801847e-10	1.590632e+00	-1.800777e+01
1.900000e-06	2.754600e-07	-1.504150e-10	1.915526e+00	-1.609025e+01
1.910000e-06	3.221553e-07	-1.208868e-10	2.240242e+00	-1.413105e+01
1.920000e-06	3.688200e-07	-9.074242e-11	2.564745e+00	-1.213162e+01
1.930000e-06	4.154870e-07	-6.088722e-11	2.889263e+00	-1.009369e+01
1.940000e-06	4.621503e-07	-3.425420e-11	3.213756e+00	-8.019288e+00
1.950000e-06	5.088005e-07	-9.603365e-12	3.538158e+00	-5.910699e+00
1.960000e-06	5.554236e-07	1.713276e-11	3.862371e+00	-3.770458e+00
1.970000e-06	6.019989e-07	4.634585e-11	4.186252e+00	-1.601333e+00
1.980000e-06	6.485065e-07	7.615102e-11	4.509662e+00	5.936955e-01
1.990000e-06	6.949782e-07	1.079433e-10	4.832822e+00	2.811461e+00
2.000000e-06	7.413902e-07	1.417459e-10	5.155568e+00	5.048636e+00
2.010000e-06	7.876595e-07	1.756753e-10	5.477321e+00	7.301758e+00
2.020000e-06	8.338616e-07	2.104159e-10	5.798607e+00	9.567266e+00
2.030000e-06	8.800188e-07	2.445758e-10	6.119580e+00	1.184152e+01
2.040000e-06	9.260981e-07	2.760789e-10	6.440012e+00	1.412084e+01
2.050000e-06	9.721370e-07	3.047876e-10	6.760163e+00	1.640155e+01
2.060000e-06	1.018176e-06	3.323456e-10	7.080315e+00	1.867997e+01
2.070000e-06	1.064178e-06	3.619476e-10	7.400209e+00	2.095248e+01
2.080000e-06	1.110097e-06	3.928334e-10	7.719528e+00	2.321556e+01
2.090000e-06	1.155946e-06	4.241089e-10	8.038359e+00	2.546576e+01
2.100000e-06	1.201757e-06	4.544335e-10	8.356920e+00	2.769980e+01
2.110000e-06	1.247478e-06	4.835330e-10	8.674864e+00	2.991452e+01
2.120000e-06	1.293007e-06	5.119415e-10	8.991464e+00	3.210698e+01
2.130000e-06	1.338443e-06	5.433379e-10	9.307426e+00	3.427439e+01
2.140000e-06	1.383826e-06	5.747769e-10	9.623012e+00	3.641420e+01
2.150000e-06	1.429079e-06	6.035478e-10	9.937704e+00	3.852407e+01
2.160000e-06	1.474262e-06	6.312956e-10	1.025190e+01	4.060190e+01
2.170000e-06	1.519435e-06	6.565706e-10	1.056603e+01	4.264581e+01
2.180000e-06	1.564510e-06	6.810171e-10	1.087948e+01	4.465418e+01
2.190000e-06	1.609368e-06	7.073139e-10	1.119142e+01	4.662560e+01
2.200000e-06	1.654056e-06	7.364759e-10	1.150217e+01	4.855893e+01
2.210000e-06	1.698627e-06	7.669598e-10	1.181211e+01	5.045323e+01
2.220000e-06	1.743059e-06	7.962217e-10	1.212109e+01	5.230780e+01
2.230000e-06	1.787317e-06	8.239629e-10	1.242886e+01	5.412214e+01
2.240000e-06	1.831419e-06	8.458899e-10	1.273554e+01	5.589595e+01
2.250000e-06	1.875404e-06	8.607959e-10	1.304141e+01	5.762911e+01
2.260000e-06	1.919295e-06	8.761729e-10	1.334662e+01	5.932167e+01
2.270000e-06	1.963162e-06	8.956004e-10	1.365167e+01	6.097384e+01
2.280000e-06	2.007015e-06	9.195431e-10	1.395662e+01	6.258594e+01
2.290000e-06	2.050821e-06	9.446656e-10	1.426125e+01	6.415843e+01
2.300000e-06	2.094582e-06	9.700573e-10	1.456555e+01	6.569186e+01
2.310000e-06	2.138259e-06	9.938812e-10	1.486928e+01	6.718685e+01
2.320000e-06	2.181865e-06	1.013053e-09	1.517252e+01	6.864410e+01
2.330000e-06	2.225383e-06	1.027934e-09	1.547514e+01	7.006437e+01
2.340000e-06	2.268722e-06	1.041889e-09	1.577651e+01	7.144842e+01
2.350000e-06	2.311883e-06	1.056776e-09	1.607665e+01	7.279706e+01
2.360000e-06	2.354824e-06	1.073170e-09	1.637526e+01	7.411111e+01
2.370000e-06	2.397462e-06	1.093141e-09	1.667176e+01	7.539137e+01
2.380000e-06	2.439855e-06	1.114055e-09	1.696656e+01	7.663866e+01
2.390000e-06	2.481905e-06	1.132628e-09	1.725897e+01	7.785377e+01
2.400000e-06	2.523489e-06	1.149216e-09	1.754814e+01	7.903746e+01
2.410000e-06	2.564730e-06	1.164585e-09	1.783493e+01	8.019049e+01
2.420000e-06	2.605651e-06	1.178570e-09	1.811949e+01	8.131358e+01
2.430000e-06	2.646310e-06	1.192340e-09	1.840223e+01	8.240742e+01
2.440000e-06	2.686801e-06	1.208859e-09	1.868380e+01	8.347270e+01
2.450000e-06	2.727048e-06	1.225904e-09	1.896367e+01	8.451006e+01
2.460000e-06	2.767103e-06	1.240952e-09	1.924222e+01	8.552013e+01
2.470000e-06	2.807072e-06	1.254890e-09	1.952015e+01	8.650353e+01
2.480000e-06	2.846921e-06	1.268684e-09	1.979726e+01	8.746086e+01
2.490000e-06	2.886636e-06	1.280690e-09	2.007344e+01	8.839271e+01
2.500000e-06	2.926249e-06	1.291965e-09	2.034890e+01	8.929968e+01
2.510000e-06	2.965704e-06	1.306788e-09	2.062326e+01	9.018235e+01
2.520000e-06	3.005002e-06	1.321452e-09	2.089655e+01	9.104132e+01
2.530000e-06	3.044172e-06	1.335301e-09	2.116893e+01	9.187719e+01
2.540000e-06	3.083100e-06	1.348173e-09	2.143963e+01	9.269057e+01
2.550000e-06	3.121724e-06	1.358956e-09	2.170822e+01	9.348209e+01
2.560000e-06	3.160029e-06	1.367229e-09	2.197459e+01	9.425239e+01
2.570000e-06	3.198116e-06	1.373660e-09	2.223944e+01	9.500211e+01
2.580000e-06	3.236050e-06	1.380741e-09	2.250323e+01	9.573194e+01
2.590000e-06	3.273777e-06	1.389410e-09	2.276558e+01	9.644253e+01
2.600000e-06	3.311382e-06	1.400830e-09	2.302708e+01	9.713459e+01
2.610000e-06	3.348752e-06	1.415269e-09	2.328696e+01	9.780879e+01
2.620000e-06	3.385770e-06	1.431466e-09	2.354438e+01	9.846584e+01
2.630000e-06	3.422549e-06	1.444135e-09	2.380013e+01	9.910641e+01
2.640000e-06	3.459156e-06	1.452412e-09	2.405469e+01	9.973119e+01
2.650000e-06	3.495471e-06	1.457945e-09	2.430722e+01	1.003408e+02
2.660000e-06	3.531479e-06	1.460704e-09	2.455762e+01	1.009360e+02
2.670000e-06	3.567354e-06	1.462579e-09	2.480709e+01	1.015173e+02
2.680000e-06	3.603119e-06	1.468086e-09	2.505580e+01	1.020852e+02
2.690000e-06	3.638780e-06	1.480005e-09	2.530378e+01	1.026404e+02
2.700000e-06	3.674364e-06	1.495049e-09	2.555123e+01	1.031833e+02
2.710000e-06	3.709817e-06	1.506691e-09	2.579777e+01	1.037144e+02
2.720000e-06	3.745022e-06	1.513691e-09	2.604258e+01	1.042340e+02
2.730000e-06	3.779815e-06	1.518499e-09	2.628453e+01	1.047425e+02
2.740000e-06	3.814152e-06	1.521188e-09	2.652331e+01	1.052401e+02
2.750000e-06	3.848015e-06	1.524428e-09	2.675878e+01	1.057271e+02
2.760000e-06	3.881298e-06	1.531102e-09	2.699023e+01	1.062035e+02
2.770000e-06	3.913999e-06	1.541318e-09	2.721763e+01	1.066695e+02
2.780000e-06	3.946303e-06	1.552542e-09	2.744227e+01	1.071251e+02
2.790000e-06	3.978398e-06	1.561961e-09	2.766546e+01	1.075702e+02
2.800000e-06	4.010323e-06	1.567456e-09	2.788747e+01	1.080048e+02
2.810000e-06	4.042118e-06	1.569164e-09	2.810857e+01	1.084287e+02
2.820000e-06	4.073787e-06	1.571644e-09	2.832879e+01	1.088419e+02
2.830000e-06	4.105314e-06	1.576174e-09	2.854802e+01	1.092440e+02
2.840000e-06	4.136591e-06	1.581564e-09	2.876552e+01	1.096350e+02
2.850000e-06	4.167539e-06	1.587942e-09	2.898073e+01	1.100145e+02
2.860000e-06	4.198134e-06	1.595679e-09	2.919349e+01	1.103824e+02
2.870000e-06	4.228369e-06	1.602984e-09	2.940374e+01	1.107385e+02
2.880000e-06	4.258304e-06	1.606562e-09	2.961191e+01	1.110825e+02
2.890000e-06	4.287972e-06	1.608266e-09	2.981822e+01	1.114143e+02
2.900000e-06	4.317369e-06	1.612153e-09	3.002264e+01	1.117337e+02
