# Temperatura_=_14.81
# Concentracion g/m^3_=_1620.0
# C_Vs_to_Am_M_A/Vsm_=_65563218390.804596
# pendiente_HvsI_1/m_=_3716.3
# ordenada_HvsI_A/m_=_1297.0
# frecuencia_Hz_=_135105.66898813695

Tiempo_(s)	Campo_(V.s)	Magnetizacion_(V.s)	Campo_(kA/m)	Magnetizacion_(A/m)
0.000000e+00	-5.529827e-06	-1.839563e-09	-3.837114e+01	-1.188026e+02
1.000000e-08	-5.530077e-06	-1.837163e-09	-3.837287e+01	-1.187477e+02
2.000000e-08	-5.530082e-06	-1.837004e-09	-3.837291e+01	-1.186905e+02
3.000000e-08	-5.529742e-06	-1.837938e-09	-3.837055e+01	-1.186311e+02
4.000000e-08	-5.528858e-06	-1.836341e-09	-3.836441e+01	-1.185695e+02
5.000000e-08	-5.527328e-06	-1.832139e-09	-3.835380e+01	-1.185060e+02
6.000000e-08	-5.525259e-06	-1.820445e-09	-3.833945e+01	-1.184406e+02
7.000000e-08	-5.522649e-06	-1.813893e-09	-3.832133e+01	-1.183733e+02
8.000000e-08	-5.519532e-06	-1.846785e-09	-3.829971e+01	-1.183042e+02
9.000000e-08	-5.515983e-06	-1.879209e-09	-3.827507e+01	-1.182332e+02
1.000000e-07	-5.511990e-06	-1.859023e-09	-3.824737e+01	-1.181604e+02
1.100000e-07	-5.507701e-06	-1.837892e-09	-3.821761e+01	-1.180857e+02
1.200000e-07	-5.503148e-06	-1.854220e-09	-3.818602e+01	-1.180089e+02
1.300000e-07	-5.498228e-06	-1.808007e-09	-3.815188e+01	-1.179300e+02
1.400000e-07	-5.492936e-06	-1.794418e-09	-3.811516e+01	-1.178489e+02
1.500000e-07	-5.487305e-06	-1.797404e-09	-3.807609e+01	-1.177653e+02
1.600000e-07	-5.481325e-06	-1.879275e-09	-3.803459e+01	-1.176791e+02
1.700000e-07	-5.474971e-06	-1.859406e-09	-3.799050e+01	-1.175900e+02
1.800000e-07	-5.468253e-06	-1.791710e-09	-3.794389e+01	-1.174979e+02
1.900000e-07	-5.461179e-06	-1.796042e-09	-3.789480e+01	-1.174026e+02
2.000000e-07	-5.453744e-06	-1.824217e-09	-3.784321e+01	-1.173038e+02
2.100000e-07	-5.446019e-06	-1.827981e-09	-3.778961e+01	-1.172013e+02
2.200000e-07	-5.438073e-06	-1.788959e-09	-3.773447e+01	-1.170948e+02
2.300000e-07	-5.429850e-06	-1.823295e-09	-3.767741e+01	-1.169842e+02
2.400000e-07	-5.421115e-06	-1.839144e-09	-3.761680e+01	-1.168693e+02
2.500000e-07	-5.411692e-06	-1.837356e-09	-3.755141e+01	-1.167497e+02
2.600000e-07	-5.401710e-06	-1.782869e-09	-3.748214e+01	-1.166255e+02
2.700000e-07	-5.391120e-06	-1.793661e-09	-3.740866e+01	-1.164963e+02
2.800000e-07	-5.379892e-06	-1.799798e-09	-3.733075e+01	-1.163622e+02
2.900000e-07	-5.368296e-06	-1.820630e-09	-3.725029e+01	-1.162228e+02
3.000000e-07	-5.356405e-06	-1.794783e-09	-3.716778e+01	-1.160783e+02
3.100000e-07	-5.344153e-06	-1.794012e-09	-3.708276e+01	-1.159285e+02
3.200000e-07	-5.331443e-06	-1.795264e-09	-3.699457e+01	-1.157733e+02
3.300000e-07	-5.318343e-06	-1.803007e-09	-3.690366e+01	-1.156129e+02
3.400000e-07	-5.304906e-06	-1.766681e-09	-3.681042e+01	-1.154473e+02
3.500000e-07	-5.291066e-06	-1.757656e-09	-3.671439e+01	-1.152764e+02
3.600000e-07	-5.276890e-06	-1.790316e-09	-3.661603e+01	-1.151005e+02
3.700000e-07	-5.262255e-06	-1.792518e-09	-3.651447e+01	-1.149196e+02
3.800000e-07	-5.246927e-06	-1.754582e-09	-3.640812e+01	-1.147339e+02
3.900000e-07	-5.231024e-06	-1.772754e-09	-3.629777e+01	-1.145436e+02
4.000000e-07	-5.214607e-06	-1.798542e-09	-3.618385e+01	-1.143488e+02
4.100000e-07	-5.197836e-06	-1.741726e-09	-3.606747e+01	-1.141498e+02
4.200000e-07	-5.180802e-06	-1.734664e-09	-3.594928e+01	-1.139468e+02
4.300000e-07	-5.163386e-06	-1.792285e-09	-3.582843e+01	-1.137400e+02
4.400000e-07	-5.145653e-06	-1.769444e-09	-3.570538e+01	-1.135296e+02
4.500000e-07	-5.127508e-06	-1.697549e-09	-3.557948e+01	-1.133160e+02
4.600000e-07	-5.108930e-06	-1.760708e-09	-3.545056e+01	-1.130993e+02
4.700000e-07	-5.089998e-06	-1.780001e-09	-3.531919e+01	-1.128797e+02
4.800000e-07	-5.070759e-06	-1.707431e-09	-3.518570e+01	-1.126575e+02
4.900000e-07	-5.051261e-06	-1.715738e-09	-3.505040e+01	-1.124329e+02
5.000000e-07	-5.031527e-06	-1.783260e-09	-3.491346e+01	-1.122061e+02
5.100000e-07	-5.011522e-06	-1.702717e-09	-3.477466e+01	-1.119772e+02
5.200000e-07	-4.991198e-06	-1.672043e-09	-3.463363e+01	-1.117463e+02
5.300000e-07	-4.970575e-06	-1.748195e-09	-3.449053e+01	-1.115136e+02
5.400000e-07	-4.949636e-06	-1.733701e-09	-3.434523e+01	-1.112792e+02
5.500000e-07	-4.928295e-06	-1.654613e-09	-3.419715e+01	-1.110431e+02
5.600000e-07	-4.906659e-06	-1.715173e-09	-3.404702e+01	-1.108053e+02
5.700000e-07	-4.884838e-06	-1.736033e-09	-3.389560e+01	-1.105658e+02
5.800000e-07	-4.862657e-06	-1.664407e-09	-3.374169e+01	-1.103246e+02
5.900000e-07	-4.839968e-06	-1.676807e-09	-3.358425e+01	-1.100815e+02
6.000000e-07	-4.816846e-06	-1.728291e-09	-3.342381e+01	-1.098366e+02
6.100000e-07	-4.793455e-06	-1.666823e-09	-3.326150e+01	-1.095896e+02
6.200000e-07	-4.769860e-06	-1.643812e-09	-3.309778e+01	-1.093404e+02
6.300000e-07	-4.746034e-06	-1.688773e-09	-3.293245e+01	-1.090888e+02
6.400000e-07	-4.722020e-06	-1.666434e-09	-3.276582e+01	-1.088346e+02
6.500000e-07	-4.697741e-06	-1.631356e-09	-3.259735e+01	-1.085775e+02
6.600000e-07	-4.672989e-06	-1.663037e-09	-3.242559e+01	-1.083174e+02
6.700000e-07	-4.647591e-06	-1.662071e-09	-3.224936e+01	-1.080540e+02
6.800000e-07	-4.621639e-06	-1.625079e-09	-3.206928e+01	-1.077869e+02
6.900000e-07	-4.595226e-06	-1.638469e-09	-3.188600e+01	-1.075160e+02
7.000000e-07	-4.568349e-06	-1.646193e-09	-3.169950e+01	-1.072410e+02
7.100000e-07	-4.541090e-06	-1.619525e-09	-3.151035e+01	-1.069615e+02
7.200000e-07	-4.513530e-06	-1.616104e-09	-3.131911e+01	-1.066774e+02
7.300000e-07	-4.485828e-06	-1.633697e-09	-3.112690e+01	-1.063884e+02
7.400000e-07	-4.457997e-06	-1.617616e-09	-3.093378e+01	-1.060942e+02
7.500000e-07	-4.429864e-06	-1.608143e-09	-3.073856e+01	-1.057947e+02
7.600000e-07	-4.401415e-06	-1.609819e-09	-3.054116e+01	-1.054897e+02
7.700000e-07	-4.372734e-06	-1.603650e-09	-3.034214e+01	-1.051789e+02
7.800000e-07	-4.343754e-06	-1.588743e-09	-3.014105e+01	-1.048622e+02
7.900000e-07	-4.314397e-06	-1.595163e-09	-2.993734e+01	-1.045395e+02
8.000000e-07	-4.284720e-06	-1.588519e-09	-2.973142e+01	-1.042107e+02
8.100000e-07	-4.254771e-06	-1.575645e-09	-2.952360e+01	-1.038757e+02
8.200000e-07	-4.224542e-06	-1.570101e-09	-2.931385e+01	-1.035345e+02
8.300000e-07	-4.194031e-06	-1.569985e-09	-2.910213e+01	-1.031870e+02
8.400000e-07	-4.163230e-06	-1.552515e-09	-2.888841e+01	-1.028334e+02
8.500000e-07	-4.132157e-06	-1.551130e-09	-2.867279e+01	-1.024736e+02
8.600000e-07	-4.100784e-06	-1.556555e-09	-2.845510e+01	-1.021077e+02
8.700000e-07	-4.069190e-06	-1.549641e-09	-2.823587e+01	-1.017358e+02
8.800000e-07	-4.037485e-06	-1.537381e-09	-2.801587e+01	-1.013580e+02
8.900000e-07	-4.005653e-06	-1.537517e-09	-2.779499e+01	-1.009745e+02
9.000000e-07	-3.973654e-06	-1.524836e-09	-2.757295e+01	-1.005854e+02
9.100000e-07	-3.941276e-06	-1.509287e-09	-2.734828e+01	-1.001909e+02
9.200000e-07	-3.908468e-06	-1.507163e-09	-2.712063e+01	-9.979128e+01
9.300000e-07	-3.875338e-06	-1.502766e-09	-2.689074e+01	-9.938666e+01
9.400000e-07	-3.841729e-06	-1.486785e-09	-2.665753e+01	-9.897729e+01
9.500000e-07	-3.807620e-06	-1.479969e-09	-2.642085e+01	-9.856337e+01
9.600000e-07	-3.773149e-06	-1.476932e-09	-2.618166e+01	-9.814515e+01
9.700000e-07	-3.738296e-06	-1.460283e-09	-2.593981e+01	-9.772284e+01
9.800000e-07	-3.703079e-06	-1.449256e-09	-2.569544e+01	-9.729667e+01
9.900000e-07	-3.667629e-06	-1.449414e-09	-2.544946e+01	-9.686685e+01
1.000000e-06	-3.632005e-06	-1.445121e-09	-2.520227e+01	-9.643357e+01
1.010000e-06	-3.596208e-06	-1.433321e-09	-2.495388e+01	-9.599704e+01
1.020000e-06	-3.560315e-06	-1.431186e-09	-2.470481e+01	-9.555741e+01
1.030000e-06	-3.524335e-06	-1.423567e-09	-2.445515e+01	-9.511485e+01
1.040000e-06	-3.488075e-06	-1.408846e-09	-2.420354e+01	-9.466947e+01
1.050000e-06	-3.451523e-06	-1.399724e-09	-2.394991e+01	-9.422139e+01
1.060000e-06	-3.414751e-06	-1.399204e-09	-2.369475e+01	-9.377067e+01
1.070000e-06	-3.377665e-06	-1.388826e-09	-2.343741e+01	-9.331738e+01
1.080000e-06	-3.340231e-06	-1.380624e-09	-2.317766e+01	-9.286151e+01
1.090000e-06	-3.302570e-06	-1.376989e-09	-2.291633e+01	-9.240305e+01
1.100000e-06	-3.264764e-06	-1.369847e-09	-2.265401e+01	-9.194195e+01
1.110000e-06	-3.226749e-06	-1.354326e-09	-2.239022e+01	-9.147812e+01
1.120000e-06	-3.188493e-06	-1.344958e-09	-2.212476e+01	-9.101144e+01
1.130000e-06	-3.150121e-06	-1.333785e-09	-2.185851e+01	-9.054173e+01
1.140000e-06	-3.111512e-06	-1.321223e-09	-2.159060e+01	-9.006881e+01
1.150000e-06	-3.072595e-06	-1.315733e-09	-2.132056e+01	-8.959244e+01
1.160000e-06	-3.033483e-06	-1.316216e-09	-2.104916e+01	-8.911235e+01
1.170000e-06	-2.994154e-06	-1.308018e-09	-2.077626e+01	-8.862823e+01
1.180000e-06	-2.954678e-06	-1.298844e-09	-2.050233e+01	-8.813975e+01
1.190000e-06	-2.915084e-06	-1.293073e-09	-2.022760e+01	-8.764655e+01
1.200000e-06	-2.875368e-06	-1.282836e-09	-1.995201e+01	-8.714822e+01
1.210000e-06	-2.835518e-06	-1.267820e-09	-1.967549e+01	-8.664435e+01
1.220000e-06	-2.795541e-06	-1.257330e-09	-1.939809e+01	-8.613450e+01
1.230000e-06	-2.755426e-06	-1.248049e-09	-1.911974e+01	-8.561821e+01
1.240000e-06	-2.715144e-06	-1.235218e-09	-1.884023e+01	-8.509501e+01
1.250000e-06	-2.674598e-06	-1.225094e-09	-1.855887e+01	-8.456440e+01
1.260000e-06	-2.633775e-06	-1.218614e-09	-1.827561e+01	-8.402591e+01
1.270000e-06	-2.592771e-06	-1.211285e-09	-1.799108e+01	-8.347904e+01
1.280000e-06	-2.551512e-06	-1.200414e-09	-1.770479e+01	-8.292330e+01
1.290000e-06	-2.509872e-06	-1.191343e-09	-1.741585e+01	-8.235821e+01
1.300000e-06	-2.467942e-06	-1.180813e-09	-1.712490e+01	-8.178332e+01
1.310000e-06	-2.425692e-06	-1.167447e-09	-1.683173e+01	-8.119817e+01
1.320000e-06	-2.383070e-06	-1.154703e-09	-1.653598e+01	-8.060234e+01
1.330000e-06	-2.340163e-06	-1.144451e-09	-1.623825e+01	-7.999542e+01
1.340000e-06	-2.297079e-06	-1.134008e-09	-1.593930e+01	-7.937705e+01
1.350000e-06	-2.253847e-06	-1.126102e-09	-1.563931e+01	-7.874690e+01
1.360000e-06	-2.210470e-06	-1.118854e-09	-1.533832e+01	-7.810466e+01
1.370000e-06	-2.166984e-06	-1.111251e-09	-1.503657e+01	-7.745007e+01
1.380000e-06	-2.123344e-06	-1.101426e-09	-1.473376e+01	-7.678292e+01
1.390000e-06	-2.079613e-06	-1.090144e-09	-1.443031e+01	-7.610302e+01
1.400000e-06	-2.035840e-06	-1.074219e-09	-1.412657e+01	-7.541024e+01
1.410000e-06	-1.992014e-06	-1.057058e-09	-1.382247e+01	-7.470448e+01
1.420000e-06	-1.948143e-06	-1.041708e-09	-1.351805e+01	-7.398568e+01
1.430000e-06	-1.904201e-06	-1.030244e-09	-1.321314e+01	-7.325382e+01
1.440000e-06	-1.860099e-06	-1.018444e-09	-1.290712e+01	-7.250890e+01
1.450000e-06	-1.815825e-06	-1.007461e-09	-1.259990e+01	-7.175096e+01
1.460000e-06	-1.771445e-06	-9.975723e-10	-1.229195e+01	-7.098005e+01
1.470000e-06	-1.726933e-06	-9.858340e-10	-1.198308e+01	-7.019626e+01
1.480000e-06	-1.682232e-06	-9.729163e-10	-1.167291e+01	-6.939965e+01
1.490000e-06	-1.637405e-06	-9.621769e-10	-1.136186e+01	-6.859031e+01
1.500000e-06	-1.592448e-06	-9.479817e-10	-1.104990e+01	-6.776831e+01
1.510000e-06	-1.547361e-06	-9.305749e-10	-1.073704e+01	-6.693371e+01
1.520000e-06	-1.502149e-06	-9.139772e-10	-1.042332e+01	-6.608654e+01
1.530000e-06	-1.456838e-06	-9.001309e-10	-1.010891e+01	-6.522677e+01
1.540000e-06	-1.411442e-06	-8.883154e-10	-9.793913e+00	-6.435437e+01
1.550000e-06	-1.365903e-06	-8.765307e-10	-9.477916e+00	-6.346922e+01
1.560000e-06	-1.320319e-06	-8.629316e-10	-9.161612e+00	-6.257114e+01
1.570000e-06	-1.274744e-06	-8.464698e-10	-8.845369e+00	-6.165989e+01
1.580000e-06	-1.229027e-06	-8.305975e-10	-8.528143e+00	-6.073513e+01
1.590000e-06	-1.183139e-06	-8.156220e-10	-8.209733e+00	-5.979644e+01
1.600000e-06	-1.137212e-06	-7.993992e-10	-7.891044e+00	-5.884331e+01
1.610000e-06	-1.091277e-06	-7.826037e-10	-7.572309e+00	-5.787512e+01
1.620000e-06	-1.045270e-06	-7.672219e-10	-7.253068e+00	-5.689114e+01
1.630000e-06	-9.991755e-07	-7.520155e-10	-6.933219e+00	-5.589056e+01
1.640000e-06	-9.529958e-07	-7.370019e-10	-6.612781e+00	-5.487243e+01
1.650000e-06	-9.066811e-07	-7.208148e-10	-6.291406e+00	-5.383573e+01
1.660000e-06	-8.602932e-07	-7.054343e-10	-5.969523e+00	-5.277929e+01
1.670000e-06	-8.138510e-07	-6.892494e-10	-5.647264e+00	-5.170190e+01
1.680000e-06	-7.672850e-07	-6.719130e-10	-5.324145e+00	-5.060221e+01
1.690000e-06	-7.207729e-07	-6.541124e-10	-5.001401e+00	-4.947883e+01
1.700000e-06	-6.743005e-07	-6.364331e-10	-4.678931e+00	-4.833026e+01
1.710000e-06	-6.277635e-07	-6.147632e-10	-4.356013e+00	-4.715497e+01
1.720000e-06	-5.811735e-07	-5.905831e-10	-4.032728e+00	-4.595137e+01
1.730000e-06	-5.344682e-07	-5.674667e-10	-3.708643e+00	-4.471787e+01
1.740000e-06	-4.876831e-07	-5.484056e-10	-3.384004e+00	-4.345283e+01
1.750000e-06	-4.408445e-07	-5.308316e-10	-3.058994e+00	-4.215465e+01
1.760000e-06	-3.939666e-07	-5.099001e-10	-2.733711e+00	-4.082175e+01
1.770000e-06	-3.471215e-07	-4.867147e-10	-2.408656e+00	-3.945259e+01
1.780000e-06	-3.002259e-07	-4.636464e-10	-2.083250e+00	-3.804571e+01
1.790000e-06	-2.532591e-07	-4.426989e-10	-1.757350e+00	-3.659974e+01
1.800000e-06	-2.063054e-07	-4.232060e-10	-1.431541e+00	-3.511343e+01
1.810000e-06	-1.593923e-07	-4.027645e-10	-1.106013e+00	-3.358564e+01
1.820000e-06	-1.124964e-07	-3.806761e-10	-7.806058e-01	-3.201540e+01
1.830000e-06	-6.559004e-08	-3.566981e-10	-4.551254e-01	-3.040193e+01
1.840000e-06	-1.865165e-08	-3.320662e-10	-1.294227e-01	-2.874462e+01
1.850000e-06	2.830595e-08	-3.083546e-10	1.964133e-01	-2.704307e+01
1.860000e-06	7.522944e-08	-2.859843e-10	5.220126e-01	-2.529711e+01
1.870000e-06	1.221395e-07	-2.636826e-10	8.475191e-01	-2.350681e+01
1.880000e-06	1.690165e-07	-2.395933e-10	1.172796e+00	-2.167248e+01
1.890000e-06	2.158649e-07	-2.127788e-10	1.497873e+00	-1.979468e+01
1.900000e-06	2.626274e-07	-1.835149e-10	1.822356e+00	-1.787425e+01
1.910000e-06	3.093742e-07	-1.530710e-10	2.146729e+00	-1.591229e+01
1.920000e-06	3.561499e-07	-1.220083e-10	2.471303e+00	-1.391014e+01
1.930000e-06	4.029612e-07	-9.203132e-11	2.796124e+00	-1.186944e+01
1.940000e-06	4.497779e-07	-6.335064e-11	3.120982e+00	-9.792049e+00
1.950000e-06	4.964764e-07	-3.613899e-11	3.445020e+00	-7.680099e+00
1.960000e-06	5.431638e-07	-8.053763e-12	3.768981e+00	-5.535948e+00
1.970000e-06	5.899049e-07	2.124867e-11	4.093315e+00	-3.362178e+00
1.980000e-06	6.365205e-07	5.125181e-11	4.416778e+00	-1.161576e+00
1.990000e-06	6.829947e-07	8.282506e-11	4.739260e+00	1.062885e+00
2.000000e-06	7.294950e-07	1.153157e-10	5.061922e+00	3.308062e+00
2.010000e-06	7.760015e-07	1.474236e-10	5.384628e+00	5.570673e+00
2.020000e-06	8.224431e-07	1.797393e-10	5.706883e+00	7.847315e+00
2.030000e-06	8.687889e-07	2.122688e-10	6.028474e+00	1.013449e+01
2.040000e-06	9.149624e-07	2.441830e-10	6.348870e+00	1.242864e+01
2.050000e-06	9.609528e-07	2.751514e-10	6.667995e+00	1.472615e+01
2.060000e-06	1.006943e-06	3.054210e-10	6.987119e+00	1.702342e+01
2.070000e-06	1.052962e-06	3.360982e-10	7.306440e+00	1.931683e+01
2.080000e-06	1.098909e-06	3.677752e-10	7.625265e+00	2.160283e+01
2.090000e-06	1.144820e-06	3.984788e-10	7.943839e+00	2.387794e+01
2.100000e-06	1.190667e-06	4.320094e-10	8.261970e+00	2.613874e+01
2.110000e-06	1.236470e-06	4.648312e-10	8.579790e+00	2.838195e+01
2.120000e-06	1.282206e-06	4.952691e-10	8.897149e+00	3.060444e+01
2.130000e-06	1.327813e-06	5.269864e-10	9.213613e+00	3.280321e+01
2.140000e-06	1.373326e-06	5.580936e-10	9.529430e+00	3.497547e+01
2.150000e-06	1.418720e-06	5.857046e-10	9.844413e+00	3.711859e+01
2.160000e-06	1.463918e-06	6.097927e-10	1.015804e+01	3.923016e+01
2.170000e-06	1.509005e-06	6.346760e-10	1.047089e+01	4.130801e+01
2.180000e-06	1.554069e-06	6.613752e-10	1.078359e+01	4.335015e+01
2.190000e-06	1.599026e-06	6.900234e-10	1.109555e+01	4.535487e+01
2.200000e-06	1.643824e-06	7.192369e-10	1.140640e+01	4.732066e+01
2.210000e-06	1.688439e-06	7.492835e-10	1.171598e+01	4.924627e+01
2.220000e-06	1.732945e-06	7.785002e-10	1.202480e+01	5.113067e+01
2.230000e-06	1.777406e-06	8.044084e-10	1.233332e+01	5.297305e+01
2.240000e-06	1.821667e-06	8.259575e-10	1.264044e+01	5.477285e+01
2.250000e-06	1.865746e-06	8.442699e-10	1.294630e+01	5.652971e+01
2.260000e-06	1.909820e-06	8.631662e-10	1.325212e+01	5.824346e+01
2.270000e-06	1.953861e-06	8.853059e-10	1.355772e+01	5.991416e+01
2.280000e-06	1.997820e-06	9.083875e-10	1.386276e+01	6.154201e+01
2.290000e-06	2.041735e-06	9.322378e-10	1.416748e+01	6.312739e+01
2.300000e-06	2.085524e-06	9.565149e-10	1.447132e+01	6.467084e+01
2.310000e-06	2.129180e-06	9.804042e-10	1.477425e+01	6.617302e+01
2.320000e-06	2.172815e-06	9.993858e-10	1.507704e+01	6.763470e+01
2.330000e-06	2.216379e-06	1.014545e-09	1.537933e+01	6.905675e+01
2.340000e-06	2.259838e-06	1.030026e-09	1.568088e+01	7.044015e+01
2.350000e-06	2.303169e-06	1.047882e-09	1.598155e+01	7.178591e+01
2.360000e-06	2.346324e-06	1.067930e-09	1.628101e+01	7.309512e+01
2.370000e-06	2.389208e-06	1.088110e-09	1.657857e+01	7.436888e+01
2.380000e-06	2.431765e-06	1.107718e-09	1.687387e+01	7.560833e+01
2.390000e-06	2.474023e-06	1.124781e-09	1.716710e+01	7.681461e+01
2.400000e-06	2.515936e-06	1.139763e-09	1.745793e+01	7.798886e+01
2.410000e-06	2.557562e-06	1.154471e-09	1.774677e+01	7.913221e+01
2.420000e-06	2.598880e-06	1.167650e-09	1.803347e+01	8.024575e+01
2.430000e-06	2.639780e-06	1.179630e-09	1.831728e+01	8.133055e+01
2.440000e-06	2.680392e-06	1.193420e-09	1.859908e+01	8.238764e+01
2.450000e-06	2.720818e-06	1.209987e-09	1.887959e+01	8.341801e+01
2.460000e-06	2.761050e-06	1.228736e-09	1.915876e+01	8.442259e+01
2.470000e-06	2.801093e-06	1.244777e-09	1.943662e+01	8.540227e+01
2.480000e-06	2.841012e-06	1.256752e-09	1.971361e+01	8.635789e+01
2.490000e-06	2.880838e-06	1.267408e-09	1.998996e+01	8.729022e+01
2.500000e-06	2.920532e-06	1.277486e-09	2.026540e+01	8.820000e+01
2.510000e-06	2.960095e-06	1.289297e-09	2.053993e+01	8.908790e+01
2.520000e-06	2.999447e-06	1.303020e-09	2.081299e+01	8.995455e+01
2.530000e-06	3.038606e-06	1.317064e-09	2.108470e+01	9.080053e+01
2.540000e-06	3.077583e-06	1.333335e-09	2.135517e+01	9.162639e+01
2.550000e-06	3.116319e-06	1.347290e-09	2.162395e+01	9.243262e+01
2.560000e-06	3.154851e-06	1.356678e-09	2.189132e+01	9.321969e+01
2.570000e-06	3.193143e-06	1.362871e-09	2.215703e+01	9.398803e+01
2.580000e-06	3.231188e-06	1.369621e-09	2.242102e+01	9.473805e+01
2.590000e-06	3.269042e-06	1.377087e-09	2.268369e+01	9.547013e+01
2.600000e-06	3.306700e-06	1.387343e-09	2.294499e+01	9.618463e+01
2.610000e-06	3.344172e-06	1.403011e-09	2.320501e+01	9.688191e+01
2.620000e-06	3.381429e-06	1.420222e-09	2.346353e+01	9.756229e+01
2.630000e-06	3.418406e-06	1.431490e-09	2.372012e+01	9.822610e+01
2.640000e-06	3.455135e-06	1.437579e-09	2.397498e+01	9.887366e+01
2.650000e-06	3.491572e-06	1.444515e-09	2.422781e+01	9.950527e+01
2.660000e-06	3.527743e-06	1.451961e-09	2.447880e+01	1.001212e+02
2.670000e-06	3.563784e-06	1.458887e-09	2.472888e+01	1.007219e+02
2.680000e-06	3.599729e-06	1.466293e-09	2.497831e+01	1.013074e+02
2.690000e-06	3.635561e-06	1.475693e-09	2.522694e+01	1.018783e+02
2.700000e-06	3.671232e-06	1.485072e-09	2.547446e+01	1.024347e+02
2.710000e-06	3.706731e-06	1.491114e-09	2.572079e+01	1.029769e+02
2.720000e-06	3.741955e-06	1.494652e-09	2.596521e+01	1.035052e+02
2.730000e-06	3.776742e-06	1.498724e-09	2.620659e+01	1.040200e+02
2.740000e-06	3.811116e-06	1.503543e-09	2.644511e+01	1.045214e+02
2.750000e-06	3.845056e-06	1.509668e-09	2.668062e+01	1.050097e+02
2.760000e-06	3.878533e-06	1.517776e-09	2.691291e+01	1.054853e+02
2.770000e-06	3.911550e-06	1.528328e-09	2.714201e+01	1.059483e+02
2.780000e-06	3.944135e-06	1.537651e-09	2.736812e+01	1.063990e+02
2.790000e-06	3.976391e-06	1.544234e-09	2.759194e+01	1.068376e+02
2.800000e-06	4.008433e-06	1.548798e-09	2.781428e+01	1.072644e+02
2.810000e-06	4.040354e-06	1.552287e-09	2.803578e+01	1.076795e+02
2.820000e-06	4.072101e-06	1.556146e-09	2.825607e+01	1.080832e+02
2.830000e-06	4.103662e-06	1.562200e-09	2.847507e+01	1.084756e+02
2.840000e-06	4.135067e-06	1.570527e-09	2.869299e+01	1.088569e+02
2.850000e-06	4.166216e-06	1.580276e-09	2.890913e+01	1.092272e+02
2.860000e-06	4.196920e-06	1.590925e-09	2.912218e+01	1.095868e+02
2.870000e-06	4.227277e-06	1.600586e-09	2.933283e+01	1.099357e+02
2.880000e-06	4.257445e-06	1.606720e-09	2.954216e+01	1.102742e+02
2.890000e-06	4.287331e-06	1.608936e-09	2.974953e+01	1.106023e+02
2.900000e-06	4.316906e-06	1.610482e-09	2.995475e+01	1.109202e+02
