# Temperatura_=_-10.12
# Concentracion g/m^3_=_1620.0
# C_Vs_to_Am_M_A/Vsm_=_65563218390.804596
# pendiente_HvsI_1/m_=_3716.3
# ordenada_HvsI_A/m_=_1297.0
# frecuencia_Hz_=_135109.1768285786

Tiempo_(s)	Campo_(V.s)	Magnetizacion_(V.s)	Campo_(kA/m)	Magnetizacion_(A/m)
0.000000e+00	-5.511539e-06	-1.349463e-09	-3.837041e+01	-8.714419e+01
1.000000e-08	-5.511621e-06	-1.347977e-09	-3.837098e+01	-8.708553e+01
2.000000e-08	-5.511481e-06	-1.348098e-09	-3.837000e+01	-8.702892e+01
3.000000e-08	-5.510975e-06	-1.347288e-09	-3.836648e+01	-8.697431e+01
4.000000e-08	-5.509966e-06	-1.345616e-09	-3.835946e+01	-8.692160e+01
5.000000e-08	-5.508320e-06	-1.341700e-09	-3.834799e+01	-8.687062e+01
6.000000e-08	-5.506024e-06	-1.342902e-09	-3.833201e+01	-8.682119e+01
7.000000e-08	-5.503161e-06	-1.353033e-09	-3.831208e+01	-8.677305e+01
8.000000e-08	-5.499781e-06	-1.333254e-09	-3.828855e+01	-8.672591e+01
9.000000e-08	-5.495960e-06	-1.311717e-09	-3.826194e+01	-8.667946e+01
1.000000e-07	-5.491794e-06	-1.382929e-09	-3.823294e+01	-8.663333e+01
1.100000e-07	-5.487347e-06	-1.418586e-09	-3.820198e+01	-8.658715e+01
1.200000e-07	-5.482671e-06	-1.317000e-09	-3.816943e+01	-8.654055e+01
1.300000e-07	-5.477732e-06	-1.238997e-09	-3.813504e+01	-8.649311e+01
1.400000e-07	-5.472372e-06	-1.311989e-09	-3.809773e+01	-8.644445e+01
1.500000e-07	-5.466593e-06	-1.417965e-09	-3.805750e+01	-8.639418e+01
1.600000e-07	-5.460387e-06	-1.339674e-09	-3.801429e+01	-8.634192e+01
1.700000e-07	-5.453862e-06	-1.243461e-09	-3.796886e+01	-8.628731e+01
1.800000e-07	-5.446942e-06	-1.314576e-09	-3.792069e+01	-8.623002e+01
1.900000e-07	-5.439470e-06	-1.423675e-09	-3.786867e+01	-8.616977e+01
2.000000e-07	-5.431721e-06	-1.376677e-09	-3.781472e+01	-8.610628e+01
2.100000e-07	-5.423894e-06	-1.279698e-09	-3.776023e+01	-8.603933e+01
2.200000e-07	-5.415893e-06	-1.294534e-09	-3.770453e+01	-8.596876e+01
2.300000e-07	-5.407484e-06	-1.365570e-09	-3.764599e+01	-8.589443e+01
2.400000e-07	-5.398472e-06	-1.355934e-09	-3.758325e+01	-8.581625e+01
2.500000e-07	-5.388820e-06	-1.295425e-09	-3.751605e+01	-8.573420e+01
2.600000e-07	-5.378474e-06	-1.296928e-09	-3.744403e+01	-8.564828e+01
2.700000e-07	-5.367478e-06	-1.328704e-09	-3.736748e+01	-8.555855e+01
2.800000e-07	-5.356049e-06	-1.316319e-09	-3.728791e+01	-8.546512e+01
2.900000e-07	-5.344280e-06	-1.284635e-09	-3.720598e+01	-8.536813e+01
3.000000e-07	-5.332180e-06	-1.301923e-09	-3.712174e+01	-8.526776e+01
3.100000e-07	-5.319731e-06	-1.324336e-09	-3.703507e+01	-8.516423e+01
3.200000e-07	-5.306829e-06	-1.308705e-09	-3.694524e+01	-8.505777e+01
3.300000e-07	-5.293466e-06	-1.266087e-09	-3.685222e+01	-8.494865e+01
3.400000e-07	-5.279762e-06	-1.280480e-09	-3.675682e+01	-8.483714e+01
3.500000e-07	-5.265719e-06	-1.320777e-09	-3.665905e+01	-8.472354e+01
3.600000e-07	-5.251220e-06	-1.299228e-09	-3.655811e+01	-8.460812e+01
3.700000e-07	-5.236169e-06	-1.263753e-09	-3.645332e+01	-8.449119e+01
3.800000e-07	-5.220651e-06	-1.312889e-09	-3.634529e+01	-8.437302e+01
3.900000e-07	-5.204613e-06	-1.323581e-09	-3.623364e+01	-8.425388e+01
4.000000e-07	-5.188155e-06	-1.247011e-09	-3.611906e+01	-8.413400e+01
4.100000e-07	-5.171399e-06	-1.261499e-09	-3.600241e+01	-8.401360e+01
4.200000e-07	-5.154243e-06	-1.343824e-09	-3.588297e+01	-8.389289e+01
4.300000e-07	-5.136773e-06	-1.283718e-09	-3.576135e+01	-8.377200e+01
4.400000e-07	-5.119014e-06	-1.221296e-09	-3.563771e+01	-8.365105e+01
4.500000e-07	-5.100914e-06	-1.319470e-09	-3.551170e+01	-8.353014e+01
4.600000e-07	-5.082372e-06	-1.333142e-09	-3.538262e+01	-8.340930e+01
4.700000e-07	-5.063362e-06	-1.217089e-09	-3.525027e+01	-8.328853e+01
4.800000e-07	-5.044055e-06	-1.255797e-09	-3.511586e+01	-8.316779e+01
4.900000e-07	-5.024536e-06	-1.335016e-09	-3.497997e+01	-8.304700e+01
5.000000e-07	-5.004759e-06	-1.242326e-09	-3.484229e+01	-8.292606e+01
5.100000e-07	-4.984717e-06	-1.217971e-09	-3.470276e+01	-8.280480e+01
5.200000e-07	-4.964420e-06	-1.316385e-09	-3.456146e+01	-8.268306e+01
5.300000e-07	-4.943726e-06	-1.267196e-09	-3.441739e+01	-8.256063e+01
5.400000e-07	-4.922532e-06	-1.194720e-09	-3.426984e+01	-8.243728e+01
5.500000e-07	-4.901011e-06	-1.289265e-09	-3.412001e+01	-8.231278e+01
5.600000e-07	-4.879224e-06	-1.300401e-09	-3.396834e+01	-8.218686e+01
5.700000e-07	-4.857133e-06	-1.199185e-09	-3.381454e+01	-8.205928e+01
5.800000e-07	-4.834628e-06	-1.241584e-09	-3.365786e+01	-8.192978e+01
5.900000e-07	-4.811734e-06	-1.302788e-09	-3.349848e+01	-8.179810e+01
6.000000e-07	-4.788626e-06	-1.222254e-09	-3.333761e+01	-8.166400e+01
6.100000e-07	-4.765223e-06	-1.208170e-09	-3.317467e+01	-8.152726e+01
6.200000e-07	-4.741535e-06	-1.269149e-09	-3.300977e+01	-8.138769e+01
6.300000e-07	-4.717687e-06	-1.228276e-09	-3.284374e+01	-8.124510e+01
6.400000e-07	-4.693586e-06	-1.194211e-09	-3.267596e+01	-8.109935e+01
6.500000e-07	-4.669083e-06	-1.250317e-09	-3.250537e+01	-8.095033e+01
6.600000e-07	-4.644184e-06	-1.245172e-09	-3.233203e+01	-8.079796e+01
6.700000e-07	-4.618795e-06	-1.205277e-09	-3.215527e+01	-8.064219e+01
6.800000e-07	-4.592815e-06	-1.231459e-09	-3.197440e+01	-8.048304e+01
6.900000e-07	-4.566318e-06	-1.238584e-09	-3.178993e+01	-8.032052e+01
7.000000e-07	-4.539306e-06	-1.201328e-09	-3.160188e+01	-8.015472e+01
7.100000e-07	-4.511940e-06	-1.210984e-09	-3.141136e+01	-7.998575e+01
7.200000e-07	-4.484368e-06	-1.227095e-09	-3.121942e+01	-7.981374e+01
7.300000e-07	-4.456617e-06	-1.205558e-09	-3.102621e+01	-7.963886e+01
7.400000e-07	-4.428731e-06	-1.204956e-09	-3.083207e+01	-7.946133e+01
7.500000e-07	-4.400610e-06	-1.219142e-09	-3.063631e+01	-7.928136e+01
7.600000e-07	-4.372142e-06	-1.206071e-09	-3.043812e+01	-7.909919e+01
7.700000e-07	-4.343425e-06	-1.196755e-09	-3.023819e+01	-7.891509e+01
7.800000e-07	-4.314392e-06	-1.200429e-09	-3.003607e+01	-7.872931e+01
7.900000e-07	-4.284942e-06	-1.187782e-09	-2.983104e+01	-7.854212e+01
8.000000e-07	-4.255184e-06	-1.179443e-09	-2.962387e+01	-7.835379e+01
8.100000e-07	-4.225164e-06	-1.189574e-09	-2.941488e+01	-7.816459e+01
8.200000e-07	-4.194915e-06	-1.184083e-09	-2.920429e+01	-7.797475e+01
8.300000e-07	-4.164373e-06	-1.168385e-09	-2.899166e+01	-7.778451e+01
8.400000e-07	-4.133543e-06	-1.174729e-09	-2.877703e+01	-7.759409e+01
8.500000e-07	-4.102430e-06	-1.181480e-09	-2.856043e+01	-7.740366e+01
8.600000e-07	-4.071040e-06	-1.170072e-09	-2.834189e+01	-7.721339e+01
8.700000e-07	-4.039484e-06	-1.165226e-09	-2.812220e+01	-7.702341e+01
8.800000e-07	-4.007745e-06	-1.166661e-09	-2.790124e+01	-7.683381e+01
8.900000e-07	-3.975791e-06	-1.153026e-09	-2.767879e+01	-7.664466e+01
9.000000e-07	-3.943693e-06	-1.147847e-09	-2.745533e+01	-7.645597e+01
9.100000e-07	-3.911358e-06	-1.156227e-09	-2.723021e+01	-7.626776e+01
9.200000e-07	-3.878583e-06	-1.151649e-09	-2.700204e+01	-7.607997e+01
9.300000e-07	-3.845367e-06	-1.139531e-09	-2.677079e+01	-7.589255e+01
9.400000e-07	-3.811631e-06	-1.142493e-09	-2.653594e+01	-7.570537e+01
9.500000e-07	-3.777374e-06	-1.142242e-09	-2.629744e+01	-7.551832e+01
9.600000e-07	-3.742707e-06	-1.128630e-09	-2.605609e+01	-7.533125e+01
9.700000e-07	-3.707652e-06	-1.124879e-09	-2.581205e+01	-7.514396e+01
9.800000e-07	-3.672289e-06	-1.129013e-09	-2.556586e+01	-7.495628e+01
9.900000e-07	-3.636763e-06	-1.123373e-09	-2.531853e+01	-7.476800e+01
1.000000e-06	-3.601146e-06	-1.119811e-09	-2.507057e+01	-7.457889e+01
1.010000e-06	-3.565393e-06	-1.122746e-09	-2.482166e+01	-7.438873e+01
1.020000e-06	-3.529486e-06	-1.115984e-09	-2.457169e+01	-7.419730e+01
1.030000e-06	-3.493449e-06	-1.104729e-09	-2.432080e+01	-7.400436e+01
1.040000e-06	-3.457184e-06	-1.103943e-09	-2.406833e+01	-7.380969e+01
1.050000e-06	-3.420624e-06	-1.105695e-09	-2.381381e+01	-7.361308e+01
1.060000e-06	-3.383744e-06	-1.100341e-09	-2.355706e+01	-7.341432e+01
1.070000e-06	-3.346586e-06	-1.098028e-09	-2.329836e+01	-7.321320e+01
1.080000e-06	-3.309233e-06	-1.097518e-09	-2.303832e+01	-7.300955e+01
1.090000e-06	-3.271606e-06	-1.089126e-09	-2.277637e+01	-7.280319e+01
1.100000e-06	-3.233779e-06	-1.079696e-09	-2.251303e+01	-7.259394e+01
1.110000e-06	-3.195862e-06	-1.074657e-09	-2.224905e+01	-7.238168e+01
1.120000e-06	-3.157748e-06	-1.067858e-09	-2.198371e+01	-7.216625e+01
1.130000e-06	-3.119341e-06	-1.058924e-09	-2.171632e+01	-7.194752e+01
1.140000e-06	-3.080703e-06	-1.058045e-09	-2.144734e+01	-7.172537e+01
1.150000e-06	-3.041860e-06	-1.058384e-09	-2.117691e+01	-7.149968e+01
1.160000e-06	-3.002776e-06	-1.054624e-09	-2.090482e+01	-7.127033e+01
1.170000e-06	-2.963537e-06	-1.052944e-09	-2.063164e+01	-7.103720e+01
1.180000e-06	-2.924102e-06	-1.051151e-09	-2.035710e+01	-7.080017e+01
1.190000e-06	-2.884481e-06	-1.045051e-09	-2.008127e+01	-7.055909e+01
1.200000e-06	-2.844767e-06	-1.035303e-09	-1.980479e+01	-7.031383e+01
1.210000e-06	-2.804961e-06	-1.027417e-09	-1.952766e+01	-7.006423e+01
1.220000e-06	-2.765026e-06	-1.018329e-09	-1.924964e+01	-6.981010e+01
1.230000e-06	-2.724940e-06	-1.010961e-09	-1.897057e+01	-6.955125e+01
1.240000e-06	-2.684680e-06	-1.007579e-09	-1.869029e+01	-6.928746e+01
1.250000e-06	-2.644150e-06	-1.007261e-09	-1.840813e+01	-6.901848e+01
1.260000e-06	-2.603381e-06	-1.005701e-09	-1.812430e+01	-6.874405e+01
1.270000e-06	-2.562411e-06	-9.992151e-10	-1.783907e+01	-6.846387e+01
1.280000e-06	-2.521073e-06	-9.900737e-10	-1.755128e+01	-6.817763e+01
1.290000e-06	-2.479380e-06	-9.795460e-10	-1.726103e+01	-6.788499e+01
1.300000e-06	-2.437410e-06	-9.681277e-10	-1.696883e+01	-6.758558e+01
1.310000e-06	-2.395226e-06	-9.597660e-10	-1.667516e+01	-6.727902e+01
1.320000e-06	-2.352768e-06	-9.549689e-10	-1.637957e+01	-6.696493e+01
1.330000e-06	-2.309934e-06	-9.503432e-10	-1.608137e+01	-6.664288e+01
1.340000e-06	-2.266858e-06	-9.463365e-10	-1.578148e+01	-6.631247e+01
1.350000e-06	-2.223598e-06	-9.445262e-10	-1.548031e+01	-6.597328e+01
1.360000e-06	-2.180178e-06	-9.414282e-10	-1.517803e+01	-6.562489e+01
1.370000e-06	-2.136624e-06	-9.333575e-10	-1.487482e+01	-6.526688e+01
1.380000e-06	-2.092982e-06	-9.217908e-10	-1.457099e+01	-6.489886e+01
1.390000e-06	-2.049272e-06	-9.096857e-10	-1.426669e+01	-6.452045e+01
1.400000e-06	-2.005475e-06	-8.983852e-10	-1.396178e+01	-6.413129e+01
1.410000e-06	-1.961612e-06	-8.906055e-10	-1.365641e+01	-6.373105e+01
1.420000e-06	-1.917692e-06	-8.857465e-10	-1.335065e+01	-6.331941e+01
1.430000e-06	-1.873729e-06	-8.795614e-10	-1.304459e+01	-6.289611e+01
1.440000e-06	-1.829666e-06	-8.735295e-10	-1.273782e+01	-6.246092e+01
1.450000e-06	-1.785412e-06	-8.683238e-10	-1.242974e+01	-6.201364e+01
1.460000e-06	-1.741021e-06	-8.601380e-10	-1.212069e+01	-6.155410e+01
1.470000e-06	-1.696546e-06	-8.499993e-10	-1.181107e+01	-6.108218e+01
1.480000e-06	-1.652033e-06	-8.427470e-10	-1.150117e+01	-6.059779e+01
1.490000e-06	-1.607396e-06	-8.354634e-10	-1.119042e+01	-6.010088e+01
1.500000e-06	-1.562554e-06	-8.262717e-10	-1.087823e+01	-5.959141e+01
1.510000e-06	-1.517578e-06	-8.165081e-10	-1.056512e+01	-5.906939e+01
1.520000e-06	-1.472434e-06	-8.083617e-10	-1.025083e+01	-5.853481e+01
1.530000e-06	-1.427126e-06	-7.988364e-10	-9.935413e+00	-5.798772e+01
1.540000e-06	-1.381782e-06	-7.892385e-10	-9.619733e+00	-5.742811e+01
1.550000e-06	-1.336406e-06	-7.792654e-10	-9.303830e+00	-5.685602e+01
1.560000e-06	-1.290927e-06	-7.677788e-10	-8.987215e+00	-5.627143e+01
1.570000e-06	-1.245313e-06	-7.564954e-10	-8.669660e+00	-5.567432e+01
1.580000e-06	-1.199580e-06	-7.472067e-10	-8.351273e+00	-5.506461e+01
1.590000e-06	-1.153830e-06	-7.383007e-10	-8.032766e+00	-5.444220e+01
1.600000e-06	-1.107954e-06	-7.265132e-10	-7.713390e+00	-5.380689e+01
1.610000e-06	-1.061957e-06	-7.139176e-10	-7.393165e+00	-5.315846e+01
1.620000e-06	-1.016001e-06	-7.026986e-10	-7.073227e+00	-5.249658e+01
1.630000e-06	-9.700253e-07	-6.930590e-10	-6.753152e+00	-5.182083e+01
1.640000e-06	-9.239857e-07	-6.833527e-10	-6.432633e+00	-5.113072e+01
1.650000e-06	-8.778454e-07	-6.723461e-10	-6.111412e+00	-5.042565e+01
1.660000e-06	-8.316582e-07	-6.621026e-10	-5.789864e+00	-4.970491e+01
1.670000e-06	-7.854858e-07	-6.522165e-10	-5.468420e+00	-4.896768e+01
1.680000e-06	-7.392643e-07	-6.399718e-10	-5.146634e+00	-4.821306e+01
1.690000e-06	-6.929853e-07	-6.272482e-10	-4.824447e+00	-4.744000e+01
1.700000e-06	-6.466580e-07	-6.104311e-10	-4.501924e+00	-4.664739e+01
1.710000e-06	-6.002268e-07	-5.915324e-10	-4.178677e+00	-4.583399e+01
1.720000e-06	-5.537286e-07	-5.743155e-10	-3.854965e+00	-4.499847e+01
1.730000e-06	-5.072460e-07	-5.609973e-10	-3.531361e+00	-4.413944e+01
1.740000e-06	-4.606836e-07	-5.502447e-10	-3.207201e+00	-4.325541e+01
1.750000e-06	-4.139379e-07	-5.376229e-10	-2.881766e+00	-4.234486e+01
1.760000e-06	-3.671264e-07	-5.219018e-10	-2.555872e+00	-4.140621e+01
1.770000e-06	-3.204047e-07	-5.049037e-10	-2.230603e+00	-4.043785e+01
1.780000e-06	-2.737405e-07	-4.891188e-10	-1.905735e+00	-3.943819e+01
1.790000e-06	-2.270895e-07	-4.753060e-10	-1.580959e+00	-3.840561e+01
1.800000e-06	-1.803947e-07	-4.619499e-10	-1.255877e+00	-3.733858e+01
1.810000e-06	-1.336434e-07	-4.470305e-10	-9.304029e-01	-3.623557e+01
1.820000e-06	-8.689070e-08	-4.306206e-10	-6.049184e-01	-3.509517e+01
1.830000e-06	-4.015718e-08	-4.138045e-10	-2.795675e-01	-3.391604e+01
1.840000e-06	6.527415e-09	-3.963370e-10	4.544276e-02	-3.269698e+01
1.850000e-06	5.321515e-08	-3.791607e-10	3.704749e-01	-3.143692e+01
1.860000e-06	9.989862e-08	-3.633244e-10	6.954773e-01	-3.013497e+01
1.870000e-06	1.465546e-07	-3.469713e-10	1.020289e+00	-2.879041e+01
1.880000e-06	1.932309e-07	-3.295976e-10	1.345241e+00	-2.740273e+01
1.890000e-06	2.399769e-07	-3.100111e-10	1.670678e+00	-2.597162e+01
1.900000e-06	2.867263e-07	-2.878351e-10	1.996140e+00	-2.449702e+01
1.910000e-06	3.333434e-07	-2.650681e-10	2.320680e+00	-2.297910e+01
1.920000e-06	3.798870e-07	-2.416496e-10	2.644709e+00	-2.141829e+01
1.930000e-06	4.263960e-07	-2.182560e-10	2.968497e+00	-1.981528e+01
1.940000e-06	4.728586e-07	-1.972680e-10	3.291962e+00	-1.817101e+01
1.950000e-06	5.193467e-07	-1.770421e-10	3.615604e+00	-1.648669e+01
1.960000e-06	5.657948e-07	-1.563113e-10	3.938968e+00	-1.476378e+01
1.970000e-06	6.121363e-07	-1.341922e-10	4.261590e+00	-1.300402e+01
1.980000e-06	6.584308e-07	-1.093977e-10	4.583884e+00	-1.120936e+01
1.990000e-06	7.047006e-07	-8.184753e-11	4.906006e+00	-9.382008e+00
2.000000e-06	7.509137e-07	-5.342462e-11	5.227734e+00	-7.524393e+00
2.010000e-06	7.969923e-07	-2.638116e-11	5.548526e+00	-5.639138e+00
2.020000e-06	8.430542e-07	3.732676e-13	5.869201e+00	-3.729058e+00
2.030000e-06	8.891653e-07	2.802713e-11	6.190219e+00	-1.797129e+00
2.040000e-06	9.351972e-07	5.490752e-11	6.510685e+00	1.535301e-01
2.050000e-06	9.811503e-07	8.090598e-11	6.830603e+00	2.119684e+00
2.060000e-06	1.027097e-06	1.062196e-10	7.150474e+00	4.098006e+00
2.070000e-06	1.072997e-06	1.311230e-10	7.470026e+00	6.085106e+00
2.080000e-06	1.118761e-06	1.574543e-10	7.788628e+00	8.077554e+00
2.090000e-06	1.164489e-06	1.862239e-10	8.106977e+00	1.007191e+01
2.100000e-06	1.210186e-06	2.151722e-10	8.425114e+00	1.206475e+01
2.110000e-06	1.255764e-06	2.443164e-10	8.742414e+00	1.405271e+01
2.120000e-06	1.301178e-06	2.734525e-10	9.058584e+00	1.603245e+01
2.130000e-06	1.346476e-06	3.004412e-10	9.373941e+00	1.800078e+01
2.140000e-06	1.391681e-06	3.224618e-10	9.688648e+00	1.995457e+01
2.150000e-06	1.436818e-06	3.417497e-10	1.000288e+01	2.189088e+01
2.160000e-06	1.481880e-06	3.616830e-10	1.031660e+01	2.380689e+01
2.170000e-06	1.526817e-06	3.860933e-10	1.062944e+01	2.569997e+01
2.180000e-06	1.571604e-06	4.160698e-10	1.094124e+01	2.756766e+01
2.190000e-06	1.616238e-06	4.479005e-10	1.125198e+01	2.940772e+01
2.200000e-06	1.660811e-06	4.785958e-10	1.156228e+01	3.121810e+01
2.210000e-06	1.705260e-06	5.056918e-10	1.187174e+01	3.299698e+01
2.220000e-06	1.749537e-06	5.277905e-10	1.217998e+01	3.474276e+01
2.230000e-06	1.793718e-06	5.449473e-10	1.248757e+01	3.645404e+01
2.240000e-06	1.837820e-06	5.596998e-10	1.279459e+01	3.812968e+01
2.250000e-06	1.881803e-06	5.760809e-10	1.310079e+01	3.976871e+01
2.260000e-06	1.925712e-06	5.962673e-10	1.340648e+01	4.137041e+01
2.270000e-06	1.969572e-06	6.209939e-10	1.371183e+01	4.293424e+01
2.280000e-06	2.013406e-06	6.488010e-10	1.401700e+01	4.445986e+01
2.290000e-06	2.057210e-06	6.738950e-10	1.432195e+01	4.594712e+01
2.300000e-06	2.100938e-06	6.953480e-10	1.462637e+01	4.739602e+01
2.310000e-06	2.144582e-06	7.110556e-10	1.493022e+01	4.880673e+01
2.320000e-06	2.188167e-06	7.216774e-10	1.523365e+01	5.017957e+01
2.330000e-06	2.231644e-06	7.327036e-10	1.553633e+01	5.151497e+01
2.340000e-06	2.274876e-06	7.475571e-10	1.583730e+01	5.281346e+01
2.350000e-06	2.317853e-06	7.662869e-10	1.613650e+01	5.407569e+01
2.360000e-06	2.360553e-06	7.884358e-10	1.643377e+01	5.530236e+01
2.370000e-06	2.402925e-06	8.126069e-10	1.672876e+01	5.649426e+01
2.380000e-06	2.445000e-06	8.331695e-10	1.702167e+01	5.765221e+01
2.390000e-06	2.486780e-06	8.468935e-10	1.731254e+01	5.877705e+01
2.400000e-06	2.528250e-06	8.564956e-10	1.760125e+01	5.986966e+01
2.410000e-06	2.569408e-06	8.637807e-10	1.788779e+01	6.093093e+01
2.420000e-06	2.610204e-06	8.739465e-10	1.817180e+01	6.196173e+01
2.430000e-06	2.650732e-06	8.898163e-10	1.845395e+01	6.296294e+01
2.440000e-06	2.691126e-06	9.091000e-10	1.873516e+01	6.393539e+01
2.450000e-06	2.731389e-06	9.301953e-10	1.901547e+01	6.487990e+01
2.460000e-06	2.771528e-06	9.486820e-10	1.929491e+01	6.579725e+01
2.470000e-06	2.811485e-06	9.597563e-10	1.957308e+01	6.668820e+01
2.480000e-06	2.851262e-06	9.653583e-10	1.985001e+01	6.755345e+01
2.490000e-06	2.890939e-06	9.704516e-10	2.012623e+01	6.839366e+01
2.500000e-06	2.930477e-06	9.777954e-10	2.040149e+01	6.920946e+01
2.510000e-06	2.969864e-06	9.903285e-10	2.067569e+01	7.000143e+01
2.520000e-06	3.009131e-06	1.006545e-09	2.094906e+01	7.077012e+01
2.530000e-06	3.048185e-06	1.025057e-09	2.122095e+01	7.151603e+01
2.540000e-06	3.086950e-06	1.043132e-09	2.149082e+01	7.223963e+01
2.550000e-06	3.125431e-06	1.055491e-09	2.175872e+01	7.294137e+01
2.560000e-06	3.163676e-06	1.059949e-09	2.202498e+01	7.362166e+01
2.570000e-06	3.201723e-06	1.059635e-09	2.228985e+01	7.428090e+01
2.580000e-06	3.239600e-06	1.060751e-09	2.255355e+01	7.491946e+01
2.590000e-06	3.277274e-06	1.068301e-09	2.281583e+01	7.553771e+01
2.600000e-06	3.314739e-06	1.084529e-09	2.307666e+01	7.613600e+01
2.610000e-06	3.351993e-06	1.104601e-09	2.333601e+01	7.671467e+01
2.620000e-06	3.389044e-06	1.120887e-09	2.359395e+01	7.727407e+01
2.630000e-06	3.425901e-06	1.127768e-09	2.385054e+01	7.781455e+01
2.640000e-06	3.462463e-06	1.127678e-09	2.410508e+01	7.833643e+01
2.650000e-06	3.498682e-06	1.126716e-09	2.435723e+01	7.884008e+01
2.660000e-06	3.534661e-06	1.128150e-09	2.460771e+01	7.932585e+01
2.670000e-06	3.570500e-06	1.132605e-09	2.485722e+01	7.979410e+01
2.680000e-06	3.606215e-06	1.142159e-09	2.510586e+01	8.024520e+01
2.690000e-06	3.641811e-06	1.156347e-09	2.535367e+01	8.067951e+01
2.700000e-06	3.677241e-06	1.167833e-09	2.560033e+01	8.109742e+01
2.710000e-06	3.712500e-06	1.172707e-09	2.584580e+01	8.149930e+01
2.720000e-06	3.747426e-06	1.170974e-09	2.608894e+01	8.188554e+01
2.730000e-06	3.781828e-06	1.167019e-09	2.632845e+01	8.225652e+01
2.740000e-06	3.815734e-06	1.165538e-09	2.656450e+01	8.261262e+01
2.750000e-06	3.849203e-06	1.169265e-09	2.679750e+01	8.295421e+01
2.760000e-06	3.882280e-06	1.178889e-09	2.702778e+01	8.328167e+01
2.770000e-06	3.914918e-06	1.192338e-09	2.725500e+01	8.359536e+01
2.780000e-06	3.947162e-06	1.205870e-09	2.747948e+01	8.389563e+01
2.790000e-06	3.979220e-06	1.214336e-09	2.770265e+01	8.418283e+01
2.800000e-06	4.011118e-06	1.216648e-09	2.792473e+01	8.445727e+01
2.810000e-06	4.042877e-06	1.215407e-09	2.814583e+01	8.471928e+01
2.820000e-06	4.074516e-06	1.212911e-09	2.836609e+01	8.496916e+01
2.830000e-06	4.105892e-06	1.213138e-09	2.858453e+01	8.520718e+01
2.840000e-06	4.137032e-06	1.218663e-09	2.880132e+01	8.543363e+01
2.850000e-06	4.167893e-06	1.228383e-09	2.901617e+01	8.564876e+01
2.860000e-06	4.198354e-06	1.240693e-09	2.922823e+01	8.585282e+01
2.870000e-06	4.228437e-06	1.252329e-09	2.943767e+01	8.604604e+01
2.880000e-06	4.258232e-06	1.256693e-09	2.964509e+01	8.622866e+01
2.890000e-06	4.287795e-06	1.253478e-09	2.985090e+01	8.640089e+01
2.900000e-06	4.317107e-06	1.248353e-09	3.005497e+01	8.656296e+01
