# Temperatura_=_7.0
# Concentracion g/m^3_=_1620.0
# C_Vs_to_Am_M_A/Vsm_=_65563218390.804596
# pendiente_HvsI_1/m_=_3716.3
# ordenada_HvsI_A/m_=_1297.0
# frecuencia_Hz_=_135108.98411999873

Tiempo_(s)	Campo_(V.s)	Magnetizacion_(V.s)	Campo_(kA/m)	Magnetizacion_(A/m)
0.000000e+00	-5.529448e-06	-1.551873e-09	-3.836387e+01	-1.021465e+02
1.000000e-08	-5.529492e-06	-1.555896e-09	-3.836418e+01	-1.020876e+02
2.000000e-08	-5.529214e-06	-1.562219e-09	-3.836225e+01	-1.020269e+02
3.000000e-08	-5.528620e-06	-1.566043e-09	-3.835813e+01	-1.019649e+02
4.000000e-08	-5.527592e-06	-1.561683e-09	-3.835100e+01	-1.019022e+02
5.000000e-08	-5.525945e-06	-1.545870e-09	-3.833957e+01	-1.018394e+02
6.000000e-08	-5.523529e-06	-1.521198e-09	-3.832281e+01	-1.017771e+02
7.000000e-08	-5.520449e-06	-1.525534e-09	-3.830144e+01	-1.017158e+02
8.000000e-08	-5.516959e-06	-1.591880e-09	-3.827723e+01	-1.016559e+02
9.000000e-08	-5.513110e-06	-1.632330e-09	-3.825052e+01	-1.015980e+02
1.000000e-07	-5.508896e-06	-1.572705e-09	-3.822128e+01	-1.015424e+02
1.100000e-07	-5.504437e-06	-1.513528e-09	-3.819035e+01	-1.014893e+02
1.200000e-07	-5.499775e-06	-1.518244e-09	-3.815800e+01	-1.014391e+02
1.300000e-07	-5.494760e-06	-1.550176e-09	-3.812320e+01	-1.013917e+02
1.400000e-07	-5.489351e-06	-1.549768e-09	-3.808567e+01	-1.013474e+02
1.500000e-07	-5.483580e-06	-1.517881e-09	-3.804564e+01	-1.013059e+02
1.600000e-07	-5.477462e-06	-1.555159e-09	-3.800319e+01	-1.012671e+02
1.700000e-07	-5.470867e-06	-1.549677e-09	-3.795743e+01	-1.012307e+02
1.800000e-07	-5.463820e-06	-1.550056e-09	-3.790854e+01	-1.011964e+02
1.900000e-07	-5.456453e-06	-1.521882e-09	-3.785742e+01	-1.011637e+02
2.000000e-07	-5.448849e-06	-1.543113e-09	-3.780467e+01	-1.011320e+02
2.100000e-07	-5.440988e-06	-1.547686e-09	-3.775013e+01	-1.011007e+02
2.200000e-07	-5.432834e-06	-1.568595e-09	-3.769356e+01	-1.010691e+02
2.300000e-07	-5.424423e-06	-1.573155e-09	-3.763520e+01	-1.010365e+02
2.400000e-07	-5.415528e-06	-1.573551e-09	-3.757349e+01	-1.010020e+02
2.500000e-07	-5.405889e-06	-1.563018e-09	-3.750661e+01	-1.009650e+02
2.600000e-07	-5.395500e-06	-1.558797e-09	-3.743453e+01	-1.009245e+02
2.700000e-07	-5.384558e-06	-1.571185e-09	-3.735861e+01	-1.008798e+02
2.800000e-07	-5.373221e-06	-1.570303e-09	-3.727995e+01	-1.008300e+02
2.900000e-07	-5.361516e-06	-1.577451e-09	-3.719875e+01	-1.007745e+02
3.000000e-07	-5.349424e-06	-1.558064e-09	-3.711485e+01	-1.007125e+02
3.100000e-07	-5.336915e-06	-1.557503e-09	-3.702806e+01	-1.006435e+02
3.200000e-07	-5.323933e-06	-1.543857e-09	-3.693799e+01	-1.005668e+02
3.300000e-07	-5.310576e-06	-1.560598e-09	-3.684532e+01	-1.004820e+02
3.400000e-07	-5.296849e-06	-1.534364e-09	-3.675008e+01	-1.003888e+02
3.500000e-07	-5.282693e-06	-1.543027e-09	-3.665187e+01	-1.002869e+02
3.600000e-07	-5.268105e-06	-1.556066e-09	-3.655065e+01	-1.001762e+02
3.700000e-07	-5.252912e-06	-1.561886e-09	-3.644524e+01	-1.000565e+02
3.800000e-07	-5.237128e-06	-1.519679e-09	-3.633573e+01	-9.992808e+01
3.900000e-07	-5.220906e-06	-1.541229e-09	-3.622317e+01	-9.979097e+01
4.000000e-07	-5.204337e-06	-1.551068e-09	-3.610822e+01	-9.964548e+01
4.100000e-07	-5.187478e-06	-1.515723e-09	-3.599125e+01	-9.949199e+01
4.200000e-07	-5.170278e-06	-1.500647e-09	-3.587192e+01	-9.933095e+01
4.300000e-07	-5.152805e-06	-1.553524e-09	-3.575069e+01	-9.916286e+01
4.400000e-07	-5.134971e-06	-1.538993e-09	-3.562696e+01	-9.898833e+01
4.500000e-07	-5.116647e-06	-1.502125e-09	-3.549982e+01	-9.880799e+01
4.600000e-07	-5.097856e-06	-1.530108e-09	-3.536944e+01	-9.862249e+01
4.700000e-07	-5.078634e-06	-1.539959e-09	-3.523608e+01	-9.843252e+01
4.800000e-07	-5.059113e-06	-1.493318e-09	-3.510064e+01	-9.823878e+01
4.900000e-07	-5.039452e-06	-1.506449e-09	-3.496423e+01	-9.804193e+01
5.000000e-07	-5.019675e-06	-1.529263e-09	-3.482702e+01	-9.784264e+01
5.100000e-07	-4.999615e-06	-1.476623e-09	-3.468784e+01	-9.764151e+01
5.200000e-07	-4.979148e-06	-1.472291e-09	-3.454584e+01	-9.743911e+01
5.300000e-07	-4.958337e-06	-1.523624e-09	-3.440145e+01	-9.723595e+01
5.400000e-07	-4.937216e-06	-1.502318e-09	-3.425491e+01	-9.703246e+01
5.500000e-07	-4.915731e-06	-1.464752e-09	-3.410584e+01	-9.682899e+01
5.600000e-07	-4.893899e-06	-1.504554e-09	-3.395437e+01	-9.662581e+01
5.700000e-07	-4.871720e-06	-1.495851e-09	-3.380049e+01	-9.642313e+01
5.800000e-07	-4.849259e-06	-1.451956e-09	-3.364465e+01	-9.622104e+01
5.900000e-07	-4.826473e-06	-1.470232e-09	-3.348656e+01	-9.601956e+01
6.000000e-07	-4.803288e-06	-1.487042e-09	-3.332570e+01	-9.581862e+01
6.100000e-07	-4.779851e-06	-1.440795e-09	-3.316309e+01	-9.561807e+01
6.200000e-07	-4.756222e-06	-1.449299e-09	-3.299915e+01	-9.541771e+01
6.300000e-07	-4.732381e-06	-1.473269e-09	-3.283374e+01	-9.521724e+01
6.400000e-07	-4.708224e-06	-1.450196e-09	-3.266614e+01	-9.501635e+01
6.500000e-07	-4.683651e-06	-1.438321e-09	-3.249565e+01	-9.481465e+01
6.600000e-07	-4.658601e-06	-1.463516e-09	-3.232185e+01	-9.461172e+01
6.700000e-07	-4.633038e-06	-1.440265e-09	-3.214449e+01	-9.440715e+01
6.800000e-07	-4.606993e-06	-1.425632e-09	-3.196379e+01	-9.420049e+01
6.900000e-07	-4.580389e-06	-1.442743e-09	-3.177921e+01	-9.399130e+01
7.000000e-07	-4.553280e-06	-1.437154e-09	-3.159112e+01	-9.377916e+01
7.100000e-07	-4.525839e-06	-1.413488e-09	-3.140073e+01	-9.356367e+01
7.200000e-07	-4.498174e-06	-1.426627e-09	-3.120879e+01	-9.334446e+01
7.300000e-07	-4.470346e-06	-1.424451e-09	-3.101572e+01	-9.312121e+01
7.400000e-07	-4.442342e-06	-1.401526e-09	-3.082142e+01	-9.289365e+01
7.500000e-07	-4.414101e-06	-1.402023e-09	-3.062548e+01	-9.266155e+01
7.600000e-07	-4.385639e-06	-1.409109e-09	-3.042801e+01	-9.242476e+01
7.700000e-07	-4.356796e-06	-1.392566e-09	-3.022789e+01	-9.218317e+01
7.800000e-07	-4.327544e-06	-1.390595e-09	-3.002494e+01	-9.193674e+01
7.900000e-07	-4.298051e-06	-1.400706e-09	-2.982032e+01	-9.168550e+01
8.000000e-07	-4.268252e-06	-1.386532e-09	-2.961357e+01	-9.142953e+01
8.100000e-07	-4.238171e-06	-1.371841e-09	-2.940486e+01	-9.116896e+01
8.200000e-07	-4.207836e-06	-1.377046e-09	-2.919440e+01	-9.090397e+01
8.300000e-07	-4.177210e-06	-1.373625e-09	-2.898191e+01	-9.063478e+01
8.400000e-07	-4.146226e-06	-1.360589e-09	-2.876694e+01	-9.036166e+01
8.500000e-07	-4.114915e-06	-1.367963e-09	-2.854970e+01	-9.008490e+01
8.600000e-07	-4.083428e-06	-1.369705e-09	-2.833124e+01	-8.980478e+01
8.700000e-07	-4.051794e-06	-1.356538e-09	-2.811176e+01	-8.952163e+01
8.800000e-07	-4.020019e-06	-1.349374e-09	-2.789130e+01	-8.923575e+01
8.900000e-07	-3.988064e-06	-1.351471e-09	-2.766959e+01	-8.894745e+01
9.000000e-07	-3.955851e-06	-1.335979e-09	-2.744610e+01	-8.865701e+01
9.100000e-07	-3.923370e-06	-1.326779e-09	-2.722074e+01	-8.836469e+01
9.200000e-07	-3.890498e-06	-1.329911e-09	-2.699267e+01	-8.807074e+01
9.300000e-07	-3.857115e-06	-1.328919e-09	-2.676106e+01	-8.777533e+01
9.400000e-07	-3.823231e-06	-1.318033e-09	-2.652597e+01	-8.747864e+01
9.500000e-07	-3.788906e-06	-1.319618e-09	-2.628781e+01	-8.718076e+01
9.600000e-07	-3.754117e-06	-1.315310e-09	-2.604645e+01	-8.688177e+01
9.700000e-07	-3.718898e-06	-1.302823e-09	-2.580210e+01	-8.658170e+01
9.800000e-07	-3.683444e-06	-1.295847e-09	-2.555611e+01	-8.628051e+01
9.900000e-07	-3.647834e-06	-1.295350e-09	-2.530904e+01	-8.597815e+01
1.000000e-06	-3.612078e-06	-1.283803e-09	-2.506097e+01	-8.567452e+01
1.010000e-06	-3.576188e-06	-1.276363e-09	-2.481196e+01	-8.536946e+01
1.020000e-06	-3.540177e-06	-1.276935e-09	-2.456211e+01	-8.506282e+01
1.030000e-06	-3.504049e-06	-1.274254e-09	-2.431145e+01	-8.475439e+01
1.040000e-06	-3.467635e-06	-1.270022e-09	-2.405880e+01	-8.444396e+01
1.050000e-06	-3.430861e-06	-1.270115e-09	-2.380366e+01	-8.413130e+01
1.060000e-06	-3.393839e-06	-1.262105e-09	-2.354680e+01	-8.381617e+01
1.070000e-06	-3.356601e-06	-1.246419e-09	-2.328844e+01	-8.349833e+01
1.080000e-06	-3.319127e-06	-1.237553e-09	-2.302844e+01	-8.317753e+01
1.090000e-06	-3.281398e-06	-1.232204e-09	-2.276667e+01	-8.285353e+01
1.100000e-06	-3.243460e-06	-1.224531e-09	-2.250346e+01	-8.252613e+01
1.110000e-06	-3.205338e-06	-1.219392e-09	-2.223896e+01	-8.219510e+01
1.120000e-06	-3.166995e-06	-1.217150e-09	-2.197294e+01	-8.186024e+01
1.130000e-06	-3.128406e-06	-1.209465e-09	-2.170520e+01	-8.152138e+01
1.140000e-06	-3.089599e-06	-1.203986e-09	-2.143595e+01	-8.117834e+01
1.150000e-06	-3.050579e-06	-1.200854e-09	-2.116523e+01	-8.083097e+01
1.160000e-06	-3.011321e-06	-1.194650e-09	-2.089286e+01	-8.047912e+01
1.170000e-06	-2.971883e-06	-1.185070e-09	-2.061923e+01	-8.012267e+01
1.180000e-06	-2.932307e-06	-1.180282e-09	-2.034464e+01	-7.976146e+01
1.190000e-06	-2.892608e-06	-1.173342e-09	-2.006921e+01	-7.939538e+01
1.200000e-06	-2.852785e-06	-1.162991e-09	-1.979292e+01	-7.902427e+01
1.210000e-06	-2.812894e-06	-1.153590e-09	-1.951614e+01	-7.864799e+01
1.220000e-06	-2.772884e-06	-1.147235e-09	-1.923855e+01	-7.826635e+01
1.230000e-06	-2.732694e-06	-1.137319e-09	-1.895971e+01	-7.787917e+01
1.240000e-06	-2.692340e-06	-1.127972e-09	-1.867973e+01	-7.748621e+01
1.250000e-06	-2.651791e-06	-1.119982e-09	-1.839840e+01	-7.708721e+01
1.260000e-06	-2.610969e-06	-1.114329e-09	-1.811517e+01	-7.668189e+01
1.270000e-06	-2.569794e-06	-1.106810e-09	-1.782950e+01	-7.626990e+01
1.280000e-06	-2.528338e-06	-1.098909e-09	-1.754186e+01	-7.585088e+01
1.290000e-06	-2.486532e-06	-1.090975e-09	-1.725182e+01	-7.542440e+01
1.300000e-06	-2.444312e-06	-1.081137e-09	-1.695889e+01	-7.499000e+01
1.310000e-06	-2.401795e-06	-1.069576e-09	-1.666390e+01	-7.454720e+01
1.320000e-06	-2.359012e-06	-1.059343e-09	-1.636707e+01	-7.409546e+01
1.330000e-06	-2.316009e-06	-1.050536e-09	-1.606870e+01	-7.363423e+01
1.340000e-06	-2.272807e-06	-1.043424e-09	-1.576897e+01	-7.316292e+01
1.350000e-06	-2.229389e-06	-1.038813e-09	-1.546773e+01	-7.268095e+01
1.360000e-06	-2.185841e-06	-1.035777e-09	-1.516559e+01	-7.218771e+01
1.370000e-06	-2.142219e-06	-1.030231e-09	-1.486293e+01	-7.168261e+01
1.380000e-06	-2.098519e-06	-1.021834e-09	-1.455974e+01	-7.116508e+01
1.390000e-06	-2.054779e-06	-1.009840e-09	-1.425627e+01	-7.063455e+01
1.400000e-06	-2.010950e-06	-9.951607e-10	-1.395218e+01	-7.009050e+01
1.410000e-06	-1.966978e-06	-9.813626e-10	-1.364709e+01	-6.953246e+01
1.420000e-06	-1.922931e-06	-9.700665e-10	-1.334149e+01	-6.896000e+01
1.430000e-06	-1.878840e-06	-9.607331e-10	-1.303558e+01	-6.837276e+01
1.440000e-06	-1.834649e-06	-9.531635e-10	-1.272898e+01	-6.777043e+01
1.450000e-06	-1.790324e-06	-9.468555e-10	-1.242145e+01	-6.715281e+01
1.460000e-06	-1.745887e-06	-9.385020e-10	-1.211314e+01	-6.651973e+01
1.470000e-06	-1.701313e-06	-9.303966e-10	-1.180388e+01	-6.587114e+01
1.480000e-06	-1.656599e-06	-9.216875e-10	-1.149365e+01	-6.520704e+01
1.490000e-06	-1.611696e-06	-9.104514e-10	-1.118211e+01	-6.452751e+01
1.500000e-06	-1.566617e-06	-8.932646e-10	-1.086935e+01	-6.383270e+01
1.510000e-06	-1.521453e-06	-8.761817e-10	-1.055600e+01	-6.312283e+01
1.520000e-06	-1.476210e-06	-8.623906e-10	-1.024210e+01	-6.239816e+01
1.530000e-06	-1.430833e-06	-8.507550e-10	-9.927267e+00	-6.165898e+01
1.540000e-06	-1.385299e-06	-8.402504e-10	-9.611346e+00	-6.090562e+01
1.550000e-06	-1.339679e-06	-8.312135e-10	-9.294828e+00	-6.013840e+01
1.560000e-06	-1.294001e-06	-8.197224e-10	-8.977910e+00	-5.935765e+01
1.570000e-06	-1.248312e-06	-8.068703e-10	-8.660914e+00	-5.856366e+01
1.580000e-06	-1.202552e-06	-7.921008e-10	-8.343431e+00	-5.775667e+01
1.590000e-06	-1.156671e-06	-7.753362e-10	-8.025102e+00	-5.693685e+01
1.600000e-06	-1.110671e-06	-7.570924e-10	-7.705952e+00	-5.610430e+01
1.610000e-06	-1.064551e-06	-7.411525e-10	-7.385966e+00	-5.525900e+01
1.620000e-06	-1.018362e-06	-7.302616e-10	-7.065496e+00	-5.440081e+01
1.630000e-06	-9.721672e-07	-7.207246e-10	-6.744995e+00	-5.352945e+01
1.640000e-06	-9.259436e-07	-7.093600e-10	-6.424291e+00	-5.264450e+01
1.650000e-06	-8.795876e-07	-6.968905e-10	-6.102668e+00	-5.174535e+01
1.660000e-06	-8.331622e-07	-6.844003e-10	-5.780564e+00	-5.083126e+01
1.670000e-06	-7.866991e-07	-6.703652e-10	-5.458198e+00	-4.990127e+01
1.680000e-06	-7.402336e-07	-6.546969e-10	-5.135816e+00	-4.895428e+01
1.690000e-06	-6.938105e-07	-6.377256e-10	-4.813728e+00	-4.798900e+01
1.700000e-06	-6.473375e-07	-6.193411e-10	-4.491293e+00	-4.700396e+01
1.710000e-06	-6.007418e-07	-6.000896e-10	-4.168008e+00	-4.599756e+01
1.720000e-06	-5.540360e-07	-5.820462e-10	-3.843958e+00	-4.496802e+01
1.730000e-06	-5.072659e-07	-5.659461e-10	-3.519462e+00	-4.391348e+01
1.740000e-06	-4.604684e-07	-5.531012e-10	-3.194777e+00	-4.283194e+01
1.750000e-06	-4.136622e-07	-5.395456e-10	-2.870031e+00	-4.172135e+01
1.760000e-06	-3.668442e-07	-5.222381e-10	-2.545203e+00	-4.057958e+01
1.770000e-06	-3.200064e-07	-5.015614e-10	-2.220237e+00	-3.940450e+01
1.780000e-06	-2.731140e-07	-4.808023e-10	-1.894892e+00	-3.819400e+01
1.790000e-06	-2.261681e-07	-4.614052e-10	-1.569178e+00	-3.694602e+01
1.800000e-06	-1.792654e-07	-4.422594e-10	-1.243762e+00	-3.565855e+01
1.810000e-06	-1.323632e-07	-4.232808e-10	-9.183493e-01	-3.432975e+01
1.820000e-06	-8.539048e-08	-4.055600e-10	-5.924478e-01	-3.295790e+01
1.830000e-06	-3.837142e-08	-3.872391e-10	-2.662249e-01	-3.154147e+01
1.840000e-06	8.638777e-09	-3.674368e-10	5.993672e-02	-3.007918e+01
1.850000e-06	5.551501e-08	-3.472350e-10	3.851688e-01	-2.856998e+01
1.860000e-06	1.023822e-07	-3.267233e-10	7.103381e-01	-2.701309e+01
1.870000e-06	1.492802e-07	-3.054270e-10	1.035721e+00	-2.540808e+01
1.880000e-06	1.961272e-07	-2.832786e-10	1.360750e+00	-2.375479e+01
1.890000e-06	2.429708e-07	-2.584926e-10	1.685756e+00	-2.205344e+01
1.900000e-06	2.897913e-07	-2.312424e-10	2.010602e+00	-2.030459e+01
1.910000e-06	3.366380e-07	-2.027852e-10	2.335629e+00	-1.850915e+01
1.920000e-06	3.834782e-07	-1.745377e-10	2.660611e+00	-1.666840e+01
1.930000e-06	4.302913e-07	-1.481560e-10	2.985405e+00	-1.478398e+01
1.940000e-06	4.771075e-07	-1.238556e-10	3.310220e+00	-1.285787e+01
1.950000e-06	5.238136e-07	-9.983601e-11	3.634272e+00	-1.089238e+01
1.960000e-06	5.704191e-07	-7.429222e-11	3.957626e+00	-8.890144e+00
1.970000e-06	6.169943e-07	-4.824617e-11	4.280769e+00	-6.854087e+00
1.980000e-06	6.635299e-07	-2.110900e-11	4.603638e+00	-4.787391e+00
1.990000e-06	7.100119e-07	9.120937e-12	4.926135e+00	-2.693476e+00
2.000000e-06	7.564246e-07	4.004553e-11	5.248151e+00	-5.759573e-01
2.010000e-06	8.027841e-07	7.119581e-11	5.569798e+00	1.561384e+00
2.020000e-06	8.491253e-07	1.033609e-10	5.891318e+00	3.714646e+00
2.030000e-06	8.953257e-07	1.334503e-10	6.211861e+00	5.879842e+00
2.040000e-06	9.414394e-07	1.625031e-10	6.531803e+00	8.052939e+00
2.050000e-06	9.875395e-07	1.884038e-10	6.851650e+00	1.022990e+01
2.060000e-06	1.033580e-06	2.120723e-10	7.171081e+00	1.240674e+01
2.070000e-06	1.079600e-06	2.398203e-10	7.490377e+00	1.457951e+01
2.080000e-06	1.125507e-06	2.732514e-10	7.808883e+00	1.674442e+01
2.090000e-06	1.171243e-06	3.090666e-10	8.126201e+00	1.889778e+01
2.100000e-06	1.216832e-06	3.447888e-10	8.442507e+00	2.103610e+01
2.110000e-06	1.262402e-06	3.787605e-10	8.758673e+00	2.315607e+01
2.120000e-06	1.307965e-06	4.061911e-10	9.074796e+00	2.525461e+01
2.130000e-06	1.353480e-06	4.280674e-10	9.390580e+00	2.732889e+01
2.140000e-06	1.398923e-06	4.484770e-10	9.705869e+00	2.937632e+01
2.150000e-06	1.444247e-06	4.716971e-10	1.002033e+01	3.139459e+01
2.160000e-06	1.489517e-06	4.983568e-10	1.033442e+01	3.338165e+01
2.170000e-06	1.534731e-06	5.277185e-10	1.064812e+01	3.533571e+01
2.180000e-06	1.579813e-06	5.582552e-10	1.096091e+01	3.725528e+01
2.190000e-06	1.624735e-06	5.878711e-10	1.127257e+01	3.913911e+01
2.200000e-06	1.669474e-06	6.157656e-10	1.158298e+01	4.098619e+01
2.210000e-06	1.713970e-06	6.400873e-10	1.189170e+01	4.279578e+01
2.220000e-06	1.758300e-06	6.623950e-10	1.219927e+01	4.456735e+01
2.230000e-06	1.802636e-06	6.843420e-10	1.250687e+01	4.630055e+01
2.240000e-06	1.846859e-06	7.040607e-10	1.281370e+01	4.799525e+01
2.250000e-06	1.890919e-06	7.209582e-10	1.311939e+01	4.965145e+01
2.260000e-06	1.934921e-06	7.405531e-10	1.342468e+01	5.126932e+01
2.270000e-06	1.978866e-06	7.648149e-10	1.372958e+01	5.284912e+01
2.280000e-06	2.022754e-06	7.898107e-10	1.403407e+01	5.439123e+01
2.290000e-06	2.066558e-06	8.122454e-10	1.433799e+01	5.589608e+01
2.300000e-06	2.110303e-06	8.336134e-10	1.464150e+01	5.736417e+01
2.310000e-06	2.154006e-06	8.525603e-10	1.494471e+01	5.879604e+01
2.320000e-06	2.197607e-06	8.666575e-10	1.524722e+01	6.019224e+01
2.330000e-06	2.241111e-06	8.796299e-10	1.554906e+01	6.155333e+01
2.340000e-06	2.284494e-06	8.954453e-10	1.585005e+01	6.287985e+01
2.350000e-06	2.327665e-06	9.136637e-10	1.614957e+01	6.417235e+01
2.360000e-06	2.370628e-06	9.337843e-10	1.644766e+01	6.543134e+01
2.370000e-06	2.413327e-06	9.540281e-10	1.674391e+01	6.665730e+01
2.380000e-06	2.455738e-06	9.730856e-10	1.703816e+01	6.785070e+01
2.390000e-06	2.497837e-06	9.899073e-10	1.733025e+01	6.901195e+01
2.400000e-06	2.539494e-06	1.003973e-09	1.761927e+01	7.014147e+01
2.410000e-06	2.580788e-06	1.016325e-09	1.790577e+01	7.123962e+01
2.420000e-06	2.621766e-06	1.029350e-09	1.819008e+01	7.230678e+01
2.430000e-06	2.662463e-06	1.045730e-09	1.847244e+01	7.334329e+01
2.440000e-06	2.702963e-06	1.062561e-09	1.875344e+01	7.434950e+01
2.450000e-06	2.743243e-06	1.077441e-09	1.903290e+01	7.532577e+01
2.460000e-06	2.783291e-06	1.090695e-09	1.931076e+01	7.627247e+01
2.470000e-06	2.823205e-06	1.101383e-09	1.958769e+01	7.719001e+01
2.480000e-06	2.863028e-06	1.110919e-09	1.986398e+01	7.807880e+01
2.490000e-06	2.902786e-06	1.120931e-09	2.013982e+01	7.893931e+01
2.500000e-06	2.942512e-06	1.132976e-09	2.041545e+01	7.977206e+01
2.510000e-06	2.982112e-06	1.147317e-09	2.069020e+01	8.057760e+01
2.520000e-06	3.021497e-06	1.161146e-09	2.096346e+01	8.135654e+01
2.530000e-06	3.060666e-06	1.176234e-09	2.123521e+01	8.210956e+01
2.540000e-06	3.099596e-06	1.190050e-09	2.150531e+01	8.283736e+01
2.550000e-06	3.138290e-06	1.198634e-09	2.177378e+01	8.354072e+01
2.560000e-06	3.176757e-06	1.203611e-09	2.204066e+01	8.422046e+01
2.570000e-06	3.214918e-06	1.208922e-09	2.230543e+01	8.487744e+01
2.580000e-06	3.252817e-06	1.215161e-09	2.256837e+01	8.551255e+01
2.590000e-06	3.290560e-06	1.223191e-09	2.283024e+01	8.612672e+01
2.600000e-06	3.328166e-06	1.236372e-09	2.309115e+01	8.672089e+01
2.610000e-06	3.365589e-06	1.252109e-09	2.335080e+01	8.729600e+01
2.620000e-06	3.402754e-06	1.266177e-09	2.360865e+01	8.785301e+01
2.630000e-06	3.439584e-06	1.275591e-09	2.386418e+01	8.839284e+01
2.640000e-06	3.476075e-06	1.280950e-09	2.411737e+01	8.891639e+01
2.650000e-06	3.512343e-06	1.284221e-09	2.436900e+01	8.942454e+01
2.660000e-06	3.548460e-06	1.287170e-09	2.461958e+01	8.991811e+01
2.670000e-06	3.584441e-06	1.292019e-09	2.486922e+01	9.039785e+01
2.680000e-06	3.620306e-06	1.300179e-09	2.511805e+01	9.086447e+01
2.690000e-06	3.656019e-06	1.311728e-09	2.536583e+01	9.131860e+01
2.700000e-06	3.691558e-06	1.322312e-09	2.561240e+01	9.176077e+01
2.710000e-06	3.726841e-06	1.329076e-09	2.585720e+01	9.219147e+01
2.720000e-06	3.761824e-06	1.332949e-09	2.609992e+01	9.261106e+01
2.730000e-06	3.796413e-06	1.334267e-09	2.633990e+01	9.301987e+01
2.740000e-06	3.830541e-06	1.335223e-09	2.657669e+01	9.341810e+01
2.750000e-06	3.864248e-06	1.337240e-09	2.681054e+01	9.380589e+01
2.760000e-06	3.897509e-06	1.341479e-09	2.704132e+01	9.418332e+01
2.770000e-06	3.930347e-06	1.347026e-09	2.726915e+01	9.455039e+01
2.780000e-06	3.962860e-06	1.353119e-09	2.749472e+01	9.490705e+01
2.790000e-06	3.995054e-06	1.359468e-09	2.771809e+01	9.525318e+01
2.800000e-06	4.026989e-06	1.364598e-09	2.793966e+01	9.558866e+01
2.810000e-06	4.058739e-06	1.368013e-09	2.815995e+01	9.591333e+01
2.820000e-06	4.090310e-06	1.371873e-09	2.837899e+01	9.622699e+01
2.830000e-06	4.121752e-06	1.376999e-09	2.859713e+01	9.652948e+01
2.840000e-06	4.153001e-06	1.381236e-09	2.881394e+01	9.682061e+01
2.850000e-06	4.183973e-06	1.385785e-09	2.902883e+01	9.710025e+01
2.860000e-06	4.214621e-06	1.392193e-09	2.924147e+01	9.736827e+01
2.870000e-06	4.244896e-06	1.399127e-09	2.945152e+01	9.762459e+01
2.880000e-06	4.274822e-06	1.403743e-09	2.965915e+01	9.786918e+01
2.890000e-06	4.304480e-06	1.405773e-09	2.986492e+01	9.810207e+01
2.900000e-06	4.333925e-06	1.409163e-09	3.006921e+01	9.832335e+01
