# Temperatura_=_-12.86
# Concentracion g/m^3_=_1620.0
# C_Vs_to_Am_M_A/Vsm_=_65563218390.804596
# pendiente_HvsI_1/m_=_3716.3
# ordenada_HvsI_A/m_=_1297.0
# frecuencia_Hz_=_135104.49008024347

Tiempo_(s)	Campo_(V.s)	Magnetizacion_(V.s)	Campo_(kA/m)	Magnetizacion_(A/m)
0.000000e+00	-5.512095e-06	-1.287712e-09	-3.836961e+01	-8.238390e+01
1.000000e-08	-5.512408e-06	-1.289610e-09	-3.837178e+01	-8.236289e+01
2.000000e-08	-5.512553e-06	-1.294423e-09	-3.837279e+01	-8.233922e+01
3.000000e-08	-5.512434e-06	-1.298777e-09	-3.837197e+01	-8.231264e+01
4.000000e-08	-5.511821e-06	-1.299693e-09	-3.836769e+01	-8.228291e+01
5.000000e-08	-5.510578e-06	-1.294438e-09	-3.835904e+01	-8.224982e+01
6.000000e-08	-5.508745e-06	-1.278074e-09	-3.834628e+01	-8.221315e+01
7.000000e-08	-5.506337e-06	-1.253567e-09	-3.832952e+01	-8.217273e+01
8.000000e-08	-5.503392e-06	-1.254440e-09	-3.830902e+01	-8.212840e+01
9.000000e-08	-5.499985e-06	-1.313652e-09	-3.828530e+01	-8.208003e+01
1.000000e-07	-5.496119e-06	-1.381368e-09	-3.825839e+01	-8.202753e+01
1.100000e-07	-5.491790e-06	-1.346817e-09	-3.822826e+01	-8.197084e+01
1.200000e-07	-5.487268e-06	-1.232103e-09	-3.819678e+01	-8.190995e+01
1.300000e-07	-5.482705e-06	-1.200075e-09	-3.816502e+01	-8.184488e+01
1.400000e-07	-5.477805e-06	-1.276462e-09	-3.813091e+01	-8.177569e+01
1.500000e-07	-5.472347e-06	-1.301135e-09	-3.809292e+01	-8.170248e+01
1.600000e-07	-5.466493e-06	-1.235463e-09	-3.805217e+01	-8.162539e+01
1.700000e-07	-5.460446e-06	-1.223923e-09	-3.801008e+01	-8.154459e+01
1.800000e-07	-5.453970e-06	-1.299824e-09	-3.796500e+01	-8.146029e+01
1.900000e-07	-5.446927e-06	-1.318335e-09	-3.791597e+01	-8.137274e+01
2.000000e-07	-5.439586e-06	-1.227591e-09	-3.786487e+01	-8.128220e+01
2.100000e-07	-5.432062e-06	-1.174904e-09	-3.781249e+01	-8.118897e+01
2.200000e-07	-5.424250e-06	-1.210817e-09	-3.775812e+01	-8.109335e+01
2.300000e-07	-5.416210e-06	-1.252227e-09	-3.770215e+01	-8.099568e+01
2.400000e-07	-5.407904e-06	-1.235132e-09	-3.764433e+01	-8.089629e+01
2.500000e-07	-5.398988e-06	-1.204853e-09	-3.758227e+01	-8.079551e+01
2.600000e-07	-5.389235e-06	-1.200164e-09	-3.751438e+01	-8.069370e+01
2.700000e-07	-5.378769e-06	-1.200579e-09	-3.744152e+01	-8.059118e+01
2.800000e-07	-5.367816e-06	-1.191555e-09	-3.736528e+01	-8.048828e+01
2.900000e-07	-5.356447e-06	-1.187708e-09	-3.728614e+01	-8.038531e+01
3.000000e-07	-5.344638e-06	-1.198378e-09	-3.720394e+01	-8.028257e+01
3.100000e-07	-5.332458e-06	-1.207594e-09	-3.711915e+01	-8.018033e+01
3.200000e-07	-5.319878e-06	-1.204129e-09	-3.703158e+01	-8.007884e+01
3.300000e-07	-5.306824e-06	-1.187212e-09	-3.694071e+01	-7.997834e+01
3.400000e-07	-5.293374e-06	-1.184320e-09	-3.684709e+01	-7.987901e+01
3.500000e-07	-5.279632e-06	-1.194463e-09	-3.675143e+01	-7.978104e+01
3.600000e-07	-5.265460e-06	-1.189602e-09	-3.665278e+01	-7.968456e+01
3.700000e-07	-5.250799e-06	-1.175542e-09	-3.655072e+01	-7.958969e+01
3.800000e-07	-5.235741e-06	-1.186962e-09	-3.644591e+01	-7.949654e+01
3.900000e-07	-5.220105e-06	-1.195333e-09	-3.633706e+01	-7.940515e+01
4.000000e-07	-5.203852e-06	-1.181848e-09	-3.622393e+01	-7.931557e+01
4.100000e-07	-5.187246e-06	-1.183418e-09	-3.610834e+01	-7.922782e+01
4.200000e-07	-5.170371e-06	-1.194515e-09	-3.599086e+01	-7.914191e+01
4.300000e-07	-5.153112e-06	-1.175860e-09	-3.587073e+01	-7.905781e+01
4.400000e-07	-5.135642e-06	-1.169508e-09	-3.574912e+01	-7.897550e+01
4.500000e-07	-5.117971e-06	-1.197464e-09	-3.562611e+01	-7.889494e+01
4.600000e-07	-5.099810e-06	-1.196258e-09	-3.549970e+01	-7.881608e+01
4.700000e-07	-5.081115e-06	-1.162250e-09	-3.536956e+01	-7.873887e+01
4.800000e-07	-5.061965e-06	-1.168124e-09	-3.523625e+01	-7.866324e+01
4.900000e-07	-5.042515e-06	-1.186691e-09	-3.510086e+01	-7.858914e+01
5.000000e-07	-5.022876e-06	-1.167985e-09	-3.496415e+01	-7.851651e+01
5.100000e-07	-5.003046e-06	-1.156235e-09	-3.482612e+01	-7.844529e+01
5.200000e-07	-4.983032e-06	-1.166582e-09	-3.468681e+01	-7.837541e+01
5.300000e-07	-4.962725e-06	-1.158302e-09	-3.454545e+01	-7.830683e+01
5.400000e-07	-4.942021e-06	-1.160200e-09	-3.440133e+01	-7.823950e+01
5.500000e-07	-4.920887e-06	-1.186528e-09	-3.425421e+01	-7.817336e+01
5.600000e-07	-4.899341e-06	-1.177482e-09	-3.410423e+01	-7.810836e+01
5.700000e-07	-4.877487e-06	-1.148202e-09	-3.395211e+01	-7.804445e+01
5.800000e-07	-4.855397e-06	-1.158048e-09	-3.379834e+01	-7.798157e+01
5.900000e-07	-4.832972e-06	-1.170086e-09	-3.364224e+01	-7.791969e+01
6.000000e-07	-4.810079e-06	-1.152274e-09	-3.348288e+01	-7.785872e+01
6.100000e-07	-4.786855e-06	-1.153014e-09	-3.332122e+01	-7.779860e+01
6.200000e-07	-4.763394e-06	-1.165593e-09	-3.315791e+01	-7.773925e+01
6.300000e-07	-4.739669e-06	-1.153903e-09	-3.299276e+01	-7.768057e+01
6.400000e-07	-4.715780e-06	-1.146192e-09	-3.282647e+01	-7.762247e+01
6.500000e-07	-4.691742e-06	-1.157524e-09	-3.265914e+01	-7.756481e+01
6.600000e-07	-4.667398e-06	-1.155663e-09	-3.248968e+01	-7.750746e+01
6.700000e-07	-4.642543e-06	-1.147755e-09	-3.231667e+01	-7.745025e+01
6.800000e-07	-4.617066e-06	-1.149438e-09	-3.213932e+01	-7.739301e+01
6.900000e-07	-4.590960e-06	-1.143102e-09	-3.195760e+01	-7.733553e+01
7.000000e-07	-4.564308e-06	-1.131552e-09	-3.177207e+01	-7.727760e+01
7.100000e-07	-4.537197e-06	-1.134910e-09	-3.158335e+01	-7.721898e+01
7.200000e-07	-4.509742e-06	-1.138309e-09	-3.139224e+01	-7.715941e+01
7.300000e-07	-4.482091e-06	-1.135311e-09	-3.119976e+01	-7.709862e+01
7.400000e-07	-4.454320e-06	-1.138940e-09	-3.100645e+01	-7.703630e+01
7.500000e-07	-4.426441e-06	-1.143951e-09	-3.081239e+01	-7.697218e+01
7.600000e-07	-4.398357e-06	-1.138081e-09	-3.061689e+01	-7.690593e+01
7.700000e-07	-4.369956e-06	-1.131760e-09	-3.041919e+01	-7.683723e+01
7.800000e-07	-4.341211e-06	-1.128386e-09	-3.021910e+01	-7.676577e+01
7.900000e-07	-4.312074e-06	-1.123756e-09	-3.001628e+01	-7.669124e+01
8.000000e-07	-4.282603e-06	-1.124771e-09	-2.981113e+01	-7.661332e+01
8.100000e-07	-4.252914e-06	-1.129449e-09	-2.960447e+01	-7.653170e+01
8.200000e-07	-4.222998e-06	-1.126174e-09	-2.939622e+01	-7.644611e+01
8.300000e-07	-4.192690e-06	-1.120058e-09	-2.918524e+01	-7.635628e+01
8.400000e-07	-4.162021e-06	-1.119204e-09	-2.897176e+01	-7.626195e+01
8.500000e-07	-4.131166e-06	-1.119003e-09	-2.875698e+01	-7.616290e+01
8.600000e-07	-4.100022e-06	-1.116838e-09	-2.854019e+01	-7.605895e+01
8.700000e-07	-4.068559e-06	-1.114661e-09	-2.832117e+01	-7.594993e+01
8.800000e-07	-4.036946e-06	-1.110234e-09	-2.810111e+01	-7.583572e+01
8.900000e-07	-4.005216e-06	-1.102702e-09	-2.788024e+01	-7.571622e+01
9.000000e-07	-3.973269e-06	-1.097882e-09	-2.765786e+01	-7.559137e+01
9.100000e-07	-3.941106e-06	-1.096972e-09	-2.743397e+01	-7.546117e+01
9.200000e-07	-3.908613e-06	-1.094317e-09	-2.720779e+01	-7.532562e+01
9.300000e-07	-3.875681e-06	-1.091942e-09	-2.697855e+01	-7.518480e+01
9.400000e-07	-3.842392e-06	-1.095149e-09	-2.674683e+01	-7.503878e+01
9.500000e-07	-3.808715e-06	-1.094548e-09	-2.651240e+01	-7.488771e+01
9.600000e-07	-3.774477e-06	-1.088467e-09	-2.627407e+01	-7.473172e+01
9.700000e-07	-3.739770e-06	-1.082314e-09	-2.603248e+01	-7.457103e+01
9.800000e-07	-3.704774e-06	-1.075495e-09	-2.578887e+01	-7.440582e+01
9.900000e-07	-3.669500e-06	-1.067548e-09	-2.554333e+01	-7.423634e+01
1.000000e-06	-3.633994e-06	-1.066087e-09	-2.529617e+01	-7.406284e+01
1.010000e-06	-3.598324e-06	-1.068572e-09	-2.504787e+01	-7.388559e+01
1.020000e-06	-3.562534e-06	-1.066718e-09	-2.479874e+01	-7.370484e+01
1.030000e-06	-3.526626e-06	-1.065034e-09	-2.454878e+01	-7.352089e+01
1.040000e-06	-3.490552e-06	-1.065554e-09	-2.429768e+01	-7.333399e+01
1.050000e-06	-3.454264e-06	-1.062621e-09	-2.404507e+01	-7.314443e+01
1.060000e-06	-3.417775e-06	-1.058152e-09	-2.379108e+01	-7.295246e+01
1.070000e-06	-3.381037e-06	-1.054223e-09	-2.353534e+01	-7.275832e+01
1.080000e-06	-3.343974e-06	-1.048311e-09	-2.327735e+01	-7.256223e+01
1.090000e-06	-3.306592e-06	-1.041470e-09	-2.301713e+01	-7.236442e+01
1.100000e-06	-3.268979e-06	-1.038416e-09	-2.275531e+01	-7.216503e+01
1.110000e-06	-3.231215e-06	-1.037167e-09	-2.249244e+01	-7.196424e+01
1.120000e-06	-3.193236e-06	-1.032630e-09	-2.222807e+01	-7.176214e+01
1.130000e-06	-3.154968e-06	-1.027750e-09	-2.196168e+01	-7.155883e+01
1.140000e-06	-3.116490e-06	-1.026189e-09	-2.169384e+01	-7.135436e+01
1.150000e-06	-3.077730e-06	-1.024978e-09	-2.142403e+01	-7.114872e+01
1.160000e-06	-3.038689e-06	-1.021571e-09	-2.115227e+01	-7.094190e+01
1.170000e-06	-2.999559e-06	-1.017398e-09	-2.087988e+01	-7.073384e+01
1.180000e-06	-2.960236e-06	-1.012170e-09	-2.060615e+01	-7.052442e+01
1.190000e-06	-2.920702e-06	-1.006096e-09	-2.033096e+01	-7.031352e+01
1.200000e-06	-2.881048e-06	-1.001642e-09	-2.005493e+01	-7.010096e+01
1.210000e-06	-2.841317e-06	-9.974908e-10	-1.977836e+01	-6.988652e+01
1.220000e-06	-2.801527e-06	-9.925054e-10	-1.950138e+01	-6.966997e+01
1.230000e-06	-2.761608e-06	-9.894518e-10	-1.922351e+01	-6.945104e+01
1.240000e-06	-2.721584e-06	-9.883074e-10	-1.894490e+01	-6.922942e+01
1.250000e-06	-2.681374e-06	-9.852561e-10	-1.866500e+01	-6.900478e+01
1.260000e-06	-2.640847e-06	-9.794769e-10	-1.838290e+01	-6.877677e+01
1.270000e-06	-2.600032e-06	-9.740165e-10	-1.809878e+01	-6.854503e+01
1.280000e-06	-2.558922e-06	-9.676138e-10	-1.781261e+01	-6.830915e+01
1.290000e-06	-2.517537e-06	-9.610266e-10	-1.752453e+01	-6.806872e+01
1.300000e-06	-2.475957e-06	-9.571163e-10	-1.723510e+01	-6.782334e+01
1.310000e-06	-2.434023e-06	-9.551185e-10	-1.694320e+01	-6.757257e+01
1.320000e-06	-2.391642e-06	-9.513201e-10	-1.664818e+01	-6.731597e+01
1.330000e-06	-2.348912e-06	-9.468928e-10	-1.635074e+01	-6.705311e+01
1.340000e-06	-2.305922e-06	-9.450880e-10	-1.605148e+01	-6.678353e+01
1.350000e-06	-2.262760e-06	-9.442549e-10	-1.575103e+01	-6.650681e+01
1.360000e-06	-2.219454e-06	-9.424724e-10	-1.544958e+01	-6.622250e+01
1.370000e-06	-2.176026e-06	-9.398231e-10	-1.514728e+01	-6.593018e+01
1.380000e-06	-2.132481e-06	-9.343535e-10	-1.484417e+01	-6.562943e+01
1.390000e-06	-2.088847e-06	-9.250756e-10	-1.454043e+01	-6.531983e+01
1.400000e-06	-2.045143e-06	-9.139798e-10	-1.423621e+01	-6.500100e+01
1.410000e-06	-2.001340e-06	-9.036055e-10	-1.393130e+01	-6.467255e+01
1.420000e-06	-1.957484e-06	-8.961584e-10	-1.362601e+01	-6.433412e+01
1.430000e-06	-1.913629e-06	-8.916591e-10	-1.332074e+01	-6.398535e+01
1.440000e-06	-1.869736e-06	-8.887086e-10	-1.301520e+01	-6.362593e+01
1.450000e-06	-1.825729e-06	-8.852999e-10	-1.270887e+01	-6.325555e+01
1.460000e-06	-1.781556e-06	-8.786629e-10	-1.240138e+01	-6.287390e+01
1.470000e-06	-1.737171e-06	-8.691288e-10	-1.209242e+01	-6.248073e+01
1.480000e-06	-1.692597e-06	-8.601853e-10	-1.178214e+01	-6.207577e+01
1.490000e-06	-1.647932e-06	-8.530303e-10	-1.147123e+01	-6.165879e+01
1.500000e-06	-1.603198e-06	-8.456028e-10	-1.115984e+01	-6.122956e+01
1.510000e-06	-1.558339e-06	-8.354821e-10	-1.084757e+01	-6.078789e+01
1.520000e-06	-1.513311e-06	-8.263876e-10	-1.053413e+01	-6.033357e+01
1.530000e-06	-1.468167e-06	-8.207606e-10	-1.021989e+01	-5.986640e+01
1.540000e-06	-1.422914e-06	-8.155453e-10	-9.904878e+00	-5.938621e+01
1.550000e-06	-1.377534e-06	-8.099321e-10	-9.588993e+00	-5.889280e+01
1.560000e-06	-1.332084e-06	-8.031460e-10	-9.272612e+00	-5.838599e+01
1.570000e-06	-1.286584e-06	-7.933234e-10	-8.955887e+00	-5.786556e+01
1.580000e-06	-1.241023e-06	-7.815595e-10	-8.638738e+00	-5.733130e+01
1.590000e-06	-1.195369e-06	-7.699945e-10	-8.320942e+00	-5.678297e+01
1.600000e-06	-1.149603e-06	-7.585995e-10	-8.002365e+00	-5.622030e+01
1.610000e-06	-1.103739e-06	-7.473778e-10	-7.683110e+00	-5.564300e+01
1.620000e-06	-1.057829e-06	-7.382454e-10	-7.363529e+00	-5.505072e+01
1.630000e-06	-1.011870e-06	-7.300454e-10	-7.043612e+00	-5.444309e+01
1.640000e-06	-9.657602e-07	-7.213515e-10	-6.722641e+00	-5.381966e+01
1.650000e-06	-9.195126e-07	-7.133840e-10	-6.400712e+00	-5.317996e+01
1.660000e-06	-8.733618e-07	-7.048969e-10	-6.079457e+00	-5.252343e+01
1.670000e-06	-8.272123e-07	-6.956152e-10	-5.758211e+00	-5.184946e+01
1.680000e-06	-7.808704e-07	-6.841954e-10	-5.435626e+00	-5.115736e+01
1.690000e-06	-7.344753e-07	-6.710493e-10	-5.112670e+00	-5.044640e+01
1.700000e-06	-6.880732e-07	-6.567420e-10	-4.789666e+00	-4.971575e+01
1.710000e-06	-6.416921e-07	-6.414806e-10	-4.466808e+00	-4.896452e+01
1.720000e-06	-5.952640e-07	-6.262963e-10	-4.143623e+00	-4.819174e+01
1.730000e-06	-5.487177e-07	-6.105547e-10	-3.819615e+00	-4.739639e+01
1.740000e-06	-5.021531e-07	-5.988793e-10	-3.495480e+00	-4.657737e+01
1.750000e-06	-4.556629e-07	-5.905550e-10	-3.171862e+00	-4.573354e+01
1.760000e-06	-4.091825e-07	-5.803033e-10	-2.848313e+00	-4.486370e+01
1.770000e-06	-3.625751e-07	-5.667359e-10	-2.523879e+00	-4.396660e+01
1.780000e-06	-3.159030e-07	-5.503833e-10	-2.198995e+00	-4.304097e+01
1.790000e-06	-2.692392e-07	-5.340235e-10	-1.874170e+00	-4.208553e+01
1.800000e-06	-2.225728e-07	-5.182338e-10	-1.549325e+00	-4.109897e+01
1.810000e-06	-1.758112e-07	-5.035902e-10	-1.223819e+00	-4.008001e+01
1.820000e-06	-1.290097e-07	-4.889879e-10	-8.980345e-01	-3.902738e+01
1.830000e-06	-8.225113e-08	-4.762409e-10	-5.725488e-01	-3.793987e+01
1.840000e-06	-3.549113e-08	-4.653194e-10	-2.470532e-01	-3.681630e+01
1.850000e-06	1.131304e-08	-4.525513e-10	7.874987e-02	-3.565560e+01
1.860000e-06	5.809041e-08	-4.371946e-10	4.043664e-01	-3.445676e+01
1.870000e-06	1.047110e-07	-4.190071e-10	7.288918e-01	-3.321891e+01
1.880000e-06	1.512894e-07	-3.992709e-10	1.053123e+00	-3.194131e+01
1.890000e-06	1.980200e-07	-3.790433e-10	1.378414e+00	-3.062335e+01
1.900000e-06	2.447872e-07	-3.600364e-10	1.703959e+00	-2.926461e+01
1.910000e-06	2.914259e-07	-3.430559e-10	2.028611e+00	-2.786482e+01
1.920000e-06	3.380459e-07	-3.261336e-10	2.353132e+00	-2.642395e+01
1.930000e-06	3.847152e-07	-3.074381e-10	2.677996e+00	-2.494213e+01
1.940000e-06	4.313254e-07	-2.878129e-10	3.002449e+00	-2.341975e+01
1.950000e-06	4.779480e-07	-2.680499e-10	3.326988e+00	-2.185741e+01
1.960000e-06	5.245953e-07	-2.476903e-10	3.651699e+00	-2.025594e+01
1.970000e-06	5.711569e-07	-2.269466e-10	3.975813e+00	-1.861642e+01
1.980000e-06	6.176244e-07	-2.045507e-10	4.299273e+00	-1.694016e+01
1.990000e-06	6.640803e-07	-1.789955e-10	4.622652e+00	-1.522870e+01
2.000000e-06	7.104736e-07	-1.533437e-10	4.945595e+00	-1.348382e+01
2.010000e-06	7.567310e-07	-1.275293e-10	5.267592e+00	-1.170755e+01
2.020000e-06	8.029548e-07	-1.015947e-10	5.589355e+00	-9.902082e+00
2.030000e-06	8.491342e-07	-7.627451e-11	5.910809e+00	-8.069854e+00
2.040000e-06	8.952983e-07	-5.069254e-11	6.232157e+00	-6.213470e+00
2.050000e-06	9.414120e-07	-2.494803e-11	6.553153e+00	-4.335707e+00
2.060000e-06	9.874296e-07	-9.833257e-13	6.873482e+00	-2.439489e+00
2.070000e-06	1.033343e-06	2.212589e-11	7.193082e+00	-5.278669e-01
2.080000e-06	1.079184e-06	4.812480e-11	7.512181e+00	1.396007e+00
2.090000e-06	1.124997e-06	7.725261e-11	7.831087e+00	3.328903e+00
2.100000e-06	1.170740e-06	1.077102e-10	8.149505e+00	5.267540e+00
2.110000e-06	1.216423e-06	1.384332e-10	8.467500e+00	7.208612e+00
2.120000e-06	1.262070e-06	1.663650e-10	8.785246e+00	9.148816e+00
2.130000e-06	1.307595e-06	1.910149e-10	9.102148e+00	1.108488e+01
2.140000e-06	1.352977e-06	2.161424e-10	9.418050e+00	1.301358e+01
2.150000e-06	1.398267e-06	2.403962e-10	9.733313e+00	1.493178e+01
2.160000e-06	1.443440e-06	2.643775e-10	1.004776e+01	1.683645e+01
2.170000e-06	1.488516e-06	2.888896e-10	1.036153e+01	1.872468e+01
2.180000e-06	1.533510e-06	3.134696e-10	1.067474e+01	2.059371e+01
2.190000e-06	1.578351e-06	3.394905e-10	1.098687e+01	2.244095e+01
2.200000e-06	1.622979e-06	3.668020e-10	1.129753e+01	2.426398e+01
2.210000e-06	1.667509e-06	3.960034e-10	1.160750e+01	2.606060e+01
2.220000e-06	1.711943e-06	4.241310e-10	1.191681e+01	2.782877e+01
2.230000e-06	1.756224e-06	4.476581e-10	1.222505e+01	2.956672e+01
2.240000e-06	1.800392e-06	4.672353e-10	1.253250e+01	3.127285e+01
2.250000e-06	1.844500e-06	4.838757e-10	1.283954e+01	3.294582e+01
2.260000e-06	1.888581e-06	4.997835e-10	1.314638e+01	3.458447e+01
2.270000e-06	1.932557e-06	5.179852e-10	1.345250e+01	3.618787e+01
2.280000e-06	1.976408e-06	5.402935e-10	1.375775e+01	3.775532e+01
2.290000e-06	2.020185e-06	5.641235e-10	1.406247e+01	3.928630e+01
2.300000e-06	2.063888e-06	5.879707e-10	1.436669e+01	4.078047e+01
2.310000e-06	2.107513e-06	6.114667e-10	1.467036e+01	4.223768e+01
2.320000e-06	2.151060e-06	6.314164e-10	1.497350e+01	4.365793e+01
2.330000e-06	2.194574e-06	6.453367e-10	1.527639e+01	4.504140e+01
2.340000e-06	2.238063e-06	6.545490e-10	1.557912e+01	4.638834e+01
2.350000e-06	2.281347e-06	6.653874e-10	1.588042e+01	4.769917e+01
2.360000e-06	2.324340e-06	6.825971e-10	1.617969e+01	4.897437e+01
2.370000e-06	2.367054e-06	7.018338e-10	1.647702e+01	5.021450e+01
2.380000e-06	2.409483e-06	7.236869e-10	1.677237e+01	5.142018e+01
2.390000e-06	2.451662e-06	7.444781e-10	1.706598e+01	5.259209e+01
2.400000e-06	2.493503e-06	7.592644e-10	1.735723e+01	5.373090e+01
2.410000e-06	2.534954e-06	7.705506e-10	1.764578e+01	5.483734e+01
2.420000e-06	2.576137e-06	7.797103e-10	1.793245e+01	5.591210e+01
2.430000e-06	2.617043e-06	7.903096e-10	1.821719e+01	5.695586e+01
2.440000e-06	2.657631e-06	8.043470e-10	1.849973e+01	5.796931e+01
2.450000e-06	2.697960e-06	8.222992e-10	1.878045e+01	5.895308e+01
2.460000e-06	2.738077e-06	8.387572e-10	1.905971e+01	5.990778e+01
2.470000e-06	2.778094e-06	8.514820e-10	1.933827e+01	6.083398e+01
2.480000e-06	2.817999e-06	8.615943e-10	1.961604e+01	6.173220e+01
2.490000e-06	2.857710e-06	8.724769e-10	1.989247e+01	6.260292e+01
2.500000e-06	2.897324e-06	8.839609e-10	2.016823e+01	6.344659e+01
2.510000e-06	2.936883e-06	8.940575e-10	2.044360e+01	6.426363e+01
2.520000e-06	2.976263e-06	9.055172e-10	2.071772e+01	6.505441e+01
2.530000e-06	3.015390e-06	9.152735e-10	2.099008e+01	6.581928e+01
2.540000e-06	3.054322e-06	9.257517e-10	2.126108e+01	6.655857e+01
2.550000e-06	3.093057e-06	9.356389e-10	2.153072e+01	6.727261e+01
2.560000e-06	3.131568e-06	9.430092e-10	2.179879e+01	6.796171e+01
2.570000e-06	3.169830e-06	9.513511e-10	2.206513e+01	6.862618e+01
2.580000e-06	3.207881e-06	9.588936e-10	2.233000e+01	6.926637e+01
2.590000e-06	3.245742e-06	9.658193e-10	2.259356e+01	6.988262e+01
2.600000e-06	3.283437e-06	9.734259e-10	2.285595e+01	7.047529e+01
2.610000e-06	3.320940e-06	9.849042e-10	2.311701e+01	7.104481e+01
2.620000e-06	3.358149e-06	9.987922e-10	2.337602e+01	7.159161e+01
2.630000e-06	3.395119e-06	1.009697e-09	2.363337e+01	7.211618e+01
2.640000e-06	3.431790e-06	1.015302e-09	2.388863e+01	7.261904e+01
2.650000e-06	3.468152e-06	1.018327e-09	2.414175e+01	7.310078e+01
2.660000e-06	3.504335e-06	1.020988e-09	2.439362e+01	7.356200e+01
2.670000e-06	3.540338e-06	1.024725e-09	2.464423e+01	7.400337e+01
2.680000e-06	3.576139e-06	1.032491e-09	2.489345e+01	7.442560e+01
2.690000e-06	3.611783e-06	1.043178e-09	2.514156e+01	7.482943e+01
2.700000e-06	3.647331e-06	1.053742e-09	2.538901e+01	7.521564e+01
2.710000e-06	3.682756e-06	1.060472e-09	2.563561e+01	7.558503e+01
2.720000e-06	3.717923e-06	1.062465e-09	2.588040e+01	7.593843e+01
2.730000e-06	3.752739e-06	1.063326e-09	2.612276e+01	7.627667e+01
2.740000e-06	3.787216e-06	1.065161e-09	2.636275e+01	7.660059e+01
2.750000e-06	3.821303e-06	1.068471e-09	2.660003e+01	7.691104e+01
2.760000e-06	3.854910e-06	1.074402e-09	2.683397e+01	7.720882e+01
2.770000e-06	3.888028e-06	1.082594e-09	2.706450e+01	7.749473e+01
2.780000e-06	3.920663e-06	1.088381e-09	2.729167e+01	7.776954e+01
2.790000e-06	3.952922e-06	1.093197e-09	2.751622e+01	7.803398e+01
2.800000e-06	3.984972e-06	1.098807e-09	2.773933e+01	7.828873e+01
2.810000e-06	4.016863e-06	1.103276e-09	2.796132e+01	7.853440e+01
2.820000e-06	4.048617e-06	1.105974e-09	2.818236e+01	7.877156e+01
2.830000e-06	4.080159e-06	1.108806e-09	2.840192e+01	7.900073e+01
2.840000e-06	4.111419e-06	1.113470e-09	2.861952e+01	7.922232e+01
2.850000e-06	4.142447e-06	1.116860e-09	2.883551e+01	7.943671e+01
2.860000e-06	4.173165e-06	1.118907e-09	2.904933e+01	7.964418e+01
2.870000e-06	4.203589e-06	1.122831e-09	2.926111e+01	7.984498e+01
2.880000e-06	4.233803e-06	1.127956e-09	2.947143e+01	8.003926e+01
2.890000e-06	4.263703e-06	1.130846e-09	2.967956e+01	8.022711e+01
2.900000e-06	4.293233e-06	1.133679e-09	2.988512e+01	8.040858e+01
