# Temperatura_=_-1.06
# Concentracion g/m^3_=_1620.0
# C_Vs_to_Am_M_A/Vsm_=_65563218390.804596
# pendiente_HvsI_1/m_=_3716.3
# ordenada_HvsI_A/m_=_1297.0
# frecuencia_Hz_=_135111.62229215345

Tiempo_(s)	Campo_(V.s)	Magnetizacion_(V.s)	Campo_(kA/m)	Magnetizacion_(A/m)
0.000000e+00	-5.526054e-06	-1.450024e-09	-3.836956e+01	-9.341233e+01
1.000000e-08	-5.526242e-06	-1.446522e-09	-3.837087e+01	-9.337766e+01
2.000000e-08	-5.526237e-06	-1.445662e-09	-3.837083e+01	-9.334474e+01
3.000000e-08	-5.525869e-06	-1.446639e-09	-3.836828e+01	-9.331355e+01
4.000000e-08	-5.524930e-06	-1.448252e-09	-3.836176e+01	-9.328403e+01
5.000000e-08	-5.523366e-06	-1.447790e-09	-3.835090e+01	-9.325605e+01
6.000000e-08	-5.521159e-06	-1.445556e-09	-3.833558e+01	-9.322947e+01
7.000000e-08	-5.518385e-06	-1.467838e-09	-3.831632e+01	-9.320408e+01
8.000000e-08	-5.515135e-06	-1.489279e-09	-3.829375e+01	-9.317963e+01
9.000000e-08	-5.511385e-06	-1.441483e-09	-3.826771e+01	-9.315585e+01
1.000000e-07	-5.507266e-06	-1.402762e-09	-3.823912e+01	-9.313242e+01
1.100000e-07	-5.502968e-06	-1.469749e-09	-3.820927e+01	-9.310900e+01
1.200000e-07	-5.498459e-06	-1.490174e-09	-3.817796e+01	-9.308521e+01
1.300000e-07	-5.493544e-06	-1.429767e-09	-3.814384e+01	-9.306066e+01
1.400000e-07	-5.488201e-06	-1.376375e-09	-3.810673e+01	-9.303495e+01
1.500000e-07	-5.482538e-06	-1.476297e-09	-3.806742e+01	-9.300768e+01
1.600000e-07	-5.476528e-06	-1.544056e-09	-3.802569e+01	-9.297842e+01
1.700000e-07	-5.470132e-06	-1.444379e-09	-3.798128e+01	-9.294679e+01
1.800000e-07	-5.463310e-06	-1.365071e-09	-3.793391e+01	-9.291238e+01
1.900000e-07	-5.456114e-06	-1.434150e-09	-3.788394e+01	-9.287484e+01
2.000000e-07	-5.448544e-06	-1.510085e-09	-3.783138e+01	-9.283383e+01
2.100000e-07	-5.440658e-06	-1.466768e-09	-3.777663e+01	-9.278902e+01
2.200000e-07	-5.432571e-06	-1.413598e-09	-3.772048e+01	-9.274016e+01
2.300000e-07	-5.424152e-06	-1.447533e-09	-3.766202e+01	-9.268700e+01
2.400000e-07	-5.415195e-06	-1.495294e-09	-3.759983e+01	-9.262937e+01
2.500000e-07	-5.405608e-06	-1.454748e-09	-3.753326e+01	-9.256714e+01
2.600000e-07	-5.395441e-06	-1.423040e-09	-3.746266e+01	-9.250021e+01
2.700000e-07	-5.384665e-06	-1.447162e-09	-3.738784e+01	-9.242855e+01
2.800000e-07	-5.373406e-06	-1.484261e-09	-3.730967e+01	-9.235218e+01
2.900000e-07	-5.361782e-06	-1.455661e-09	-3.722896e+01	-9.227116e+01
3.000000e-07	-5.349763e-06	-1.425192e-09	-3.714551e+01	-9.218562e+01
3.100000e-07	-5.337366e-06	-1.437040e-09	-3.705943e+01	-9.209571e+01
3.200000e-07	-5.324547e-06	-1.469509e-09	-3.697042e+01	-9.200164e+01
3.300000e-07	-5.311386e-06	-1.438540e-09	-3.687904e+01	-9.190364e+01
3.400000e-07	-5.297876e-06	-1.404608e-09	-3.678523e+01	-9.180198e+01
3.500000e-07	-5.283881e-06	-1.435803e-09	-3.668806e+01	-9.169696e+01
3.600000e-07	-5.269425e-06	-1.476534e-09	-3.658769e+01	-9.158888e+01
3.700000e-07	-5.254537e-06	-1.430636e-09	-3.648432e+01	-9.147809e+01
3.800000e-07	-5.239113e-06	-1.417278e-09	-3.637722e+01	-9.136490e+01
3.900000e-07	-5.223176e-06	-1.466570e-09	-3.626657e+01	-9.124965e+01
4.000000e-07	-5.206805e-06	-1.440133e-09	-3.615289e+01	-9.113265e+01
4.100000e-07	-5.190066e-06	-1.374957e-09	-3.603667e+01	-9.101421e+01
4.200000e-07	-5.173010e-06	-1.433464e-09	-3.591824e+01	-9.089462e+01
4.300000e-07	-5.155645e-06	-1.477034e-09	-3.579767e+01	-9.077414e+01
4.400000e-07	-5.137904e-06	-1.384492e-09	-3.567449e+01	-9.065298e+01
4.500000e-07	-5.119678e-06	-1.382207e-09	-3.554794e+01	-9.053134e+01
4.600000e-07	-5.100974e-06	-1.477452e-09	-3.541807e+01	-9.040938e+01
4.700000e-07	-5.081942e-06	-1.432458e-09	-3.528592e+01	-9.028719e+01
4.800000e-07	-5.062661e-06	-1.361387e-09	-3.515204e+01	-9.016485e+01
4.900000e-07	-5.043178e-06	-1.440808e-09	-3.501677e+01	-9.004239e+01
5.000000e-07	-5.023547e-06	-1.441583e-09	-3.488046e+01	-8.991977e+01
5.100000e-07	-5.003675e-06	-1.345864e-09	-3.474248e+01	-8.979695e+01
5.200000e-07	-4.983417e-06	-1.393026e-09	-3.460182e+01	-8.967381e+01
5.300000e-07	-4.962811e-06	-1.455408e-09	-3.445875e+01	-8.955023e+01
5.400000e-07	-4.941878e-06	-1.360184e-09	-3.431340e+01	-8.942604e+01
5.500000e-07	-4.920519e-06	-1.353848e-09	-3.416510e+01	-8.930104e+01
5.600000e-07	-4.898832e-06	-1.446790e-09	-3.401452e+01	-8.917501e+01
5.700000e-07	-4.876801e-06	-1.401886e-09	-3.386155e+01	-8.904771e+01
5.800000e-07	-4.854349e-06	-1.335603e-09	-3.370565e+01	-8.891889e+01
5.900000e-07	-4.831477e-06	-1.403275e-09	-3.354685e+01	-8.878829e+01
6.000000e-07	-4.808304e-06	-1.403000e-09	-3.338594e+01	-8.865566e+01
6.100000e-07	-4.784943e-06	-1.331505e-09	-3.322374e+01	-8.852074e+01
6.200000e-07	-4.761377e-06	-1.361138e-09	-3.306011e+01	-8.838329e+01
6.300000e-07	-4.737545e-06	-1.396335e-09	-3.289464e+01	-8.824305e+01
6.400000e-07	-4.713396e-06	-1.347132e-09	-3.272696e+01	-8.809983e+01
6.500000e-07	-4.688870e-06	-1.351792e-09	-3.255667e+01	-8.795342e+01
6.600000e-07	-4.663886e-06	-1.388701e-09	-3.238320e+01	-8.780365e+01
6.700000e-07	-4.638403e-06	-1.358338e-09	-3.220626e+01	-8.765036e+01
6.800000e-07	-4.612344e-06	-1.338843e-09	-3.202532e+01	-8.749343e+01
6.900000e-07	-4.585718e-06	-1.364698e-09	-3.184044e+01	-8.733276e+01
7.000000e-07	-4.558674e-06	-1.350333e-09	-3.165266e+01	-8.716828e+01
7.100000e-07	-4.531328e-06	-1.326800e-09	-3.146279e+01	-8.699991e+01
7.200000e-07	-4.503713e-06	-1.345829e-09	-3.127105e+01	-8.682765e+01
7.300000e-07	-4.475948e-06	-1.350461e-09	-3.107827e+01	-8.665147e+01
7.400000e-07	-4.448073e-06	-1.330847e-09	-3.088472e+01	-8.647138e+01
7.500000e-07	-4.419990e-06	-1.332069e-09	-3.068973e+01	-8.628739e+01
7.600000e-07	-4.391543e-06	-1.338343e-09	-3.049221e+01	-8.609953e+01
7.700000e-07	-4.362730e-06	-1.327813e-09	-3.029215e+01	-8.590783e+01
7.800000e-07	-4.333702e-06	-1.326953e-09	-3.009060e+01	-8.571230e+01
7.900000e-07	-4.304429e-06	-1.326612e-09	-2.988734e+01	-8.551299e+01
8.000000e-07	-4.274879e-06	-1.312197e-09	-2.968217e+01	-8.530991e+01
8.100000e-07	-4.245024e-06	-1.303776e-09	-2.947487e+01	-8.510307e+01
8.200000e-07	-4.214780e-06	-1.306004e-09	-2.926487e+01	-8.489248e+01
8.300000e-07	-4.184186e-06	-1.295397e-09	-2.905245e+01	-8.467813e+01
8.400000e-07	-4.153305e-06	-1.289132e-09	-2.883803e+01	-8.445997e+01
8.500000e-07	-4.122138e-06	-1.299156e-09	-2.862163e+01	-8.423799e+01
8.600000e-07	-4.090839e-06	-1.301630e-09	-2.840430e+01	-8.401211e+01
8.700000e-07	-4.059463e-06	-1.287203e-09	-2.818644e+01	-8.378228e+01
8.800000e-07	-4.027818e-06	-1.283908e-09	-2.796672e+01	-8.354841e+01
8.900000e-07	-3.995913e-06	-1.277421e-09	-2.774519e+01	-8.331042e+01
9.000000e-07	-3.963805e-06	-1.260665e-09	-2.752226e+01	-8.306822e+01
9.100000e-07	-3.931384e-06	-1.253777e-09	-2.729714e+01	-8.282170e+01
9.200000e-07	-3.898548e-06	-1.254935e-09	-2.706915e+01	-8.257079e+01
9.300000e-07	-3.865267e-06	-1.242441e-09	-2.683807e+01	-8.231540e+01
9.400000e-07	-3.831448e-06	-1.233734e-09	-2.660325e+01	-8.205547e+01
9.500000e-07	-3.797064e-06	-1.239100e-09	-2.636451e+01	-8.179094e+01
9.600000e-07	-3.762318e-06	-1.234915e-09	-2.612325e+01	-8.152178e+01
9.700000e-07	-3.727259e-06	-1.221526e-09	-2.587982e+01	-8.124800e+01
9.800000e-07	-3.691915e-06	-1.219516e-09	-2.563442e+01	-8.096962e+01
9.900000e-07	-3.656440e-06	-1.217675e-09	-2.538810e+01	-8.068672e+01
1.000000e-06	-3.620815e-06	-1.204196e-09	-2.514074e+01	-8.039939e+01
1.010000e-06	-3.585037e-06	-1.194314e-09	-2.489232e+01	-8.010777e+01
1.020000e-06	-3.549172e-06	-1.192228e-09	-2.464329e+01	-7.981205e+01
1.030000e-06	-3.513158e-06	-1.184072e-09	-2.439324e+01	-7.951244e+01
1.040000e-06	-3.476916e-06	-1.176687e-09	-2.414159e+01	-7.920920e+01
1.050000e-06	-3.440365e-06	-1.180369e-09	-2.388781e+01	-7.890261e+01
1.060000e-06	-3.403492e-06	-1.178078e-09	-2.363178e+01	-7.859301e+01
1.070000e-06	-3.366374e-06	-1.167186e-09	-2.337406e+01	-7.828073e+01
1.080000e-06	-3.329072e-06	-1.160783e-09	-2.311505e+01	-7.796613e+01
1.090000e-06	-3.291476e-06	-1.155078e-09	-2.285401e+01	-7.764959e+01
1.100000e-06	-3.253575e-06	-1.142558e-09	-2.259085e+01	-7.733148e+01
1.110000e-06	-3.215511e-06	-1.135787e-09	-2.232656e+01	-7.701217e+01
1.120000e-06	-3.177245e-06	-1.132633e-09	-2.206086e+01	-7.669201e+01
1.130000e-06	-3.138666e-06	-1.123550e-09	-2.179299e+01	-7.637133e+01
1.140000e-06	-3.099908e-06	-1.114411e-09	-2.152388e+01	-7.605040e+01
1.150000e-06	-3.061030e-06	-1.113745e-09	-2.125394e+01	-7.572946e+01
1.160000e-06	-3.021914e-06	-1.108957e-09	-2.098234e+01	-7.540871e+01
1.170000e-06	-2.982619e-06	-1.099628e-09	-2.070950e+01	-7.508825e+01
1.180000e-06	-2.943173e-06	-1.094899e-09	-2.043561e+01	-7.476812e+01
1.190000e-06	-2.903548e-06	-1.092196e-09	-2.016048e+01	-7.444829e+01
1.200000e-06	-2.863804e-06	-1.082651e-09	-1.988452e+01	-7.412861e+01
1.210000e-06	-2.823930e-06	-1.073351e-09	-1.960766e+01	-7.380887e+01
1.220000e-06	-2.783924e-06	-1.065962e-09	-1.932988e+01	-7.348874e+01
1.230000e-06	-2.743778e-06	-1.056459e-09	-1.905113e+01	-7.316782e+01
1.240000e-06	-2.703406e-06	-1.048383e-09	-1.877081e+01	-7.284559e+01
1.250000e-06	-2.662728e-06	-1.045827e-09	-1.848837e+01	-7.252145e+01
1.260000e-06	-2.621782e-06	-1.044703e-09	-1.820407e+01	-7.219470e+01
1.270000e-06	-2.580596e-06	-1.040162e-09	-1.791809e+01	-7.186457e+01
1.280000e-06	-2.539172e-06	-1.033691e-09	-1.763047e+01	-7.153021e+01
1.290000e-06	-2.497520e-06	-1.026961e-09	-1.734126e+01	-7.119072e+01
1.300000e-06	-2.455518e-06	-1.017985e-09	-1.704962e+01	-7.084513e+01
1.310000e-06	-2.413128e-06	-1.006844e-09	-1.675530e+01	-7.049245e+01
1.320000e-06	-2.370460e-06	-9.959924e-10	-1.645904e+01	-7.013165e+01
1.330000e-06	-2.327602e-06	-9.856303e-10	-1.616146e+01	-6.976170e+01
1.340000e-06	-2.284534e-06	-9.767276e-10	-1.586242e+01	-6.938158e+01
1.350000e-06	-2.241253e-06	-9.730941e-10	-1.556190e+01	-6.899029e+01
1.360000e-06	-2.197851e-06	-9.742713e-10	-1.526054e+01	-6.858687e+01
1.370000e-06	-2.154403e-06	-9.739225e-10	-1.495887e+01	-6.817042e+01
1.380000e-06	-2.110854e-06	-9.695478e-10	-1.465649e+01	-6.774010e+01
1.390000e-06	-2.067182e-06	-9.587962e-10	-1.435326e+01	-6.729514e+01
1.400000e-06	-2.023437e-06	-9.430056e-10	-1.404952e+01	-6.683491e+01
1.410000e-06	-1.979592e-06	-9.269541e-10	-1.374508e+01	-6.635883e+01
1.420000e-06	-1.935591e-06	-9.150896e-10	-1.343957e+01	-6.586647e+01
1.430000e-06	-1.891499e-06	-9.061295e-10	-1.313342e+01	-6.535749e+01
1.440000e-06	-1.847378e-06	-9.005267e-10	-1.282707e+01	-6.483169e+01
1.450000e-06	-1.803145e-06	-8.967678e-10	-1.251995e+01	-6.428900e+01
1.460000e-06	-1.758751e-06	-8.910835e-10	-1.221170e+01	-6.372944e+01
1.470000e-06	-1.714222e-06	-8.802308e-10	-1.190252e+01	-6.315316e+01
1.480000e-06	-1.669554e-06	-8.680558e-10	-1.159237e+01	-6.256041e+01
1.490000e-06	-1.624685e-06	-8.575712e-10	-1.128082e+01	-6.195156e+01
1.500000e-06	-1.579641e-06	-8.453556e-10	-1.096807e+01	-6.132703e+01
1.510000e-06	-1.534521e-06	-8.317453e-10	-1.065478e+01	-6.068733e+01
1.520000e-06	-1.489317e-06	-8.214495e-10	-1.034091e+01	-6.003301e+01
1.530000e-06	-1.443987e-06	-8.098072e-10	-1.002617e+01	-5.936466e+01
1.540000e-06	-1.398517e-06	-7.965525e-10	-9.710450e+00	-5.868287e+01
1.550000e-06	-1.352990e-06	-7.825988e-10	-9.394340e+00	-5.798823e+01
1.560000e-06	-1.307438e-06	-7.676754e-10	-9.078058e+00	-5.728130e+01
1.570000e-06	-1.261771e-06	-7.544865e-10	-8.760973e+00	-5.656257e+01
1.580000e-06	-1.216030e-06	-7.427746e-10	-8.443377e+00	-5.583248e+01
1.590000e-06	-1.170271e-06	-7.326295e-10	-8.125652e+00	-5.509135e+01
1.600000e-06	-1.124435e-06	-7.191363e-10	-7.807396e+00	-5.433939e+01
1.610000e-06	-1.078455e-06	-7.048968e-10	-7.488135e+00	-5.357670e+01
1.620000e-06	-1.032382e-06	-6.904969e-10	-7.168233e+00	-5.280319e+01
1.630000e-06	-9.862227e-07	-6.770655e-10	-6.847732e+00	-5.201863e+01
1.640000e-06	-9.399080e-07	-6.652228e-10	-6.526151e+00	-5.122261e+01
1.650000e-06	-8.935801e-07	-6.550420e-10	-6.204478e+00	-5.041455e+01
1.660000e-06	-8.473022e-07	-6.475788e-10	-5.883153e+00	-4.959367e+01
1.670000e-06	-8.009155e-07	-6.381773e-10	-5.561071e+00	-4.875900e+01
1.680000e-06	-7.544094e-07	-6.257133e-10	-5.238161e+00	-4.790941e+01
1.690000e-06	-7.078909e-07	-6.112197e-10	-4.915165e+00	-4.704357e+01
1.700000e-06	-6.613725e-07	-5.950441e-10	-4.592169e+00	-4.615999e+01
1.710000e-06	-6.148326e-07	-5.773893e-10	-4.269024e+00	-4.525704e+01
1.720000e-06	-5.682141e-07	-5.587685e-10	-3.945334e+00	-4.433294e+01
1.730000e-06	-5.214872e-07	-5.428539e-10	-3.620891e+00	-4.338581e+01
1.740000e-06	-4.747272e-07	-5.315862e-10	-3.296217e+00	-4.241367e+01
1.750000e-06	-4.279517e-07	-5.204597e-10	-2.971437e+00	-4.141448e+01
1.760000e-06	-3.811290e-07	-5.056273e-10	-2.646328e+00	-4.038617e+01
1.770000e-06	-3.342467e-07	-4.880663e-10	-2.320806e+00	-3.932665e+01
1.780000e-06	-2.873152e-07	-4.718627e-10	-1.994943e+00	-3.823387e+01
1.790000e-06	-2.403294e-07	-4.570277e-10	-1.668702e+00	-3.710583e+01
1.800000e-06	-1.933473e-07	-4.433144e-10	-1.342486e+00	-3.594063e+01
1.810000e-06	-1.465017e-07	-4.277959e-10	-1.017219e+00	-3.473647e+01
1.820000e-06	-9.973172e-08	-4.109867e-10	-6.924765e-01	-3.349172e+01
1.830000e-06	-5.292379e-08	-3.931570e-10	-3.674707e-01	-3.220493e+01
1.840000e-06	-6.089483e-09	-3.749479e-10	-4.228167e-02	-3.087486e+01
1.850000e-06	4.073279e-08	-3.562901e-10	2.828237e-01	-2.950050e+01
1.860000e-06	8.760540e-08	-3.390907e-10	6.082787e-01	-2.808109e+01
1.870000e-06	1.345881e-07	-3.225076e-10	9.344982e-01	-2.661616e+01
1.880000e-06	1.815944e-07	-3.048632e-10	1.260882e+00	-2.510551e+01
1.890000e-06	2.285374e-07	-2.838721e-10	1.586825e+00	-2.354928e+01
1.900000e-06	2.753479e-07	-2.597055e-10	1.911849e+00	-2.194788e+01
1.910000e-06	3.220328e-07	-2.338695e-10	2.236000e+00	-2.030205e+01
1.920000e-06	3.687851e-07	-2.082170e-10	2.560620e+00	-1.861287e+01
1.930000e-06	4.155783e-07	-1.837567e-10	2.885523e+00	-1.688168e+01
1.940000e-06	4.623101e-07	-1.598723e-10	3.210001e+00	-1.511017e+01
1.950000e-06	5.090330e-07	-1.358156e-10	3.534416e+00	-1.330028e+01
1.960000e-06	5.557415e-07	-1.112246e-10	3.858731e+00	-1.145426e+01
1.970000e-06	6.023550e-07	-8.918067e-11	4.182388e+00	-9.574574e+00
1.980000e-06	6.488637e-07	-6.548597e-11	4.505316e+00	-7.663951e+00
1.990000e-06	6.953090e-07	-3.977555e-11	4.827804e+00	-5.725308e+00
2.000000e-06	7.417230e-07	-1.157306e-11	5.150075e+00	-3.761747e+00
2.010000e-06	7.881493e-07	1.628114e-11	5.472431e+00	-1.776517e+00
2.020000e-06	8.344466e-07	4.670169e-11	5.793890e+00	2.270131e-01
2.030000e-06	8.806547e-07	7.813357e-11	6.114732e+00	2.245388e+00
2.040000e-06	9.268714e-07	1.079332e-10	6.435633e+00	4.275094e+00
2.050000e-06	9.729920e-07	1.352286e-10	6.755866e+00	6.312597e+00
2.060000e-06	1.019021e-06	1.616987e-10	7.075465e+00	8.354366e+00
2.070000e-06	1.064997e-06	1.882055e-10	7.394693e+00	1.039691e+01
2.080000e-06	1.110879e-06	2.132759e-10	7.713271e+00	1.243680e+01
2.090000e-06	1.156709e-06	2.396723e-10	8.031482e+00	1.447070e+01
2.100000e-06	1.202452e-06	2.709258e-10	8.349099e+00	1.649540e+01
2.110000e-06	1.248069e-06	3.046378e-10	8.665831e+00	1.850781e+01
2.120000e-06	1.293728e-06	3.363315e-10	8.982859e+00	2.050501e+01
2.130000e-06	1.339312e-06	3.635841e-10	9.299368e+00	2.248426e+01
2.140000e-06	1.384705e-06	3.876041e-10	9.614548e+00	2.444299e+01
2.150000e-06	1.429999e-06	4.093576e-10	9.929048e+00	2.637886e+01
2.160000e-06	1.475151e-06	4.298449e-10	1.024256e+01	2.828970e+01
2.170000e-06	1.520122e-06	4.521660e-10	1.055481e+01	3.017358e+01
2.180000e-06	1.565008e-06	4.775757e-10	1.086647e+01	3.202876e+01
2.190000e-06	1.609886e-06	5.073612e-10	1.117807e+01	3.385373e+01
2.200000e-06	1.654698e-06	5.379082e-10	1.148922e+01	3.564718e+01
2.210000e-06	1.699342e-06	5.683710e-10	1.179920e+01	3.740799e+01
2.220000e-06	1.743819e-06	5.946167e-10	1.210802e+01	3.913525e+01
2.230000e-06	1.788142e-06	6.158924e-10	1.241577e+01	4.082822e+01
2.240000e-06	1.832265e-06	6.321761e-10	1.272213e+01	4.248635e+01
2.250000e-06	1.876260e-06	6.474755e-10	1.302761e+01	4.410922e+01
2.260000e-06	1.920167e-06	6.665857e-10	1.333247e+01	4.569657e+01
2.270000e-06	1.963975e-06	6.913835e-10	1.363665e+01	4.724828e+01
2.280000e-06	2.007717e-06	7.170641e-10	1.394037e+01	4.876433e+01
2.290000e-06	2.051416e-06	7.403665e-10	1.424379e+01	5.024479e+01
2.300000e-06	2.095063e-06	7.623787e-10	1.454685e+01	5.168985e+01
2.310000e-06	2.138652e-06	7.815463e-10	1.484950e+01	5.309975e+01
2.320000e-06	2.182169e-06	7.977114e-10	1.515166e+01	5.447479e+01
2.330000e-06	2.225570e-06	8.122961e-10	1.545301e+01	5.581531e+01
2.340000e-06	2.268845e-06	8.280092e-10	1.575348e+01	5.712171e+01
2.350000e-06	2.311997e-06	8.455743e-10	1.605311e+01	5.839440e+01
2.360000e-06	2.355043e-06	8.633437e-10	1.635199e+01	5.963380e+01
2.370000e-06	2.397879e-06	8.808220e-10	1.664942e+01	6.084036e+01
2.380000e-06	2.440302e-06	8.973126e-10	1.694398e+01	6.201453e+01
2.390000e-06	2.482336e-06	9.126264e-10	1.723583e+01	6.315675e+01
2.400000e-06	2.524053e-06	9.265661e-10	1.752549e+01	6.426746e+01
2.410000e-06	2.565478e-06	9.407617e-10	1.781312e+01	6.534711e+01
2.420000e-06	2.606651e-06	9.560616e-10	1.809900e+01	6.639612e+01
2.430000e-06	2.647556e-06	9.715298e-10	1.838302e+01	6.741494e+01
2.440000e-06	2.688163e-06	9.876756e-10	1.866497e+01	6.840397e+01
2.450000e-06	2.728502e-06	1.002352e-09	1.894506e+01	6.936364e+01
2.460000e-06	2.768650e-06	1.015489e-09	1.922383e+01	7.029438e+01
2.470000e-06	2.808606e-06	1.025964e-09	1.950126e+01	7.119661e+01
2.480000e-06	2.848399e-06	1.035745e-09	1.977756e+01	7.207075e+01
2.490000e-06	2.888064e-06	1.044566e-09	2.005296e+01	7.291726e+01
2.500000e-06	2.927591e-06	1.052379e-09	2.032741e+01	7.373656e+01
2.510000e-06	2.966988e-06	1.066202e-09	2.060097e+01	7.452914e+01
2.520000e-06	3.006253e-06	1.081157e-09	2.087360e+01	7.529546e+01
2.530000e-06	3.045353e-06	1.094864e-09	2.114509e+01	7.603603e+01
2.540000e-06	3.084192e-06	1.110923e-09	2.141476e+01	7.675137e+01
2.550000e-06	3.122741e-06	1.123708e-09	2.168242e+01	7.744201e+01
2.560000e-06	3.161115e-06	1.130610e-09	2.194886e+01	7.810852e+01
2.570000e-06	3.199373e-06	1.132838e-09	2.221450e+01	7.875147e+01
2.580000e-06	3.237425e-06	1.134306e-09	2.247872e+01	7.937148e+01
2.590000e-06	3.275240e-06	1.137505e-09	2.274128e+01	7.996915e+01
2.600000e-06	3.312838e-06	1.147939e-09	2.300234e+01	8.054513e+01
2.610000e-06	3.350188e-06	1.163881e-09	2.326167e+01	8.110007e+01
2.620000e-06	3.387307e-06	1.180916e-09	2.351940e+01	8.163463e+01
2.630000e-06	3.424219e-06	1.194205e-09	2.377570e+01	8.214948e+01
2.640000e-06	3.460921e-06	1.200787e-09	2.403054e+01	8.264531e+01
2.650000e-06	3.497415e-06	1.202169e-09	2.428393e+01	8.312277e+01
2.660000e-06	3.533653e-06	1.201603e-09	2.453554e+01	8.358256e+01
2.670000e-06	3.569612e-06	1.203615e-09	2.478522e+01	8.402534e+01
2.680000e-06	3.605372e-06	1.208315e-09	2.503351e+01	8.445175e+01
2.690000e-06	3.641000e-06	1.216189e-09	2.528089e+01	8.486245e+01
2.700000e-06	3.676490e-06	1.227220e-09	2.552732e+01	8.525806e+01
2.710000e-06	3.711868e-06	1.235847e-09	2.577296e+01	8.563919e+01
2.720000e-06	3.747080e-06	1.240510e-09	2.601745e+01	8.600641e+01
2.730000e-06	3.781919e-06	1.242470e-09	2.625935e+01	8.636029e+01
2.740000e-06	3.816262e-06	1.244145e-09	2.649781e+01	8.670135e+01
2.750000e-06	3.850116e-06	1.248627e-09	2.673287e+01	8.703011e+01
2.760000e-06	3.883520e-06	1.254011e-09	2.696480e+01	8.734703e+01
2.770000e-06	3.916544e-06	1.258247e-09	2.719411e+01	8.765257e+01
2.780000e-06	3.949230e-06	1.262542e-09	2.742106e+01	8.794714e+01
2.790000e-06	3.981541e-06	1.266028e-09	2.764540e+01	8.823114e+01
2.800000e-06	4.013562e-06	1.269225e-09	2.786774e+01	8.850493e+01
2.810000e-06	4.045467e-06	1.273158e-09	2.808926e+01	8.876886e+01
2.820000e-06	4.077194e-06	1.277825e-09	2.830956e+01	8.902325e+01
2.830000e-06	4.108683e-06	1.283425e-09	2.852820e+01	8.926839e+01
2.840000e-06	4.139969e-06	1.287841e-09	2.874543e+01	8.950457e+01
2.850000e-06	4.170954e-06	1.293023e-09	2.896057e+01	8.973205e+01
2.860000e-06	4.201637e-06	1.300327e-09	2.917362e+01	8.995108e+01
2.870000e-06	4.232028e-06	1.307477e-09	2.938463e+01	9.016191e+01
2.880000e-06	4.262032e-06	1.309379e-09	2.959296e+01	9.036476e+01
2.890000e-06	4.291705e-06	1.309021e-09	2.979899e+01	9.055987e+01
2.900000e-06	4.321149e-06	1.310283e-09	3.000344e+01	9.074744e+01
