# Temperatura_=_11.9
# Concentracion g/m^3_=_1620.0
# C_Vs_to_Am_M_A/Vsm_=_65563218390.804596
# pendiente_HvsI_1/m_=_3716.3
# ordenada_HvsI_A/m_=_1297.0
# frecuencia_Hz_=_135109.0278545218

Tiempo_(s)	Campo_(V.s)	Magnetizacion_(V.s)	Campo_(kA/m)	Magnetizacion_(A/m)
0.000000e+00	-5.517975e-06	-1.749010e-09	-3.836466e+01	-1.137433e+02
1.000000e-08	-5.518214e-06	-1.748552e-09	-3.836632e+01	-1.136975e+02
2.000000e-08	-5.518229e-06	-1.750250e-09	-3.836642e+01	-1.136518e+02
3.000000e-08	-5.517834e-06	-1.752250e-09	-3.836368e+01	-1.136060e+02
4.000000e-08	-5.516898e-06	-1.753951e-09	-3.835717e+01	-1.135596e+02
5.000000e-08	-5.515400e-06	-1.750396e-09	-3.834676e+01	-1.135122e+02
6.000000e-08	-5.513275e-06	-1.738552e-09	-3.833198e+01	-1.134633e+02
7.000000e-08	-5.510567e-06	-1.732903e-09	-3.831316e+01	-1.134122e+02
8.000000e-08	-5.507428e-06	-1.745392e-09	-3.829133e+01	-1.133584e+02
9.000000e-08	-5.503847e-06	-1.772520e-09	-3.826643e+01	-1.133014e+02
1.000000e-07	-5.499830e-06	-1.797308e-09	-3.823850e+01	-1.132404e+02
1.100000e-07	-5.495414e-06	-1.760556e-09	-3.820780e+01	-1.131749e+02
1.200000e-07	-5.490772e-06	-1.691159e-09	-3.817553e+01	-1.131044e+02
1.300000e-07	-5.485946e-06	-1.681009e-09	-3.814198e+01	-1.130281e+02
1.400000e-07	-5.480669e-06	-1.721104e-09	-3.810528e+01	-1.129456e+02
1.500000e-07	-5.474931e-06	-1.745009e-09	-3.806539e+01	-1.128565e+02
1.600000e-07	-5.468936e-06	-1.706188e-09	-3.802371e+01	-1.127603e+02
1.700000e-07	-5.462674e-06	-1.712741e-09	-3.798017e+01	-1.126567e+02
1.800000e-07	-5.455949e-06	-1.755025e-09	-3.793341e+01	-1.125454e+02
1.900000e-07	-5.448742e-06	-1.769627e-09	-3.788331e+01	-1.124262e+02
2.000000e-07	-5.441207e-06	-1.727788e-09	-3.783092e+01	-1.122991e+02
2.100000e-07	-5.433479e-06	-1.701532e-09	-3.777719e+01	-1.121639e+02
2.200000e-07	-5.425576e-06	-1.714275e-09	-3.772224e+01	-1.120209e+02
2.300000e-07	-5.417421e-06	-1.727901e-09	-3.766554e+01	-1.118700e+02
2.400000e-07	-5.408770e-06	-1.720480e-09	-3.760540e+01	-1.117116e+02
2.500000e-07	-5.399330e-06	-1.694882e-09	-3.753976e+01	-1.115460e+02
2.600000e-07	-5.389132e-06	-1.686646e-09	-3.746886e+01	-1.113735e+02
2.700000e-07	-5.378401e-06	-1.679451e-09	-3.739425e+01	-1.111946e+02
2.800000e-07	-5.367248e-06	-1.670436e-09	-3.731671e+01	-1.110097e+02
2.900000e-07	-5.355673e-06	-1.663511e-09	-3.723623e+01	-1.108194e+02
3.000000e-07	-5.343657e-06	-1.677481e-09	-3.715268e+01	-1.106242e+02
3.100000e-07	-5.331232e-06	-1.671921e-09	-3.706630e+01	-1.104248e+02
3.200000e-07	-5.318327e-06	-1.657757e-09	-3.697658e+01	-1.102216e+02
3.300000e-07	-5.304965e-06	-1.642132e-09	-3.688368e+01	-1.100154e+02
3.400000e-07	-5.291355e-06	-1.649303e-09	-3.678905e+01	-1.098066e+02
3.500000e-07	-5.277412e-06	-1.650865e-09	-3.669211e+01	-1.095958e+02
3.600000e-07	-5.262972e-06	-1.644901e-09	-3.659171e+01	-1.093835e+02
3.700000e-07	-5.248147e-06	-1.649102e-09	-3.648864e+01	-1.091701e+02
3.800000e-07	-5.232820e-06	-1.667395e-09	-3.638207e+01	-1.089562e+02
3.900000e-07	-5.216810e-06	-1.657156e-09	-3.627076e+01	-1.087419e+02
4.000000e-07	-5.200326e-06	-1.635550e-09	-3.615615e+01	-1.085277e+02
4.100000e-07	-5.183588e-06	-1.646196e-09	-3.603978e+01	-1.083136e+02
4.200000e-07	-5.166578e-06	-1.654676e-09	-3.592151e+01	-1.081000e+02
4.300000e-07	-5.149204e-06	-1.628450e-09	-3.580072e+01	-1.078867e+02
4.400000e-07	-5.131568e-06	-1.629558e-09	-3.567810e+01	-1.076739e+02
4.500000e-07	-5.113624e-06	-1.657834e-09	-3.555334e+01	-1.074615e+02
4.600000e-07	-5.095156e-06	-1.635197e-09	-3.542494e+01	-1.072492e+02
4.700000e-07	-5.076187e-06	-1.601067e-09	-3.529306e+01	-1.070370e+02
4.800000e-07	-5.056945e-06	-1.625141e-09	-3.515927e+01	-1.068246e+02
4.900000e-07	-5.037477e-06	-1.630650e-09	-3.502392e+01	-1.066116e+02
5.000000e-07	-5.017745e-06	-1.585889e-09	-3.488673e+01	-1.063978e+02
5.100000e-07	-4.997855e-06	-1.589880e-09	-3.474844e+01	-1.061827e+02
5.200000e-07	-4.977659e-06	-1.616702e-09	-3.460802e+01	-1.059661e+02
5.300000e-07	-4.957043e-06	-1.594414e-09	-3.446469e+01	-1.057475e+02
5.400000e-07	-4.936114e-06	-1.586581e-09	-3.431918e+01	-1.055265e+02
5.500000e-07	-4.914886e-06	-1.616122e-09	-3.417158e+01	-1.053027e+02
5.600000e-07	-4.893289e-06	-1.592212e-09	-3.402143e+01	-1.050758e+02
5.700000e-07	-4.871342e-06	-1.560267e-09	-3.386883e+01	-1.048455e+02
5.800000e-07	-4.849082e-06	-1.583888e-09	-3.371407e+01	-1.046114e+02
5.900000e-07	-4.826435e-06	-1.589058e-09	-3.355661e+01	-1.043733e+02
6.000000e-07	-4.803383e-06	-1.553736e-09	-3.339634e+01	-1.041309e+02
6.100000e-07	-4.780042e-06	-1.558250e-09	-3.323406e+01	-1.038842e+02
6.200000e-07	-4.756458e-06	-1.567604e-09	-3.307009e+01	-1.036330e+02
6.300000e-07	-4.732688e-06	-1.540672e-09	-3.290482e+01	-1.033772e+02
6.400000e-07	-4.708731e-06	-1.534145e-09	-3.273825e+01	-1.031168e+02
6.500000e-07	-4.684459e-06	-1.552105e-09	-3.256950e+01	-1.028519e+02
6.600000e-07	-4.659740e-06	-1.538939e-09	-3.239764e+01	-1.025825e+02
6.700000e-07	-4.634470e-06	-1.526982e-09	-3.222194e+01	-1.023088e+02
6.800000e-07	-4.608585e-06	-1.536306e-09	-3.204197e+01	-1.020309e+02
6.900000e-07	-4.582056e-06	-1.528860e-09	-3.185753e+01	-1.017491e+02
7.000000e-07	-4.555040e-06	-1.511095e-09	-3.166969e+01	-1.014635e+02
7.100000e-07	-4.527726e-06	-1.512541e-09	-3.147978e+01	-1.011744e+02
7.200000e-07	-4.500216e-06	-1.510545e-09	-3.128852e+01	-1.008820e+02
7.300000e-07	-4.472536e-06	-1.499545e-09	-3.109607e+01	-1.005866e+02
7.400000e-07	-4.444669e-06	-1.499344e-09	-3.090232e+01	-1.002884e+02
7.500000e-07	-4.416610e-06	-1.498048e-09	-3.070724e+01	-9.998760e+01
7.600000e-07	-4.388297e-06	-1.486960e-09	-3.051038e+01	-9.968437e+01
7.700000e-07	-4.359616e-06	-1.480570e-09	-3.031097e+01	-9.937888e+01
7.800000e-07	-4.330523e-06	-1.476423e-09	-3.010870e+01	-9.907126e+01
7.900000e-07	-4.301064e-06	-1.467709e-09	-2.990388e+01	-9.876158e+01
8.000000e-07	-4.271351e-06	-1.465670e-09	-2.969729e+01	-9.844986e+01
8.100000e-07	-4.241430e-06	-1.465260e-09	-2.948926e+01	-9.813610e+01
8.200000e-07	-4.211319e-06	-1.456956e-09	-2.927991e+01	-9.782023e+01
8.300000e-07	-4.180968e-06	-1.450639e-09	-2.906889e+01	-9.750214e+01
8.400000e-07	-4.150252e-06	-1.451978e-09	-2.885534e+01	-9.718168e+01
8.500000e-07	-4.119112e-06	-1.448801e-09	-2.863883e+01	-9.685864e+01
8.600000e-07	-4.087749e-06	-1.445220e-09	-2.842077e+01	-9.653279e+01
8.700000e-07	-4.056309e-06	-1.443700e-09	-2.820218e+01	-9.620386e+01
8.800000e-07	-4.024745e-06	-1.437384e-09	-2.798273e+01	-9.587158e+01
8.900000e-07	-3.993036e-06	-1.424010e-09	-2.776227e+01	-9.553561e+01
9.000000e-07	-3.961078e-06	-1.417256e-09	-2.754007e+01	-9.519565e+01
9.100000e-07	-3.928837e-06	-1.411225e-09	-2.731591e+01	-9.485139e+01
9.200000e-07	-3.896274e-06	-1.402547e-09	-2.708951e+01	-9.450250e+01
9.300000e-07	-3.863156e-06	-1.399143e-09	-2.685925e+01	-9.414870e+01
9.400000e-07	-3.829541e-06	-1.397607e-09	-2.662553e+01	-9.378972e+01
9.500000e-07	-3.795495e-06	-1.388882e-09	-2.638883e+01	-9.342533e+01
9.600000e-07	-3.761012e-06	-1.379306e-09	-2.614908e+01	-9.305533e+01
9.700000e-07	-3.726209e-06	-1.372546e-09	-2.590710e+01	-9.267957e+01
9.800000e-07	-3.691052e-06	-1.364481e-09	-2.566267e+01	-9.229797e+01
9.900000e-07	-3.655610e-06	-1.354892e-09	-2.541625e+01	-9.191048e+01
1.000000e-06	-3.620017e-06	-1.351485e-09	-2.516878e+01	-9.151711e+01
1.010000e-06	-3.584335e-06	-1.346119e-09	-2.492070e+01	-9.111796e+01
1.020000e-06	-3.548559e-06	-1.336723e-09	-2.467196e+01	-9.071314e+01
1.030000e-06	-3.512598e-06	-1.329866e-09	-2.442194e+01	-9.030285e+01
1.040000e-06	-3.476365e-06	-1.324709e-09	-2.417002e+01	-8.988733e+01
1.050000e-06	-3.439873e-06	-1.317697e-09	-2.391630e+01	-8.946686e+01
1.060000e-06	-3.403080e-06	-1.308449e-09	-2.366049e+01	-8.904176e+01
1.070000e-06	-3.365921e-06	-1.299346e-09	-2.340214e+01	-8.861239e+01
1.080000e-06	-3.328549e-06	-1.289261e-09	-2.314230e+01	-8.817912e+01
1.090000e-06	-3.291016e-06	-1.279672e-09	-2.288135e+01	-8.774233e+01
1.100000e-06	-3.253220e-06	-1.272829e-09	-2.261857e+01	-8.730240e+01
1.110000e-06	-3.215262e-06	-1.266926e-09	-2.235465e+01	-8.685970e+01
1.120000e-06	-3.177079e-06	-1.258162e-09	-2.208918e+01	-8.641456e+01
1.130000e-06	-3.138659e-06	-1.248353e-09	-2.182206e+01	-8.596729e+01
1.140000e-06	-3.100093e-06	-1.238607e-09	-2.155393e+01	-8.551814e+01
1.150000e-06	-3.061275e-06	-1.232731e-09	-2.128404e+01	-8.506731e+01
1.160000e-06	-3.022193e-06	-1.229301e-09	-2.101231e+01	-8.461492e+01
1.170000e-06	-2.982940e-06	-1.225562e-09	-2.073940e+01	-8.416102e+01
1.180000e-06	-2.943539e-06	-1.218397e-09	-2.046545e+01	-8.370557e+01
1.190000e-06	-2.904004e-06	-1.209411e-09	-2.019058e+01	-8.324844e+01
1.200000e-06	-2.864345e-06	-1.197311e-09	-1.991485e+01	-8.278941e+01
1.210000e-06	-2.824583e-06	-1.184872e-09	-1.963839e+01	-8.232816e+01
1.220000e-06	-2.784712e-06	-1.174561e-09	-1.936119e+01	-8.186427e+01
1.230000e-06	-2.744633e-06	-1.167104e-09	-1.908253e+01	-8.139723e+01
1.240000e-06	-2.704313e-06	-1.159320e-09	-1.880219e+01	-8.092644e+01
1.250000e-06	-2.663770e-06	-1.151886e-09	-1.852031e+01	-8.045123e+01
1.260000e-06	-2.623007e-06	-1.146002e-09	-1.823691e+01	-7.997082e+01
1.270000e-06	-2.581943e-06	-1.139465e-09	-1.795140e+01	-7.948441e+01
1.280000e-06	-2.540607e-06	-1.131433e-09	-1.766400e+01	-7.899110e+01
1.290000e-06	-2.499093e-06	-1.121755e-09	-1.737537e+01	-7.848999e+01
1.300000e-06	-2.457290e-06	-1.109544e-09	-1.708473e+01	-7.798013e+01
1.310000e-06	-2.415088e-06	-1.097673e-09	-1.679131e+01	-7.746058e+01
1.320000e-06	-2.372549e-06	-1.086964e-09	-1.649555e+01	-7.693038e+01
1.330000e-06	-2.329746e-06	-1.077125e-09	-1.619795e+01	-7.638861e+01
1.340000e-06	-2.286738e-06	-1.068841e-09	-1.589894e+01	-7.583437e+01
1.350000e-06	-2.243586e-06	-1.062094e-09	-1.559891e+01	-7.526684e+01
1.360000e-06	-2.200266e-06	-1.055634e-09	-1.529772e+01	-7.468523e+01
1.370000e-06	-2.156794e-06	-1.047244e-09	-1.499548e+01	-7.408885e+01
1.380000e-06	-2.113198e-06	-1.037478e-09	-1.469237e+01	-7.347710e+01
1.390000e-06	-2.069514e-06	-1.025032e-09	-1.438865e+01	-7.284948e+01
1.400000e-06	-2.025787e-06	-1.009940e-09	-1.408463e+01	-7.220559e+01
1.410000e-06	-1.981994e-06	-9.951008e-10	-1.378015e+01	-7.154514e+01
1.420000e-06	-1.938147e-06	-9.822358e-10	-1.347530e+01	-7.086797e+01
1.430000e-06	-1.894192e-06	-9.706184e-10	-1.316969e+01	-7.017404e+01
1.440000e-06	-1.850083e-06	-9.626407e-10	-1.286302e+01	-6.946340e+01
1.450000e-06	-1.805874e-06	-9.568015e-10	-1.255565e+01	-6.873623e+01
1.460000e-06	-1.761574e-06	-9.497594e-10	-1.224764e+01	-6.799281e+01
1.470000e-06	-1.717115e-06	-9.395093e-10	-1.193853e+01	-6.723350e+01
1.480000e-06	-1.672510e-06	-9.292270e-10	-1.162841e+01	-6.645874e+01
1.490000e-06	-1.627850e-06	-9.172605e-10	-1.131791e+01	-6.566905e+01
1.500000e-06	-1.583088e-06	-8.999319e-10	-1.100669e+01	-6.486498e+01
1.510000e-06	-1.538204e-06	-8.824842e-10	-1.069463e+01	-6.404712e+01
1.520000e-06	-1.493162e-06	-8.696231e-10	-1.038147e+01	-6.321605e+01
1.530000e-06	-1.447923e-06	-8.592512e-10	-1.006693e+01	-6.237237e+01
1.540000e-06	-1.402598e-06	-8.499947e-10	-9.751803e+00	-6.151662e+01
1.550000e-06	-1.357217e-06	-8.391944e-10	-9.436280e+00	-6.064929e+01
1.560000e-06	-1.311748e-06	-8.248787e-10	-9.120149e+00	-5.977081e+01
1.570000e-06	-1.266167e-06	-8.071126e-10	-8.803243e+00	-5.888150e+01
1.580000e-06	-1.220529e-06	-7.902273e-10	-8.485935e+00	-5.798156e+01
1.590000e-06	-1.174904e-06	-7.750745e-10	-8.168722e+00	-5.707108e+01
1.600000e-06	-1.129218e-06	-7.586362e-10	-7.851077e+00	-5.614997e+01
1.610000e-06	-1.083406e-06	-7.433964e-10	-7.532563e+00	-5.521801e+01
1.620000e-06	-1.037438e-06	-7.317045e-10	-7.212966e+00	-5.427479e+01
1.630000e-06	-9.913417e-07	-7.205901e-10	-6.892472e+00	-5.331972e+01
1.640000e-06	-9.452115e-07	-7.082122e-10	-6.571744e+00	-5.235204e+01
1.650000e-06	-8.991019e-07	-6.943514e-10	-6.251159e+00	-5.137077e+01
1.660000e-06	-8.528955e-07	-6.794192e-10	-5.929901e+00	-5.037479e+01
1.670000e-06	-8.065172e-07	-6.646087e-10	-5.607448e+00	-4.936277e+01
1.680000e-06	-7.600787e-07	-6.480131e-10	-5.284577e+00	-4.833323e+01
1.690000e-06	-7.136359e-07	-6.306331e-10	-4.961675e+00	-4.728451e+01
1.700000e-06	-6.671651e-07	-6.123298e-10	-4.638579e+00	-4.621484e+01
1.710000e-06	-6.206567e-07	-5.915725e-10	-4.315221e+00	-4.512231e+01
1.720000e-06	-5.740949e-07	-5.694358e-10	-3.991493e+00	-4.400492e+01
1.730000e-06	-5.274703e-07	-5.494500e-10	-3.667327e+00	-4.286058e+01
1.740000e-06	-4.807800e-07	-5.337783e-10	-3.342705e+00	-4.168716e+01
1.750000e-06	-4.340329e-07	-5.175305e-10	-3.017688e+00	-4.048251e+01
1.760000e-06	-3.873248e-07	-4.986195e-10	-2.692941e+00	-3.924451e+01
1.770000e-06	-3.406797e-07	-4.791596e-10	-2.368634e+00	-3.797104e+01
1.780000e-06	-2.939243e-07	-4.596462e-10	-2.043559e+00	-3.666009e+01
1.790000e-06	-2.470627e-07	-4.411706e-10	-1.717745e+00	-3.530974e+01
1.800000e-06	-2.002718e-07	-4.223114e-10	-1.392424e+00	-3.391820e+01
1.810000e-06	-1.534869e-07	-4.014044e-10	-1.067144e+00	-3.248385e+01
1.820000e-06	-1.066947e-07	-3.788217e-10	-7.418134e-01	-3.100526e+01
1.830000e-06	-5.983833e-08	-3.596474e-10	-4.160362e-01	-2.948122e+01
1.840000e-06	-1.290497e-08	-3.421693e-10	-8.972403e-02	-2.791077e+01
1.850000e-06	3.396065e-08	-3.243414e-10	2.361172e-01	-2.629321e+01
1.860000e-06	8.074530e-08	-3.045010e-10	5.613955e-01	-2.462812e+01
1.870000e-06	1.275027e-07	-2.804651e-10	8.864841e-01	-2.291539e+01
1.880000e-06	1.743151e-07	-2.520055e-10	1.211955e+00	-2.115522e+01
1.890000e-06	2.211462e-07	-2.212357e-10	1.537557e+00	-1.934811e+01
1.900000e-06	2.678756e-07	-1.930950e-10	1.862451e+00	-1.749490e+01
1.910000e-06	3.144975e-07	-1.688847e-10	2.186597e+00	-1.559676e+01
1.920000e-06	3.611650e-07	-1.453219e-10	2.511061e+00	-1.365516e+01
1.930000e-06	4.079154e-07	-1.206731e-10	2.836101e+00	-1.167190e+01
1.940000e-06	4.545852e-07	-9.432534e-11	3.160581e+00	-9.649053e+00
1.950000e-06	5.011792e-07	-6.533655e-11	3.484534e+00	-7.589011e+00
1.960000e-06	5.477414e-07	-3.408375e-11	3.808266e+00	-5.494414e+00
1.970000e-06	5.942097e-07	-2.212548e-12	4.131344e+00	-3.368151e+00
1.980000e-06	6.406526e-07	2.707231e-11	4.454246e+00	-1.213334e+00
1.990000e-06	6.870596e-07	5.503746e-11	4.776899e+00	9.667282e-01
2.000000e-06	7.333646e-07	8.262296e-11	5.098842e+00	3.168561e+00
2.010000e-06	7.797340e-07	1.100953e-10	5.421234e+00	5.388553e+00
2.020000e-06	8.260895e-07	1.398634e-10	5.743528e+00	7.622985e+00
2.030000e-06	8.722678e-07	1.743259e-10	6.064591e+00	9.868066e+00
2.040000e-06	9.184180e-07	2.110850e-10	6.385457e+00	1.211996e+01
2.050000e-06	9.645367e-07	2.469764e-10	6.706106e+00	1.437483e+01
2.060000e-06	1.010564e-06	2.790594e-10	7.026117e+00	1.662884e+01
2.070000e-06	1.056492e-06	3.070544e-10	7.345443e+00	1.887823e+01
2.080000e-06	1.102358e-06	3.329838e-10	7.664331e+00	2.111932e+01
2.090000e-06	1.148197e-06	3.597348e-10	7.983036e+00	2.334852e+01
2.100000e-06	1.193912e-06	3.905414e-10	8.300874e+00	2.556238e+01
2.110000e-06	1.239504e-06	4.218248e-10	8.617861e+00	2.775764e+01
2.120000e-06	1.284999e-06	4.538076e-10	8.934177e+00	2.993117e+01
2.130000e-06	1.330432e-06	4.868378e-10	9.250058e+00	3.208008e+01
2.140000e-06	1.375797e-06	5.174916e-10	9.565463e+00	3.420167e+01
2.150000e-06	1.421002e-06	5.453929e-10	9.879761e+00	3.629347e+01
2.160000e-06	1.466127e-06	5.709840e-10	1.019350e+01	3.835325e+01
2.170000e-06	1.511201e-06	5.959566e-10	1.050688e+01	4.037902e+01
2.180000e-06	1.556126e-06	6.204063e-10	1.081923e+01	4.236903e+01
2.190000e-06	1.600848e-06	6.475634e-10	1.113017e+01	4.432178e+01
2.200000e-06	1.645458e-06	6.786705e-10	1.144033e+01	4.623602e+01
2.210000e-06	1.690039e-06	7.110129e-10	1.175028e+01	4.811074e+01
2.220000e-06	1.734532e-06	7.418154e-10	1.205963e+01	4.994514e+01
2.230000e-06	1.778876e-06	7.691953e-10	1.236794e+01	5.173866e+01
2.240000e-06	1.823074e-06	7.897588e-10	1.267523e+01	5.349097e+01
2.250000e-06	1.867128e-06	8.051605e-10	1.298153e+01	5.520190e+01
2.260000e-06	1.911072e-06	8.207693e-10	1.328706e+01	5.687150e+01
2.270000e-06	1.954948e-06	8.394995e-10	1.359211e+01	5.849997e+01
2.280000e-06	1.998757e-06	8.610129e-10	1.389670e+01	6.008768e+01
2.290000e-06	2.042490e-06	8.845658e-10	1.420076e+01	6.163510e+01
2.300000e-06	2.086191e-06	9.085426e-10	1.450460e+01	6.314286e+01
2.310000e-06	2.129845e-06	9.323635e-10	1.480811e+01	6.461167e+01
2.320000e-06	2.173413e-06	9.529578e-10	1.511102e+01	6.604233e+01
2.330000e-06	2.216861e-06	9.685320e-10	1.541310e+01	6.743572e+01
2.340000e-06	2.260115e-06	9.822292e-10	1.571383e+01	6.879274e+01
2.350000e-06	2.303252e-06	9.972632e-10	1.601375e+01	7.011436e+01
2.360000e-06	2.346159e-06	1.014070e-09	1.631207e+01	7.140155e+01
2.370000e-06	2.388717e-06	1.031598e-09	1.660796e+01	7.265531e+01
2.380000e-06	2.431093e-06	1.050533e-09	1.690259e+01	7.387662e+01
2.390000e-06	2.473254e-06	1.069044e-09	1.719572e+01	7.506645e+01
2.400000e-06	2.515111e-06	1.087111e-09	1.748674e+01	7.622577e+01
2.410000e-06	2.556562e-06	1.103804e-09	1.777493e+01	7.735551e+01
2.420000e-06	2.597644e-06	1.118463e-09	1.806056e+01	7.845654e+01
2.430000e-06	2.638492e-06	1.131615e-09	1.834457e+01	7.952973e+01
2.440000e-06	2.679084e-06	1.145575e-09	1.862679e+01	8.057588e+01
2.450000e-06	2.719470e-06	1.160776e-09	1.890758e+01	8.159577e+01
2.460000e-06	2.759628e-06	1.177061e-09	1.918678e+01	8.259011e+01
2.470000e-06	2.799550e-06	1.194206e-09	1.946435e+01	8.355959e+01
2.480000e-06	2.839327e-06	1.208075e-09	1.974090e+01	8.450483e+01
2.490000e-06	2.879004e-06	1.220745e-09	2.001677e+01	8.542644e+01
2.500000e-06	2.918598e-06	1.231789e-09	2.029205e+01	8.632496e+01
2.510000e-06	2.958051e-06	1.244464e-09	2.056635e+01	8.720092e+01
2.520000e-06	2.997297e-06	1.259008e-09	2.083922e+01	8.805481e+01
2.530000e-06	3.036399e-06	1.272712e-09	2.111108e+01	8.888710e+01
2.540000e-06	3.075368e-06	1.287750e-09	2.138202e+01	8.969823e+01
2.550000e-06	3.114143e-06	1.298974e-09	2.165161e+01	9.048862e+01
2.560000e-06	3.152632e-06	1.307101e-09	2.191921e+01	9.125869e+01
2.570000e-06	3.190827e-06	1.314013e-09	2.218477e+01	9.200883e+01
2.580000e-06	3.228827e-06	1.319983e-09	2.244897e+01	9.273946e+01
2.590000e-06	3.266578e-06	1.325304e-09	2.271144e+01	9.345096e+01
2.600000e-06	3.304117e-06	1.336062e-09	2.297243e+01	9.414373e+01
2.610000e-06	3.341472e-06	1.351580e-09	2.323215e+01	9.481816e+01
2.620000e-06	3.378606e-06	1.369534e-09	2.349033e+01	9.547465e+01
2.630000e-06	3.415505e-06	1.383991e-09	2.374688e+01	9.611363e+01
2.640000e-06	3.452042e-06	1.392426e-09	2.400091e+01	9.673548e+01
2.650000e-06	3.488248e-06	1.399516e-09	2.425264e+01	9.734063e+01
2.660000e-06	3.524284e-06	1.403672e-09	2.450318e+01	9.792951e+01
2.670000e-06	3.560227e-06	1.405749e-09	2.475308e+01	9.850252e+01
2.680000e-06	3.596036e-06	1.409893e-09	2.500205e+01	9.906010e+01
2.690000e-06	3.631707e-06	1.418812e-09	2.525006e+01	9.960265e+01
2.700000e-06	3.667239e-06	1.431210e-09	2.549710e+01	1.001306e+02
2.710000e-06	3.702563e-06	1.441332e-09	2.574270e+01	1.006444e+02
2.720000e-06	3.737671e-06	1.449153e-09	2.598680e+01	1.011443e+02
2.730000e-06	3.772532e-06	1.454432e-09	2.622917e+01	1.016309e+02
2.740000e-06	3.806997e-06	1.456379e-09	2.646880e+01	1.021044e+02
2.750000e-06	3.841009e-06	1.459051e-09	2.670527e+01	1.025652e+02
2.760000e-06	3.874529e-06	1.464623e-09	2.693832e+01	1.030136e+02
2.770000e-06	3.907573e-06	1.472776e-09	2.716806e+01	1.034499e+02
2.780000e-06	3.940216e-06	1.481468e-09	2.739502e+01	1.038744e+02
2.790000e-06	3.972522e-06	1.489766e-09	2.761964e+01	1.042874e+02
2.800000e-06	4.004554e-06	1.496731e-09	2.784234e+01	1.046889e+02
2.810000e-06	4.036346e-06	1.502787e-09	2.806338e+01	1.050793e+02
2.820000e-06	4.067970e-06	1.507537e-09	2.828325e+01	1.054587e+02
2.830000e-06	4.099443e-06	1.512072e-09	2.850207e+01	1.058271e+02
2.840000e-06	4.130708e-06	1.517076e-09	2.871945e+01	1.061847e+02
2.850000e-06	4.161700e-06	1.522395e-09	2.893493e+01	1.065316e+02
2.860000e-06	4.192392e-06	1.527718e-09	2.914832e+01	1.068678e+02
2.870000e-06	4.222740e-06	1.533976e-09	2.935932e+01	1.071933e+02
2.880000e-06	4.252744e-06	1.538929e-09	2.956793e+01	1.075082e+02
2.890000e-06	4.282483e-06	1.541681e-09	2.977469e+01	1.078124e+02
2.900000e-06	4.311918e-06	1.545568e-09	2.997934e+01	1.081060e+02
