# Temperatura_=_13.1
# Concentracion g/m^3_=_1620.0
# C_Vs_to_Am_M_A/Vsm_=_65563218390.804596
# pendiente_HvsI_1/m_=_3716.3
# ordenada_HvsI_A/m_=_1297.0
# frecuencia_Hz_=_135107.34838481166

Tiempo_(s)	Campo_(V.s)	Magnetizacion_(V.s)	Campo_(kA/m)	Magnetizacion_(A/m)
0.000000e+00	-5.534283e-06	-1.844002e-09	-3.836946e+01	-1.208908e+02
1.000000e-08	-5.534595e-06	-1.839468e-09	-3.837162e+01	-1.208217e+02
2.000000e-08	-5.534661e-06	-1.837577e-09	-3.837208e+01	-1.207510e+02
3.000000e-08	-5.534310e-06	-1.837565e-09	-3.836964e+01	-1.206788e+02
4.000000e-08	-5.533451e-06	-1.837396e-09	-3.836369e+01	-1.206054e+02
5.000000e-08	-5.532037e-06	-1.835289e-09	-3.835389e+01	-1.205308e+02
6.000000e-08	-5.530056e-06	-1.824846e-09	-3.834015e+01	-1.204551e+02
7.000000e-08	-5.527569e-06	-1.814192e-09	-3.832290e+01	-1.203783e+02
8.000000e-08	-5.524581e-06	-1.831345e-09	-3.830219e+01	-1.203005e+02
9.000000e-08	-5.521131e-06	-1.867058e-09	-3.827827e+01	-1.202215e+02
1.000000e-07	-5.517161e-06	-1.882258e-09	-3.825075e+01	-1.201412e+02
1.100000e-07	-5.512802e-06	-1.849516e-09	-3.822053e+01	-1.200595e+02
1.200000e-07	-5.508310e-06	-1.805614e-09	-3.818938e+01	-1.199763e+02
1.300000e-07	-5.503643e-06	-1.778180e-09	-3.815703e+01	-1.198913e+02
1.400000e-07	-5.498620e-06	-1.816553e-09	-3.812221e+01	-1.198042e+02
1.500000e-07	-5.493106e-06	-1.823328e-09	-3.808397e+01	-1.197148e+02
1.600000e-07	-5.487153e-06	-1.828294e-09	-3.804270e+01	-1.196229e+02
1.700000e-07	-5.480811e-06	-1.808424e-09	-3.799873e+01	-1.195280e+02
1.800000e-07	-5.474112e-06	-1.814578e-09	-3.795229e+01	-1.194299e+02
1.900000e-07	-5.467090e-06	-1.821540e-09	-3.790360e+01	-1.193283e+02
2.000000e-07	-5.459764e-06	-1.824881e-09	-3.785281e+01	-1.192229e+02
2.100000e-07	-5.452147e-06	-1.814316e-09	-3.780001e+01	-1.191134e+02
2.200000e-07	-5.444251e-06	-1.810522e-09	-3.774526e+01	-1.189995e+02
2.300000e-07	-5.436088e-06	-1.827868e-09	-3.768866e+01	-1.188809e+02
2.400000e-07	-5.427537e-06	-1.834629e-09	-3.762938e+01	-1.187574e+02
2.500000e-07	-5.418357e-06	-1.824902e-09	-3.756573e+01	-1.186289e+02
2.600000e-07	-5.408390e-06	-1.797208e-09	-3.749663e+01	-1.184951e+02
2.700000e-07	-5.397739e-06	-1.805176e-09	-3.742279e+01	-1.183560e+02
2.800000e-07	-5.386683e-06	-1.798196e-09	-3.734614e+01	-1.182114e+02
2.900000e-07	-5.375229e-06	-1.804024e-09	-3.726673e+01	-1.180615e+02
3.000000e-07	-5.363325e-06	-1.802202e-09	-3.718420e+01	-1.179061e+02
3.100000e-07	-5.351120e-06	-1.807845e-09	-3.709958e+01	-1.177453e+02
3.200000e-07	-5.338541e-06	-1.786243e-09	-3.701237e+01	-1.175793e+02
3.300000e-07	-5.325444e-06	-1.783891e-09	-3.692157e+01	-1.174082e+02
3.400000e-07	-5.311968e-06	-1.774566e-09	-3.682813e+01	-1.172323e+02
3.500000e-07	-5.298141e-06	-1.781094e-09	-3.673227e+01	-1.170516e+02
3.600000e-07	-5.283776e-06	-1.780128e-09	-3.663268e+01	-1.168665e+02
3.700000e-07	-5.268974e-06	-1.795364e-09	-3.653006e+01	-1.166773e+02
3.800000e-07	-5.253737e-06	-1.783852e-09	-3.642441e+01	-1.164842e+02
3.900000e-07	-5.237895e-06	-1.782125e-09	-3.631458e+01	-1.162876e+02
4.000000e-07	-5.221499e-06	-1.776072e-09	-3.620091e+01	-1.160878e+02
4.100000e-07	-5.204791e-06	-1.770195e-09	-3.608507e+01	-1.158851e+02
4.200000e-07	-5.187797e-06	-1.760719e-09	-3.596725e+01	-1.156798e+02
4.300000e-07	-5.170505e-06	-1.769249e-09	-3.584736e+01	-1.154721e+02
4.400000e-07	-5.152935e-06	-1.773294e-09	-3.572555e+01	-1.152625e+02
4.500000e-07	-5.134941e-06	-1.762304e-09	-3.560080e+01	-1.150510e+02
4.600000e-07	-5.116529e-06	-1.762343e-09	-3.547315e+01	-1.148380e+02
4.700000e-07	-5.097723e-06	-1.755709e-09	-3.534276e+01	-1.146235e+02
4.800000e-07	-5.078551e-06	-1.742313e-09	-3.520984e+01	-1.144077e+02
4.900000e-07	-5.059121e-06	-1.737097e-09	-3.507514e+01	-1.141907e+02
5.000000e-07	-5.039462e-06	-1.742314e-09	-3.493884e+01	-1.139725e+02
5.100000e-07	-5.019587e-06	-1.721143e-09	-3.480104e+01	-1.137531e+02
5.200000e-07	-4.999450e-06	-1.714163e-09	-3.466143e+01	-1.135325e+02
5.300000e-07	-4.978942e-06	-1.721916e-09	-3.451925e+01	-1.133105e+02
5.400000e-07	-4.958084e-06	-1.722836e-09	-3.437464e+01	-1.130869e+02
5.500000e-07	-4.936874e-06	-1.709706e-09	-3.422759e+01	-1.128616e+02
5.600000e-07	-4.915316e-06	-1.716716e-09	-3.407813e+01	-1.126344e+02
5.700000e-07	-4.893422e-06	-1.709223e-09	-3.392634e+01	-1.124049e+02
5.800000e-07	-4.871192e-06	-1.698421e-09	-3.377222e+01	-1.121729e+02
5.900000e-07	-4.848655e-06	-1.697910e-09	-3.361596e+01	-1.119380e+02
6.000000e-07	-4.825776e-06	-1.700232e-09	-3.345734e+01	-1.117000e+02
6.100000e-07	-4.802564e-06	-1.678252e-09	-3.329641e+01	-1.114584e+02
6.200000e-07	-4.779085e-06	-1.674780e-09	-3.313363e+01	-1.112130e+02
6.300000e-07	-4.755396e-06	-1.675630e-09	-3.296940e+01	-1.109633e+02
6.400000e-07	-4.731506e-06	-1.667373e-09	-3.280376e+01	-1.107092e+02
6.500000e-07	-4.707283e-06	-1.661580e-09	-3.263582e+01	-1.104501e+02
6.600000e-07	-4.682564e-06	-1.670565e-09	-3.246445e+01	-1.101860e+02
6.700000e-07	-4.657293e-06	-1.663090e-09	-3.228924e+01	-1.099164e+02
6.800000e-07	-4.631455e-06	-1.652599e-09	-3.211010e+01	-1.096412e+02
6.900000e-07	-4.605040e-06	-1.649822e-09	-3.192697e+01	-1.093602e+02
7.000000e-07	-4.578111e-06	-1.644720e-09	-3.174027e+01	-1.090733e+02
7.100000e-07	-4.550884e-06	-1.636326e-09	-3.155151e+01	-1.087803e+02
7.200000e-07	-4.523466e-06	-1.638218e-09	-3.136141e+01	-1.084811e+02
7.300000e-07	-4.495834e-06	-1.639023e-09	-3.116984e+01	-1.081758e+02
7.400000e-07	-4.468038e-06	-1.633209e-09	-3.097712e+01	-1.078643e+02
7.500000e-07	-4.440092e-06	-1.628474e-09	-3.078338e+01	-1.075468e+02
7.600000e-07	-4.411857e-06	-1.622206e-09	-3.058762e+01	-1.072232e+02
7.700000e-07	-4.383251e-06	-1.613792e-09	-3.038929e+01	-1.068938e+02
7.800000e-07	-4.354284e-06	-1.605350e-09	-3.018847e+01	-1.065586e+02
7.900000e-07	-4.324981e-06	-1.601702e-09	-2.998530e+01	-1.062178e+02
8.000000e-07	-4.295450e-06	-1.595306e-09	-2.978057e+01	-1.058716e+02
8.100000e-07	-4.265641e-06	-1.591179e-09	-2.957390e+01	-1.055202e+02
8.200000e-07	-4.235480e-06	-1.582960e-09	-2.936479e+01	-1.051638e+02
8.300000e-07	-4.205035e-06	-1.576985e-09	-2.915372e+01	-1.048026e+02
8.400000e-07	-4.174290e-06	-1.568901e-09	-2.894055e+01	-1.044368e+02
8.500000e-07	-4.143322e-06	-1.565944e-09	-2.872586e+01	-1.040665e+02
8.600000e-07	-4.112174e-06	-1.562295e-09	-2.850991e+01	-1.036919e+02
8.700000e-07	-4.080804e-06	-1.559897e-09	-2.829242e+01	-1.033132e+02
8.800000e-07	-4.049287e-06	-1.551789e-09	-2.807390e+01	-1.029305e+02
8.900000e-07	-4.017542e-06	-1.542386e-09	-2.785382e+01	-1.025439e+02
9.000000e-07	-3.985451e-06	-1.531644e-09	-2.763133e+01	-1.021534e+02
9.100000e-07	-3.953002e-06	-1.524143e-09	-2.740636e+01	-1.017592e+02
9.200000e-07	-3.920228e-06	-1.515003e-09	-2.717914e+01	-1.013612e+02
9.300000e-07	-3.887059e-06	-1.511817e-09	-2.694917e+01	-1.009594e+02
9.400000e-07	-3.853367e-06	-1.508862e-09	-2.671559e+01	-1.005537e+02
9.500000e-07	-3.819169e-06	-1.504563e-09	-2.647849e+01	-1.001442e+02
9.600000e-07	-3.784554e-06	-1.496106e-09	-2.623850e+01	-9.973080e+01
9.700000e-07	-3.749588e-06	-1.486518e-09	-2.599608e+01	-9.931335e+01
9.800000e-07	-3.714320e-06	-1.474915e-09	-2.575156e+01	-9.889178e+01
9.900000e-07	-3.678870e-06	-1.465189e-09	-2.550579e+01	-9.846600e+01
1.000000e-06	-3.643327e-06	-1.461011e-09	-2.525937e+01	-9.803592e+01
1.010000e-06	-3.607639e-06	-1.456531e-09	-2.501194e+01	-9.760142e+01
1.020000e-06	-3.571815e-06	-1.448319e-09	-2.476357e+01	-9.716244e+01
1.030000e-06	-3.535860e-06	-1.440461e-09	-2.451429e+01	-9.671888e+01
1.040000e-06	-3.499679e-06	-1.433293e-09	-2.426345e+01	-9.627070e+01
1.050000e-06	-3.463203e-06	-1.425719e-09	-2.401056e+01	-9.581784e+01
1.060000e-06	-3.426441e-06	-1.419188e-09	-2.375569e+01	-9.536030e+01
1.070000e-06	-3.389419e-06	-1.411350e-09	-2.349901e+01	-9.489807e+01
1.080000e-06	-3.352127e-06	-1.403255e-09	-2.324046e+01	-9.443116e+01
1.090000e-06	-3.314578e-06	-1.393236e-09	-2.298013e+01	-9.395963e+01
1.100000e-06	-3.276826e-06	-1.384815e-09	-2.271840e+01	-9.348353e+01
1.110000e-06	-3.238819e-06	-1.374643e-09	-2.245489e+01	-9.300294e+01
1.120000e-06	-3.200560e-06	-1.362795e-09	-2.218964e+01	-9.251795e+01
1.130000e-06	-3.162149e-06	-1.350573e-09	-2.192333e+01	-9.202865e+01
1.140000e-06	-3.123558e-06	-1.343092e-09	-2.165578e+01	-9.153514e+01
1.150000e-06	-3.084700e-06	-1.336846e-09	-2.138638e+01	-9.103751e+01
1.160000e-06	-3.045539e-06	-1.334004e-09	-2.111487e+01	-9.053584e+01
1.170000e-06	-3.006179e-06	-1.329558e-09	-2.084199e+01	-9.003018e+01
1.180000e-06	-2.966709e-06	-1.321451e-09	-2.056834e+01	-8.952058e+01
1.190000e-06	-2.927174e-06	-1.310787e-09	-2.029424e+01	-8.900703e+01
1.200000e-06	-2.887497e-06	-1.300027e-09	-2.001916e+01	-8.848950e+01
1.210000e-06	-2.847645e-06	-1.286369e-09	-1.974286e+01	-8.796789e+01
1.220000e-06	-2.807672e-06	-1.274600e-09	-1.946573e+01	-8.744207e+01
1.230000e-06	-2.767528e-06	-1.264059e-09	-1.918741e+01	-8.691184e+01
1.240000e-06	-2.727131e-06	-1.254292e-09	-1.890733e+01	-8.637693e+01
1.250000e-06	-2.686438e-06	-1.244154e-09	-1.862520e+01	-8.583702e+01
1.260000e-06	-2.645569e-06	-1.235608e-09	-1.834186e+01	-8.529172e+01
1.270000e-06	-2.604551e-06	-1.228356e-09	-1.805748e+01	-8.474056e+01
1.280000e-06	-2.563268e-06	-1.219651e-09	-1.777126e+01	-8.418302e+01
1.290000e-06	-2.521596e-06	-1.210818e-09	-1.748235e+01	-8.361852e+01
1.300000e-06	-2.479562e-06	-1.199426e-09	-1.719093e+01	-8.304640e+01
1.310000e-06	-2.437297e-06	-1.185401e-09	-1.689790e+01	-8.246597e+01
1.320000e-06	-2.394749e-06	-1.171452e-09	-1.660291e+01	-8.187650e+01
1.330000e-06	-2.351882e-06	-1.159083e-09	-1.630572e+01	-8.127719e+01
1.340000e-06	-2.308797e-06	-1.151826e-09	-1.600701e+01	-8.066725e+01
1.350000e-06	-2.265526e-06	-1.147416e-09	-1.570700e+01	-8.004587e+01
1.360000e-06	-2.222149e-06	-1.143122e-09	-1.540627e+01	-7.941222e+01
1.370000e-06	-2.178679e-06	-1.136506e-09	-1.510489e+01	-7.876549e+01
1.380000e-06	-2.135059e-06	-1.124395e-09	-1.480247e+01	-7.810489e+01
1.390000e-06	-2.091352e-06	-1.109507e-09	-1.449944e+01	-7.742968e+01
1.400000e-06	-2.047564e-06	-1.092336e-09	-1.419586e+01	-7.673914e+01
1.410000e-06	-2.003706e-06	-1.075784e-09	-1.389179e+01	-7.603263e+01
1.420000e-06	-1.959768e-06	-1.062667e-09	-1.358717e+01	-7.530955e+01
1.430000e-06	-1.915699e-06	-1.053897e-09	-1.328163e+01	-7.456941e+01
1.440000e-06	-1.871536e-06	-1.043004e-09	-1.297545e+01	-7.381178e+01
1.450000e-06	-1.827282e-06	-1.029809e-09	-1.266863e+01	-7.303634e+01
1.460000e-06	-1.782935e-06	-1.016217e-09	-1.236118e+01	-7.224283e+01
1.470000e-06	-1.738451e-06	-1.003864e-09	-1.205276e+01	-7.143113e+01
1.480000e-06	-1.693823e-06	-9.910556e-10	-1.174336e+01	-7.060118e+01
1.490000e-06	-1.649053e-06	-9.787703e-10	-1.143296e+01	-6.975303e+01
1.500000e-06	-1.604037e-06	-9.646188e-10	-1.112087e+01	-6.888680e+01
1.510000e-06	-1.558834e-06	-9.473951e-10	-1.080747e+01	-6.800272e+01
1.520000e-06	-1.513555e-06	-9.307876e-10	-1.049355e+01	-6.710104e+01
1.530000e-06	-1.468204e-06	-9.187910e-10	-1.017913e+01	-6.618212e+01
1.540000e-06	-1.422774e-06	-9.068087e-10	-9.864164e+00	-6.524633e+01
1.550000e-06	-1.377252e-06	-8.929301e-10	-9.548555e+00	-6.429407e+01
1.560000e-06	-1.331650e-06	-8.770628e-10	-9.232394e+00	-6.332576e+01
1.570000e-06	-1.286008e-06	-8.590307e-10	-8.915954e+00	-6.234180e+01
1.580000e-06	-1.240273e-06	-8.397057e-10	-8.598873e+00	-6.134258e+01
1.590000e-06	-1.194486e-06	-8.211001e-10	-8.281432e+00	-6.032842e+01
1.600000e-06	-1.148596e-06	-8.037382e-10	-7.963275e+00	-5.929960e+01
1.610000e-06	-1.102585e-06	-7.877341e-10	-7.644273e+00	-5.825630e+01
1.620000e-06	-1.056537e-06	-7.739706e-10	-7.325020e+00	-5.719861e+01
1.630000e-06	-1.010430e-06	-7.583689e-10	-7.005364e+00	-5.612648e+01
1.640000e-06	-9.642510e-07	-7.411308e-10	-6.685200e+00	-5.503975e+01
1.650000e-06	-9.180005e-07	-7.241168e-10	-6.364542e+00	-5.393811e+01
1.660000e-06	-8.716250e-07	-7.094387e-10	-6.043019e+00	-5.282109e+01
1.670000e-06	-8.251688e-07	-6.948103e-10	-5.720936e+00	-5.168807e+01
1.680000e-06	-7.787088e-07	-6.791413e-10	-5.398827e+00	-5.053825e+01
1.690000e-06	-7.321583e-07	-6.618228e-10	-5.076090e+00	-4.937068e+01
1.700000e-06	-6.855837e-07	-6.423911e-10	-4.753186e+00	-4.818424e+01
1.710000e-06	-6.390048e-07	-6.194895e-10	-4.430252e+00	-4.697765e+01
1.720000e-06	-5.923434e-07	-5.961423e-10	-4.106746e+00	-4.574950e+01
1.730000e-06	-5.455927e-07	-5.731152e-10	-3.782621e+00	-4.449822e+01
1.740000e-06	-4.987407e-07	-5.528385e-10	-3.457794e+00	-4.322216e+01
1.750000e-06	-4.518731e-07	-5.355376e-10	-3.132858e+00	-4.191955e+01
1.760000e-06	-4.050348e-07	-5.178901e-10	-2.808126e+00	-4.058855e+01
1.770000e-06	-3.580750e-07	-4.986381e-10	-2.482552e+00	-3.922730e+01
1.780000e-06	-3.110160e-07	-4.781703e-10	-2.156290e+00	-3.783388e+01
1.790000e-06	-2.639939e-07	-4.571967e-10	-1.830282e+00	-3.640642e+01
1.800000e-06	-2.169576e-07	-4.347216e-10	-1.504177e+00	-3.494307e+01
1.810000e-06	-1.698995e-07	-4.116441e-10	-1.177922e+00	-3.344207e+01
1.820000e-06	-1.228519e-07	-3.888941e-10	-8.517384e-01	-3.190176e+01
1.830000e-06	-7.582483e-08	-3.661342e-10	-5.256973e-01	-3.032061e+01
1.840000e-06	-2.889921e-08	-3.428951e-10	-2.003597e-01	-2.869728e+01
1.850000e-06	1.798161e-08	-3.201154e-10	1.246674e-01	-2.703061e+01
1.860000e-06	6.490100e-08	-2.987537e-10	4.499618e-01	-2.531970e+01
1.870000e-06	1.118324e-07	-2.753451e-10	7.753395e-01	-2.356387e+01
1.880000e-06	1.587141e-07	-2.495790e-10	1.100373e+00	-2.176273e+01
1.890000e-06	2.055278e-07	-2.228925e-10	1.424934e+00	-1.991619e+01
1.900000e-06	2.523967e-07	-1.934105e-10	1.749879e+00	-1.802447e+01
1.910000e-06	2.993620e-07	-1.639073e-10	2.075491e+00	-1.608812e+01
1.920000e-06	3.463141e-07	-1.365861e-10	2.401012e+00	-1.410801e+01
1.930000e-06	3.932000e-07	-1.100588e-10	2.726075e+00	-1.208535e+01
1.940000e-06	4.400153e-07	-8.244856e-11	3.050648e+00	-1.002169e+01
1.950000e-06	4.868142e-07	-5.457864e-11	3.375107e+00	-7.918893e+00
1.960000e-06	5.336317e-07	-2.686579e-11	3.699695e+00	-5.779163e+00
1.970000e-06	5.803145e-07	2.324418e-12	4.023349e+00	-3.604992e+00
1.980000e-06	6.268291e-07	3.276860e-11	4.345837e+00	-1.399161e+00
1.990000e-06	6.733478e-07	6.371856e-11	4.668353e+00	8.352824e-01
2.000000e-06	7.198543e-07	9.551428e-11	4.990785e+00	3.095056e+00
2.010000e-06	7.662863e-07	1.272457e-10	5.312701e+00	5.376668e+00
2.020000e-06	8.127027e-07	1.602760e-10	5.634508e+00	7.676446e+00
2.030000e-06	8.590464e-07	1.958796e-10	5.955811e+00	9.990577e+00
2.040000e-06	9.053388e-07	2.318337e-10	6.276758e+00	1.231514e+01
2.050000e-06	9.516299e-07	2.639348e-10	6.597697e+00	1.464613e+01
2.060000e-06	9.978284e-07	2.924575e-10	6.917994e+00	1.697952e+01
2.070000e-06	1.043854e-06	3.201865e-10	7.237092e+00	1.931127e+01
2.080000e-06	1.089783e-06	3.489006e-10	7.555518e+00	2.163740e+01
2.090000e-06	1.135684e-06	3.794033e-10	7.873755e+00	2.395398e+01
2.100000e-06	1.181576e-06	4.127509e-10	8.191925e+00	2.625718e+01
2.110000e-06	1.227413e-06	4.487110e-10	8.509711e+00	2.854333e+01
2.120000e-06	1.273092e-06	4.837526e-10	8.826411e+00	3.080891e+01
2.130000e-06	1.318672e-06	5.164425e-10	9.142419e+00	3.305059e+01
2.140000e-06	1.364204e-06	5.460583e-10	9.458092e+00	3.526527e+01
2.150000e-06	1.409678e-06	5.718072e-10	9.773366e+00	3.745007e+01
2.160000e-06	1.455027e-06	5.967556e-10	1.008778e+01	3.960237e+01
2.170000e-06	1.500209e-06	6.215486e-10	1.040102e+01	4.171979e+01
2.180000e-06	1.545307e-06	6.474748e-10	1.071369e+01	4.380025e+01
2.190000e-06	1.590332e-06	6.777574e-10	1.102585e+01	4.584194e+01
2.200000e-06	1.635242e-06	7.091589e-10	1.133721e+01	4.784331e+01
2.210000e-06	1.680056e-06	7.403673e-10	1.164791e+01	4.980310e+01
2.220000e-06	1.724719e-06	7.700796e-10	1.195756e+01	5.172032e+01
2.230000e-06	1.769151e-06	7.954170e-10	1.226561e+01	5.359422e+01
2.240000e-06	1.813417e-06	8.173680e-10	1.257251e+01	5.542433e+01
2.250000e-06	1.857565e-06	8.365510e-10	1.287859e+01	5.721040e+01
2.260000e-06	1.901585e-06	8.542896e-10	1.318378e+01	5.895238e+01
2.270000e-06	1.945497e-06	8.752404e-10	1.348822e+01	6.065045e+01
2.280000e-06	1.989339e-06	8.996906e-10	1.379218e+01	6.230497e+01
2.290000e-06	2.033137e-06	9.238897e-10	1.409584e+01	6.391643e+01
2.300000e-06	2.076883e-06	9.476205e-10	1.439913e+01	6.548549e+01
2.310000e-06	2.120598e-06	9.713762e-10	1.470221e+01	6.701294e+01
2.320000e-06	2.164256e-06	9.927692e-10	1.500489e+01	6.849962e+01
2.330000e-06	2.207804e-06	1.010468e-09	1.530682e+01	6.994651e+01
2.340000e-06	2.251253e-06	1.025823e-09	1.560805e+01	7.135461e+01
2.350000e-06	2.294600e-06	1.042606e-09	1.590857e+01	7.272498e+01
2.360000e-06	2.337791e-06	1.061831e-09	1.620802e+01	7.405869e+01
2.370000e-06	2.380776e-06	1.081249e-09	1.650604e+01	7.535684e+01
2.380000e-06	2.423598e-06	1.100093e-09	1.680292e+01	7.662050e+01
2.390000e-06	2.466150e-06	1.118025e-09	1.709794e+01	7.785077e+01
2.400000e-06	2.508255e-06	1.135041e-09	1.738985e+01	7.904867e+01
2.410000e-06	2.549987e-06	1.149932e-09	1.767919e+01	8.021524e+01
2.420000e-06	2.591413e-06	1.163648e-09	1.796639e+01	8.135145e+01
2.430000e-06	2.632447e-06	1.178772e-09	1.825088e+01	8.245822e+01
2.440000e-06	2.673200e-06	1.194758e-09	1.853342e+01	8.353646e+01
2.450000e-06	2.713775e-06	1.211103e-09	1.881473e+01	8.458701e+01
2.460000e-06	2.754107e-06	1.227845e-09	1.909436e+01	8.561067e+01
2.470000e-06	2.794192e-06	1.242960e-09	1.937227e+01	8.660820e+01
2.480000e-06	2.834081e-06	1.255414e-09	1.964883e+01	8.758031e+01
2.490000e-06	2.873846e-06	1.267246e-09	1.992452e+01	8.852768e+01
2.500000e-06	2.913524e-06	1.279489e-09	2.019961e+01	8.945096e+01
2.510000e-06	2.953080e-06	1.292908e-09	2.047385e+01	9.035076e+01
2.520000e-06	2.992433e-06	1.307088e-09	2.074668e+01	9.122769e+01
2.530000e-06	3.031622e-06	1.321827e-09	2.101838e+01	9.208232e+01
2.540000e-06	3.070651e-06	1.337669e-09	2.128898e+01	9.291521e+01
2.550000e-06	3.109401e-06	1.352028e-09	2.155763e+01	9.372691e+01
2.560000e-06	3.147924e-06	1.362217e-09	2.182471e+01	9.451797e+01
2.570000e-06	3.186280e-06	1.369084e-09	2.209064e+01	9.528893e+01
2.580000e-06	3.224427e-06	1.375592e-09	2.235511e+01	9.604033e+01
2.590000e-06	3.262398e-06	1.383846e-09	2.261837e+01	9.677272e+01
2.600000e-06	3.300205e-06	1.394822e-09	2.288048e+01	9.748664e+01
2.610000e-06	3.337796e-06	1.408129e-09	2.314110e+01	9.818264e+01
2.620000e-06	3.375108e-06	1.423701e-09	2.339979e+01	9.886126e+01
2.630000e-06	3.412133e-06	1.438944e-09	2.365648e+01	9.952306e+01
2.640000e-06	3.448970e-06	1.450938e-09	2.391188e+01	1.001686e+02
2.650000e-06	3.485584e-06	1.460622e-09	2.416573e+01	1.007984e+02
2.660000e-06	3.521875e-06	1.466800e-09	2.441733e+01	1.014129e+02
2.670000e-06	3.557941e-06	1.469219e-09	2.466738e+01	1.020128e+02
2.680000e-06	3.593840e-06	1.472517e-09	2.491627e+01	1.025985e+02
2.690000e-06	3.629580e-06	1.479851e-09	2.516406e+01	1.031705e+02
2.700000e-06	3.665241e-06	1.489835e-09	2.541130e+01	1.037293e+02
2.710000e-06	3.700816e-06	1.498789e-09	2.565794e+01	1.042753e+02
2.720000e-06	3.736187e-06	1.505275e-09	2.590317e+01	1.048089e+02
2.730000e-06	3.771300e-06	1.511312e-09	2.614661e+01	1.053304e+02
2.740000e-06	3.806119e-06	1.518131e-09	2.638801e+01	1.058403e+02
2.750000e-06	3.840449e-06	1.524348e-09	2.662603e+01	1.063389e+02
2.760000e-06	3.874235e-06	1.529950e-09	2.686026e+01	1.068263e+02
2.770000e-06	3.907536e-06	1.535619e-09	2.709114e+01	1.073029e+02
2.780000e-06	3.940373e-06	1.541881e-09	2.731880e+01	1.077688e+02
2.790000e-06	3.972807e-06	1.549439e-09	2.754367e+01	1.082241e+02
2.800000e-06	4.004915e-06	1.557977e-09	2.776627e+01	1.086690e+02
2.810000e-06	4.036780e-06	1.566447e-09	2.798719e+01	1.091036e+02
2.820000e-06	4.068481e-06	1.573935e-09	2.820698e+01	1.095279e+02
2.830000e-06	4.100061e-06	1.580821e-09	2.842593e+01	1.099419e+02
2.840000e-06	4.131482e-06	1.587712e-09	2.864377e+01	1.103456e+02
2.850000e-06	4.162668e-06	1.593256e-09	2.885998e+01	1.107391e+02
2.860000e-06	4.193570e-06	1.597178e-09	2.907423e+01	1.111223e+02
2.870000e-06	4.224186e-06	1.601853e-09	2.928649e+01	1.114951e+02
2.880000e-06	4.254470e-06	1.606533e-09	2.949645e+01	1.118575e+02
2.890000e-06	4.284438e-06	1.609779e-09	2.970422e+01	1.122096e+02
2.900000e-06	4.314122e-06	1.614288e-09	2.991002e+01	1.125512e+02
