# Temperatura_=_0.25
# Concentracion g/m^3_=_1620.0
# C_Vs_to_Am_M_A/Vsm_=_65563218390.804596
# pendiente_HvsI_1/m_=_3716.3
# ordenada_HvsI_A/m_=_1297.0
# frecuencia_Hz_=_135108.023486085

Tiempo_(s)	Campo_(V.s)	Magnetizacion_(V.s)	Campo_(kA/m)	Magnetizacion_(A/m)
0.000000e+00	-5.523781e-06	-1.114173e-09	-3.836070e+01	-7.664064e+01
1.000000e-08	-5.524095e-06	-1.114463e-09	-3.836288e+01	-7.663475e+01
2.000000e-08	-5.524173e-06	-1.113263e-09	-3.836342e+01	-7.662946e+01
3.000000e-08	-5.523982e-06	-1.110852e-09	-3.836210e+01	-7.662476e+01
4.000000e-08	-5.523499e-06	-1.108164e-09	-3.835874e+01	-7.662061e+01
5.000000e-08	-5.522492e-06	-1.105592e-09	-3.835174e+01	-7.661700e+01
6.000000e-08	-5.520742e-06	-1.104062e-09	-3.833959e+01	-7.661389e+01
7.000000e-08	-5.518344e-06	-1.110867e-09	-3.832294e+01	-7.661124e+01
8.000000e-08	-5.515429e-06	-1.114267e-09	-3.830270e+01	-7.660899e+01
9.000000e-08	-5.512005e-06	-1.088321e-09	-3.827892e+01	-7.660707e+01
1.000000e-07	-5.508128e-06	-1.076083e-09	-3.825200e+01	-7.660536e+01
1.100000e-07	-5.503915e-06	-1.129564e-09	-3.822274e+01	-7.660373e+01
1.200000e-07	-5.499428e-06	-1.141935e-09	-3.819157e+01	-7.660201e+01
1.300000e-07	-5.494732e-06	-1.067847e-09	-3.815896e+01	-7.659998e+01
1.400000e-07	-5.489768e-06	-1.034684e-09	-3.812449e+01	-7.659740e+01
1.500000e-07	-5.484333e-06	-1.100995e-09	-3.808674e+01	-7.659399e+01
1.600000e-07	-5.478451e-06	-1.165838e-09	-3.804590e+01	-7.658940e+01
1.700000e-07	-5.472278e-06	-1.106905e-09	-3.800303e+01	-7.658328e+01
1.800000e-07	-5.465724e-06	-1.056734e-09	-3.795751e+01	-7.657523e+01
1.900000e-07	-5.458598e-06	-1.110031e-09	-3.790803e+01	-7.656480e+01
2.000000e-07	-5.451130e-06	-1.170914e-09	-3.785616e+01	-7.655154e+01
2.100000e-07	-5.443527e-06	-1.134454e-09	-3.780336e+01	-7.653497e+01
2.200000e-07	-5.435732e-06	-1.102511e-09	-3.774923e+01	-7.651459e+01
2.300000e-07	-5.427699e-06	-1.133365e-09	-3.769345e+01	-7.648991e+01
2.400000e-07	-5.419202e-06	-1.174739e-09	-3.763443e+01	-7.646041e+01
2.500000e-07	-5.410189e-06	-1.153258e-09	-3.757184e+01	-7.642563e+01
2.600000e-07	-5.400500e-06	-1.134159e-09	-3.750456e+01	-7.638510e+01
2.700000e-07	-5.390031e-06	-1.141303e-09	-3.743185e+01	-7.633838e+01
2.800000e-07	-5.379012e-06	-1.142940e-09	-3.735533e+01	-7.628511e+01
2.900000e-07	-5.367593e-06	-1.131835e-09	-3.727603e+01	-7.622494e+01
3.000000e-07	-5.355830e-06	-1.132223e-09	-3.719434e+01	-7.615760e+01
3.100000e-07	-5.343632e-06	-1.146729e-09	-3.710962e+01	-7.608288e+01
3.200000e-07	-5.331088e-06	-1.156374e-09	-3.702252e+01	-7.600066e+01
3.300000e-07	-5.318213e-06	-1.165313e-09	-3.693310e+01	-7.591089e+01
3.400000e-07	-5.304845e-06	-1.144516e-09	-3.684027e+01	-7.581361e+01
3.500000e-07	-5.291114e-06	-1.139280e-09	-3.674491e+01	-7.570894e+01
3.600000e-07	-5.276979e-06	-1.147795e-09	-3.664674e+01	-7.559710e+01
3.700000e-07	-5.262317e-06	-1.141848e-09	-3.654492e+01	-7.547839e+01
3.800000e-07	-5.247207e-06	-1.119894e-09	-3.643999e+01	-7.535320e+01
3.900000e-07	-5.231654e-06	-1.149750e-09	-3.633198e+01	-7.522200e+01
4.000000e-07	-5.215502e-06	-1.148403e-09	-3.621981e+01	-7.508535e+01
4.100000e-07	-5.198895e-06	-1.106078e-09	-3.610448e+01	-7.494384e+01
4.200000e-07	-5.182086e-06	-1.118746e-09	-3.598775e+01	-7.479817e+01
4.300000e-07	-5.164978e-06	-1.167271e-09	-3.586894e+01	-7.464904e+01
4.400000e-07	-5.147478e-06	-1.117848e-09	-3.574741e+01	-7.449722e+01
4.500000e-07	-5.129659e-06	-1.082227e-09	-3.562366e+01	-7.434348e+01
4.600000e-07	-5.111461e-06	-1.144224e-09	-3.549728e+01	-7.418862e+01
4.700000e-07	-5.092786e-06	-1.143845e-09	-3.536759e+01	-7.403343e+01
4.800000e-07	-5.073658e-06	-1.068949e-09	-3.523475e+01	-7.387867e+01
4.900000e-07	-5.054144e-06	-1.103382e-09	-3.509924e+01	-7.372509e+01
5.000000e-07	-5.034431e-06	-1.152207e-09	-3.496234e+01	-7.357338e+01
5.100000e-07	-5.014536e-06	-1.092573e-09	-3.482417e+01	-7.342418e+01
5.200000e-07	-4.994401e-06	-1.082647e-09	-3.468434e+01	-7.327805e+01
5.300000e-07	-4.973926e-06	-1.143960e-09	-3.454215e+01	-7.313551e+01
5.400000e-07	-4.953102e-06	-1.109203e-09	-3.439753e+01	-7.299693e+01
5.500000e-07	-4.931925e-06	-1.064908e-09	-3.425047e+01	-7.286265e+01
5.600000e-07	-4.910373e-06	-1.120370e-09	-3.410080e+01	-7.273286e+01
5.700000e-07	-4.888500e-06	-1.121447e-09	-3.394890e+01	-7.260769e+01
5.800000e-07	-4.866334e-06	-1.065093e-09	-3.379496e+01	-7.248712e+01
5.900000e-07	-4.843842e-06	-1.097503e-09	-3.363876e+01	-7.237106e+01
6.000000e-07	-4.820865e-06	-1.130860e-09	-3.347920e+01	-7.225930e+01
6.100000e-07	-4.797512e-06	-1.077478e-09	-3.331702e+01	-7.215157e+01
6.200000e-07	-4.773973e-06	-1.072235e-09	-3.315355e+01	-7.204745e+01
6.300000e-07	-4.750252e-06	-1.108424e-09	-3.298881e+01	-7.194649e+01
6.400000e-07	-4.726298e-06	-1.085451e-09	-3.282246e+01	-7.184814e+01
6.500000e-07	-4.702077e-06	-1.066685e-09	-3.265426e+01	-7.175181e+01
6.600000e-07	-4.677563e-06	-1.099517e-09	-3.248401e+01	-7.165684e+01
6.700000e-07	-4.652558e-06	-1.093798e-09	-3.231036e+01	-7.156255e+01
6.800000e-07	-4.627004e-06	-1.071090e-09	-3.213290e+01	-7.146822e+01
6.900000e-07	-4.600850e-06	-1.084779e-09	-3.195127e+01	-7.137315e+01
7.000000e-07	-4.574075e-06	-1.089556e-09	-3.176532e+01	-7.127661e+01
7.100000e-07	-4.546894e-06	-1.064683e-09	-3.157656e+01	-7.117792e+01
7.200000e-07	-4.519449e-06	-1.063757e-09	-3.138597e+01	-7.107642e+01
7.300000e-07	-4.491800e-06	-1.068837e-09	-3.119396e+01	-7.097147e+01
7.400000e-07	-4.463963e-06	-1.059292e-09	-3.100064e+01	-7.086252e+01
7.500000e-07	-4.435919e-06	-1.056622e-09	-3.080588e+01	-7.074905e+01
7.600000e-07	-4.407645e-06	-1.062984e-09	-3.060953e+01	-7.063062e+01
7.700000e-07	-4.379147e-06	-1.054538e-09	-3.041162e+01	-7.050689e+01
7.800000e-07	-4.350315e-06	-1.047094e-09	-3.021140e+01	-7.037756e+01
7.900000e-07	-4.321125e-06	-1.047276e-09	-3.000868e+01	-7.024244e+01
8.000000e-07	-4.291687e-06	-1.042102e-09	-2.980425e+01	-7.010140e+01
8.100000e-07	-4.261976e-06	-1.035250e-09	-2.959791e+01	-6.995442e+01
8.200000e-07	-4.231949e-06	-1.036998e-09	-2.938939e+01	-6.980153e+01
8.300000e-07	-4.201569e-06	-1.037537e-09	-2.917841e+01	-6.964285e+01
8.400000e-07	-4.170863e-06	-1.033730e-09	-2.896516e+01	-6.947856e+01
8.500000e-07	-4.139946e-06	-1.035863e-09	-2.875046e+01	-6.930891e+01
8.600000e-07	-4.108751e-06	-1.036009e-09	-2.853382e+01	-6.913419e+01
8.700000e-07	-4.077346e-06	-1.026411e-09	-2.831572e+01	-6.895474e+01
8.800000e-07	-4.045792e-06	-1.017540e-09	-2.809659e+01	-6.877092e+01
8.900000e-07	-4.014004e-06	-1.015536e-09	-2.787583e+01	-6.858313e+01
9.000000e-07	-3.982015e-06	-1.010316e-09	-2.765368e+01	-6.839175e+01
9.100000e-07	-3.949803e-06	-1.006376e-09	-2.742998e+01	-6.819720e+01
9.200000e-07	-3.917273e-06	-1.007714e-09	-2.720407e+01	-6.799986e+01
9.300000e-07	-3.884313e-06	-1.006800e-09	-2.697517e+01	-6.780009e+01
9.400000e-07	-3.850862e-06	-9.998600e-10	-2.674287e+01	-6.759825e+01
9.500000e-07	-3.816865e-06	-9.992042e-10	-2.650677e+01	-6.739464e+01
9.600000e-07	-3.782344e-06	-9.964192e-10	-2.626704e+01	-6.718952e+01
9.700000e-07	-3.747452e-06	-9.855102e-10	-2.602472e+01	-6.698311e+01
9.800000e-07	-3.712263e-06	-9.765363e-10	-2.578035e+01	-6.677557e+01
9.900000e-07	-3.676824e-06	-9.770020e-10	-2.553424e+01	-6.656702e+01
1.000000e-06	-3.641211e-06	-9.747931e-10	-2.528692e+01	-6.635751e+01
1.010000e-06	-3.605490e-06	-9.720785e-10	-2.503884e+01	-6.614705e+01
1.020000e-06	-3.569679e-06	-9.732462e-10	-2.479015e+01	-6.593560e+01
1.030000e-06	-3.533774e-06	-9.726182e-10	-2.454081e+01	-6.572306e+01
1.040000e-06	-3.497677e-06	-9.673512e-10	-2.429013e+01	-6.550929e+01
1.050000e-06	-3.461258e-06	-9.646734e-10	-2.403721e+01	-6.529412e+01
1.060000e-06	-3.424589e-06	-9.611209e-10	-2.378256e+01	-6.507732e+01
1.070000e-06	-3.387638e-06	-9.543411e-10	-2.352595e+01	-6.485868e+01
1.080000e-06	-3.350357e-06	-9.491501e-10	-2.326704e+01	-6.463793e+01
1.090000e-06	-3.312822e-06	-9.490946e-10	-2.300637e+01	-6.441481e+01
1.100000e-06	-3.275058e-06	-9.478662e-10	-2.274411e+01	-6.418906e+01
1.110000e-06	-3.237115e-06	-9.437785e-10	-2.248062e+01	-6.396040e+01
1.120000e-06	-3.199043e-06	-9.420559e-10	-2.221622e+01	-6.372858e+01
1.130000e-06	-3.160758e-06	-9.416698e-10	-2.195034e+01	-6.349337e+01
1.140000e-06	-3.122215e-06	-9.375787e-10	-2.168268e+01	-6.325455e+01
1.150000e-06	-3.083471e-06	-9.342967e-10	-2.141361e+01	-6.301191e+01
1.160000e-06	-3.044473e-06	-9.305535e-10	-2.114279e+01	-6.276532e+01
1.170000e-06	-3.005233e-06	-9.222816e-10	-2.087028e+01	-6.251462e+01
1.180000e-06	-2.965853e-06	-9.162473e-10	-2.059679e+01	-6.225973e+01
1.190000e-06	-2.926308e-06	-9.134982e-10	-2.032217e+01	-6.200057e+01
1.200000e-06	-2.886637e-06	-9.127715e-10	-2.004667e+01	-6.173711e+01
1.210000e-06	-2.846862e-06	-9.084945e-10	-1.977044e+01	-6.146935e+01
1.220000e-06	-2.806957e-06	-9.048788e-10	-1.949332e+01	-6.119731e+01
1.230000e-06	-2.766988e-06	-9.016131e-10	-1.921575e+01	-6.092101e+01
1.240000e-06	-2.726899e-06	-8.966348e-10	-1.893734e+01	-6.064052e+01
1.250000e-06	-2.686545e-06	-8.908643e-10	-1.865710e+01	-6.035591e+01
1.260000e-06	-2.645895e-06	-8.865161e-10	-1.837480e+01	-6.006723e+01
1.270000e-06	-2.605006e-06	-8.816182e-10	-1.809084e+01	-5.977456e+01
1.280000e-06	-2.563831e-06	-8.744017e-10	-1.780490e+01	-5.947796e+01
1.290000e-06	-2.522467e-06	-8.701755e-10	-1.751764e+01	-5.917746e+01
1.300000e-06	-2.480815e-06	-8.668422e-10	-1.722838e+01	-5.887308e+01
1.310000e-06	-2.438660e-06	-8.611504e-10	-1.693562e+01	-5.856482e+01
1.320000e-06	-2.396101e-06	-8.562818e-10	-1.664007e+01	-5.825264e+01
1.330000e-06	-2.353353e-06	-8.522501e-10	-1.634320e+01	-5.793645e+01
1.340000e-06	-2.310439e-06	-8.459741e-10	-1.604518e+01	-5.761615e+01
1.350000e-06	-2.267231e-06	-8.382858e-10	-1.574512e+01	-5.729156e+01
1.360000e-06	-2.223805e-06	-8.331139e-10	-1.544354e+01	-5.696250e+01
1.370000e-06	-2.180326e-06	-8.267234e-10	-1.514159e+01	-5.662870e+01
1.380000e-06	-2.136761e-06	-8.205900e-10	-1.483905e+01	-5.628987e+01
1.390000e-06	-2.093045e-06	-8.170314e-10	-1.453546e+01	-5.594569e+01
1.400000e-06	-2.049247e-06	-8.135645e-10	-1.423129e+01	-5.559577e+01
1.410000e-06	-2.005435e-06	-8.070774e-10	-1.392704e+01	-5.523970e+01
1.420000e-06	-1.961605e-06	-7.985578e-10	-1.362265e+01	-5.487705e+01
1.430000e-06	-1.917650e-06	-7.918724e-10	-1.331740e+01	-5.450735e+01
1.440000e-06	-1.873562e-06	-7.850740e-10	-1.301122e+01	-5.413009e+01
1.450000e-06	-1.829364e-06	-7.787797e-10	-1.270428e+01	-5.374477e+01
1.460000e-06	-1.785037e-06	-7.723618e-10	-1.239645e+01	-5.335088e+01
1.470000e-06	-1.740626e-06	-7.630204e-10	-1.208803e+01	-5.294789e+01
1.480000e-06	-1.696070e-06	-7.527418e-10	-1.177860e+01	-5.253526e+01
1.490000e-06	-1.651310e-06	-7.441464e-10	-1.146776e+01	-5.211249e+01
1.500000e-06	-1.606440e-06	-7.364119e-10	-1.115616e+01	-5.167904e+01
1.510000e-06	-1.561470e-06	-7.282819e-10	-1.084385e+01	-5.123443e+01
1.520000e-06	-1.516339e-06	-7.214042e-10	-1.053044e+01	-5.077815e+01
1.530000e-06	-1.471038e-06	-7.150203e-10	-1.021584e+01	-5.030974e+01
1.540000e-06	-1.425612e-06	-7.068595e-10	-9.900369e+00	-4.982873e+01
1.550000e-06	-1.380110e-06	-6.967959e-10	-9.584372e+00	-4.933468e+01
1.560000e-06	-1.334535e-06	-6.848321e-10	-9.267874e+00	-4.882715e+01
1.570000e-06	-1.288913e-06	-6.709212e-10	-8.951045e+00	-4.830572e+01
1.580000e-06	-1.243240e-06	-6.580520e-10	-8.633864e+00	-4.776996e+01
1.590000e-06	-1.197493e-06	-6.492348e-10	-8.316161e+00	-4.721947e+01
1.600000e-06	-1.151677e-06	-6.445166e-10	-7.997986e+00	-4.665382e+01
1.610000e-06	-1.105799e-06	-6.399204e-10	-7.679380e+00	-4.607258e+01
1.620000e-06	-1.059820e-06	-6.319123e-10	-7.360071e+00	-4.547529e+01
1.630000e-06	-1.013722e-06	-6.219511e-10	-7.039937e+00	-4.486150e+01
1.640000e-06	-9.675976e-07	-6.116354e-10	-6.719622e+00	-4.423070e+01
1.650000e-06	-9.214620e-07	-6.008652e-10	-6.399227e+00	-4.358236e+01
1.660000e-06	-8.751705e-07	-5.888683e-10	-6.077748e+00	-4.291591e+01
1.670000e-06	-8.288111e-07	-5.763315e-10	-5.755799e+00	-4.223073e+01
1.680000e-06	-7.825132e-07	-5.640266e-10	-5.434276e+00	-4.152615e+01
1.690000e-06	-7.361548e-07	-5.512939e-10	-5.112333e+00	-4.080148e+01
1.700000e-06	-6.896465e-07	-5.392502e-10	-4.789350e+00	-4.005593e+01
1.710000e-06	-6.430797e-07	-5.293254e-10	-4.465960e+00	-3.928871e+01
1.720000e-06	-5.965112e-07	-5.204284e-10	-4.142559e+00	-3.849894e+01
1.730000e-06	-5.498546e-07	-5.111235e-10	-3.818545e+00	-3.768574e+01
1.740000e-06	-5.030607e-07	-4.992731e-10	-3.493578e+00	-3.684816e+01
1.750000e-06	-4.562287e-07	-4.841372e-10	-3.168346e+00	-3.598524e+01
1.760000e-06	-4.095143e-07	-4.665413e-10	-2.843931e+00	-3.509600e+01
1.770000e-06	-3.628244e-07	-4.501514e-10	-2.519686e+00	-3.417943e+01
1.780000e-06	-3.160590e-07	-4.366772e-10	-2.194917e+00	-3.323456e+01
1.790000e-06	-2.692435e-07	-4.251329e-10	-1.869800e+00	-3.226043e+01
1.800000e-06	-2.223267e-07	-4.152657e-10	-1.543980e+00	-3.125609e+01
1.810000e-06	-1.753749e-07	-4.035513e-10	-1.217916e+00	-3.022067e+01
1.820000e-06	-1.284636e-07	-3.879633e-10	-8.921341e-01	-2.915336e+01
1.830000e-06	-8.163130e-08	-3.707876e-10	-5.669004e-01	-2.805344e+01
1.840000e-06	-3.486891e-08	-3.533977e-10	-2.421522e-01	-2.692028e+01
1.850000e-06	1.189632e-08	-3.362363e-10	8.261572e-02	-2.575338e+01
1.860000e-06	5.866202e-08	-3.177997e-10	4.073869e-01	-2.455238e+01
1.870000e-06	1.054465e-07	-2.992774e-10	7.322885e-01	-2.331706e+01
1.880000e-06	1.522907e-07	-2.818537e-10	1.057605e+00	-2.204737e+01
1.890000e-06	1.991977e-07	-2.643810e-10	1.383357e+00	-2.074344e+01
1.900000e-06	2.460592e-07	-2.475998e-10	1.708794e+00	-1.940559e+01
1.910000e-06	2.928904e-07	-2.291907e-10	2.034020e+00	-1.803433e+01
1.920000e-06	3.396644e-07	-2.103781e-10	2.358848e+00	-1.663037e+01
1.930000e-06	3.863386e-07	-1.919848e-10	2.682984e+00	-1.519463e+01
1.940000e-06	4.330646e-07	-1.713329e-10	3.007480e+00	-1.372825e+01
1.950000e-06	4.798378e-07	-1.491476e-10	3.332303e+00	-1.223253e+01
1.960000e-06	5.265668e-07	-1.276861e-10	3.656820e+00	-1.070902e+01
1.970000e-06	5.731566e-07	-1.090296e-10	3.980369e+00	-9.159435e+00
1.980000e-06	6.196776e-07	-9.047756e-11	4.303441e+00	-7.585669e+00
1.990000e-06	6.661774e-07	-7.020304e-11	4.626366e+00	-5.989793e+00
2.000000e-06	7.126214e-07	-4.759333e-11	4.948903e+00	-4.374028e+00
2.010000e-06	7.590159e-07	-2.181465e-11	5.271096e+00	-2.740731e+00
2.020000e-06	8.053176e-07	4.325531e-12	5.592645e+00	-1.092379e+00
2.030000e-06	8.515573e-07	2.876022e-11	5.913763e+00	5.684579e-01
2.040000e-06	8.977562e-07	5.042690e-11	6.234598e+00	2.239131e+00
2.050000e-06	9.438839e-07	7.040015e-11	6.554939e+00	3.916941e+00
2.060000e-06	9.899246e-07	9.115387e-11	6.874675e+00	5.599157e+00
2.070000e-06	1.035898e-06	1.125504e-10	7.193944e+00	7.283044e+00
2.080000e-06	1.081855e-06	1.354743e-10	7.513096e+00	8.965878e+00
2.090000e-06	1.127783e-06	1.614569e-10	7.832050e+00	1.064498e+01
2.100000e-06	1.173628e-06	1.891895e-10	8.150430e+00	1.231772e+01
2.110000e-06	1.219367e-06	2.146968e-10	8.468068e+00	1.398157e+01
2.120000e-06	1.264994e-06	2.358838e-10	8.784937e+00	1.563407e+01
2.130000e-06	1.310539e-06	2.560592e-10	9.101229e+00	1.727289e+01
2.140000e-06	1.355931e-06	2.767720e-10	9.416456e+00	1.889583e+01
2.150000e-06	1.401220e-06	2.970743e-10	9.730977e+00	2.050083e+01
2.160000e-06	1.446561e-06	3.198373e-10	1.004585e+01	2.208598e+01
2.170000e-06	1.491862e-06	3.445289e-10	1.036045e+01	2.364954e+01
2.180000e-06	1.536928e-06	3.667733e-10	1.067342e+01	2.518992e+01
2.190000e-06	1.581797e-06	3.880440e-10	1.098502e+01	2.670569e+01
2.200000e-06	1.626587e-06	4.086327e-10	1.129607e+01	2.819562e+01
2.210000e-06	1.671290e-06	4.276509e-10	1.160652e+01	2.965862e+01
2.220000e-06	1.715833e-06	4.461272e-10	1.191585e+01	3.109377e+01
2.230000e-06	1.760187e-06	4.645539e-10	1.222388e+01	3.250031e+01
2.240000e-06	1.804484e-06	4.820940e-10	1.253150e+01	3.387762e+01
2.250000e-06	1.848714e-06	4.975078e-10	1.283866e+01	3.522523e+01
2.260000e-06	1.892762e-06	5.131043e-10	1.314456e+01	3.654280e+01
2.270000e-06	1.936690e-06	5.316620e-10	1.344962e+01	3.783010e+01
2.280000e-06	1.980589e-06	5.520942e-10	1.375449e+01	3.908704e+01
2.290000e-06	2.024424e-06	5.732385e-10	1.405891e+01	4.031358e+01
2.300000e-06	2.068186e-06	5.935078e-10	1.436282e+01	4.150980e+01
2.310000e-06	2.111879e-06	6.091600e-10	1.466625e+01	4.267583e+01
2.320000e-06	2.155538e-06	6.211755e-10	1.496945e+01	4.381189e+01
2.330000e-06	2.199111e-06	6.322495e-10	1.527204e+01	4.491823e+01
2.340000e-06	2.242415e-06	6.430189e-10	1.557278e+01	4.599515e+01
2.350000e-06	2.285597e-06	6.558368e-10	1.587266e+01	4.704296e+01
2.360000e-06	2.328715e-06	6.719055e-10	1.617210e+01	4.806203e+01
2.370000e-06	2.371608e-06	6.892895e-10	1.646998e+01	4.905272e+01
2.380000e-06	2.414208e-06	7.053919e-10	1.676582e+01	5.001542e+01
2.390000e-06	2.456450e-06	7.199667e-10	1.705917e+01	5.095052e+01
2.400000e-06	2.498380e-06	7.324591e-10	1.735036e+01	5.185842e+01
2.410000e-06	2.540010e-06	7.418531e-10	1.763947e+01	5.273951e+01
2.420000e-06	2.581211e-06	7.498698e-10	1.792560e+01	5.359419e+01
2.430000e-06	2.622136e-06	7.591208e-10	1.820981e+01	5.442287e+01
2.440000e-06	2.662938e-06	7.708179e-10	1.849316e+01	5.522596e+01
2.450000e-06	2.703450e-06	7.839467e-10	1.877450e+01	5.600386e+01
2.460000e-06	2.743725e-06	7.975692e-10	1.905419e+01	5.675699e+01
2.470000e-06	2.783836e-06	8.102093e-10	1.933275e+01	5.748578e+01
2.480000e-06	2.823768e-06	8.209100e-10	1.961007e+01	5.819067e+01
2.490000e-06	2.863542e-06	8.303319e-10	1.988628e+01	5.887211e+01
2.500000e-06	2.903194e-06	8.385450e-10	2.016165e+01	5.953058e+01
2.510000e-06	2.942767e-06	8.452254e-10	2.043647e+01	6.016655e+01
2.520000e-06	2.982219e-06	8.509047e-10	2.071045e+01	6.078053e+01
2.530000e-06	3.021542e-06	8.576969e-10	2.098354e+01	6.137306e+01
2.540000e-06	3.060624e-06	8.670250e-10	2.125494e+01	6.194469e+01
2.550000e-06	3.099421e-06	8.776735e-10	2.152438e+01	6.249599e+01
2.560000e-06	3.138003e-06	8.870700e-10	2.179232e+01	6.302755e+01
2.570000e-06	3.176332e-06	8.939641e-10	2.205850e+01	6.353998e+01
2.580000e-06	3.214450e-06	8.988835e-10	2.232321e+01	6.403392e+01
2.590000e-06	3.252400e-06	9.031508e-10	2.258676e+01	6.451000e+01
2.600000e-06	3.290106e-06	9.080737e-10	2.284862e+01	6.496887e+01
2.610000e-06	3.327616e-06	9.140848e-10	2.310911e+01	6.541120e+01
2.620000e-06	3.364976e-06	9.209653e-10	2.336856e+01	6.583765e+01
2.630000e-06	3.402058e-06	9.284540e-10	2.362608e+01	6.624885e+01
2.640000e-06	3.438852e-06	9.350344e-10	2.388161e+01	6.664547e+01
2.650000e-06	3.475314e-06	9.403898e-10	2.413482e+01	6.702812e+01
2.660000e-06	3.511558e-06	9.447971e-10	2.438652e+01	6.739744e+01
2.670000e-06	3.547710e-06	9.480867e-10	2.463758e+01	6.775399e+01
2.680000e-06	3.583652e-06	9.510932e-10	2.488719e+01	6.809836e+01
2.690000e-06	3.619420e-06	9.553588e-10	2.513559e+01	6.843106e+01
2.700000e-06	3.655048e-06	9.619075e-10	2.538301e+01	6.875261e+01
2.710000e-06	3.690505e-06	9.687338e-10	2.562924e+01	6.906347e+01
2.720000e-06	3.725711e-06	9.752022e-10	2.587374e+01	6.936405e+01
2.730000e-06	3.760628e-06	9.825506e-10	2.611623e+01	6.965477e+01
2.740000e-06	3.795200e-06	9.890205e-10	2.635632e+01	6.993596e+01
2.750000e-06	3.829283e-06	9.933835e-10	2.659301e+01	7.020795e+01
2.760000e-06	3.862947e-06	9.969756e-10	2.682680e+01	7.047103e+01
2.770000e-06	3.896250e-06	1.000018e-09	2.705807e+01	7.072546e+01
2.780000e-06	3.929083e-06	1.002724e-09	2.728609e+01	7.097146e+01
2.790000e-06	3.961507e-06	1.006951e-09	2.751126e+01	7.120926e+01
2.800000e-06	3.993635e-06	1.013108e-09	2.773438e+01	7.143903e+01
2.810000e-06	4.025524e-06	1.018885e-09	2.795584e+01	7.166097e+01
2.820000e-06	4.057246e-06	1.022568e-09	2.817614e+01	7.187524e+01
2.830000e-06	4.088834e-06	1.026556e-09	2.839550e+01	7.208203e+01
2.840000e-06	4.120285e-06	1.030349e-09	2.861392e+01	7.228150e+01
2.850000e-06	4.151516e-06	1.033771e-09	2.883080e+01	7.247384e+01
2.860000e-06	4.182404e-06	1.037112e-09	2.904531e+01	7.265926e+01
2.870000e-06	4.212939e-06	1.041051e-09	2.925737e+01	7.283797e+01
2.880000e-06	4.243145e-06	1.046478e-09	2.946714e+01	7.301020e+01
2.890000e-06	4.273067e-06	1.051782e-09	2.967493e+01	7.317621e+01
2.900000e-06	4.302772e-06	1.055374e-09	2.988123e+01	7.333628e+01
