# Temperatura_=_5.83
# Concentracion g/m^3_=_1620.0
# C_Vs_to_Am_M_A/Vsm_=_65563218390.804596
# pendiente_HvsI_1/m_=_3716.3
# ordenada_HvsI_A/m_=_1297.0
# frecuencia_Hz_=_135105.1607125215

Tiempo_(s)	Campo_(V.s)	Magnetizacion_(V.s)	Campo_(kA/m)	Magnetizacion_(A/m)
0.000000e+00	-5.516723e-06	-1.288677e-09	-3.837331e+01	-8.572051e+01
1.000000e-08	-5.516769e-06	-1.284217e-09	-3.837364e+01	-8.569101e+01
2.000000e-08	-5.516519e-06	-1.279689e-09	-3.837189e+01	-8.566171e+01
3.000000e-08	-5.515809e-06	-1.275654e-09	-3.836695e+01	-8.563274e+01
4.000000e-08	-5.514615e-06	-1.271732e-09	-3.835865e+01	-8.560423e+01
5.000000e-08	-5.512857e-06	-1.269233e-09	-3.834643e+01	-8.557629e+01
6.000000e-08	-5.510487e-06	-1.275092e-09	-3.832993e+01	-8.554899e+01
7.000000e-08	-5.507563e-06	-1.281173e-09	-3.830960e+01	-8.552238e+01
8.000000e-08	-5.504190e-06	-1.266211e-09	-3.828614e+01	-8.549644e+01
9.000000e-08	-5.500336e-06	-1.246107e-09	-3.825933e+01	-8.547115e+01
1.000000e-07	-5.496068e-06	-1.270914e-09	-3.822964e+01	-8.544641e+01
1.100000e-07	-5.491581e-06	-1.307706e-09	-3.819843e+01	-8.542208e+01
1.200000e-07	-5.486936e-06	-1.283207e-09	-3.816612e+01	-8.539795e+01
1.300000e-07	-5.481974e-06	-1.223484e-09	-3.813161e+01	-8.537379e+01
1.400000e-07	-5.476518e-06	-1.242785e-09	-3.809366e+01	-8.534928e+01
1.500000e-07	-5.470690e-06	-1.290440e-09	-3.805312e+01	-8.532408e+01
1.600000e-07	-5.464541e-06	-1.287857e-09	-3.801034e+01	-8.529779e+01
1.700000e-07	-5.457977e-06	-1.235244e-09	-3.796469e+01	-8.526996e+01
1.800000e-07	-5.451039e-06	-1.270301e-09	-3.791643e+01	-8.524011e+01
1.900000e-07	-5.443780e-06	-1.334734e-09	-3.786594e+01	-8.520774e+01
2.000000e-07	-5.436210e-06	-1.327330e-09	-3.781328e+01	-8.517231e+01
2.100000e-07	-5.428376e-06	-1.282570e-09	-3.775879e+01	-8.513328e+01
2.200000e-07	-5.420311e-06	-1.282333e-09	-3.770269e+01	-8.509011e+01
2.300000e-07	-5.411901e-06	-1.320777e-09	-3.764419e+01	-8.504226e+01
2.400000e-07	-5.402947e-06	-1.316678e-09	-3.758191e+01	-8.498922e+01
2.500000e-07	-5.393320e-06	-1.300103e-09	-3.751495e+01	-8.493050e+01
2.600000e-07	-5.383000e-06	-1.286472e-09	-3.744316e+01	-8.486566e+01
2.700000e-07	-5.372079e-06	-1.291088e-09	-3.736720e+01	-8.479429e+01
2.800000e-07	-5.360715e-06	-1.275539e-09	-3.728815e+01	-8.471608e+01
2.900000e-07	-5.349038e-06	-1.268073e-09	-3.720693e+01	-8.463075e+01
3.000000e-07	-5.336993e-06	-1.260402e-09	-3.712314e+01	-8.453812e+01
3.100000e-07	-5.324490e-06	-1.280225e-09	-3.703617e+01	-8.443807e+01
3.200000e-07	-5.311497e-06	-1.290577e-09	-3.694580e+01	-8.433058e+01
3.300000e-07	-5.298143e-06	-1.282503e-09	-3.685291e+01	-8.421573e+01
3.400000e-07	-5.284481e-06	-1.263527e-09	-3.675788e+01	-8.409367e+01
3.500000e-07	-5.270387e-06	-1.276577e-09	-3.665985e+01	-8.396464e+01
3.600000e-07	-5.255879e-06	-1.272664e-09	-3.655893e+01	-8.382898e+01
3.700000e-07	-5.240956e-06	-1.245100e-09	-3.645513e+01	-8.368709e+01
3.800000e-07	-5.225432e-06	-1.249985e-09	-3.634714e+01	-8.353946e+01
3.900000e-07	-5.209165e-06	-1.275514e-09	-3.623400e+01	-8.338664e+01
4.000000e-07	-5.192486e-06	-1.254098e-09	-3.611798e+01	-8.322922e+01
4.100000e-07	-5.175676e-06	-1.238380e-09	-3.600105e+01	-8.306787e+01
4.200000e-07	-5.158539e-06	-1.274501e-09	-3.588186e+01	-8.290326e+01
4.300000e-07	-5.141071e-06	-1.266571e-09	-3.576035e+01	-8.273608e+01
4.400000e-07	-5.123327e-06	-1.220146e-09	-3.563693e+01	-8.256705e+01
4.500000e-07	-5.105166e-06	-1.238220e-09	-3.551060e+01	-8.239684e+01
4.600000e-07	-5.086562e-06	-1.269191e-09	-3.538119e+01	-8.222614e+01
4.700000e-07	-5.067515e-06	-1.222161e-09	-3.524871e+01	-8.205558e+01
4.800000e-07	-5.048095e-06	-1.213635e-09	-3.511362e+01	-8.188574e+01
4.900000e-07	-5.028471e-06	-1.260574e-09	-3.497712e+01	-8.171714e+01
5.000000e-07	-5.008702e-06	-1.245448e-09	-3.483962e+01	-8.155023e+01
5.100000e-07	-4.988725e-06	-1.207636e-09	-3.470066e+01	-8.138539e+01
5.200000e-07	-4.968363e-06	-1.244179e-09	-3.455902e+01	-8.122289e+01
5.300000e-07	-4.947597e-06	-1.242089e-09	-3.441458e+01	-8.106291e+01
5.400000e-07	-4.926426e-06	-1.189485e-09	-3.426731e+01	-8.090555e+01
5.500000e-07	-4.904907e-06	-1.203962e-09	-3.411764e+01	-8.075079e+01
5.600000e-07	-4.883130e-06	-1.235850e-09	-3.396616e+01	-8.059852e+01
5.700000e-07	-4.861059e-06	-1.190717e-09	-3.381264e+01	-8.044855e+01
5.800000e-07	-4.838586e-06	-1.184657e-09	-3.365632e+01	-8.030057e+01
5.900000e-07	-4.815662e-06	-1.229426e-09	-3.349686e+01	-8.015422e+01
6.000000e-07	-4.792466e-06	-1.212674e-09	-3.333551e+01	-8.000902e+01
6.100000e-07	-4.769024e-06	-1.178073e-09	-3.317246e+01	-7.986448e+01
6.200000e-07	-4.745346e-06	-1.205809e-09	-3.300776e+01	-7.972003e+01
6.300000e-07	-4.721469e-06	-1.207204e-09	-3.284168e+01	-7.957505e+01
6.400000e-07	-4.697326e-06	-1.170864e-09	-3.267374e+01	-7.942891e+01
6.500000e-07	-4.672857e-06	-1.178620e-09	-3.250354e+01	-7.928098e+01
6.600000e-07	-4.647900e-06	-1.194828e-09	-3.232994e+01	-7.913061e+01
6.700000e-07	-4.622332e-06	-1.170409e-09	-3.215209e+01	-7.897718e+01
6.800000e-07	-4.596198e-06	-1.169019e-09	-3.197031e+01	-7.882010e+01
6.900000e-07	-4.569594e-06	-1.190560e-09	-3.178526e+01	-7.865882e+01
7.000000e-07	-4.542562e-06	-1.175237e-09	-3.159723e+01	-7.849284e+01
7.100000e-07	-4.515162e-06	-1.153882e-09	-3.140664e+01	-7.832175e+01
7.200000e-07	-4.487542e-06	-1.160723e-09	-3.121452e+01	-7.814518e+01
7.300000e-07	-4.459738e-06	-1.153963e-09	-3.102112e+01	-7.796286e+01
7.400000e-07	-4.431729e-06	-1.134415e-09	-3.082630e+01	-7.777460e+01
7.500000e-07	-4.403480e-06	-1.143210e-09	-3.062980e+01	-7.758032e+01
7.600000e-07	-4.374957e-06	-1.151000e-09	-3.043140e+01	-7.737998e+01
7.700000e-07	-4.346141e-06	-1.139608e-09	-3.023096e+01	-7.717367e+01
7.800000e-07	-4.317010e-06	-1.136612e-09	-3.002833e+01	-7.696155e+01
7.900000e-07	-4.287587e-06	-1.140760e-09	-2.982367e+01	-7.674385e+01
8.000000e-07	-4.257894e-06	-1.126922e-09	-2.961713e+01	-7.652088e+01
8.100000e-07	-4.227907e-06	-1.118267e-09	-2.940855e+01	-7.629301e+01
8.200000e-07	-4.197627e-06	-1.124067e-09	-2.919792e+01	-7.606064e+01
8.300000e-07	-4.167119e-06	-1.120262e-09	-2.898572e+01	-7.582424e+01
8.400000e-07	-4.136244e-06	-1.110695e-09	-2.877096e+01	-7.558428e+01
8.500000e-07	-4.104974e-06	-1.115899e-09	-2.855345e+01	-7.534127e+01
8.600000e-07	-4.073511e-06	-1.114448e-09	-2.833460e+01	-7.509568e+01
8.700000e-07	-4.041888e-06	-1.104638e-09	-2.811463e+01	-7.484800e+01
8.800000e-07	-4.010110e-06	-1.102694e-09	-2.789359e+01	-7.459869e+01
8.900000e-07	-3.978184e-06	-1.102550e-09	-2.767152e+01	-7.434815e+01
9.000000e-07	-3.946065e-06	-1.093205e-09	-2.744811e+01	-7.409677e+01
9.100000e-07	-3.913606e-06	-1.090562e-09	-2.722233e+01	-7.384485e+01
9.200000e-07	-3.880791e-06	-1.090207e-09	-2.699407e+01	-7.359264e+01
9.300000e-07	-3.847612e-06	-1.081995e-09	-2.676328e+01	-7.334031e+01
9.400000e-07	-3.813900e-06	-1.075901e-09	-2.652879e+01	-7.308796e+01
9.500000e-07	-3.779665e-06	-1.077320e-09	-2.629066e+01	-7.283562e+01
9.600000e-07	-3.745015e-06	-1.071474e-09	-2.604964e+01	-7.258322e+01
9.700000e-07	-3.709955e-06	-1.061797e-09	-2.580577e+01	-7.233065e+01
9.800000e-07	-3.674540e-06	-1.059201e-09	-2.555942e+01	-7.207769e+01
9.900000e-07	-3.638962e-06	-1.052864e-09	-2.531196e+01	-7.182409e+01
1.000000e-06	-3.603295e-06	-1.039591e-09	-2.506386e+01	-7.156950e+01
1.010000e-06	-3.567522e-06	-1.035115e-09	-2.481503e+01	-7.131357e+01
1.020000e-06	-3.531644e-06	-1.036906e-09	-2.456547e+01	-7.105586e+01
1.030000e-06	-3.495536e-06	-1.033739e-09	-2.431430e+01	-7.079593e+01
1.040000e-06	-3.459124e-06	-1.032397e-09	-2.406103e+01	-7.053332e+01
1.050000e-06	-3.422472e-06	-1.033112e-09	-2.380609e+01	-7.026756e+01
1.060000e-06	-3.385535e-06	-1.025450e-09	-2.354916e+01	-6.999818e+01
1.070000e-06	-3.348324e-06	-1.014584e-09	-2.329033e+01	-6.972474e+01
1.080000e-06	-3.310891e-06	-1.012793e-09	-2.302995e+01	-6.944681e+01
1.090000e-06	-3.273232e-06	-1.009004e-09	-2.276800e+01	-6.916401e+01
1.100000e-06	-3.235336e-06	-1.000455e-09	-2.250441e+01	-6.887602e+01
1.110000e-06	-3.197222e-06	-9.972626e-10	-2.223929e+01	-6.858254e+01
1.120000e-06	-3.158935e-06	-9.996938e-10	-2.197297e+01	-6.828336e+01
1.130000e-06	-3.120419e-06	-9.954806e-10	-2.170506e+01	-6.797833e+01
1.140000e-06	-3.081653e-06	-9.881929e-10	-2.143541e+01	-6.766735e+01
1.150000e-06	-3.042700e-06	-9.793849e-10	-2.116446e+01	-6.735041e+01
1.160000e-06	-3.003538e-06	-9.673097e-10	-2.089206e+01	-6.702753e+01
1.170000e-06	-2.964171e-06	-9.580941e-10	-2.061823e+01	-6.669884e+01
1.180000e-06	-2.924639e-06	-9.581172e-10	-2.034326e+01	-6.636447e+01
1.190000e-06	-2.884957e-06	-9.594536e-10	-2.006723e+01	-6.602465e+01
1.200000e-06	-2.845174e-06	-9.557182e-10	-1.979051e+01	-6.567962e+01
1.210000e-06	-2.805321e-06	-9.507904e-10	-1.951330e+01	-6.532966e+01
1.220000e-06	-2.765375e-06	-9.441388e-10	-1.923544e+01	-6.497507e+01
1.230000e-06	-2.725258e-06	-9.328897e-10	-1.895639e+01	-6.461615e+01
1.240000e-06	-2.684887e-06	-9.241512e-10	-1.867558e+01	-6.425321e+01
1.250000e-06	-2.644278e-06	-9.221174e-10	-1.839311e+01	-6.388654e+01
1.260000e-06	-2.603482e-06	-9.190184e-10	-1.810934e+01	-6.351640e+01
1.270000e-06	-2.562452e-06	-9.129132e-10	-1.782395e+01	-6.314301e+01
1.280000e-06	-2.521096e-06	-9.096253e-10	-1.753629e+01	-6.276656e+01
1.290000e-06	-2.479524e-06	-9.055111e-10	-1.724712e+01	-6.238716e+01
1.300000e-06	-2.437649e-06	-8.939665e-10	-1.695584e+01	-6.200488e+01
1.310000e-06	-2.395293e-06	-8.832537e-10	-1.666122e+01	-6.161968e+01
1.320000e-06	-2.352658e-06	-8.779138e-10	-1.636466e+01	-6.123150e+01
1.330000e-06	-2.309805e-06	-8.724016e-10	-1.606658e+01	-6.084015e+01
1.340000e-06	-2.266714e-06	-8.679117e-10	-1.576685e+01	-6.044540e+01
1.350000e-06	-2.223432e-06	-8.631234e-10	-1.546579e+01	-6.004693e+01
1.360000e-06	-2.179959e-06	-8.534095e-10	-1.516339e+01	-5.964433e+01
1.370000e-06	-2.136342e-06	-8.431495e-10	-1.486000e+01	-5.923714e+01
1.380000e-06	-2.092626e-06	-8.367014e-10	-1.455592e+01	-5.882484e+01
1.390000e-06	-2.048844e-06	-8.328796e-10	-1.425138e+01	-5.840684e+01
1.400000e-06	-2.005011e-06	-8.288797e-10	-1.394649e+01	-5.798252e+01
1.410000e-06	-1.961112e-06	-8.255472e-10	-1.364113e+01	-5.755122e+01
1.420000e-06	-1.917163e-06	-8.197047e-10	-1.333543e+01	-5.711224e+01
1.430000e-06	-1.873173e-06	-8.092621e-10	-1.302945e+01	-5.666489e+01
1.440000e-06	-1.829067e-06	-7.979511e-10	-1.272265e+01	-5.620846e+01
1.450000e-06	-1.784792e-06	-7.882293e-10	-1.241468e+01	-5.574228e+01
1.460000e-06	-1.740416e-06	-7.794743e-10	-1.210601e+01	-5.526565e+01
1.470000e-06	-1.695985e-06	-7.727115e-10	-1.179696e+01	-5.477793e+01
1.480000e-06	-1.651409e-06	-7.678107e-10	-1.148690e+01	-5.427853e+01
1.490000e-06	-1.606636e-06	-7.608472e-10	-1.117546e+01	-5.376686e+01
1.500000e-06	-1.561684e-06	-7.520278e-10	-1.086278e+01	-5.324242e+01
1.510000e-06	-1.516645e-06	-7.450161e-10	-1.054951e+01	-5.270474e+01
1.520000e-06	-1.471529e-06	-7.379193e-10	-1.023569e+01	-5.215341e+01
1.530000e-06	-1.426347e-06	-7.302458e-10	-9.921407e+00	-5.158805e+01
1.540000e-06	-1.381055e-06	-7.231075e-10	-9.606364e+00	-5.100837e+01
1.550000e-06	-1.335600e-06	-7.155470e-10	-9.290192e+00	-5.041409e+01
1.560000e-06	-1.290082e-06	-7.039569e-10	-8.973575e+00	-4.980497e+01
1.570000e-06	-1.244515e-06	-6.909663e-10	-8.656618e+00	-4.918082e+01
1.580000e-06	-1.198870e-06	-6.796008e-10	-8.339120e+00	-4.854145e+01
1.590000e-06	-1.153103e-06	-6.710076e-10	-8.020770e+00	-4.788668e+01
1.600000e-06	-1.107268e-06	-6.628435e-10	-7.701951e+00	-4.721632e+01
1.610000e-06	-1.061402e-06	-6.537108e-10	-7.382921e+00	-4.653017e+01
1.620000e-06	-1.015446e-06	-6.443920e-10	-7.063257e+00	-4.582801e+01
1.630000e-06	-9.693649e-07	-6.331456e-10	-6.742725e+00	-4.510957e+01
1.640000e-06	-9.232164e-07	-6.212495e-10	-6.421724e+00	-4.437450e+01
1.650000e-06	-8.770299e-07	-6.077537e-10	-6.100459e+00	-4.362241e+01
1.660000e-06	-8.307843e-07	-5.933974e-10	-5.778784e+00	-4.285284e+01
1.670000e-06	-7.844757e-07	-5.793247e-10	-5.456669e+00	-4.206523e+01
1.680000e-06	-7.380803e-07	-5.674456e-10	-5.133951e+00	-4.125894e+01
1.690000e-06	-6.916730e-07	-5.569486e-10	-4.811151e+00	-4.043322e+01
1.700000e-06	-6.452780e-07	-5.453725e-10	-4.488435e+00	-3.958725e+01
1.710000e-06	-5.987781e-07	-5.327811e-10	-4.164991e+00	-3.872009e+01
1.720000e-06	-5.522357e-07	-5.194676e-10	-3.841250e+00	-3.783074e+01
1.730000e-06	-5.056507e-07	-5.037273e-10	-3.517214e+00	-3.691811e+01
1.740000e-06	-4.590024e-07	-4.847507e-10	-3.192737e+00	-3.598103e+01
1.750000e-06	-4.123758e-07	-4.633086e-10	-2.868411e+00	-3.501827e+01
1.760000e-06	-3.656781e-07	-4.435603e-10	-2.543590e+00	-3.402859e+01
1.770000e-06	-3.188543e-07	-4.314614e-10	-2.217892e+00	-3.301068e+01
1.780000e-06	-2.720201e-07	-4.242654e-10	-1.892122e+00	-3.196328e+01
1.790000e-06	-2.252318e-07	-4.169672e-10	-1.566671e+00	-3.088511e+01
1.800000e-06	-1.783765e-07	-4.044183e-10	-1.240754e+00	-2.977495e+01
1.810000e-06	-1.315345e-07	-3.855443e-10	-9.149296e-01	-2.863164e+01
1.820000e-06	-8.479875e-08	-3.642001e-10	-5.898445e-01	-2.745413e+01
1.830000e-06	-3.803487e-08	-3.431191e-10	-2.645636e-01	-2.624147e+01
1.840000e-06	8.805665e-09	-3.239360e-10	6.125059e-02	-2.499286e+01
1.850000e-06	5.561759e-08	-3.059563e-10	3.868657e-01	-2.370768e+01
1.860000e-06	1.024209e-07	-2.880948e-10	7.124210e-01	-2.238547e+01
1.870000e-06	1.491418e-07	-2.710253e-10	1.037403e+00	-2.102600e+01
1.880000e-06	1.958044e-07	-2.550567e-10	1.361979e+00	-1.962926e+01
1.890000e-06	2.425554e-07	-2.380669e-10	1.687171e+00	-1.819548e+01
1.900000e-06	2.893293e-07	-2.163521e-10	2.012522e+00	-1.672515e+01
1.910000e-06	3.360749e-07	-1.924773e-10	2.337675e+00	-1.521901e+01
1.920000e-06	3.827491e-07	-1.714966e-10	2.662333e+00	-1.367807e+01
1.930000e-06	4.293726e-07	-1.498505e-10	2.986637e+00	-1.210360e+01
1.940000e-06	4.759224e-07	-1.257479e-10	3.310429e+00	-1.049713e+01
1.950000e-06	5.223819e-07	-1.004961e-10	3.633593e+00	-8.860451e+00
1.960000e-06	5.688294e-07	-7.894835e-11	3.956673e+00	-7.195597e+00
1.970000e-06	6.153026e-07	-6.009478e-11	4.279932e+00	-5.504822e+00
1.980000e-06	6.617395e-07	-3.944749e-11	4.602939e+00	-3.790591e+00
1.990000e-06	7.081148e-07	-1.376152e-11	4.925517e+00	-2.055558e+00
2.000000e-06	7.543756e-07	1.650638e-11	5.247298e+00	-3.025363e-01
2.010000e-06	8.005584e-07	4.843223e-11	5.568538e+00	1.465523e+00
2.020000e-06	8.466967e-07	7.837635e-11	5.889467e+00	3.245564e+00
2.030000e-06	8.927787e-07	1.029398e-10	6.210005e+00	5.034454e+00
2.040000e-06	9.388910e-07	1.231460e-10	6.530754e+00	6.829014e+00
2.050000e-06	9.849896e-07	1.446269e-10	6.851407e+00	8.626052e+00
2.060000e-06	1.031000e-06	1.698503e-10	7.171450e+00	1.042239e+01
2.070000e-06	1.076876e-06	1.974556e-10	7.490552e+00	1.221491e+01
2.080000e-06	1.122683e-06	2.270465e-10	7.809178e+00	1.400055e+01
2.090000e-06	1.168447e-06	2.553474e-10	8.127500e+00	1.577638e+01
2.100000e-06	1.214064e-06	2.804777e-10	8.444808e+00	1.753956e+01
2.110000e-06	1.259600e-06	3.029143e-10	8.761550e+00	1.928745e+01
2.120000e-06	1.305042e-06	3.229911e-10	9.077630e+00	2.101754e+01
2.130000e-06	1.350389e-06	3.416033e-10	9.393061e+00	2.272753e+01
2.140000e-06	1.395737e-06	3.624591e-10	9.708493e+00	2.441531e+01
2.150000e-06	1.440985e-06	3.878440e-10	1.002323e+01	2.607899e+01
2.160000e-06	1.486103e-06	4.157150e-10	1.033706e+01	2.771690e+01
2.170000e-06	1.531120e-06	4.417277e-10	1.065019e+01	2.932757e+01
2.180000e-06	1.576015e-06	4.639676e-10	1.096247e+01	3.090976e+01
2.190000e-06	1.620722e-06	4.828827e-10	1.127345e+01	3.246244e+01
2.200000e-06	1.665220e-06	4.997429e-10	1.158296e+01	3.398479e+01
2.210000e-06	1.709624e-06	5.145335e-10	1.189183e+01	3.547618e+01
2.220000e-06	1.754003e-06	5.304622e-10	1.220052e+01	3.693617e+01
2.230000e-06	1.798288e-06	5.485873e-10	1.250856e+01	3.836447e+01
2.240000e-06	1.842431e-06	5.664094e-10	1.281561e+01	3.976096e+01
2.250000e-06	1.886440e-06	5.839318e-10	1.312173e+01	4.112565e+01
2.260000e-06	1.930345e-06	6.034457e-10	1.342713e+01	4.245866e+01
2.270000e-06	1.974203e-06	6.234730e-10	1.373220e+01	4.376021e+01
2.280000e-06	2.018006e-06	6.400093e-10	1.403688e+01	4.503059e+01
2.290000e-06	2.061767e-06	6.527821e-10	1.434127e+01	4.627017e+01
2.300000e-06	2.105495e-06	6.645890e-10	1.464544e+01	4.747934e+01
2.310000e-06	2.149117e-06	6.784988e-10	1.494886e+01	4.865853e+01
2.320000e-06	2.192656e-06	6.960158e-10	1.525172e+01	4.980818e+01
2.330000e-06	2.236101e-06	7.147606e-10	1.555391e+01	5.092872e+01
2.340000e-06	2.279268e-06	7.337803e-10	1.585417e+01	5.202060e+01
2.350000e-06	2.322195e-06	7.517726e-10	1.615276e+01	5.308421e+01
2.360000e-06	2.364938e-06	7.662273e-10	1.645007e+01	5.411996e+01
2.370000e-06	2.407371e-06	7.773470e-10	1.674523e+01	5.512819e+01
2.380000e-06	2.449439e-06	7.876452e-10	1.703785e+01	5.610924e+01
2.390000e-06	2.491174e-06	7.989164e-10	1.732815e+01	5.706340e+01
2.400000e-06	2.532674e-06	8.117624e-10	1.761682e+01	5.799097e+01
2.410000e-06	2.573925e-06	8.271010e-10	1.790375e+01	5.889218e+01
2.420000e-06	2.614861e-06	8.434446e-10	1.818849e+01	5.976727e+01
2.430000e-06	2.655529e-06	8.585216e-10	1.847137e+01	6.061648e+01
2.440000e-06	2.695981e-06	8.695297e-10	1.875275e+01	6.144004e+01
2.450000e-06	2.736255e-06	8.792276e-10	1.903289e+01	6.223817e+01
2.460000e-06	2.776338e-06	8.894547e-10	1.931170e+01	6.301115e+01
2.470000e-06	2.816254e-06	8.999010e-10	1.958935e+01	6.375924e+01
2.480000e-06	2.856060e-06	9.116721e-10	1.986623e+01	6.448277e+01
2.490000e-06	2.895755e-06	9.246021e-10	2.014234e+01	6.518209e+01
2.500000e-06	2.935290e-06	9.364435e-10	2.041734e+01	6.585762e+01
2.510000e-06	2.974650e-06	9.458840e-10	2.069112e+01	6.650981e+01
2.520000e-06	3.013899e-06	9.541221e-10	2.096413e+01	6.713920e+01
2.530000e-06	3.052953e-06	9.621822e-10	2.123578e+01	6.774636e+01
2.540000e-06	3.091693e-06	9.701172e-10	2.150525e+01	6.833196e+01
2.550000e-06	3.130082e-06	9.779341e-10	2.177228e+01	6.889669e+01
2.560000e-06	3.168245e-06	9.862133e-10	2.203773e+01	6.944134e+01
2.570000e-06	3.206325e-06	9.951720e-10	2.230261e+01	6.996674e+01
2.580000e-06	3.244208e-06	1.003573e-09	2.256612e+01	7.047376e+01
2.590000e-06	3.281844e-06	1.009359e-09	2.282791e+01	7.096332e+01
2.600000e-06	3.319264e-06	1.012445e-09	2.308819e+01	7.143638e+01
2.610000e-06	3.356530e-06	1.015447e-09	2.334741e+01	7.189391e+01
2.620000e-06	3.393614e-06	1.020763e-09	2.360536e+01	7.233691e+01
2.630000e-06	3.430365e-06	1.027742e-09	2.386099e+01	7.276636e+01
2.640000e-06	3.466873e-06	1.034642e-09	2.411493e+01	7.318324e+01
2.650000e-06	3.503144e-06	1.042311e-09	2.436723e+01	7.358851e+01
2.660000e-06	3.539125e-06	1.049447e-09	2.461750e+01	7.398309e+01
2.670000e-06	3.574938e-06	1.053743e-09	2.486662e+01	7.436784e+01
2.680000e-06	3.610682e-06	1.057109e-09	2.511524e+01	7.474359e+01
2.690000e-06	3.646323e-06	1.061057e-09	2.536316e+01	7.511107e+01
2.700000e-06	3.681812e-06	1.064124e-09	2.561001e+01	7.547097e+01
2.710000e-06	3.717054e-06	1.067030e-09	2.585515e+01	7.582387e+01
2.720000e-06	3.752007e-06	1.074110e-09	2.609827e+01	7.617027e+01
2.730000e-06	3.786598e-06	1.081612e-09	2.633888e+01	7.651059e+01
2.740000e-06	3.820756e-06	1.087991e-09	2.657648e+01	7.684515e+01
2.750000e-06	3.854458e-06	1.095059e-09	2.681090e+01	7.717417e+01
2.760000e-06	3.887609e-06	1.099423e-09	2.704150e+01	7.749781e+01
2.770000e-06	3.920359e-06	1.103001e-09	2.726930e+01	7.781611e+01
2.780000e-06	3.952867e-06	1.107346e-09	2.749542e+01	7.812906e+01
2.790000e-06	3.985113e-06	1.113527e-09	2.771972e+01	7.843655e+01
2.800000e-06	4.017088e-06	1.118172e-09	2.794213e+01	7.873844e+01
2.810000e-06	4.048892e-06	1.123028e-09	2.816335e+01	7.903450e+01
2.820000e-06	4.080555e-06	1.129897e-09	2.838359e+01	7.932449e+01
2.830000e-06	4.111987e-06	1.135616e-09	2.860223e+01	7.960813e+01
2.840000e-06	4.143153e-06	1.139341e-09	2.881901e+01	7.988510e+01
2.850000e-06	4.173981e-06	1.143296e-09	2.903345e+01	8.015510e+01
2.860000e-06	4.204440e-06	1.147806e-09	2.924532e+01	8.041782e+01
2.870000e-06	4.234645e-06	1.151092e-09	2.945541e+01	8.067297e+01
2.880000e-06	4.264627e-06	1.152899e-09	2.966396e+01	8.092027e+01
2.890000e-06	4.294318e-06	1.156038e-09	2.987049e+01	8.115950e+01
2.900000e-06	4.323682e-06	1.160710e-09	3.007474e+01	8.139047e+01
