# Temperatura_=_14.8
# Concentracion g/m^3_=_1620.0
# C_Vs_to_Am_M_A/Vsm_=_65563218390.804596
# pendiente_HvsI_1/m_=_3716.3
# ordenada_HvsI_A/m_=_1297.0
# frecuencia_Hz_=_135099.9874175433

Tiempo_(s)	Campo_(V.s)	Magnetizacion_(V.s)	Campo_(kA/m)	Magnetizacion_(A/m)
0.000000e+00	-5.531098e-06	-1.504012e-09	-3.838151e+01	-1.009725e+02
1.000000e-08	-5.531325e-06	-1.503329e-09	-3.838308e+01	-1.009390e+02
2.000000e-08	-5.531326e-06	-1.500549e-09	-3.838309e+01	-1.009023e+02
3.000000e-08	-5.531002e-06	-1.499732e-09	-3.838084e+01	-1.008627e+02
4.000000e-08	-5.530202e-06	-1.499482e-09	-3.837529e+01	-1.008205e+02
5.000000e-08	-5.528770e-06	-1.495164e-09	-3.836535e+01	-1.007760e+02
6.000000e-08	-5.526724e-06	-1.489439e-09	-3.835116e+01	-1.007295e+02
7.000000e-08	-5.524157e-06	-1.490878e-09	-3.833334e+01	-1.006815e+02
8.000000e-08	-5.521026e-06	-1.499176e-09	-3.831162e+01	-1.006321e+02
9.000000e-08	-5.517445e-06	-1.493341e-09	-3.828676e+01	-1.005816e+02
1.000000e-07	-5.513481e-06	-1.491990e-09	-3.825926e+01	-1.005304e+02
1.100000e-07	-5.509158e-06	-1.516186e-09	-3.822926e+01	-1.004787e+02
1.200000e-07	-5.504628e-06	-1.501292e-09	-3.819783e+01	-1.004266e+02
1.300000e-07	-5.499926e-06	-1.452524e-09	-3.816520e+01	-1.003742e+02
1.400000e-07	-5.494888e-06	-1.447114e-09	-3.813024e+01	-1.003215e+02
1.500000e-07	-5.489340e-06	-1.498625e-09	-3.809174e+01	-1.002687e+02
1.600000e-07	-5.483416e-06	-1.523596e-09	-3.805063e+01	-1.002154e+02
1.700000e-07	-5.477164e-06	-1.465374e-09	-3.800725e+01	-1.001615e+02
1.800000e-07	-5.470491e-06	-1.458150e-09	-3.796095e+01	-1.001068e+02
1.900000e-07	-5.463389e-06	-1.513233e-09	-3.791166e+01	-1.000509e+02
2.000000e-07	-5.455886e-06	-1.540768e-09	-3.785960e+01	-9.999332e+01
2.100000e-07	-5.448115e-06	-1.494669e-09	-3.780567e+01	-9.993357e+01
2.200000e-07	-5.440208e-06	-1.478133e-09	-3.775080e+01	-9.987106e+01
2.300000e-07	-5.432081e-06	-1.509991e-09	-3.769441e+01	-9.980518e+01
2.400000e-07	-5.423566e-06	-1.525994e-09	-3.763532e+01	-9.973524e+01
2.500000e-07	-5.414444e-06	-1.504256e-09	-3.757202e+01	-9.966053e+01
2.600000e-07	-5.404509e-06	-1.493934e-09	-3.750308e+01	-9.958031e+01
2.700000e-07	-5.393852e-06	-1.500165e-09	-3.742913e+01	-9.949387e+01
2.800000e-07	-5.382698e-06	-1.493292e-09	-3.735173e+01	-9.940046e+01
2.900000e-07	-5.371175e-06	-1.480624e-09	-3.727177e+01	-9.929941e+01
3.000000e-07	-5.359316e-06	-1.473812e-09	-3.718947e+01	-9.919005e+01
3.100000e-07	-5.347076e-06	-1.482735e-09	-3.710454e+01	-9.907181e+01
3.200000e-07	-5.334428e-06	-1.492331e-09	-3.701677e+01	-9.894416e+01
3.300000e-07	-5.321409e-06	-1.495433e-09	-3.692643e+01	-9.880667e+01
3.400000e-07	-5.307947e-06	-1.477565e-09	-3.683302e+01	-9.865901e+01
3.500000e-07	-5.294049e-06	-1.481490e-09	-3.673657e+01	-9.850096e+01
3.600000e-07	-5.279758e-06	-1.489125e-09	-3.663740e+01	-9.833243e+01
3.700000e-07	-5.265033e-06	-1.471755e-09	-3.653522e+01	-9.815342e+01
3.800000e-07	-5.249836e-06	-1.452445e-09	-3.642977e+01	-9.796410e+01
3.900000e-07	-5.234088e-06	-1.471942e-09	-3.632049e+01	-9.776474e+01
4.000000e-07	-5.217807e-06	-1.464157e-09	-3.620751e+01	-9.755575e+01
4.100000e-07	-5.201102e-06	-1.436139e-09	-3.609160e+01	-9.733766e+01
4.200000e-07	-5.184078e-06	-1.452616e-09	-3.597346e+01	-9.711111e+01
4.300000e-07	-5.166770e-06	-1.474730e-09	-3.585336e+01	-9.687685e+01
4.400000e-07	-5.149180e-06	-1.432220e-09	-3.573129e+01	-9.663573e+01
4.500000e-07	-5.131222e-06	-1.421658e-09	-3.560668e+01	-9.638868e+01
4.600000e-07	-5.112772e-06	-1.462187e-09	-3.547865e+01	-9.613668e+01
4.700000e-07	-5.093892e-06	-1.442121e-09	-3.534764e+01	-9.588077e+01
4.800000e-07	-5.074692e-06	-1.395312e-09	-3.521441e+01	-9.562202e+01
4.900000e-07	-5.055236e-06	-1.430860e-09	-3.507940e+01	-9.536150e+01
5.000000e-07	-5.035563e-06	-1.450678e-09	-3.494288e+01	-9.510027e+01
5.100000e-07	-5.015681e-06	-1.404013e-09	-3.480492e+01	-9.483935e+01
5.200000e-07	-4.995502e-06	-1.405809e-09	-3.466489e+01	-9.457974e+01
5.300000e-07	-4.974971e-06	-1.437830e-09	-3.452242e+01	-9.432233e+01
5.400000e-07	-4.954088e-06	-1.399960e-09	-3.437751e+01	-9.406795e+01
5.500000e-07	-4.932822e-06	-1.376207e-09	-3.422994e+01	-9.381731e+01
5.600000e-07	-4.911197e-06	-1.415200e-09	-3.407988e+01	-9.357102e+01
5.700000e-07	-4.889235e-06	-1.404854e-09	-3.392748e+01	-9.332956e+01
5.800000e-07	-4.866879e-06	-1.366513e-09	-3.377234e+01	-9.309325e+01
5.900000e-07	-4.844220e-06	-1.389587e-09	-3.361511e+01	-9.286228e+01
6.000000e-07	-4.821250e-06	-1.404752e-09	-3.345571e+01	-9.263671e+01
6.100000e-07	-4.797941e-06	-1.366028e-09	-3.329397e+01	-9.241643e+01
6.200000e-07	-4.774348e-06	-1.365883e-09	-3.313026e+01	-9.220118e+01
6.300000e-07	-4.750511e-06	-1.389675e-09	-3.296484e+01	-9.199059e+01
6.400000e-07	-4.726523e-06	-1.373335e-09	-3.279838e+01	-9.178413e+01
6.500000e-07	-4.702264e-06	-1.359424e-09	-3.263004e+01	-9.158116e+01
6.600000e-07	-4.677566e-06	-1.377439e-09	-3.245866e+01	-9.138093e+01
6.700000e-07	-4.652358e-06	-1.371762e-09	-3.228374e+01	-9.118261e+01
6.800000e-07	-4.626593e-06	-1.356440e-09	-3.210495e+01	-9.098527e+01
6.900000e-07	-4.600200e-06	-1.363247e-09	-3.192180e+01	-9.078794e+01
7.000000e-07	-4.573285e-06	-1.364285e-09	-3.173503e+01	-9.058962e+01
7.100000e-07	-4.546034e-06	-1.343252e-09	-3.154593e+01	-9.038926e+01
7.200000e-07	-4.518534e-06	-1.338295e-09	-3.135510e+01	-9.018586e+01
7.300000e-07	-4.490865e-06	-1.341091e-09	-3.116310e+01	-8.997839e+01
7.400000e-07	-4.463032e-06	-1.330400e-09	-3.096996e+01	-8.976590e+01
7.500000e-07	-4.435032e-06	-1.322959e-09	-3.077566e+01	-8.954748e+01
7.600000e-07	-4.406793e-06	-1.328874e-09	-3.057971e+01	-8.932230e+01
7.700000e-07	-4.378224e-06	-1.325070e-09	-3.038146e+01	-8.908961e+01
7.800000e-07	-4.349324e-06	-1.317170e-09	-3.018092e+01	-8.884879e+01
7.900000e-07	-4.320157e-06	-1.316052e-09	-2.997852e+01	-8.859929e+01
8.000000e-07	-4.290654e-06	-1.312402e-09	-2.977379e+01	-8.834071e+01
8.100000e-07	-4.260808e-06	-1.302707e-09	-2.956668e+01	-8.807278e+01
8.200000e-07	-4.230691e-06	-1.299865e-09	-2.935770e+01	-8.779531e+01
8.300000e-07	-4.200156e-06	-1.299797e-09	-2.914581e+01	-8.750830e+01
8.400000e-07	-4.169289e-06	-1.294091e-09	-2.893161e+01	-8.721181e+01
8.500000e-07	-4.138186e-06	-1.291422e-09	-2.871579e+01	-8.690606e+01
8.600000e-07	-4.106842e-06	-1.289669e-09	-2.849828e+01	-8.659136e+01
8.700000e-07	-4.075353e-06	-1.279677e-09	-2.827978e+01	-8.626812e+01
8.800000e-07	-4.043661e-06	-1.268366e-09	-2.805985e+01	-8.593683e+01
8.900000e-07	-4.011731e-06	-1.265257e-09	-2.783828e+01	-8.559805e+01
9.000000e-07	-3.979606e-06	-1.258253e-09	-2.761536e+01	-8.525240e+01
9.100000e-07	-3.947301e-06	-1.249813e-09	-2.739119e+01	-8.490055e+01
9.200000e-07	-3.914738e-06	-1.246166e-09	-2.716523e+01	-8.454317e+01
9.300000e-07	-3.881785e-06	-1.241899e-09	-2.693656e+01	-8.418095e+01
9.400000e-07	-3.848351e-06	-1.233528e-09	-2.670456e+01	-8.381458e+01
9.500000e-07	-3.814392e-06	-1.230306e-09	-2.646891e+01	-8.344470e+01
9.600000e-07	-3.779985e-06	-1.225436e-09	-2.623015e+01	-8.307193e+01
9.700000e-07	-3.745203e-06	-1.212138e-09	-2.598879e+01	-8.269683e+01
9.800000e-07	-3.710065e-06	-1.199691e-09	-2.574496e+01	-8.231989e+01
9.900000e-07	-3.674620e-06	-1.194944e-09	-2.549900e+01	-8.194155e+01
1.000000e-06	-3.639010e-06	-1.187009e-09	-2.525189e+01	-8.156214e+01
1.010000e-06	-3.603266e-06	-1.179601e-09	-2.500386e+01	-8.118191e+01
1.020000e-06	-3.567355e-06	-1.180553e-09	-2.475466e+01	-8.080104e+01
1.030000e-06	-3.531320e-06	-1.180599e-09	-2.450461e+01	-8.041958e+01
1.040000e-06	-3.495065e-06	-1.172685e-09	-2.425303e+01	-8.003754e+01
1.050000e-06	-3.458503e-06	-1.164967e-09	-2.399932e+01	-7.965480e+01
1.060000e-06	-3.421644e-06	-1.156550e-09	-2.374354e+01	-7.927118e+01
1.070000e-06	-3.384605e-06	-1.148043e-09	-2.348652e+01	-7.888643e+01
1.080000e-06	-3.347344e-06	-1.142731e-09	-2.322796e+01	-7.850023e+01
1.090000e-06	-3.309820e-06	-1.142692e-09	-2.296757e+01	-7.811220e+01
1.100000e-06	-3.272090e-06	-1.137345e-09	-2.270575e+01	-7.772193e+01
1.110000e-06	-3.234058e-06	-1.128008e-09	-2.244184e+01	-7.732897e+01
1.120000e-06	-3.195800e-06	-1.120980e-09	-2.217636e+01	-7.693286e+01
1.130000e-06	-3.157371e-06	-1.113549e-09	-2.190969e+01	-7.653312e+01
1.140000e-06	-3.118725e-06	-1.105134e-09	-2.164152e+01	-7.612930e+01
1.150000e-06	-3.079806e-06	-1.098535e-09	-2.137145e+01	-7.572095e+01
1.160000e-06	-3.040642e-06	-1.094123e-09	-2.109969e+01	-7.530765e+01
1.170000e-06	-3.001341e-06	-1.084686e-09	-2.082697e+01	-7.488903e+01
1.180000e-06	-2.961906e-06	-1.077034e-09	-2.055332e+01	-7.446475e+01
1.190000e-06	-2.922290e-06	-1.074339e-09	-2.027841e+01	-7.403454e+01
1.200000e-06	-2.882523e-06	-1.068413e-09	-2.000247e+01	-7.359818e+01
1.210000e-06	-2.842671e-06	-1.057774e-09	-1.972592e+01	-7.315553e+01
1.220000e-06	-2.802725e-06	-1.052081e-09	-1.944872e+01	-7.270647e+01
1.230000e-06	-2.762633e-06	-1.047980e-09	-1.917052e+01	-7.225099e+01
1.240000e-06	-2.722341e-06	-1.040602e-09	-1.889092e+01	-7.178911e+01
1.250000e-06	-2.681812e-06	-1.033665e-09	-1.860969e+01	-7.132093e+01
1.260000e-06	-2.640993e-06	-1.029140e-09	-1.832643e+01	-7.084656e+01
1.270000e-06	-2.599928e-06	-1.021845e-09	-1.804148e+01	-7.036620e+01
1.280000e-06	-2.558551e-06	-1.011431e-09	-1.775435e+01	-6.988005e+01
1.290000e-06	-2.516968e-06	-1.002239e-09	-1.746580e+01	-6.938835e+01
1.300000e-06	-2.475178e-06	-9.933163e-10	-1.717581e+01	-6.889134e+01
1.310000e-06	-2.432932e-06	-9.830906e-10	-1.688265e+01	-6.838928e+01
1.320000e-06	-2.390374e-06	-9.764024e-10	-1.658733e+01	-6.788241e+01
1.330000e-06	-2.347551e-06	-9.697646e-10	-1.629017e+01	-6.737095e+01
1.340000e-06	-2.304481e-06	-9.622006e-10	-1.599130e+01	-6.685509e+01
1.350000e-06	-2.261196e-06	-9.575592e-10	-1.569094e+01	-6.633499e+01
1.360000e-06	-2.217764e-06	-9.507489e-10	-1.538955e+01	-6.581074e+01
1.370000e-06	-2.174250e-06	-9.383760e-10	-1.508760e+01	-6.528239e+01
1.380000e-06	-2.130635e-06	-9.263906e-10	-1.478495e+01	-6.474992e+01
1.390000e-06	-2.086978e-06	-9.175738e-10	-1.448200e+01	-6.421323e+01
1.400000e-06	-2.043245e-06	-9.088868e-10	-1.417852e+01	-6.367215e+01
1.410000e-06	-1.999442e-06	-8.994170e-10	-1.387457e+01	-6.312642e+01
1.420000e-06	-1.955571e-06	-8.907186e-10	-1.357014e+01	-6.257573e+01
1.430000e-06	-1.911573e-06	-8.804301e-10	-1.326482e+01	-6.201966e+01
1.440000e-06	-1.867484e-06	-8.679886e-10	-1.295889e+01	-6.145773e+01
1.450000e-06	-1.823282e-06	-8.571520e-10	-1.265216e+01	-6.088937e+01
1.460000e-06	-1.778842e-06	-8.479275e-10	-1.234378e+01	-6.031396e+01
1.470000e-06	-1.734271e-06	-8.368055e-10	-1.203449e+01	-5.973080e+01
1.480000e-06	-1.689609e-06	-8.246127e-10	-1.172457e+01	-5.913913e+01
1.490000e-06	-1.644781e-06	-8.138186e-10	-1.141350e+01	-5.853816e+01
1.500000e-06	-1.599800e-06	-8.035219e-10	-1.110136e+01	-5.792703e+01
1.510000e-06	-1.554669e-06	-7.947281e-10	-1.078819e+01	-5.730487e+01
1.520000e-06	-1.509449e-06	-7.873527e-10	-1.047440e+01	-5.667076e+01
1.530000e-06	-1.464157e-06	-7.811733e-10	-1.016011e+01	-5.602378e+01
1.540000e-06	-1.418757e-06	-7.714592e-10	-9.845068e+00	-5.536300e+01
1.550000e-06	-1.373311e-06	-7.590234e-10	-9.529705e+00	-5.468746e+01
1.560000e-06	-1.327747e-06	-7.445787e-10	-9.213528e+00	-5.399624e+01
1.570000e-06	-1.282063e-06	-7.285115e-10	-8.896515e+00	-5.328839e+01
1.580000e-06	-1.236355e-06	-7.152779e-10	-8.579340e+00	-5.256301e+01
1.590000e-06	-1.190584e-06	-7.058811e-10	-8.261726e+00	-5.181919e+01
1.600000e-06	-1.144717e-06	-6.989071e-10	-7.943447e+00	-5.105605e+01
1.610000e-06	-1.098726e-06	-6.885557e-10	-7.624300e+00	-5.027272e+01
1.620000e-06	-1.052637e-06	-6.741177e-10	-7.304479e+00	-4.946838e+01
1.630000e-06	-1.006428e-06	-6.612082e-10	-6.983829e+00	-4.864221e+01
1.640000e-06	-9.601481e-07	-6.483523e-10	-6.662679e+00	-4.779340e+01
1.650000e-06	-9.138474e-07	-6.355861e-10	-6.341389e+00	-4.692119e+01
1.660000e-06	-8.674132e-07	-6.235184e-10	-6.019171e+00	-4.602482e+01
1.670000e-06	-8.209889e-07	-6.099604e-10	-5.697023e+00	-4.510356e+01
1.680000e-06	-7.746526e-07	-5.946767e-10	-5.375485e+00	-4.415667e+01
1.690000e-06	-7.282249e-07	-5.770488e-10	-5.053313e+00	-4.318345e+01
1.700000e-06	-6.817459e-07	-5.584433e-10	-4.730785e+00	-4.218319e+01
1.710000e-06	-6.351692e-07	-5.413783e-10	-4.407579e+00	-4.115521e+01
1.720000e-06	-5.884474e-07	-5.266835e-10	-4.083366e+00	-4.009883e+01
1.730000e-06	-5.417455e-07	-5.120982e-10	-3.759291e+00	-3.901338e+01
1.740000e-06	-4.950475e-07	-4.959331e-10	-3.435244e+00	-3.789821e+01
1.750000e-06	-4.482826e-07	-4.759911e-10	-3.110732e+00	-3.675267e+01
1.760000e-06	-4.013977e-07	-4.541830e-10	-2.785387e+00	-3.557615e+01
1.770000e-06	-3.545301e-07	-4.330680e-10	-2.460163e+00	-3.436806e+01
1.780000e-06	-3.077781e-07	-4.145151e-10	-2.135740e+00	-3.312784e+01
1.790000e-06	-2.609634e-07	-3.982777e-10	-1.810882e+00	-3.185498e+01
1.800000e-06	-2.140890e-07	-3.824088e-10	-1.485611e+00	-3.054902e+01
1.810000e-06	-1.672150e-07	-3.647739e-10	-1.160342e+00	-2.920954e+01
1.820000e-06	-1.202315e-07	-3.440452e-10	-8.343128e-01	-2.783623e+01
1.830000e-06	-7.326085e-08	-3.224445e-10	-5.083732e-01	-2.642885e+01
1.840000e-06	-2.640170e-08	-3.024399e-10	-1.832072e-01	-2.498724e+01
1.850000e-06	2.051310e-08	-2.821536e-10	1.423449e-01	-2.351138e+01
1.860000e-06	6.749825e-08	-2.613188e-10	4.683853e-01	-2.200136e+01
1.870000e-06	1.145091e-07	-2.397398e-10	7.946040e-01	-2.045740e+01
1.880000e-06	1.614368e-07	-2.181520e-10	1.120246e+00	-1.887988e+01
1.890000e-06	2.082979e-07	-1.974617e-10	1.445425e+00	-1.726934e+01
1.900000e-06	2.552100e-07	-1.762982e-10	1.770959e+00	-1.562648e+01
1.910000e-06	3.020902e-07	-1.527352e-10	2.096270e+00	-1.395218e+01
1.920000e-06	3.490008e-07	-1.281503e-10	2.421794e+00	-1.224748e+01
1.930000e-06	3.959072e-07	-1.055386e-10	2.747287e+00	-1.051365e+01
1.940000e-06	4.427471e-07	-8.277989e-11	3.072320e+00	-8.752109e+00
1.950000e-06	4.896170e-07	-5.871454e-11	3.397561e+00	-6.964474e+00
1.960000e-06	5.364092e-07	-3.399673e-11	3.722262e+00	-5.152544e+00
1.970000e-06	5.830695e-07	-1.116657e-11	4.046048e+00	-3.318296e+00
1.980000e-06	6.296652e-07	1.236838e-11	4.369386e+00	-1.463873e+00
1.990000e-06	6.762351e-07	3.805328e-11	4.692545e+00	4.084255e-01
2.000000e-06	7.227296e-07	6.538619e-11	5.015180e+00	2.296158e+00
2.010000e-06	7.690728e-07	9.516022e-11	5.336765e+00	4.196756e+00
2.020000e-06	8.153220e-07	1.249359e-10	5.657699e+00	6.107542e+00
2.030000e-06	8.615475e-07	1.523502e-10	5.978468e+00	8.025751e+00
2.040000e-06	9.077351e-07	1.790953e-10	6.298974e+00	9.948550e+00
2.050000e-06	9.539276e-07	2.058117e-10	6.619514e+00	1.187306e+01
2.060000e-06	1.000125e-06	2.326556e-10	6.940088e+00	1.379640e+01
2.070000e-06	1.046208e-06	2.581529e-10	7.259870e+00	1.571566e+01
2.080000e-06	1.092121e-06	2.841689e-10	7.578471e+00	1.762798e+01
2.090000e-06	1.137976e-06	3.125876e-10	7.896668e+00	1.953055e+01
2.100000e-06	1.183778e-06	3.413320e-10	8.214494e+00	2.142063e+01
2.110000e-06	1.229513e-06	3.685897e-10	8.531862e+00	2.329559e+01
2.120000e-06	1.275179e-06	3.937992e-10	8.848751e+00	2.515291e+01
2.130000e-06	1.320709e-06	4.175206e-10	9.164688e+00	2.699020e+01
2.140000e-06	1.366178e-06	4.384319e-10	9.480210e+00	2.880524e+01
2.150000e-06	1.411597e-06	4.594196e-10	9.795382e+00	3.059598e+01
2.160000e-06	1.456932e-06	4.840760e-10	1.010997e+01	3.236053e+01
2.170000e-06	1.502201e-06	5.116924e-10	1.042410e+01	3.409722e+01
2.180000e-06	1.547362e-06	5.384383e-10	1.073748e+01	3.580457e+01
2.190000e-06	1.592436e-06	5.631001e-10	1.105026e+01	3.748129e+01
2.200000e-06	1.637359e-06	5.867943e-10	1.136200e+01	3.912630e+01
2.210000e-06	1.682029e-06	6.081811e-10	1.167197e+01	4.073874e+01
2.220000e-06	1.726540e-06	6.267554e-10	1.198084e+01	4.231791e+01
2.230000e-06	1.770986e-06	6.458548e-10	1.228926e+01	4.386334e+01
2.240000e-06	1.815278e-06	6.652703e-10	1.259661e+01	4.537471e+01
2.250000e-06	1.859402e-06	6.846316e-10	1.290280e+01	4.685189e+01
2.260000e-06	1.903420e-06	7.047643e-10	1.320825e+01	4.829489e+01
2.270000e-06	1.947327e-06	7.261206e-10	1.351293e+01	4.970388e+01
2.280000e-06	1.991196e-06	7.473423e-10	1.381735e+01	5.107914e+01
2.290000e-06	2.035059e-06	7.671926e-10	1.412173e+01	5.242108e+01
2.300000e-06	2.078861e-06	7.846569e-10	1.442568e+01	5.373017e+01
2.310000e-06	2.122615e-06	7.998570e-10	1.472929e+01	5.500699e+01
2.320000e-06	2.166341e-06	8.144778e-10	1.503271e+01	5.625217e+01
2.330000e-06	2.209987e-06	8.287255e-10	1.533559e+01	5.746636e+01
2.340000e-06	2.253421e-06	8.436840e-10	1.563698e+01	5.865027e+01
2.350000e-06	2.296659e-06	8.602444e-10	1.593702e+01	5.980461e+01
2.360000e-06	2.339773e-06	8.772026e-10	1.623620e+01	6.093008e+01
2.370000e-06	2.382688e-06	8.919253e-10	1.653400e+01	6.202740e+01
2.380000e-06	2.425275e-06	9.043461e-10	1.682952e+01	6.309725e+01
2.390000e-06	2.467559e-06	9.163599e-10	1.712293e+01	6.414027e+01
2.400000e-06	2.509529e-06	9.291939e-10	1.741417e+01	6.515710e+01
2.410000e-06	2.551101e-06	9.429562e-10	1.770265e+01	6.614832e+01
2.420000e-06	2.592381e-06	9.570759e-10	1.798910e+01	6.711448e+01
2.430000e-06	2.633343e-06	9.711334e-10	1.827335e+01	6.805610e+01
2.440000e-06	2.674025e-06	9.842598e-10	1.855565e+01	6.897363e+01
2.450000e-06	2.714491e-06	9.948682e-10	1.883645e+01	6.986753e+01
2.460000e-06	2.754703e-06	1.003561e-09	1.911549e+01	7.073819e+01
2.470000e-06	2.794749e-06	1.012733e-09	1.939338e+01	7.158601e+01
2.480000e-06	2.834681e-06	1.023032e-09	1.967048e+01	7.241133e+01
2.490000e-06	2.874439e-06	1.034417e-09	1.994637e+01	7.321452e+01
2.500000e-06	2.914059e-06	1.047837e-09	2.022130e+01	7.399590e+01
2.510000e-06	2.953586e-06	1.061103e-09	2.049558e+01	7.475583e+01
2.520000e-06	2.993018e-06	1.073185e-09	2.076921e+01	7.549464e+01
2.530000e-06	3.032273e-06	1.083938e-09	2.104161e+01	7.621270e+01
2.540000e-06	3.071241e-06	1.091662e-09	2.131202e+01	7.691039e+01
2.550000e-06	3.110026e-06	1.097210e-09	2.158116e+01	7.758809e+01
2.560000e-06	3.148652e-06	1.102226e-09	2.184919e+01	7.824625e+01
2.570000e-06	3.187018e-06	1.109739e-09	2.211542e+01	7.888532e+01
2.580000e-06	3.225113e-06	1.120134e-09	2.237977e+01	7.950578e+01
2.590000e-06	3.262974e-06	1.131151e-09	2.264250e+01	8.010815e+01
2.600000e-06	3.300636e-06	1.142586e-09	2.290384e+01	8.069298e+01
2.610000e-06	3.338091e-06	1.150250e-09	2.316375e+01	8.126085e+01
2.620000e-06	3.375342e-06	1.155192e-09	2.342224e+01	8.181235e+01
2.630000e-06	3.412431e-06	1.159031e-09	2.367961e+01	8.234811e+01
2.640000e-06	3.449237e-06	1.163563e-09	2.393501e+01	8.286877e+01
2.650000e-06	3.485679e-06	1.168477e-09	2.418789e+01	8.337498e+01
2.660000e-06	3.521883e-06	1.176302e-09	2.443912e+01	8.386740e+01
2.670000e-06	3.557876e-06	1.186791e-09	2.468889e+01	8.434667e+01
2.680000e-06	3.593719e-06	1.196956e-09	2.493761e+01	8.481344e+01
2.690000e-06	3.629464e-06	1.206276e-09	2.518565e+01	8.526834e+01
2.700000e-06	3.665100e-06	1.211679e-09	2.543294e+01	8.571197e+01
2.710000e-06	3.700605e-06	1.214632e-09	2.567931e+01	8.614492e+01
2.720000e-06	3.735897e-06	1.217223e-09	2.592421e+01	8.656772e+01
2.730000e-06	3.770876e-06	1.223532e-09	2.616694e+01	8.698089e+01
2.740000e-06	3.805482e-06	1.233173e-09	2.640708e+01	8.738489e+01
2.750000e-06	3.839563e-06	1.242354e-09	2.664357e+01	8.778013e+01
2.760000e-06	3.873083e-06	1.250069e-09	2.687618e+01	8.816699e+01
2.770000e-06	3.906171e-06	1.254339e-09	2.710578e+01	8.854579e+01
2.780000e-06	3.938844e-06	1.255650e-09	2.733251e+01	8.891680e+01
2.790000e-06	3.971173e-06	1.257868e-09	2.755685e+01	8.928026e+01
2.800000e-06	4.003245e-06	1.261750e-09	2.777940e+01	8.963635e+01
2.810000e-06	4.035102e-06	1.268565e-09	2.800046e+01	8.998521e+01
2.820000e-06	4.066844e-06	1.275749e-09	2.822073e+01	9.032695e+01
2.830000e-06	4.098479e-06	1.284559e-09	2.844025e+01	9.066165e+01
2.840000e-06	4.129900e-06	1.293422e-09	2.865829e+01	9.098935e+01
2.850000e-06	4.161035e-06	1.299755e-09	2.887434e+01	9.131008e+01
2.860000e-06	4.191789e-06	1.303921e-09	2.908775e+01	9.162387e+01
2.870000e-06	4.222210e-06	1.307186e-09	2.929884e+01	9.193071e+01
2.880000e-06	4.252346e-06	1.311453e-09	2.950796e+01	9.223062e+01
2.890000e-06	4.282181e-06	1.317929e-09	2.971500e+01	9.252361e+01
2.900000e-06	4.311729e-06	1.325178e-09	2.992004e+01	9.280969e+01
