# Temperatura_=_-7.82
# Concentracion g/m^3_=_1620.0
# C_Vs_to_Am_M_A/Vsm_=_65563218390.804596
# pendiente_HvsI_1/m_=_3716.3
# ordenada_HvsI_A/m_=_1297.0
# frecuencia_Hz_=_135107.23876940308

Tiempo_(s)	Campo_(V.s)	Magnetizacion_(V.s)	Campo_(kA/m)	Magnetizacion_(A/m)
0.000000e+00	-5.547954e-06	-1.053493e-09	-3.836872e+01	-7.109991e+01
1.000000e-08	-5.548195e-06	-1.051580e-09	-3.837039e+01	-7.108543e+01
2.000000e-08	-5.548214e-06	-1.051087e-09	-3.837052e+01	-7.107310e+01
3.000000e-08	-5.547935e-06	-1.049334e-09	-3.836859e+01	-7.106289e+01
4.000000e-08	-5.547242e-06	-1.046409e-09	-3.836380e+01	-7.105478e+01
5.000000e-08	-5.545980e-06	-1.044194e-09	-3.835506e+01	-7.104868e+01
6.000000e-08	-5.544137e-06	-1.044430e-09	-3.834232e+01	-7.104450e+01
7.000000e-08	-5.541688e-06	-1.038826e-09	-3.832538e+01	-7.104210e+01
8.000000e-08	-5.538687e-06	-1.013001e-09	-3.830463e+01	-7.104130e+01
9.000000e-08	-5.535269e-06	-1.011606e-09	-3.828100e+01	-7.104189e+01
1.000000e-07	-5.531422e-06	-1.077633e-09	-3.825439e+01	-7.104359e+01
1.100000e-07	-5.527101e-06	-1.106403e-09	-3.822450e+01	-7.104613e+01
1.200000e-07	-5.522442e-06	-1.042369e-09	-3.819229e+01	-7.104914e+01
1.300000e-07	-5.517662e-06	-9.593971e-10	-3.815922e+01	-7.105227e+01
1.400000e-07	-5.512630e-06	-1.001264e-09	-3.812443e+01	-7.105508e+01
1.500000e-07	-5.507166e-06	-1.073313e-09	-3.808663e+01	-7.105713e+01
1.600000e-07	-5.501303e-06	-1.028787e-09	-3.804609e+01	-7.105794e+01
1.700000e-07	-5.495042e-06	-9.641279e-10	-3.800279e+01	-7.105701e+01
1.800000e-07	-5.488311e-06	-9.995961e-10	-3.795624e+01	-7.105382e+01
1.900000e-07	-5.481154e-06	-1.106380e-09	-3.790674e+01	-7.104784e+01
2.000000e-07	-5.473677e-06	-1.105017e-09	-3.785503e+01	-7.103853e+01
2.100000e-07	-5.465947e-06	-1.029872e-09	-3.780157e+01	-7.102536e+01
2.200000e-07	-5.457994e-06	-1.000824e-09	-3.774657e+01	-7.100783e+01
2.300000e-07	-5.449699e-06	-1.038506e-09	-3.768921e+01	-7.098542e+01
2.400000e-07	-5.441144e-06	-1.048086e-09	-3.763004e+01	-7.095769e+01
2.500000e-07	-5.432162e-06	-1.030405e-09	-3.756792e+01	-7.092420e+01
2.600000e-07	-5.422324e-06	-1.034224e-09	-3.749989e+01	-7.088458e+01
2.700000e-07	-5.411799e-06	-1.047388e-09	-3.742710e+01	-7.083849e+01
2.800000e-07	-5.400812e-06	-1.021910e-09	-3.735111e+01	-7.078568e+01
2.900000e-07	-5.389333e-06	-9.892930e-10	-3.727172e+01	-7.072594e+01
3.000000e-07	-5.377431e-06	-1.001548e-09	-3.718941e+01	-7.065915e+01
3.100000e-07	-5.365173e-06	-1.025359e-09	-3.710463e+01	-7.058525e+01
3.200000e-07	-5.352471e-06	-1.020540e-09	-3.701679e+01	-7.050428e+01
3.300000e-07	-5.339280e-06	-1.009321e-09	-3.692557e+01	-7.041633e+01
3.400000e-07	-5.325751e-06	-1.027943e-09	-3.683200e+01	-7.032160e+01
3.500000e-07	-5.311963e-06	-1.034818e-09	-3.673665e+01	-7.022034e+01
3.600000e-07	-5.297701e-06	-1.009820e-09	-3.663801e+01	-7.011289e+01
3.700000e-07	-5.282890e-06	-9.961577e-10	-3.653558e+01	-6.999966e+01
3.800000e-07	-5.267623e-06	-1.016102e-09	-3.642999e+01	-6.988111e+01
3.900000e-07	-5.251834e-06	-1.012584e-09	-3.632080e+01	-6.975779e+01
4.000000e-07	-5.235481e-06	-9.960892e-10	-3.620771e+01	-6.963026e+01
4.100000e-07	-5.218757e-06	-1.017543e-09	-3.609205e+01	-6.949915e+01
4.200000e-07	-5.201754e-06	-1.039417e-09	-3.597446e+01	-6.936512e+01
4.300000e-07	-5.184381e-06	-1.002770e-09	-3.585431e+01	-6.922883e+01
4.400000e-07	-5.166722e-06	-9.891309e-10	-3.573218e+01	-6.909098e+01
4.500000e-07	-5.148809e-06	-1.024346e-09	-3.560830e+01	-6.895226e+01
4.600000e-07	-5.130509e-06	-1.020995e-09	-3.548174e+01	-6.881333e+01
4.700000e-07	-5.111703e-06	-9.821616e-10	-3.535168e+01	-6.867486e+01
4.800000e-07	-5.092467e-06	-9.954497e-10	-3.521865e+01	-6.853747e+01
4.900000e-07	-5.072924e-06	-1.016363e-09	-3.508349e+01	-6.840176e+01
5.000000e-07	-5.053184e-06	-9.963587e-10	-3.494697e+01	-6.826825e+01
5.100000e-07	-5.033276e-06	-9.948023e-10	-3.480929e+01	-6.813743e+01
5.200000e-07	-5.013069e-06	-1.014567e-09	-3.466954e+01	-6.800972e+01
5.300000e-07	-4.992475e-06	-9.949559e-10	-3.452712e+01	-6.788547e+01
5.400000e-07	-4.971480e-06	-9.808275e-10	-3.438192e+01	-6.776496e+01
5.500000e-07	-4.950128e-06	-1.005219e-09	-3.423425e+01	-6.764839e+01
5.600000e-07	-4.928516e-06	-1.003036e-09	-3.408479e+01	-6.753590e+01
5.700000e-07	-4.906597e-06	-9.734278e-10	-3.393320e+01	-6.742752e+01
5.800000e-07	-4.884321e-06	-9.790704e-10	-3.377914e+01	-6.732325e+01
5.900000e-07	-4.861673e-06	-9.964857e-10	-3.362252e+01	-6.722299e+01
6.000000e-07	-4.838636e-06	-9.836347e-10	-3.346319e+01	-6.712657e+01
6.100000e-07	-4.815292e-06	-9.757149e-10	-3.330175e+01	-6.703378e+01
6.200000e-07	-4.791673e-06	-9.860050e-10	-3.313841e+01	-6.694434e+01
6.300000e-07	-4.767858e-06	-9.830851e-10	-3.297371e+01	-6.685790e+01
6.400000e-07	-4.743857e-06	-9.710980e-10	-3.280772e+01	-6.677411e+01
6.500000e-07	-4.719606e-06	-9.743954e-10	-3.264000e+01	-6.669256e+01
6.600000e-07	-4.694927e-06	-9.759941e-10	-3.246933e+01	-6.661281e+01
6.700000e-07	-4.669611e-06	-9.694754e-10	-3.229425e+01	-6.653442e+01
6.800000e-07	-4.643761e-06	-9.708041e-10	-3.211548e+01	-6.645694e+01
6.900000e-07	-4.617356e-06	-9.802831e-10	-3.193286e+01	-6.637989e+01
7.000000e-07	-4.590301e-06	-9.784463e-10	-3.174575e+01	-6.630284e+01
7.100000e-07	-4.562889e-06	-9.698011e-10	-3.155617e+01	-6.622534e+01
7.200000e-07	-4.535320e-06	-9.655948e-10	-3.136551e+01	-6.614697e+01
7.300000e-07	-4.507547e-06	-9.651857e-10	-3.117344e+01	-6.606735e+01
7.400000e-07	-4.479587e-06	-9.598654e-10	-3.098007e+01	-6.598610e+01
7.500000e-07	-4.451421e-06	-9.582906e-10	-3.078528e+01	-6.590291e+01
7.600000e-07	-4.422983e-06	-9.614333e-10	-3.058861e+01	-6.581747e+01
7.700000e-07	-4.394191e-06	-9.610824e-10	-3.038949e+01	-6.572952e+01
7.800000e-07	-4.365107e-06	-9.546121e-10	-3.018835e+01	-6.563886e+01
7.900000e-07	-4.335775e-06	-9.525599e-10	-2.998549e+01	-6.554530e+01
8.000000e-07	-4.306130e-06	-9.534990e-10	-2.978047e+01	-6.544868e+01
8.100000e-07	-4.276205e-06	-9.493809e-10	-2.957351e+01	-6.534891e+01
8.200000e-07	-4.245978e-06	-9.431707e-10	-2.936447e+01	-6.524591e+01
8.300000e-07	-4.215484e-06	-9.440054e-10	-2.915358e+01	-6.513961e+01
8.400000e-07	-4.184728e-06	-9.486723e-10	-2.894088e+01	-6.502999e+01
8.500000e-07	-4.153663e-06	-9.503287e-10	-2.872604e+01	-6.491704e+01
8.600000e-07	-4.122322e-06	-9.486370e-10	-2.850929e+01	-6.480078e+01
8.700000e-07	-4.090778e-06	-9.453982e-10	-2.829113e+01	-6.468121e+01
8.800000e-07	-4.059048e-06	-9.411411e-10	-2.807170e+01	-6.455837e+01
8.900000e-07	-4.027153e-06	-9.378961e-10	-2.785111e+01	-6.443227e+01
9.000000e-07	-3.995102e-06	-9.380154e-10	-2.762945e+01	-6.430296e+01
9.100000e-07	-3.962795e-06	-9.378184e-10	-2.740603e+01	-6.417045e+01
9.200000e-07	-3.930093e-06	-9.338173e-10	-2.717987e+01	-6.403476e+01
9.300000e-07	-3.896887e-06	-9.314870e-10	-2.695022e+01	-6.389590e+01
9.400000e-07	-3.863275e-06	-9.334867e-10	-2.671776e+01	-6.375389e+01
9.500000e-07	-3.829226e-06	-9.313057e-10	-2.648228e+01	-6.360870e+01
9.600000e-07	-3.794622e-06	-9.243674e-10	-2.624297e+01	-6.346034e+01
9.700000e-07	-3.759585e-06	-9.172039e-10	-2.600066e+01	-6.330877e+01
9.800000e-07	-3.724231e-06	-9.133221e-10	-2.575616e+01	-6.315396e+01
9.900000e-07	-3.688633e-06	-9.101705e-10	-2.550997e+01	-6.299590e+01
1.000000e-06	-3.652898e-06	-9.089285e-10	-2.526283e+01	-6.283453e+01
1.010000e-06	-3.617108e-06	-9.088146e-10	-2.501531e+01	-6.266983e+01
1.020000e-06	-3.581220e-06	-9.088195e-10	-2.476712e+01	-6.250177e+01
1.030000e-06	-3.545156e-06	-9.084705e-10	-2.451771e+01	-6.233034e+01
1.040000e-06	-3.508941e-06	-9.088556e-10	-2.426725e+01	-6.215551e+01
1.050000e-06	-3.472431e-06	-9.072876e-10	-2.401475e+01	-6.197731e+01
1.060000e-06	-3.435507e-06	-9.020984e-10	-2.375939e+01	-6.179575e+01
1.070000e-06	-3.398307e-06	-8.956598e-10	-2.350212e+01	-6.161088e+01
1.080000e-06	-3.360893e-06	-8.927992e-10	-2.324337e+01	-6.142275e+01
1.090000e-06	-3.323305e-06	-8.911742e-10	-2.298342e+01	-6.123146e+01
1.100000e-06	-3.285491e-06	-8.893687e-10	-2.272191e+01	-6.103711e+01
1.110000e-06	-3.247428e-06	-8.873527e-10	-2.245867e+01	-6.083984e+01
1.120000e-06	-3.209128e-06	-8.841936e-10	-2.219379e+01	-6.063980e+01
1.130000e-06	-3.170571e-06	-8.810356e-10	-2.192713e+01	-6.043716e+01
1.140000e-06	-3.131843e-06	-8.798226e-10	-2.165930e+01	-6.023211e+01
1.150000e-06	-3.092903e-06	-8.779860e-10	-2.139000e+01	-6.002485e+01
1.160000e-06	-3.053701e-06	-8.727554e-10	-2.111888e+01	-5.981561e+01
1.170000e-06	-3.014289e-06	-8.653318e-10	-2.084632e+01	-5.960458e+01
1.180000e-06	-2.974713e-06	-8.588847e-10	-2.057261e+01	-5.939199e+01
1.190000e-06	-2.935045e-06	-8.552926e-10	-2.029828e+01	-5.917805e+01
1.200000e-06	-2.895296e-06	-8.530821e-10	-2.002338e+01	-5.896295e+01
1.210000e-06	-2.855403e-06	-8.515755e-10	-1.974749e+01	-5.874687e+01
1.220000e-06	-2.815361e-06	-8.504267e-10	-1.947057e+01	-5.852995e+01
1.230000e-06	-2.775238e-06	-8.480800e-10	-1.919308e+01	-5.831231e+01
1.240000e-06	-2.734923e-06	-8.441429e-10	-1.891427e+01	-5.809402e+01
1.250000e-06	-2.694241e-06	-8.412342e-10	-1.863292e+01	-5.787513e+01
1.260000e-06	-2.653285e-06	-8.396036e-10	-1.834968e+01	-5.765562e+01
1.270000e-06	-2.612080e-06	-8.374842e-10	-1.806471e+01	-5.743543e+01
1.280000e-06	-2.570579e-06	-8.335562e-10	-1.777770e+01	-5.721443e+01
1.290000e-06	-2.528735e-06	-8.289169e-10	-1.748831e+01	-5.699246e+01
1.300000e-06	-2.486579e-06	-8.236821e-10	-1.719677e+01	-5.676927e+01
1.310000e-06	-2.444273e-06	-8.191145e-10	-1.690418e+01	-5.654459e+01
1.320000e-06	-2.401698e-06	-8.156356e-10	-1.660974e+01	-5.631805e+01
1.330000e-06	-2.358729e-06	-8.124342e-10	-1.631258e+01	-5.608926e+01
1.340000e-06	-2.315535e-06	-8.083049e-10	-1.601385e+01	-5.585778e+01
1.350000e-06	-2.272185e-06	-8.041632e-10	-1.571405e+01	-5.562310e+01
1.360000e-06	-2.228623e-06	-7.999826e-10	-1.541278e+01	-5.538468e+01
1.370000e-06	-2.184937e-06	-7.950446e-10	-1.511066e+01	-5.514197e+01
1.380000e-06	-2.141186e-06	-7.885897e-10	-1.480808e+01	-5.489436e+01
1.390000e-06	-2.097329e-06	-7.840460e-10	-1.450478e+01	-5.464123e+01
1.400000e-06	-2.053414e-06	-7.828891e-10	-1.420107e+01	-5.438196e+01
1.410000e-06	-2.009492e-06	-7.801529e-10	-1.389731e+01	-5.411591e+01
1.420000e-06	-1.965525e-06	-7.752684e-10	-1.359324e+01	-5.384246e+01
1.430000e-06	-1.921503e-06	-7.686602e-10	-1.328879e+01	-5.356098e+01
1.440000e-06	-1.877337e-06	-7.627177e-10	-1.298335e+01	-5.327087e+01
1.450000e-06	-1.833009e-06	-7.593879e-10	-1.267678e+01	-5.297155e+01
1.460000e-06	-1.788573e-06	-7.554252e-10	-1.236947e+01	-5.266248e+01
1.470000e-06	-1.744045e-06	-7.509958e-10	-1.206152e+01	-5.234314e+01
1.480000e-06	-1.699321e-06	-7.445644e-10	-1.175222e+01	-5.201304e+01
1.490000e-06	-1.654358e-06	-7.354485e-10	-1.144126e+01	-5.167175e+01
1.500000e-06	-1.609302e-06	-7.241783e-10	-1.112967e+01	-5.131886e+01
1.510000e-06	-1.564053e-06	-7.151935e-10	-1.081673e+01	-5.095401e+01
1.520000e-06	-1.518621e-06	-7.108635e-10	-1.050253e+01	-5.057686e+01
1.530000e-06	-1.473155e-06	-7.092187e-10	-1.018809e+01	-5.018711e+01
1.540000e-06	-1.427660e-06	-7.058349e-10	-9.873460e+00	-4.978450e+01
1.550000e-06	-1.382139e-06	-6.998516e-10	-9.558644e+00	-4.936878e+01
1.560000e-06	-1.336487e-06	-6.914024e-10	-9.242923e+00	-4.893970e+01
1.570000e-06	-1.290663e-06	-6.780882e-10	-8.926006e+00	-4.849704e+01
1.580000e-06	-1.244775e-06	-6.633180e-10	-8.608655e+00	-4.804057e+01
1.590000e-06	-1.198832e-06	-6.518704e-10	-8.290922e+00	-4.757003e+01
1.600000e-06	-1.152800e-06	-6.470531e-10	-7.972572e+00	-4.708517e+01
1.610000e-06	-1.106707e-06	-6.457917e-10	-7.653798e+00	-4.658570e+01
1.620000e-06	-1.060491e-06	-6.433887e-10	-7.334176e+00	-4.607127e+01
1.630000e-06	-1.014125e-06	-6.398732e-10	-7.013517e+00	-4.554151e+01
1.640000e-06	-9.676796e-07	-6.325238e-10	-6.692310e+00	-4.499598e+01
1.650000e-06	-9.211762e-07	-6.192928e-10	-6.370700e+00	-4.443418e+01
1.660000e-06	-8.745775e-07	-6.024140e-10	-6.048431e+00	-4.385556e+01
1.670000e-06	-8.279720e-07	-5.855878e-10	-5.726115e+00	-4.325947e+01
1.680000e-06	-7.813792e-07	-5.729059e-10	-5.403887e+00	-4.264521e+01
1.690000e-06	-7.346752e-07	-5.630853e-10	-5.080890e+00	-4.201200e+01
1.700000e-06	-6.879013e-07	-5.558282e-10	-4.757410e+00	-4.135898e+01
1.710000e-06	-6.411325e-07	-5.498452e-10	-4.433965e+00	-4.068524e+01
1.720000e-06	-5.943298e-07	-5.434886e-10	-4.110285e+00	-3.998980e+01
1.730000e-06	-5.475450e-07	-5.337049e-10	-3.786730e+00	-3.927161e+01
1.740000e-06	-5.007706e-07	-5.189510e-10	-3.463245e+00	-3.852961e+01
1.750000e-06	-4.538695e-07	-5.003444e-10	-3.138885e+00	-3.776266e+01
1.760000e-06	-4.068557e-07	-4.814143e-10	-2.813746e+00	-3.696964e+01
1.770000e-06	-3.598914e-07	-4.662754e-10	-2.488949e+00	-3.614941e+01
1.780000e-06	-3.129372e-07	-4.558053e-10	-2.164222e+00	-3.530083e+01
1.790000e-06	-2.658566e-07	-4.484089e-10	-1.838620e+00	-3.442280e+01
1.800000e-06	-2.187871e-07	-4.415598e-10	-1.513095e+00	-3.351425e+01
1.810000e-06	-1.717581e-07	-4.314547e-10	-1.187850e+00	-3.257420e+01
1.820000e-06	-1.246744e-07	-4.173224e-10	-8.622271e-01	-3.160171e+01
1.830000e-06	-7.754575e-08	-4.008578e-10	-5.362934e-01	-3.059597e+01
1.840000e-06	-3.040166e-08	-3.842242e-10	-2.102528e-01	-2.955629e+01
1.850000e-06	1.671979e-08	-3.691201e-10	1.156313e-01	-2.848208e+01
1.860000e-06	6.377604e-08	-3.550854e-10	4.410644e-01	-2.737293e+01
1.870000e-06	1.108299e-07	-3.412560e-10	7.664813e-01	-2.622859e+01
1.880000e-06	1.579044e-07	-3.266131e-10	1.092040e+00	-2.504895e+01
1.890000e-06	2.049376e-07	-3.103064e-10	1.417314e+00	-2.383413e+01
1.900000e-06	2.519348e-07	-2.926775e-10	1.742339e+00	-2.258442e+01
1.910000e-06	2.988759e-07	-2.744948e-10	2.066976e+00	-2.130030e+01
1.920000e-06	3.457680e-07	-2.560379e-10	2.391273e+00	-1.998248e+01
1.930000e-06	3.926681e-07	-2.384941e-10	2.715627e+00	-1.863185e+01
1.940000e-06	4.396057e-07	-2.204650e-10	3.040240e+00	-1.724950e+01
1.950000e-06	4.864873e-07	-2.005501e-10	3.364465e+00	-1.583673e+01
1.960000e-06	5.332791e-07	-1.810070e-10	3.688069e+00	-1.439502e+01
1.970000e-06	5.800388e-07	-1.631596e-10	4.011451e+00	-1.292602e+01
1.980000e-06	6.267887e-07	-1.445788e-10	4.334766e+00	-1.143157e+01
1.990000e-06	6.734702e-07	-1.241046e-10	4.657607e+00	-9.913644e+00
2.000000e-06	7.200377e-07	-1.006136e-10	4.979660e+00	-8.374364e+00
2.010000e-06	7.665982e-07	-7.558415e-11	5.301665e+00	-6.815968e+00
2.020000e-06	8.131522e-07	-5.085818e-11	5.623624e+00	-5.240796e+00
2.030000e-06	8.595809e-07	-2.883306e-11	5.944718e+00	-3.651272e+00
2.040000e-06	9.059284e-07	-9.865540e-12	6.265249e+00	-2.049880e+00
2.050000e-06	9.522796e-07	7.664479e-12	6.585806e+00	-4.391452e-01
2.060000e-06	9.985791e-07	2.788812e-11	6.906005e+00	1.178386e+00
2.070000e-06	1.044757e-06	4.998728e-11	7.225367e+00	2.800167e+00
2.080000e-06	1.090816e-06	7.317137e-11	7.543903e+00	4.423673e+00
2.090000e-06	1.136781e-06	9.999600e-11	7.861784e+00	6.046418e+00
2.100000e-06	1.182762e-06	1.258220e-10	8.179786e+00	7.665971e+00
2.110000e-06	1.228700e-06	1.478247e-10	8.497482e+00	9.279977e+00
2.120000e-06	1.274473e-06	1.676471e-10	8.814039e+00	1.088617e+01
2.130000e-06	1.320178e-06	1.879138e-10	9.130131e+00	1.248238e+01
2.140000e-06	1.365776e-06	2.074117e-10	9.445477e+00	1.406655e+01
2.150000e-06	1.411252e-06	2.271400e-10	9.759979e+00	1.563677e+01
2.160000e-06	1.456727e-06	2.509858e-10	1.007448e+01	1.719121e+01
2.170000e-06	1.502156e-06	2.757755e-10	1.038866e+01	1.872822e+01
2.180000e-06	1.547427e-06	2.991797e-10	1.070174e+01	2.024626e+01
2.190000e-06	1.592506e-06	3.201255e-10	1.101351e+01	2.174396e+01
2.200000e-06	1.637444e-06	3.391811e-10	1.132428e+01	2.322005e+01
2.210000e-06	1.682336e-06	3.568939e-10	1.163475e+01	2.467342e+01
2.220000e-06	1.727127e-06	3.722000e-10	1.194452e+01	2.610309e+01
2.230000e-06	1.771689e-06	3.873443e-10	1.225271e+01	2.750820e+01
2.240000e-06	1.816041e-06	4.047124e-10	1.255943e+01	2.888803e+01
2.250000e-06	1.860269e-06	4.238382e-10	1.286531e+01	3.024195e+01
2.260000e-06	1.904432e-06	4.433730e-10	1.317073e+01	3.156946e+01
2.270000e-06	1.948559e-06	4.644714e-10	1.347591e+01	3.287013e+01
2.280000e-06	1.992634e-06	4.833918e-10	1.378072e+01	3.414364e+01
2.290000e-06	2.036622e-06	5.013106e-10	1.408494e+01	3.538975e+01
2.300000e-06	2.080510e-06	5.184890e-10	1.438846e+01	3.660827e+01
2.310000e-06	2.124322e-06	5.312235e-10	1.469145e+01	3.779911e+01
2.320000e-06	2.168064e-06	5.428053e-10	1.499397e+01	3.896220e+01
2.330000e-06	2.211724e-06	5.566422e-10	1.529591e+01	4.009754e+01
2.340000e-06	2.255315e-06	5.707623e-10	1.559738e+01	4.120516e+01
2.350000e-06	2.298796e-06	5.852437e-10	1.589809e+01	4.228511e+01
2.360000e-06	2.342106e-06	5.991618e-10	1.619761e+01	4.333751e+01
2.370000e-06	2.385255e-06	6.137012e-10	1.649603e+01	4.436248e+01
2.380000e-06	2.428202e-06	6.259562e-10	1.679304e+01	4.536015e+01
2.390000e-06	2.470727e-06	6.370817e-10	1.708713e+01	4.633070e+01
2.400000e-06	2.512819e-06	6.490080e-10	1.737824e+01	4.727430e+01
2.410000e-06	2.554628e-06	6.621500e-10	1.766738e+01	4.819116e+01
2.420000e-06	2.596158e-06	6.771205e-10	1.795459e+01	4.908150e+01
2.430000e-06	2.637365e-06	6.906360e-10	1.823957e+01	4.994555e+01
2.440000e-06	2.678211e-06	7.019971e-10	1.852206e+01	5.078357e+01
2.450000e-06	2.718830e-06	7.102664e-10	1.880297e+01	5.159582e+01
2.460000e-06	2.759288e-06	7.176663e-10	1.908277e+01	5.238260e+01
2.470000e-06	2.799503e-06	7.259032e-10	1.936089e+01	5.314422e+01
2.480000e-06	2.839502e-06	7.359933e-10	1.963752e+01	5.388102e+01
2.490000e-06	2.879333e-06	7.486193e-10	1.991298e+01	5.459336e+01
2.500000e-06	2.919047e-06	7.617941e-10	2.018764e+01	5.528164e+01
2.510000e-06	2.958730e-06	7.726131e-10	2.046208e+01	5.594625e+01
2.520000e-06	2.998357e-06	7.783958e-10	2.073614e+01	5.658763e+01
2.530000e-06	3.037791e-06	7.802726e-10	2.100886e+01	5.720626e+01
2.540000e-06	3.077041e-06	7.848580e-10	2.128030e+01	5.780262e+01
2.550000e-06	3.116052e-06	7.925442e-10	2.155009e+01	5.837721e+01
2.560000e-06	3.154687e-06	8.026052e-10	2.181729e+01	5.893058e+01
2.570000e-06	3.193051e-06	8.132270e-10	2.208261e+01	5.946328e+01
2.580000e-06	3.231242e-06	8.234379e-10	2.234673e+01	5.997588e+01
2.590000e-06	3.269236e-06	8.319308e-10	2.260949e+01	6.046896e+01
2.600000e-06	3.307043e-06	8.381526e-10	2.287095e+01	6.094312e+01
2.610000e-06	3.344689e-06	8.427658e-10	2.313131e+01	6.139896e+01
2.620000e-06	3.382154e-06	8.452907e-10	2.339041e+01	6.183710e+01
2.630000e-06	3.419363e-06	8.460501e-10	2.364774e+01	6.225813e+01
2.640000e-06	3.456257e-06	8.477975e-10	2.390289e+01	6.266267e+01
2.650000e-06	3.492916e-06	8.519351e-10	2.415642e+01	6.305130e+01
2.660000e-06	3.529368e-06	8.604777e-10	2.440852e+01	6.342463e+01
2.670000e-06	3.565544e-06	8.711885e-10	2.465870e+01	6.378321e+01
2.680000e-06	3.601500e-06	8.815853e-10	2.490737e+01	6.412762e+01
2.690000e-06	3.637340e-06	8.890806e-10	2.515523e+01	6.445839e+01
2.700000e-06	3.673069e-06	8.919423e-10	2.540233e+01	6.477605e+01
2.710000e-06	3.708601e-06	8.913517e-10	2.564806e+01	6.508109e+01
2.720000e-06	3.743857e-06	8.906486e-10	2.589189e+01	6.537400e+01
2.730000e-06	3.778902e-06	8.943288e-10	2.613425e+01	6.565524e+01
2.740000e-06	3.813793e-06	9.004393e-10	2.637555e+01	6.592526e+01
2.750000e-06	3.848358e-06	9.089069e-10	2.661460e+01	6.618446e+01
2.760000e-06	3.882401e-06	9.189039e-10	2.685003e+01	6.643327e+01
2.770000e-06	3.915841e-06	9.285524e-10	2.708130e+01	6.667206e+01
2.780000e-06	3.948809e-06	9.340604e-10	2.730930e+01	6.690121e+01
2.790000e-06	3.981406e-06	9.356493e-10	2.753474e+01	6.712110e+01
2.800000e-06	4.013652e-06	9.356211e-10	2.775774e+01	6.733206e+01
2.810000e-06	4.045658e-06	9.339389e-10	2.797909e+01	6.753447e+01
2.820000e-06	4.077483e-06	9.335669e-10	2.819919e+01	6.772866e+01
2.830000e-06	4.109177e-06	9.376579e-10	2.841838e+01	6.791499e+01
2.840000e-06	4.140711e-06	9.453836e-10	2.863646e+01	6.809379e+01
2.850000e-06	4.171993e-06	9.528220e-10	2.885280e+01	6.826544e+01
2.860000e-06	4.202982e-06	9.595703e-10	2.906712e+01	6.843027e+01
2.870000e-06	4.233638e-06	9.651363e-10	2.927913e+01	6.858865e+01
2.880000e-06	4.263926e-06	9.675302e-10	2.948860e+01	6.874096e+01
2.890000e-06	4.293926e-06	9.681092e-10	2.969607e+01	6.888755e+01
2.900000e-06	4.323706e-06	9.671856e-10	2.990203e+01	6.902881e+01
