# Temperatura_=_13.3
# Concentracion g/m^3_=_1620.0
# C_Vs_to_Am_M_A/Vsm_=_65563218390.804596
# pendiente_HvsI_1/m_=_3716.3
# ordenada_HvsI_A/m_=_1297.0
# frecuencia_Hz_=_135101.64459186044

Tiempo_(s)	Campo_(V.s)	Magnetizacion_(V.s)	Campo_(kA/m)	Magnetizacion_(A/m)
0.000000e+00	-5.533675e-06	-1.448470e-09	-3.837291e+01	-9.760794e+01
1.000000e-08	-5.533918e-06	-1.446556e-09	-3.837460e+01	-9.757490e+01
2.000000e-08	-5.533966e-06	-1.442106e-09	-3.837493e+01	-9.754003e+01
3.000000e-08	-5.533753e-06	-1.437540e-09	-3.837345e+01	-9.750354e+01
4.000000e-08	-5.533098e-06	-1.433321e-09	-3.836891e+01	-9.746566e+01
5.000000e-08	-5.531852e-06	-1.428684e-09	-3.836027e+01	-9.742659e+01
6.000000e-08	-5.529971e-06	-1.422397e-09	-3.834723e+01	-9.738651e+01
7.000000e-08	-5.527522e-06	-1.412190e-09	-3.833024e+01	-9.734557e+01
8.000000e-08	-5.524584e-06	-1.407890e-09	-3.830987e+01	-9.730386e+01
9.000000e-08	-5.521163e-06	-1.441586e-09	-3.828615e+01	-9.726146e+01
1.000000e-07	-5.517270e-06	-1.478808e-09	-3.825915e+01	-9.721836e+01
1.100000e-07	-5.512892e-06	-1.453629e-09	-3.822880e+01	-9.717451e+01
1.200000e-07	-5.508285e-06	-1.390989e-09	-3.819685e+01	-9.712982e+01
1.300000e-07	-5.503604e-06	-1.371117e-09	-3.816439e+01	-9.708412e+01
1.400000e-07	-5.498581e-06	-1.416666e-09	-3.812956e+01	-9.703717e+01
1.500000e-07	-5.493058e-06	-1.437339e-09	-3.809126e+01	-9.698870e+01
1.600000e-07	-5.487124e-06	-1.390325e-09	-3.805011e+01	-9.693836e+01
1.700000e-07	-5.480950e-06	-1.399128e-09	-3.800730e+01	-9.688576e+01
1.800000e-07	-5.474395e-06	-1.429599e-09	-3.796184e+01	-9.683046e+01
1.900000e-07	-5.467348e-06	-1.481742e-09	-3.791298e+01	-9.677200e+01
2.000000e-07	-5.459957e-06	-1.439905e-09	-3.786172e+01	-9.670985e+01
2.100000e-07	-5.452270e-06	-1.418053e-09	-3.780842e+01	-9.664350e+01
2.200000e-07	-5.444287e-06	-1.424842e-09	-3.775306e+01	-9.657242e+01
2.300000e-07	-5.436097e-06	-1.465620e-09	-3.769627e+01	-9.649608e+01
2.400000e-07	-5.427714e-06	-1.456674e-09	-3.763814e+01	-9.641396e+01
2.500000e-07	-5.418755e-06	-1.439182e-09	-3.757601e+01	-9.632556e+01
2.600000e-07	-5.409005e-06	-1.445828e-09	-3.750840e+01	-9.623045e+01
2.700000e-07	-5.398570e-06	-1.448389e-09	-3.743604e+01	-9.612821e+01
2.800000e-07	-5.387550e-06	-1.422456e-09	-3.735962e+01	-9.601852e+01
2.900000e-07	-5.376107e-06	-1.405648e-09	-3.728027e+01	-9.590109e+01
3.000000e-07	-5.364335e-06	-1.433968e-09	-3.719863e+01	-9.577575e+01
3.100000e-07	-5.352201e-06	-1.433228e-09	-3.711449e+01	-9.564238e+01
3.200000e-07	-5.339669e-06	-1.429770e-09	-3.702759e+01	-9.550097e+01
3.300000e-07	-5.326689e-06	-1.424215e-09	-3.693758e+01	-9.535161e+01
3.400000e-07	-5.313323e-06	-1.453074e-09	-3.684490e+01	-9.519448e+01
3.500000e-07	-5.299649e-06	-1.426379e-09	-3.675007e+01	-9.502986e+01
3.600000e-07	-5.285505e-06	-1.417868e-09	-3.665199e+01	-9.485812e+01
3.700000e-07	-5.270948e-06	-1.417666e-09	-3.655105e+01	-9.467972e+01
3.800000e-07	-5.256051e-06	-1.429909e-09	-3.644775e+01	-9.449521e+01
3.900000e-07	-5.240507e-06	-1.402143e-09	-3.633996e+01	-9.430521e+01
4.000000e-07	-5.224297e-06	-1.411640e-09	-3.622755e+01	-9.411041e+01
4.100000e-07	-5.207716e-06	-1.422082e-09	-3.611257e+01	-9.391155e+01
4.200000e-07	-5.190821e-06	-1.413654e-09	-3.599542e+01	-9.370940e+01
4.300000e-07	-5.173616e-06	-1.391486e-09	-3.587610e+01	-9.350477e+01
4.400000e-07	-5.156193e-06	-1.411083e-09	-3.575529e+01	-9.329848e+01
4.500000e-07	-5.138446e-06	-1.409360e-09	-3.563222e+01	-9.309134e+01
4.600000e-07	-5.120151e-06	-1.390709e-09	-3.550536e+01	-9.288413e+01
4.700000e-07	-5.101347e-06	-1.383746e-09	-3.537496e+01	-9.267761e+01
4.800000e-07	-5.082216e-06	-1.391543e-09	-3.524230e+01	-9.247247e+01
4.900000e-07	-5.062791e-06	-1.379880e-09	-3.510760e+01	-9.226936e+01
5.000000e-07	-5.043089e-06	-1.385808e-09	-3.497098e+01	-9.206882e+01
5.100000e-07	-5.023203e-06	-1.396842e-09	-3.483308e+01	-9.187132e+01
5.200000e-07	-5.003126e-06	-1.380221e-09	-3.469385e+01	-9.167722e+01
5.300000e-07	-4.982695e-06	-1.366692e-09	-3.455218e+01	-9.148678e+01
5.400000e-07	-4.961912e-06	-1.381098e-09	-3.440806e+01	-9.130015e+01
5.500000e-07	-4.940818e-06	-1.376702e-09	-3.426179e+01	-9.111734e+01
5.600000e-07	-4.919341e-06	-1.350307e-09	-3.411285e+01	-9.093827e+01
5.700000e-07	-4.897448e-06	-1.351692e-09	-3.396104e+01	-9.076271e+01
5.800000e-07	-4.875256e-06	-1.353798e-09	-3.380715e+01	-9.059035e+01
5.900000e-07	-4.852722e-06	-1.345356e-09	-3.365089e+01	-9.042076e+01
6.000000e-07	-4.829773e-06	-1.346138e-09	-3.349175e+01	-9.025339e+01
6.100000e-07	-4.806554e-06	-1.356452e-09	-3.333074e+01	-9.008764e+01
6.200000e-07	-4.783118e-06	-1.341004e-09	-3.316822e+01	-8.992281e+01
6.300000e-07	-4.759407e-06	-1.334564e-09	-3.300380e+01	-8.975812e+01
6.400000e-07	-4.735442e-06	-1.336742e-09	-3.283762e+01	-8.959278e+01
6.500000e-07	-4.711249e-06	-1.334005e-09	-3.266985e+01	-8.942594e+01
6.600000e-07	-4.686606e-06	-1.319422e-09	-3.249897e+01	-8.925674e+01
6.700000e-07	-4.661412e-06	-1.326765e-09	-3.232426e+01	-8.908431e+01
6.800000e-07	-4.635732e-06	-1.325442e-09	-3.214618e+01	-8.890782e+01
6.900000e-07	-4.609538e-06	-1.318887e-09	-3.196454e+01	-8.872644e+01
7.000000e-07	-4.582823e-06	-1.315646e-09	-3.177929e+01	-8.853942e+01
7.100000e-07	-4.555684e-06	-1.320268e-09	-3.159110e+01	-8.834605e+01
7.200000e-07	-4.528248e-06	-1.301049e-09	-3.140084e+01	-8.814569e+01
7.300000e-07	-4.500576e-06	-1.288404e-09	-3.120895e+01	-8.793779e+01
7.400000e-07	-4.472725e-06	-1.286658e-09	-3.101582e+01	-8.772190e+01
7.500000e-07	-4.444717e-06	-1.283574e-09	-3.082160e+01	-8.749766e+01
7.600000e-07	-4.416475e-06	-1.273993e-09	-3.062576e+01	-8.726482e+01
7.700000e-07	-4.387930e-06	-1.279925e-09	-3.042782e+01	-8.702323e+01
7.800000e-07	-4.359019e-06	-1.278694e-09	-3.022734e+01	-8.677285e+01
7.900000e-07	-4.329707e-06	-1.268826e-09	-3.002408e+01	-8.651374e+01
8.000000e-07	-4.300072e-06	-1.266779e-09	-2.981857e+01	-8.624606e+01
8.100000e-07	-4.270251e-06	-1.263417e-09	-2.961178e+01	-8.597008e+01
8.200000e-07	-4.240198e-06	-1.248511e-09	-2.940338e+01	-8.568612e+01
8.300000e-07	-4.209824e-06	-1.241937e-09	-2.919276e+01	-8.539462e+01
8.400000e-07	-4.179104e-06	-1.246815e-09	-2.897973e+01	-8.509603e+01
8.500000e-07	-4.147978e-06	-1.243044e-09	-2.876388e+01	-8.479090e+01
8.600000e-07	-4.116513e-06	-1.239617e-09	-2.854569e+01	-8.447979e+01
8.700000e-07	-4.084977e-06	-1.242018e-09	-2.832701e+01	-8.416330e+01
8.800000e-07	-4.053398e-06	-1.239323e-09	-2.810803e+01	-8.384201e+01
8.900000e-07	-4.021604e-06	-1.228051e-09	-2.788756e+01	-8.351654e+01
9.000000e-07	-3.989617e-06	-1.223009e-09	-2.766575e+01	-8.318745e+01
9.100000e-07	-3.957431e-06	-1.212820e-09	-2.744255e+01	-8.285531e+01
9.200000e-07	-3.924850e-06	-1.202715e-09	-2.721662e+01	-8.252062e+01
9.300000e-07	-3.891768e-06	-1.200158e-09	-2.698722e+01	-8.218384e+01
9.400000e-07	-3.858302e-06	-1.205339e-09	-2.675514e+01	-8.184538e+01
9.500000e-07	-3.824407e-06	-1.201269e-09	-2.652010e+01	-8.150557e+01
9.600000e-07	-3.789947e-06	-1.198921e-09	-2.628115e+01	-8.116468e+01
9.700000e-07	-3.754999e-06	-1.192281e-09	-2.603880e+01	-8.082289e+01
9.800000e-07	-3.719746e-06	-1.179279e-09	-2.579434e+01	-8.048033e+01
9.900000e-07	-3.684271e-06	-1.165116e-09	-2.554834e+01	-8.013703e+01
1.000000e-06	-3.648597e-06	-1.161597e-09	-2.530096e+01	-7.979296e+01
1.010000e-06	-3.612807e-06	-1.157297e-09	-2.505278e+01	-7.944803e+01
1.020000e-06	-3.576937e-06	-1.155565e-09	-2.480404e+01	-7.910207e+01
1.030000e-06	-3.540898e-06	-1.158353e-09	-2.455413e+01	-7.875487e+01
1.040000e-06	-3.504566e-06	-1.161050e-09	-2.430219e+01	-7.840616e+01
1.050000e-06	-3.468029e-06	-1.153389e-09	-2.404883e+01	-7.805563e+01
1.060000e-06	-3.431195e-06	-1.142904e-09	-2.379340e+01	-7.770297e+01
1.070000e-06	-3.394013e-06	-1.131665e-09	-2.353557e+01	-7.734780e+01
1.080000e-06	-3.356670e-06	-1.122047e-09	-2.327661e+01	-7.698977e+01
1.090000e-06	-3.319142e-06	-1.118738e-09	-2.301638e+01	-7.662853e+01
1.100000e-06	-3.281416e-06	-1.122638e-09	-2.275477e+01	-7.626371e+01
1.110000e-06	-3.243439e-06	-1.123246e-09	-2.249142e+01	-7.589498e+01
1.120000e-06	-3.205211e-06	-1.119537e-09	-2.222633e+01	-7.552204e+01
1.130000e-06	-3.166726e-06	-1.117310e-09	-2.195946e+01	-7.514460e+01
1.140000e-06	-3.128052e-06	-1.109854e-09	-2.169128e+01	-7.476242e+01
1.150000e-06	-3.089218e-06	-1.097731e-09	-2.142198e+01	-7.437531e+01
1.160000e-06	-3.050178e-06	-1.087623e-09	-2.115126e+01	-7.398309e+01
1.170000e-06	-3.010966e-06	-1.079385e-09	-2.087935e+01	-7.358566e+01
1.180000e-06	-2.971519e-06	-1.069739e-09	-2.060581e+01	-7.318293e+01
1.190000e-06	-2.931886e-06	-1.065495e-09	-2.033097e+01	-7.277486e+01
1.200000e-06	-2.892132e-06	-1.062751e-09	-2.005531e+01	-7.236146e+01
1.210000e-06	-2.852246e-06	-1.057695e-09	-1.977871e+01	-7.194275e+01
1.220000e-06	-2.812261e-06	-1.047450e-09	-1.950144e+01	-7.151878e+01
1.230000e-06	-2.772139e-06	-1.038285e-09	-1.922322e+01	-7.108962e+01
1.240000e-06	-2.731809e-06	-1.028561e-09	-1.894356e+01	-7.065534e+01
1.250000e-06	-2.691303e-06	-1.020381e-09	-1.866267e+01	-7.021602e+01
1.260000e-06	-2.650629e-06	-1.015614e-09	-1.838062e+01	-6.977173e+01
1.270000e-06	-2.609638e-06	-1.012831e-09	-1.809637e+01	-6.932252e+01
1.280000e-06	-2.568357e-06	-1.006295e-09	-1.781010e+01	-6.886842e+01
1.290000e-06	-2.526891e-06	-1.000941e-09	-1.752257e+01	-6.840944e+01
1.300000e-06	-2.485222e-06	-9.942835e-10	-1.723362e+01	-6.794552e+01
1.310000e-06	-2.443222e-06	-9.833632e-10	-1.694236e+01	-6.747659e+01
1.320000e-06	-2.400794e-06	-9.702185e-10	-1.664815e+01	-6.700252e+01
1.330000e-06	-2.358117e-06	-9.588287e-10	-1.635221e+01	-6.652312e+01
1.340000e-06	-2.315139e-06	-9.484832e-10	-1.605418e+01	-6.603817e+01
1.350000e-06	-2.271850e-06	-9.396515e-10	-1.575399e+01	-6.554737e+01
1.360000e-06	-2.228462e-06	-9.316872e-10	-1.545313e+01	-6.505038e+01
1.370000e-06	-2.184926e-06	-9.232055e-10	-1.515123e+01	-6.454681e+01
1.380000e-06	-2.141260e-06	-9.139070e-10	-1.484843e+01	-6.403622e+01
1.390000e-06	-2.097530e-06	-9.054621e-10	-1.454519e+01	-6.351814e+01
1.400000e-06	-2.053701e-06	-8.962080e-10	-1.424126e+01	-6.299204e+01
1.410000e-06	-2.009809e-06	-8.866176e-10	-1.393689e+01	-6.245739e+01
1.420000e-06	-1.965856e-06	-8.776182e-10	-1.363210e+01	-6.191362e+01
1.430000e-06	-1.921818e-06	-8.683481e-10	-1.332673e+01	-6.136015e+01
1.440000e-06	-1.877608e-06	-8.586406e-10	-1.302015e+01	-6.079639e+01
1.450000e-06	-1.833266e-06	-8.490119e-10	-1.271266e+01	-6.022177e+01
1.460000e-06	-1.788873e-06	-8.392856e-10	-1.240482e+01	-5.963572e+01
1.470000e-06	-1.744371e-06	-8.280248e-10	-1.209623e+01	-5.903767e+01
1.480000e-06	-1.699800e-06	-8.158624e-10	-1.178715e+01	-5.842711e+01
1.490000e-06	-1.655132e-06	-8.047567e-10	-1.147741e+01	-5.780353e+01
1.500000e-06	-1.610280e-06	-7.942244e-10	-1.116638e+01	-5.716647e+01
1.510000e-06	-1.565237e-06	-7.820168e-10	-1.085404e+01	-5.651549e+01
1.520000e-06	-1.520038e-06	-7.711582e-10	-1.054061e+01	-5.585022e+01
1.530000e-06	-1.474758e-06	-7.604461e-10	-1.022661e+01	-5.517031e+01
1.540000e-06	-1.429353e-06	-7.499729e-10	-9.911755e+00	-5.447542e+01
1.550000e-06	-1.383861e-06	-7.384857e-10	-9.596296e+00	-5.376530e+01
1.560000e-06	-1.338311e-06	-7.269726e-10	-9.280429e+00	-5.303967e+01
1.570000e-06	-1.292668e-06	-7.144342e-10	-8.963925e+00	-5.229832e+01
1.580000e-06	-1.246959e-06	-7.014894e-10	-8.646955e+00	-5.154104e+01
1.590000e-06	-1.201155e-06	-6.894105e-10	-8.329336e+00	-5.076760e+01
1.600000e-06	-1.155234e-06	-6.802660e-10	-8.010895e+00	-4.997782e+01
1.610000e-06	-1.109220e-06	-6.698635e-10	-7.691816e+00	-4.917146e+01
1.620000e-06	-1.063192e-06	-6.589665e-10	-7.372637e+00	-4.834828e+01
1.630000e-06	-1.017134e-06	-6.494746e-10	-7.053249e+00	-4.750800e+01
1.640000e-06	-9.710237e-07	-6.400966e-10	-6.733501e+00	-4.665032e+01
1.650000e-06	-9.247427e-07	-6.286932e-10	-6.412569e+00	-4.577486e+01
1.660000e-06	-8.782972e-07	-6.143480e-10	-6.090495e+00	-4.488120e+01
1.670000e-06	-8.317751e-07	-5.966858e-10	-5.767891e+00	-4.396885e+01
1.680000e-06	-7.852287e-07	-5.785724e-10	-5.445118e+00	-4.303724e+01
1.690000e-06	-7.387930e-07	-5.633618e-10	-5.123113e+00	-4.208575e+01
1.700000e-06	-6.923431e-07	-5.506998e-10	-4.801009e+00	-4.111365e+01
1.710000e-06	-6.457379e-07	-5.398040e-10	-4.477828e+00	-4.012017e+01
1.720000e-06	-5.990159e-07	-5.288599e-10	-4.153837e+00	-3.910446e+01
1.730000e-06	-5.522660e-07	-5.169869e-10	-3.829653e+00	-3.806559e+01
1.740000e-06	-5.054723e-07	-5.028133e-10	-3.505165e+00	-3.700259e+01
1.750000e-06	-4.586031e-07	-4.843201e-10	-3.180154e+00	-3.591443e+01
1.760000e-06	-4.116850e-07	-4.609292e-10	-2.854803e+00	-3.480007e+01
1.770000e-06	-3.647745e-07	-4.381615e-10	-2.529506e+00	-3.365843e+01
1.780000e-06	-3.179803e-07	-4.199294e-10	-2.205014e+00	-3.248842e+01
1.790000e-06	-2.712086e-07	-4.067641e-10	-1.880679e+00	-3.128900e+01
1.800000e-06	-2.243235e-07	-3.958073e-10	-1.555557e+00	-3.005914e+01
1.810000e-06	-1.773936e-07	-3.828113e-10	-1.230125e+00	-2.879787e+01
1.820000e-06	-1.304446e-07	-3.648381e-10	-9.045596e-01	-2.750430e+01
1.830000e-06	-8.353935e-08	-3.448148e-10	-5.792982e-01	-2.617765e+01
1.840000e-06	-3.672920e-08	-3.228973e-10	-2.546963e-01	-2.481724e+01
1.850000e-06	1.011100e-08	-2.988017e-10	7.011405e-02	-2.342256e+01
1.860000e-06	5.697977e-08	-2.728025e-10	3.951226e-01	-2.199323e+01
1.870000e-06	1.038712e-07	-2.493234e-10	7.202884e-01	-2.052907e+01
1.880000e-06	1.508004e-07	-2.311255e-10	1.045715e+00	-1.903009e+01
1.890000e-06	1.977977e-07	-2.165746e-10	1.371616e+00	-1.749651e+01
1.900000e-06	2.448378e-07	-2.022054e-10	1.697812e+00	-1.592876e+01
1.910000e-06	2.919098e-07	-1.815519e-10	2.024230e+00	-1.432751e+01
1.920000e-06	3.389689e-07	-1.539884e-10	2.350558e+00	-1.269365e+01
1.930000e-06	3.858659e-07	-1.250077e-10	2.675762e+00	-1.102833e+01
1.940000e-06	4.326374e-07	-9.649563e-11	3.000096e+00	-9.332919e+00
1.950000e-06	4.793373e-07	-6.919909e-11	3.323934e+00	-7.609008e+00
1.960000e-06	5.260371e-07	-4.650629e-11	3.647771e+00	-5.858422e+00
1.970000e-06	5.727755e-07	-3.022624e-11	3.971875e+00	-4.083194e+00
1.980000e-06	6.195379e-07	-1.267080e-11	4.296146e+00	-2.285552e+00
1.990000e-06	6.661856e-07	9.144086e-12	4.619621e+00	-4.679035e-01
2.000000e-06	7.127240e-07	3.639474e-11	4.942339e+00	1.367187e+00
2.010000e-06	7.593066e-07	7.082721e-11	5.265363e+00	3.217015e+00
2.020000e-06	8.058292e-07	1.085927e-10	5.587971e+00	5.078768e+00
2.030000e-06	8.522480e-07	1.409665e-10	5.909859e+00	6.949543e+00
2.040000e-06	8.985484e-07	1.637001e-10	6.230926e+00	8.826378e+00
2.050000e-06	9.447549e-07	1.822577e-10	6.551342e+00	1.070628e+01
2.060000e-06	9.909367e-07	2.023539e-10	6.871587e+00	1.258625e+01
2.070000e-06	1.037040e-06	2.257102e-10	7.191290e+00	1.446331e+01
2.080000e-06	1.083030e-06	2.521223e-10	7.510200e+00	1.633453e+01
2.090000e-06	1.128941e-06	2.841916e-10	7.828567e+00	1.819707e+01
2.100000e-06	1.174778e-06	3.191428e-10	8.146426e+00	2.004816e+01
2.110000e-06	1.220500e-06	3.509652e-10	8.463478e+00	2.188516e+01
2.120000e-06	1.266113e-06	3.752834e-10	8.779781e+00	2.370560e+01
2.130000e-06	1.311636e-06	3.929213e-10	9.095454e+00	2.550712e+01
2.140000e-06	1.357162e-06	4.080831e-10	9.411153e+00	2.728756e+01
2.150000e-06	1.402674e-06	4.256838e-10	9.726752e+00	2.904494e+01
2.160000e-06	1.448045e-06	4.487441e-10	1.004138e+01	3.077747e+01
2.170000e-06	1.493280e-06	4.778383e-10	1.035506e+01	3.248355e+01
2.180000e-06	1.538359e-06	5.070947e-10	1.066765e+01	3.416178e+01
2.190000e-06	1.583303e-06	5.343334e-10	1.097931e+01	3.581098e+01
2.200000e-06	1.628159e-06	5.575396e-10	1.129036e+01	3.743013e+01
2.210000e-06	1.672871e-06	5.750956e-10	1.160041e+01	3.901843e+01
2.220000e-06	1.717444e-06	5.885051e-10	1.190950e+01	4.057525e+01
2.230000e-06	1.761912e-06	6.024362e-10	1.221786e+01	4.210013e+01
2.240000e-06	1.806263e-06	6.179699e-10	1.252541e+01	4.359278e+01
2.250000e-06	1.850508e-06	6.360792e-10	1.283223e+01	4.505303e+01
2.260000e-06	1.894658e-06	6.589321e-10	1.313839e+01	4.648087e+01
2.270000e-06	1.938710e-06	6.845790e-10	1.344386e+01	4.787640e+01
2.280000e-06	1.982621e-06	7.082201e-10	1.374836e+01	4.923980e+01
2.290000e-06	2.026446e-06	7.267496e-10	1.405226e+01	5.057136e+01
2.300000e-06	2.070257e-06	7.404738e-10	1.435607e+01	5.187143e+01
2.310000e-06	2.114021e-06	7.506529e-10	1.465954e+01	5.314040e+01
2.320000e-06	2.157696e-06	7.615438e-10	1.496241e+01	5.437871e+01
2.330000e-06	2.201282e-06	7.759964e-10	1.526465e+01	5.558684e+01
2.340000e-06	2.244788e-06	7.935124e-10	1.556634e+01	5.676527e+01
2.350000e-06	2.288155e-06	8.131788e-10	1.586706e+01	5.791449e+01
2.360000e-06	2.331273e-06	8.322061e-10	1.616606e+01	5.903500e+01
2.370000e-06	2.374091e-06	8.471626e-10	1.646298e+01	6.012727e+01
2.380000e-06	2.416696e-06	8.584118e-10	1.675843e+01	6.119177e+01
2.390000e-06	2.459066e-06	8.687949e-10	1.705223e+01	6.222895e+01
2.400000e-06	2.501091e-06	8.783265e-10	1.734365e+01	6.323925e+01
2.410000e-06	2.542751e-06	8.882895e-10	1.763255e+01	6.422309e+01
2.420000e-06	2.584126e-06	9.034986e-10	1.791945e+01	6.518087e+01
2.430000e-06	2.625202e-06	9.210632e-10	1.820429e+01	6.611297e+01
2.440000e-06	2.665949e-06	9.365986e-10	1.848685e+01	6.701977e+01
2.450000e-06	2.706495e-06	9.493912e-10	1.876802e+01	6.790165e+01
2.460000e-06	2.746881e-06	9.598519e-10	1.904807e+01	6.875899e+01
2.470000e-06	2.787105e-06	9.682650e-10	1.932700e+01	6.959216e+01
2.480000e-06	2.827140e-06	9.763819e-10	1.960462e+01	7.040155e+01
2.490000e-06	2.867018e-06	9.853069e-10	1.988115e+01	7.118757e+01
2.500000e-06	2.906807e-06	9.972854e-10	2.015706e+01	7.195065e+01
2.510000e-06	2.946439e-06	1.010761e-09	2.043189e+01	7.269124e+01
2.520000e-06	2.985839e-06	1.023073e-09	2.070511e+01	7.340983e+01
2.530000e-06	3.025112e-06	1.033470e-09	2.097744e+01	7.410693e+01
2.540000e-06	3.064222e-06	1.042094e-09	2.124865e+01	7.478308e+01
2.550000e-06	3.103111e-06	1.049748e-09	2.151832e+01	7.543887e+01
2.560000e-06	3.141792e-06	1.057614e-09	2.178656e+01	7.607492e+01
2.570000e-06	3.180224e-06	1.066794e-09	2.205306e+01	7.669186e+01
2.580000e-06	3.218439e-06	1.077325e-09	2.231806e+01	7.729037e+01
2.590000e-06	3.256419e-06	1.087543e-09	2.258143e+01	7.787116e+01
2.600000e-06	3.294161e-06	1.096986e-09	2.284315e+01	7.843494e+01
2.610000e-06	3.331661e-06	1.105211e-09	2.310319e+01	7.898244e+01
2.620000e-06	3.368962e-06	1.110805e-09	2.336185e+01	7.951440e+01
2.630000e-06	3.406090e-06	1.116302e-09	2.361931e+01	8.003157e+01
2.640000e-06	3.443012e-06	1.123646e-09	2.387534e+01	8.053467e+01
2.650000e-06	3.479656e-06	1.132039e-09	2.412945e+01	8.102444e+01
2.660000e-06	3.516015e-06	1.140438e-09	2.438158e+01	8.150157e+01
2.670000e-06	3.552142e-06	1.149349e-09	2.463210e+01	8.196673e+01
2.680000e-06	3.588076e-06	1.156558e-09	2.488129e+01	8.242056e+01
2.690000e-06	3.623915e-06	1.160931e-09	2.512981e+01	8.286366e+01
2.700000e-06	3.659634e-06	1.165943e-09	2.537750e+01	8.329658e+01
2.710000e-06	3.695187e-06	1.170802e-09	2.562404e+01	8.371981e+01
2.720000e-06	3.730542e-06	1.176423e-09	2.586920e+01	8.413382e+01
2.730000e-06	3.765626e-06	1.185423e-09	2.611249e+01	8.453900e+01
2.740000e-06	3.800326e-06	1.194738e-09	2.635312e+01	8.493567e+01
2.750000e-06	3.834592e-06	1.203130e-09	2.659073e+01	8.532413e+01
2.760000e-06	3.868420e-06	1.209270e-09	2.682531e+01	8.570461e+01
2.770000e-06	3.901720e-06	1.213522e-09	2.705623e+01	8.607727e+01
2.780000e-06	3.934533e-06	1.217910e-09	2.728377e+01	8.644225e+01
2.790000e-06	3.967000e-06	1.223169e-09	2.750890e+01	8.679963e+01
2.800000e-06	3.999185e-06	1.230508e-09	2.773209e+01	8.714946e+01
2.810000e-06	4.031178e-06	1.238555e-09	2.795395e+01	8.749175e+01
2.820000e-06	4.063020e-06	1.244227e-09	2.817475e+01	8.782650e+01
2.830000e-06	4.094682e-06	1.248660e-09	2.839431e+01	8.815367e+01
2.840000e-06	4.126144e-06	1.252185e-09	2.861248e+01	8.847322e+01
2.850000e-06	4.157318e-06	1.255033e-09	2.882866e+01	8.878511e+01
2.860000e-06	4.188224e-06	1.258674e-09	2.904297e+01	8.908929e+01
2.870000e-06	4.218835e-06	1.265903e-09	2.925524e+01	8.938573e+01
2.880000e-06	4.249101e-06	1.275775e-09	2.946512e+01	8.967442e+01
2.890000e-06	4.279097e-06	1.285504e-09	2.967312e+01	8.995534e+01
2.900000e-06	4.308830e-06	1.292876e-09	2.987931e+01	9.022853e+01
