# Temperatura_=_-10.3
# Concentracion g/m^3_=_1620.0
# C_Vs_to_Am_M_A/Vsm_=_65563218390.804596
# pendiente_HvsI_1/m_=_3716.3
# ordenada_HvsI_A/m_=_1297.0
# frecuencia_Hz_=_135109.90454985126

Tiempo_(s)	Campo_(V.s)	Magnetizacion_(V.s)	Campo_(kA/m)	Magnetizacion_(A/m)
0.000000e+00	-5.528003e-06	-9.542312e-10	-3.836852e+01	-6.458442e+01
1.000000e-08	-5.528090e-06	-9.509229e-10	-3.836912e+01	-6.458554e+01
2.000000e-08	-5.527918e-06	-9.475277e-10	-3.836793e+01	-6.458751e+01
3.000000e-08	-5.527462e-06	-9.448045e-10	-3.836476e+01	-6.459014e+01
4.000000e-08	-5.526592e-06	-9.427772e-10	-3.835872e+01	-6.459328e+01
5.000000e-08	-5.524998e-06	-9.398191e-10	-3.834766e+01	-6.459671e+01
6.000000e-08	-5.522643e-06	-9.448089e-10	-3.833131e+01	-6.460023e+01
7.000000e-08	-5.519762e-06	-9.591847e-10	-3.831132e+01	-6.460361e+01
8.000000e-08	-5.516438e-06	-9.297697e-10	-3.828825e+01	-6.460658e+01
9.000000e-08	-5.512662e-06	-8.986692e-10	-3.826204e+01	-6.460889e+01
1.000000e-07	-5.508512e-06	-9.595899e-10	-3.823323e+01	-6.461024e+01
1.100000e-07	-5.504080e-06	-9.788454e-10	-3.820247e+01	-6.461033e+01
1.200000e-07	-5.499455e-06	-8.860656e-10	-3.817037e+01	-6.460885e+01
1.300000e-07	-5.494612e-06	-8.886387e-10	-3.813676e+01	-6.460547e+01
1.400000e-07	-5.489320e-06	-9.509865e-10	-3.810003e+01	-6.459985e+01
1.500000e-07	-5.483558e-06	-1.014898e-09	-3.806003e+01	-6.459167e+01
1.600000e-07	-5.477485e-06	-8.934948e-10	-3.801788e+01	-6.458058e+01
1.700000e-07	-5.471081e-06	-8.783899e-10	-3.797344e+01	-6.456626e+01
1.800000e-07	-5.464137e-06	-9.678900e-10	-3.792524e+01	-6.454839e+01
1.900000e-07	-5.456789e-06	-1.021891e-09	-3.787424e+01	-6.452667e+01
2.000000e-07	-5.449280e-06	-9.322115e-10	-3.782212e+01	-6.450083e+01
2.100000e-07	-5.441547e-06	-8.941764e-10	-3.776845e+01	-6.447060e+01
2.200000e-07	-5.433497e-06	-9.488784e-10	-3.771257e+01	-6.443579e+01
2.300000e-07	-5.425087e-06	-9.832244e-10	-3.765420e+01	-6.439621e+01
2.400000e-07	-5.416196e-06	-9.469449e-10	-3.759249e+01	-6.435174e+01
2.500000e-07	-5.406653e-06	-9.208249e-10	-3.752626e+01	-6.430230e+01
2.600000e-07	-5.396311e-06	-9.632049e-10	-3.745447e+01	-6.424787e+01
2.700000e-07	-5.385430e-06	-9.697895e-10	-3.737895e+01	-6.418847e+01
2.800000e-07	-5.374259e-06	-9.553856e-10	-3.730142e+01	-6.412420e+01
2.900000e-07	-5.362644e-06	-9.247351e-10	-3.722080e+01	-6.405521e+01
3.000000e-07	-5.350552e-06	-9.594456e-10	-3.713687e+01	-6.398172e+01
3.100000e-07	-5.338076e-06	-9.604712e-10	-3.705028e+01	-6.390399e+01
3.200000e-07	-5.325244e-06	-9.699954e-10	-3.696122e+01	-6.382236e+01
3.300000e-07	-5.311972e-06	-9.259201e-10	-3.686910e+01	-6.373722e+01
3.400000e-07	-5.298333e-06	-9.596034e-10	-3.677443e+01	-6.364899e+01
3.500000e-07	-5.284294e-06	-9.697544e-10	-3.667699e+01	-6.355817e+01
3.600000e-07	-5.269720e-06	-9.454655e-10	-3.657584e+01	-6.346527e+01
3.700000e-07	-5.254576e-06	-9.066800e-10	-3.647072e+01	-6.337084e+01
3.800000e-07	-5.239071e-06	-9.770216e-10	-3.636311e+01	-6.327546e+01
3.900000e-07	-5.223042e-06	-9.604958e-10	-3.625185e+01	-6.317971e+01
4.000000e-07	-5.206426e-06	-8.968643e-10	-3.613653e+01	-6.308418e+01
4.100000e-07	-5.189585e-06	-9.441354e-10	-3.601964e+01	-6.298945e+01
4.200000e-07	-5.172415e-06	-1.007929e-09	-3.590047e+01	-6.289610e+01
4.300000e-07	-5.154871e-06	-9.048036e-10	-3.577870e+01	-6.280467e+01
4.400000e-07	-5.137047e-06	-8.856076e-10	-3.565499e+01	-6.271567e+01
4.500000e-07	-5.118892e-06	-1.001729e-09	-3.552898e+01	-6.262957e+01
4.600000e-07	-5.100322e-06	-9.520134e-10	-3.540009e+01	-6.254679e+01
4.700000e-07	-5.081310e-06	-8.467299e-10	-3.526813e+01	-6.246768e+01
4.800000e-07	-5.062020e-06	-9.517062e-10	-3.513424e+01	-6.239253e+01
4.900000e-07	-5.042539e-06	-9.971809e-10	-3.499903e+01	-6.232157e+01
5.000000e-07	-5.022814e-06	-8.684036e-10	-3.486212e+01	-6.225495e+01
5.100000e-07	-5.002843e-06	-9.133669e-10	-3.472351e+01	-6.219274e+01
5.200000e-07	-4.982560e-06	-1.011777e-09	-3.458273e+01	-6.213494e+01
5.300000e-07	-4.961803e-06	-9.037222e-10	-3.443866e+01	-6.208148e+01
5.400000e-07	-4.940618e-06	-8.592994e-10	-3.429162e+01	-6.203220e+01
5.500000e-07	-4.919209e-06	-9.844903e-10	-3.414303e+01	-6.198689e+01
5.600000e-07	-4.897507e-06	-9.311051e-10	-3.399240e+01	-6.194527e+01
5.700000e-07	-4.875426e-06	-8.431978e-10	-3.383914e+01	-6.190698e+01
5.800000e-07	-4.852970e-06	-9.417837e-10	-3.368328e+01	-6.187164e+01
5.900000e-07	-4.830140e-06	-9.753729e-10	-3.352482e+01	-6.183882e+01
6.000000e-07	-4.807006e-06	-8.686158e-10	-3.336425e+01	-6.180805e+01
6.100000e-07	-4.783631e-06	-9.125461e-10	-3.320201e+01	-6.177884e+01
6.200000e-07	-4.759987e-06	-9.647502e-10	-3.303791e+01	-6.175069e+01
6.300000e-07	-4.736045e-06	-8.906838e-10	-3.287173e+01	-6.172310e+01
6.400000e-07	-4.711870e-06	-8.805451e-10	-3.270394e+01	-6.169557e+01
6.500000e-07	-4.687371e-06	-9.499382e-10	-3.253390e+01	-6.166762e+01
6.600000e-07	-4.662305e-06	-9.067242e-10	-3.235992e+01	-6.163880e+01
6.700000e-07	-4.636688e-06	-8.833745e-10	-3.218212e+01	-6.160870e+01
6.800000e-07	-4.610556e-06	-9.351071e-10	-3.200074e+01	-6.157695e+01
6.900000e-07	-4.583863e-06	-9.319950e-10	-3.181547e+01	-6.154322e+01
7.000000e-07	-4.556744e-06	-8.926130e-10	-3.162725e+01	-6.150725e+01
7.100000e-07	-4.529317e-06	-9.217593e-10	-3.143688e+01	-6.146882e+01
7.200000e-07	-4.501695e-06	-9.245678e-10	-3.124516e+01	-6.142780e+01
7.300000e-07	-4.473930e-06	-8.934345e-10	-3.105246e+01	-6.138408e+01
7.400000e-07	-4.446019e-06	-9.030252e-10	-3.085873e+01	-6.133765e+01
7.500000e-07	-4.417880e-06	-9.198215e-10	-3.066343e+01	-6.128853e+01
7.600000e-07	-4.389416e-06	-9.022946e-10	-3.046586e+01	-6.123681e+01
7.700000e-07	-4.360589e-06	-9.055503e-10	-3.026578e+01	-6.118263e+01
7.800000e-07	-4.331397e-06	-9.208175e-10	-3.006317e+01	-6.112615e+01
7.900000e-07	-4.301911e-06	-9.061903e-10	-2.985851e+01	-6.106760e+01
8.000000e-07	-4.272167e-06	-8.998547e-10	-2.965207e+01	-6.100720e+01
8.100000e-07	-4.242096e-06	-9.102838e-10	-2.944335e+01	-6.094523e+01
8.200000e-07	-4.211695e-06	-9.020427e-10	-2.923235e+01	-6.088194e+01
8.300000e-07	-4.181029e-06	-8.891662e-10	-2.901950e+01	-6.081761e+01
8.400000e-07	-4.150138e-06	-9.066936e-10	-2.880509e+01	-6.075248e+01
8.500000e-07	-4.118954e-06	-9.099871e-10	-2.858865e+01	-6.068680e+01
8.600000e-07	-4.087488e-06	-8.978292e-10	-2.837025e+01	-6.062078e+01
8.700000e-07	-4.055894e-06	-8.970957e-10	-2.815097e+01	-6.055459e+01
8.800000e-07	-4.024172e-06	-9.021550e-10	-2.793079e+01	-6.048838e+01
8.900000e-07	-3.992299e-06	-8.835667e-10	-2.770957e+01	-6.042222e+01
9.000000e-07	-3.960187e-06	-8.850444e-10	-2.748669e+01	-6.035616e+01
9.100000e-07	-3.927667e-06	-8.986027e-10	-2.726098e+01	-6.029018e+01
9.200000e-07	-3.894616e-06	-8.969500e-10	-2.703158e+01	-6.022420e+01
9.300000e-07	-3.861125e-06	-8.890554e-10	-2.679912e+01	-6.015809e+01
9.400000e-07	-3.827320e-06	-9.009417e-10	-2.656449e+01	-6.009166e+01
9.500000e-07	-3.793075e-06	-8.941660e-10	-2.632681e+01	-6.002469e+01
9.600000e-07	-3.758345e-06	-8.742094e-10	-2.608575e+01	-5.995688e+01
9.700000e-07	-3.723239e-06	-8.717765e-10	-2.584209e+01	-5.988790e+01
9.800000e-07	-3.687825e-06	-8.801620e-10	-2.559629e+01	-5.981740e+01
9.900000e-07	-3.652241e-06	-8.734207e-10	-2.534931e+01	-5.974499e+01
1.000000e-06	-3.616585e-06	-8.783413e-10	-2.510183e+01	-5.967025e+01
1.010000e-06	-3.580847e-06	-8.887259e-10	-2.485378e+01	-5.959277e+01
1.020000e-06	-3.544999e-06	-8.835301e-10	-2.460497e+01	-5.951212e+01
1.030000e-06	-3.508903e-06	-8.739231e-10	-2.435444e+01	-5.942789e+01
1.040000e-06	-3.472514e-06	-8.768584e-10	-2.410187e+01	-5.933970e+01
1.050000e-06	-3.435878e-06	-8.721659e-10	-2.384759e+01	-5.924716e+01
1.060000e-06	-3.398955e-06	-8.597276e-10	-2.359131e+01	-5.914995e+01
1.070000e-06	-3.361810e-06	-8.611881e-10	-2.333350e+01	-5.904778e+01
1.080000e-06	-3.324494e-06	-8.671328e-10	-2.307450e+01	-5.894040e+01
1.090000e-06	-3.286896e-06	-8.660569e-10	-2.281354e+01	-5.882762e+01
1.100000e-06	-3.249039e-06	-8.664300e-10	-2.255078e+01	-5.870930e+01
1.110000e-06	-3.210936e-06	-8.714767e-10	-2.228632e+01	-5.858539e+01
1.120000e-06	-3.172613e-06	-8.652978e-10	-2.202033e+01	-5.845585e+01
1.130000e-06	-3.134072e-06	-8.578437e-10	-2.175283e+01	-5.832075e+01
1.140000e-06	-3.095292e-06	-8.560601e-10	-2.148366e+01	-5.818018e+01
1.150000e-06	-3.056362e-06	-8.525202e-10	-2.121346e+01	-5.803430e+01
1.160000e-06	-3.017163e-06	-8.445248e-10	-2.094139e+01	-5.788332e+01
1.170000e-06	-2.977756e-06	-8.448569e-10	-2.066787e+01	-5.772749e+01
1.180000e-06	-2.938244e-06	-8.441736e-10	-2.039364e+01	-5.756709e+01
1.190000e-06	-2.898600e-06	-8.414428e-10	-2.011847e+01	-5.740243e+01
1.200000e-06	-2.858889e-06	-8.364441e-10	-1.984285e+01	-5.723385e+01
1.210000e-06	-2.819068e-06	-8.357398e-10	-1.956646e+01	-5.706167e+01
1.220000e-06	-2.779113e-06	-8.336785e-10	-1.928914e+01	-5.688623e+01
1.230000e-06	-2.739044e-06	-8.356999e-10	-1.901103e+01	-5.670786e+01
1.240000e-06	-2.698708e-06	-8.361184e-10	-1.873108e+01	-5.652685e+01
1.250000e-06	-2.658049e-06	-8.339557e-10	-1.844887e+01	-5.634348e+01
1.260000e-06	-2.617134e-06	-8.266133e-10	-1.816489e+01	-5.615797e+01
1.270000e-06	-2.575986e-06	-8.199483e-10	-1.787929e+01	-5.597051e+01
1.280000e-06	-2.534569e-06	-8.169761e-10	-1.759183e+01	-5.578124e+01
1.290000e-06	-2.492685e-06	-8.156710e-10	-1.730112e+01	-5.559021e+01
1.300000e-06	-2.450388e-06	-8.145721e-10	-1.700754e+01	-5.539744e+01
1.310000e-06	-2.407878e-06	-8.151010e-10	-1.671249e+01	-5.520288e+01
1.320000e-06	-2.365192e-06	-8.131170e-10	-1.641622e+01	-5.500640e+01
1.330000e-06	-2.322235e-06	-8.060553e-10	-1.611807e+01	-5.480781e+01
1.340000e-06	-2.278991e-06	-7.976110e-10	-1.581792e+01	-5.460687e+01
1.350000e-06	-2.235584e-06	-7.904069e-10	-1.551664e+01	-5.440325e+01
1.360000e-06	-2.192064e-06	-7.850172e-10	-1.521458e+01	-5.419659e+01
1.370000e-06	-2.148486e-06	-7.823450e-10	-1.491211e+01	-5.398647e+01
1.380000e-06	-2.104901e-06	-7.839477e-10	-1.460961e+01	-5.377242e+01
1.390000e-06	-2.061178e-06	-7.857796e-10	-1.430613e+01	-5.355394e+01
1.400000e-06	-2.017272e-06	-7.866576e-10	-1.400139e+01	-5.333052e+01
1.410000e-06	-1.973349e-06	-7.846637e-10	-1.369653e+01	-5.310159e+01
1.420000e-06	-1.929407e-06	-7.793739e-10	-1.339154e+01	-5.286660e+01
1.430000e-06	-1.885323e-06	-7.688376e-10	-1.308557e+01	-5.262498e+01
1.440000e-06	-1.841059e-06	-7.592895e-10	-1.277834e+01	-5.237618e+01
1.450000e-06	-1.796703e-06	-7.515689e-10	-1.247048e+01	-5.211964e+01
1.460000e-06	-1.752304e-06	-7.469596e-10	-1.216231e+01	-5.185485e+01
1.470000e-06	-1.707719e-06	-7.445471e-10	-1.185286e+01	-5.158129e+01
1.480000e-06	-1.662927e-06	-7.455652e-10	-1.154197e+01	-5.129847e+01
1.490000e-06	-1.618029e-06	-7.436562e-10	-1.123034e+01	-5.100596e+01
1.500000e-06	-1.573000e-06	-7.383259e-10	-1.091781e+01	-5.070333e+01
1.510000e-06	-1.527864e-06	-7.320490e-10	-1.060453e+01	-5.039019e+01
1.520000e-06	-1.482614e-06	-7.261916e-10	-1.029046e+01	-5.006617e+01
1.530000e-06	-1.437268e-06	-7.201103e-10	-9.975728e+00	-4.973094e+01
1.540000e-06	-1.391841e-06	-7.138177e-10	-9.660429e+00	-4.938419e+01
1.550000e-06	-1.346314e-06	-7.074850e-10	-9.344433e+00	-4.902561e+01
1.560000e-06	-1.300687e-06	-7.019604e-10	-9.027754e+00	-4.865490e+01
1.570000e-06	-1.255002e-06	-6.978225e-10	-8.710663e+00	-4.827176e+01
1.580000e-06	-1.209277e-06	-6.931231e-10	-8.393293e+00	-4.787590e+01
1.590000e-06	-1.163428e-06	-6.881627e-10	-8.075072e+00	-4.746697e+01
1.600000e-06	-1.117463e-06	-6.825923e-10	-7.756038e+00	-4.704463e+01
1.610000e-06	-1.071405e-06	-6.736773e-10	-7.436361e+00	-4.660848e+01
1.620000e-06	-1.025250e-06	-6.632612e-10	-7.116011e+00	-4.615808e+01
1.630000e-06	-9.790129e-07	-6.550369e-10	-6.795089e+00	-4.569292e+01
1.640000e-06	-9.327208e-07	-6.487419e-10	-6.473787e+00	-4.521245e+01
1.650000e-06	-8.863501e-07	-6.412296e-10	-6.151939e+00	-4.471604e+01
1.660000e-06	-8.400028e-07	-6.317585e-10	-5.830254e+00	-4.420298e+01
1.670000e-06	-7.936792e-07	-6.212420e-10	-5.508733e+00	-4.367249e+01
1.680000e-06	-7.472502e-07	-6.107249e-10	-5.186481e+00	-4.312372e+01
1.690000e-06	-7.006872e-07	-6.005791e-10	-4.863298e+00	-4.255572e+01
1.700000e-06	-6.540992e-07	-5.917985e-10	-4.539943e+00	-4.196750e+01
1.710000e-06	-6.075744e-07	-5.834632e-10	-4.217025e+00	-4.135797e+01
1.720000e-06	-5.609841e-07	-5.762264e-10	-3.893653e+00	-4.072600e+01
1.730000e-06	-5.143759e-07	-5.692938e-10	-3.570158e+00	-4.007040e+01
1.740000e-06	-4.677231e-07	-5.578289e-10	-3.246352e+00	-3.938995e+01
1.750000e-06	-4.209015e-07	-5.428421e-10	-2.921374e+00	-3.868339e+01
1.760000e-06	-3.740558e-07	-5.270465e-10	-2.596230e+00	-3.794948e+01
1.770000e-06	-3.272193e-07	-5.141696e-10	-2.271149e+00	-3.718695e+01
1.780000e-06	-2.803712e-07	-5.023673e-10	-1.945988e+00	-3.639459e+01
1.790000e-06	-2.335269e-07	-4.932527e-10	-1.620853e+00	-3.557121e+01
1.800000e-06	-1.866340e-07	-4.847381e-10	-1.295381e+00	-3.471569e+01
1.810000e-06	-1.396916e-07	-4.738753e-10	-9.695651e-01	-3.382702e+01
1.820000e-06	-9.272535e-08	-4.622746e-10	-6.435840e-01	-3.290425e+01
1.830000e-06	-4.584355e-08	-4.481377e-10	-3.181888e-01	-3.194659e+01
1.840000e-06	1.010089e-09	-4.302295e-10	7.010782e-03	-3.095338e+01
1.850000e-06	4.788846e-08	-4.116750e-10	3.323821e-01	-2.992410e+01
1.860000e-06	9.478074e-08	-3.935601e-10	6.578500e-01	-2.885843e+01
1.870000e-06	1.416789e-07	-3.761220e-10	9.833585e-01	-2.775622e+01
1.880000e-06	1.885208e-07	-3.603881e-10	1.308477e+00	-2.661753e+01
1.890000e-06	2.353382e-07	-3.467480e-10	1.633425e+00	-2.544261e+01
1.900000e-06	2.821454e-07	-3.325168e-10	1.958302e+00	-2.423194e+01
1.910000e-06	3.288911e-07	-3.157812e-10	2.282753e+00	-2.298620e+01
1.920000e-06	3.755582e-07	-2.978476e-10	2.606658e+00	-2.170630e+01
1.930000e-06	4.223269e-07	-2.776039e-10	2.931268e+00	-2.039334e+01
1.940000e-06	4.691434e-07	-2.549176e-10	3.256210e+00	-1.904865e+01
1.950000e-06	5.158816e-07	-2.326943e-10	3.580608e+00	-1.767376e+01
1.960000e-06	5.625810e-07	-2.141366e-10	3.904737e+00	-1.627037e+01
1.970000e-06	6.092162e-07	-1.974910e-10	4.228421e+00	-1.484036e+01
1.980000e-06	6.557174e-07	-1.812640e-10	4.551174e+00	-1.338579e+01
1.990000e-06	7.021171e-07	-1.634589e-10	4.873223e+00	-1.190883e+01
2.000000e-06	7.485497e-07	-1.416475e-10	5.195501e+00	-1.041180e+01
2.010000e-06	7.949460e-07	-1.175179e-10	5.517526e+00	-8.897093e+00
2.020000e-06	8.412948e-07	-9.303854e-11	5.839222e+00	-7.367209e+00
2.030000e-06	8.876481e-07	-6.985395e-11	6.160948e+00	-5.824691e+00
2.040000e-06	9.339561e-07	-4.832674e-11	6.482361e+00	-4.272119e+00
2.050000e-06	9.801414e-07	-2.710623e-11	6.802922e+00	-2.712086e+00
2.060000e-06	1.026280e-06	-4.930713e-12	7.123157e+00	-1.147175e+00
2.070000e-06	1.072328e-06	1.810134e-11	7.442766e+00	4.200594e-01
2.080000e-06	1.118124e-06	4.129654e-11	7.760626e+00	1.987116e+00
2.090000e-06	1.163855e-06	6.439751e-11	8.078034e+00	3.551562e+00
2.100000e-06	1.209595e-06	8.685318e-11	8.395505e+00	5.111048e+00
2.110000e-06	1.255247e-06	1.079227e-10	8.712365e+00	6.663327e+00
2.120000e-06	1.300822e-06	1.291415e-10	9.028687e+00	8.206264e+00
2.130000e-06	1.346276e-06	1.499107e-10	9.344172e+00	9.737849e+00
2.140000e-06	1.391665e-06	1.701579e-10	9.659210e+00	1.125620e+01
2.150000e-06	1.437023e-06	1.918683e-10	9.974022e+00	1.275958e+01
2.160000e-06	1.482296e-06	2.124068e-10	1.028825e+01	1.424639e+01
2.170000e-06	1.527542e-06	2.316727e-10	1.060230e+01	1.571516e+01
2.180000e-06	1.572618e-06	2.520178e-10	1.091516e+01	1.716458e+01
2.190000e-06	1.617468e-06	2.750670e-10	1.122645e+01	1.859348e+01
2.200000e-06	1.662229e-06	2.971700e-10	1.153713e+01	2.000080e+01
2.210000e-06	1.706832e-06	3.144862e-10	1.184671e+01	2.138564e+01
2.220000e-06	1.751290e-06	3.282395e-10	1.215528e+01	2.274719e+01
2.230000e-06	1.795587e-06	3.426921e-10	1.246273e+01	2.408478e+01
2.240000e-06	1.839721e-06	3.577014e-10	1.276905e+01	2.539783e+01
2.250000e-06	1.883767e-06	3.748989e-10	1.307477e+01	2.668585e+01
2.260000e-06	1.927765e-06	3.971718e-10	1.338014e+01	2.794843e+01
2.270000e-06	1.971700e-06	4.198862e-10	1.368509e+01	2.918525e+01
2.280000e-06	2.015500e-06	4.403163e-10	1.398909e+01	3.039606e+01
2.290000e-06	2.059235e-06	4.575170e-10	1.429264e+01	3.158063e+01
2.300000e-06	2.102905e-06	4.714350e-10	1.459575e+01	3.273880e+01
2.310000e-06	2.146516e-06	4.824456e-10	1.489844e+01	3.387046e+01
2.320000e-06	2.190052e-06	4.924731e-10	1.520062e+01	3.497551e+01
2.330000e-06	2.233486e-06	5.051178e-10	1.550208e+01	3.605389e+01
2.340000e-06	2.276812e-06	5.208914e-10	1.580280e+01	3.710557e+01
2.350000e-06	2.319918e-06	5.390035e-10	1.610198e+01	3.813051e+01
2.360000e-06	2.362733e-06	5.578067e-10	1.639915e+01	3.912873e+01
2.370000e-06	2.405377e-06	5.735605e-10	1.669513e+01	4.010024e+01
2.380000e-06	2.447811e-06	5.861738e-10	1.698966e+01	4.104507e+01
2.390000e-06	2.489954e-06	5.954047e-10	1.728216e+01	4.196329e+01
2.400000e-06	2.531831e-06	6.039808e-10	1.757282e+01	4.285495e+01
2.410000e-06	2.573347e-06	6.149895e-10	1.786097e+01	4.372017e+01
2.420000e-06	2.614536e-06	6.264444e-10	1.814686e+01	4.455907e+01
2.430000e-06	2.655469e-06	6.385279e-10	1.843096e+01	4.537181e+01
2.440000e-06	2.696176e-06	6.510002e-10	1.871350e+01	4.615857e+01
2.450000e-06	2.736698e-06	6.631706e-10	1.899475e+01	4.691959e+01
2.460000e-06	2.777006e-06	6.739746e-10	1.927452e+01	4.765513e+01
2.470000e-06	2.817128e-06	6.842244e-10	1.955299e+01	4.836551e+01
2.480000e-06	2.857088e-06	6.952799e-10	1.983035e+01	4.905108e+01
2.490000e-06	2.896854e-06	7.046254e-10	2.010636e+01	4.971224e+01
2.500000e-06	2.936437e-06	7.130079e-10	2.038109e+01	5.034945e+01
2.510000e-06	2.975860e-06	7.197449e-10	2.065472e+01	5.096321e+01
2.520000e-06	3.015091e-06	7.250406e-10	2.092701e+01	5.155405e+01
2.530000e-06	3.054134e-06	7.324560e-10	2.119800e+01	5.212257e+01
2.540000e-06	3.092982e-06	7.417126e-10	2.146763e+01	5.266939e+01
2.550000e-06	3.131559e-06	7.515203e-10	2.173539e+01	5.319516e+01
2.560000e-06	3.169926e-06	7.612867e-10	2.200168e+01	5.370058e+01
2.570000e-06	3.208140e-06	7.692169e-10	2.226692e+01	5.418637e+01
2.580000e-06	3.246190e-06	7.745075e-10	2.253101e+01	5.465326e+01
2.590000e-06	3.284008e-06	7.791198e-10	2.279350e+01	5.510200e+01
2.600000e-06	3.321563e-06	7.844143e-10	2.305416e+01	5.553333e+01
2.610000e-06	3.358870e-06	7.898291e-10	2.331310e+01	5.594799e+01
2.620000e-06	3.395949e-06	7.956999e-10	2.357045e+01	5.634672e+01
2.630000e-06	3.432821e-06	8.021265e-10	2.382637e+01	5.673023e+01
2.640000e-06	3.469419e-06	8.067120e-10	2.408039e+01	5.709922e+01
2.650000e-06	3.505754e-06	8.104392e-10	2.433258e+01	5.745433e+01
2.660000e-06	3.541867e-06	8.168167e-10	2.458323e+01	5.779619e+01
2.670000e-06	3.577781e-06	8.221658e-10	2.483250e+01	5.812538e+01
2.680000e-06	3.613559e-06	8.255723e-10	2.508083e+01	5.844241e+01
2.690000e-06	3.649191e-06	8.310859e-10	2.532814e+01	5.874778e+01
2.700000e-06	3.684683e-06	8.356907e-10	2.557448e+01	5.904192e+01
2.710000e-06	3.720083e-06	8.377423e-10	2.582019e+01	5.932520e+01
2.720000e-06	3.755179e-06	8.404620e-10	2.606378e+01	5.959795e+01
2.730000e-06	3.789776e-06	8.435007e-10	2.630391e+01	5.986047e+01
2.740000e-06	3.823938e-06	8.470243e-10	2.654102e+01	6.011298e+01
2.750000e-06	3.857706e-06	8.532951e-10	2.677539e+01	6.035568e+01
2.760000e-06	3.891083e-06	8.587985e-10	2.700705e+01	6.058874e+01
2.770000e-06	3.924047e-06	8.629226e-10	2.723585e+01	6.081228e+01
2.780000e-06	3.956600e-06	8.671744e-10	2.746179e+01	6.102642e+01
2.790000e-06	3.988863e-06	8.708664e-10	2.768572e+01	6.123124e+01
2.800000e-06	4.020926e-06	8.724752e-10	2.790826e+01	6.142683e+01
2.810000e-06	4.052745e-06	8.709648e-10	2.812911e+01	6.161327e+01
2.820000e-06	4.084310e-06	8.707689e-10	2.834819e+01	6.179064e+01
2.830000e-06	4.115707e-06	8.737438e-10	2.856611e+01	6.195906e+01
2.840000e-06	4.146945e-06	8.798712e-10	2.878293e+01	6.211863e+01
2.850000e-06	4.177911e-06	8.875073e-10	2.899786e+01	6.226951e+01
2.860000e-06	4.208527e-06	8.941917e-10	2.921036e+01	6.241187e+01
2.870000e-06	4.238822e-06	8.986278e-10	2.942063e+01	6.254592e+01
2.880000e-06	4.268790e-06	9.008990e-10	2.962863e+01	6.267191e+01
2.890000e-06	4.298464e-06	9.014089e-10	2.983459e+01	6.279013e+01
2.900000e-06	4.327945e-06	9.002592e-10	3.003921e+01	6.290091e+01
