# Temperatura_=_7.85
# Concentracion g/m^3_=_1620.0
# C_Vs_to_Am_M_A/Vsm_=_65563218390.804596
# pendiente_HvsI_1/m_=_3716.3
# ordenada_HvsI_A/m_=_1297.0
# frecuencia_Hz_=_135106.0649848649

Tiempo_(s)	Campo_(V.s)	Magnetizacion_(V.s)	Campo_(kA/m)	Magnetizacion_(A/m)
0.000000e+00	-5.531805e-06	-1.333391e-09	-3.836311e+01	-9.001381e+01
1.000000e-08	-5.532013e-06	-1.333061e-09	-3.836455e+01	-8.997542e+01
2.000000e-08	-5.531922e-06	-1.334211e-09	-3.836392e+01	-8.993767e+01
3.000000e-08	-5.531428e-06	-1.334844e-09	-3.836049e+01	-8.990087e+01
4.000000e-08	-5.530568e-06	-1.332585e-09	-3.835453e+01	-8.986534e+01
5.000000e-08	-5.529200e-06	-1.325406e-09	-3.834504e+01	-8.983134e+01
6.000000e-08	-5.527165e-06	-1.319994e-09	-3.833093e+01	-8.979909e+01
7.000000e-08	-5.524542e-06	-1.322590e-09	-3.831274e+01	-8.976878e+01
8.000000e-08	-5.521380e-06	-1.312425e-09	-3.829081e+01	-8.974051e+01
9.000000e-08	-5.517776e-06	-1.308098e-09	-3.826582e+01	-8.971434e+01
1.000000e-07	-5.513771e-06	-1.343350e-09	-3.823804e+01	-8.969025e+01
1.100000e-07	-5.509346e-06	-1.338971e-09	-3.820735e+01	-8.966813e+01
1.200000e-07	-5.504709e-06	-1.279274e-09	-3.817520e+01	-8.964782e+01
1.300000e-07	-5.499864e-06	-1.302144e-09	-3.814159e+01	-8.962904e+01
1.400000e-07	-5.494581e-06	-1.348879e-09	-3.810496e+01	-8.961147e+01
1.500000e-07	-5.488907e-06	-1.368856e-09	-3.806561e+01	-8.959466e+01
1.600000e-07	-5.482954e-06	-1.282993e-09	-3.802432e+01	-8.957813e+01
1.700000e-07	-5.476704e-06	-1.276642e-09	-3.798098e+01	-8.956130e+01
1.800000e-07	-5.469904e-06	-1.337609e-09	-3.793382e+01	-8.954355e+01
1.900000e-07	-5.462630e-06	-1.369194e-09	-3.788338e+01	-8.952419e+01
2.000000e-07	-5.455165e-06	-1.336497e-09	-3.783161e+01	-8.950249e+01
2.100000e-07	-5.447422e-06	-1.329832e-09	-3.777791e+01	-8.947771e+01
2.200000e-07	-5.439384e-06	-1.366653e-09	-3.772217e+01	-8.944906e+01
2.300000e-07	-5.431090e-06	-1.375048e-09	-3.766465e+01	-8.941578e+01
2.400000e-07	-5.422438e-06	-1.351476e-09	-3.760464e+01	-8.937710e+01
2.500000e-07	-5.413101e-06	-1.344042e-09	-3.753989e+01	-8.933229e+01
2.600000e-07	-5.402958e-06	-1.375185e-09	-3.746955e+01	-8.928065e+01
2.700000e-07	-5.392261e-06	-1.371818e-09	-3.739537e+01	-8.922157e+01
2.800000e-07	-5.381169e-06	-1.352298e-09	-3.731844e+01	-8.915447e+01
2.900000e-07	-5.369616e-06	-1.333243e-09	-3.723833e+01	-8.907888e+01
3.000000e-07	-5.357687e-06	-1.360416e-09	-3.715560e+01	-8.899442e+01
3.100000e-07	-5.345440e-06	-1.355638e-09	-3.707066e+01	-8.890080e+01
3.200000e-07	-5.332702e-06	-1.353434e-09	-3.698232e+01	-8.879787e+01
3.300000e-07	-5.319420e-06	-1.340713e-09	-3.689022e+01	-8.868557e+01
3.400000e-07	-5.305845e-06	-1.366259e-09	-3.679608e+01	-8.856398e+01
3.500000e-07	-5.292022e-06	-1.359833e-09	-3.670021e+01	-8.843328e+01
3.600000e-07	-5.277660e-06	-1.339007e-09	-3.660061e+01	-8.829379e+01
3.700000e-07	-5.262749e-06	-1.324348e-09	-3.649720e+01	-8.814593e+01
3.800000e-07	-5.247297e-06	-1.351422e-09	-3.639004e+01	-8.799023e+01
3.900000e-07	-5.231304e-06	-1.329303e-09	-3.627913e+01	-8.782732e+01
4.000000e-07	-5.214835e-06	-1.306745e-09	-3.616492e+01	-8.765791e+01
4.100000e-07	-5.198113e-06	-1.343063e-09	-3.604895e+01	-8.748279e+01
4.200000e-07	-5.181156e-06	-1.359138e-09	-3.593135e+01	-8.730280e+01
4.300000e-07	-5.163779e-06	-1.297861e-09	-3.581084e+01	-8.711883e+01
4.400000e-07	-5.146109e-06	-1.301976e-09	-3.568830e+01	-8.693177e+01
4.500000e-07	-5.128121e-06	-1.355844e-09	-3.556356e+01	-8.674256e+01
4.600000e-07	-5.109635e-06	-1.302932e-09	-3.543535e+01	-8.655207e+01
4.700000e-07	-5.090653e-06	-1.252767e-09	-3.530371e+01	-8.636119e+01
4.800000e-07	-5.071372e-06	-1.317910e-09	-3.517000e+01	-8.617073e+01
4.900000e-07	-5.051905e-06	-1.327756e-09	-3.503499e+01	-8.598144e+01
5.000000e-07	-5.032213e-06	-1.255518e-09	-3.489843e+01	-8.579399e+01
5.100000e-07	-5.012322e-06	-1.292692e-09	-3.476049e+01	-8.560897e+01
5.200000e-07	-4.992219e-06	-1.334007e-09	-3.462108e+01	-8.542684e+01
5.300000e-07	-4.971739e-06	-1.264812e-09	-3.447905e+01	-8.524796e+01
5.400000e-07	-4.950902e-06	-1.250056e-09	-3.433454e+01	-8.507257e+01
5.500000e-07	-4.929687e-06	-1.318596e-09	-3.418741e+01	-8.490079e+01
5.600000e-07	-4.907966e-06	-1.274282e-09	-3.403678e+01	-8.473258e+01
5.700000e-07	-4.885919e-06	-1.229999e-09	-3.388388e+01	-8.456782e+01
5.800000e-07	-4.863637e-06	-1.286799e-09	-3.372935e+01	-8.440623e+01
5.900000e-07	-4.841024e-06	-1.290584e-09	-3.357254e+01	-8.424745e+01
6.000000e-07	-4.818031e-06	-1.225832e-09	-3.341308e+01	-8.409099e+01
6.100000e-07	-4.794713e-06	-1.254973e-09	-3.325137e+01	-8.393627e+01
6.200000e-07	-4.771149e-06	-1.278406e-09	-3.308795e+01	-8.378265e+01
6.300000e-07	-4.747398e-06	-1.233545e-09	-3.292324e+01	-8.362941e+01
6.400000e-07	-4.723413e-06	-1.230986e-09	-3.275690e+01	-8.347577e+01
6.500000e-07	-4.699014e-06	-1.264854e-09	-3.258769e+01	-8.332095e+01
6.600000e-07	-4.674095e-06	-1.233916e-09	-3.241488e+01	-8.316415e+01
6.700000e-07	-4.648657e-06	-1.221049e-09	-3.223847e+01	-8.300455e+01
6.800000e-07	-4.622754e-06	-1.247020e-09	-3.205883e+01	-8.284139e+01
6.900000e-07	-4.596318e-06	-1.238507e-09	-3.187550e+01	-8.267395e+01
7.000000e-07	-4.569330e-06	-1.219801e-09	-3.168834e+01	-8.250153e+01
7.100000e-07	-4.542003e-06	-1.236243e-09	-3.149882e+01	-8.232356e+01
7.200000e-07	-4.514500e-06	-1.229824e-09	-3.130809e+01	-8.213950e+01
7.300000e-07	-4.486844e-06	-1.206688e-09	-3.111629e+01	-8.194895e+01
7.400000e-07	-4.458995e-06	-1.209128e-09	-3.092316e+01	-8.175160e+01
7.500000e-07	-4.430856e-06	-1.211438e-09	-3.072801e+01	-8.154723e+01
7.600000e-07	-4.402452e-06	-1.197909e-09	-3.053104e+01	-8.133577e+01
7.700000e-07	-4.373791e-06	-1.197667e-09	-3.033227e+01	-8.111723e+01
7.800000e-07	-4.344767e-06	-1.199378e-09	-3.013099e+01	-8.089176e+01
7.900000e-07	-4.315453e-06	-1.183593e-09	-2.992770e+01	-8.065959e+01
8.000000e-07	-4.285848e-06	-1.179565e-09	-2.972238e+01	-8.042107e+01
8.100000e-07	-4.255898e-06	-1.180770e-09	-2.951468e+01	-8.017664e+01
8.200000e-07	-4.225599e-06	-1.171791e-09	-2.930456e+01	-7.992678e+01
8.300000e-07	-4.194938e-06	-1.165853e-09	-2.909193e+01	-7.967209e+01
8.400000e-07	-4.164039e-06	-1.176132e-09	-2.887764e+01	-7.941316e+01
8.500000e-07	-4.132938e-06	-1.171789e-09	-2.866195e+01	-7.915066e+01
8.600000e-07	-4.101641e-06	-1.162108e-09	-2.844491e+01	-7.888523e+01
8.700000e-07	-4.070174e-06	-1.159985e-09	-2.822668e+01	-7.861756e+01
8.800000e-07	-4.038538e-06	-1.155898e-09	-2.800729e+01	-7.834826e+01
8.900000e-07	-4.006665e-06	-1.140041e-09	-2.778625e+01	-7.807795e+01
9.000000e-07	-3.974547e-06	-1.139551e-09	-2.756351e+01	-7.780719e+01
9.100000e-07	-3.942225e-06	-1.143834e-09	-2.733936e+01	-7.753645e+01
9.200000e-07	-3.909527e-06	-1.139352e-09	-2.711259e+01	-7.726615e+01
9.300000e-07	-3.876289e-06	-1.135312e-09	-2.688209e+01	-7.699660e+01
9.400000e-07	-3.842539e-06	-1.140550e-09	-2.664803e+01	-7.672804e+01
9.500000e-07	-3.808306e-06	-1.132823e-09	-2.641063e+01	-7.646058e+01
9.600000e-07	-3.773618e-06	-1.118198e-09	-2.617007e+01	-7.619424e+01
9.700000e-07	-3.738561e-06	-1.109396e-09	-2.592695e+01	-7.592893e+01
9.800000e-07	-3.703251e-06	-1.103730e-09	-2.568207e+01	-7.566446e+01
9.900000e-07	-3.667778e-06	-1.094471e-09	-2.543606e+01	-7.540053e+01
1.000000e-06	-3.632175e-06	-1.094560e-09	-2.518916e+01	-7.513676e+01
1.010000e-06	-3.596433e-06	-1.098934e-09	-2.494129e+01	-7.487267e+01
1.020000e-06	-3.560536e-06	-1.096494e-09	-2.469235e+01	-7.460773e+01
1.030000e-06	-3.524497e-06	-1.094177e-09	-2.444241e+01	-7.434133e+01
1.040000e-06	-3.488233e-06	-1.095261e-09	-2.419092e+01	-7.407281e+01
1.050000e-06	-3.451614e-06	-1.088125e-09	-2.393697e+01	-7.380151e+01
1.060000e-06	-3.414686e-06	-1.074195e-09	-2.368087e+01	-7.352672e+01
1.070000e-06	-3.377558e-06	-1.067214e-09	-2.342339e+01	-7.324774e+01
1.080000e-06	-3.340217e-06	-1.062600e-09	-2.316443e+01	-7.296389e+01
1.090000e-06	-3.302639e-06	-1.058801e-09	-2.290383e+01	-7.267454e+01
1.100000e-06	-3.264852e-06	-1.056726e-09	-2.264177e+01	-7.237906e+01
1.110000e-06	-3.226807e-06	-1.057402e-09	-2.237793e+01	-7.207691e+01
1.120000e-06	-3.188431e-06	-1.054333e-09	-2.211179e+01	-7.176762e+01
1.130000e-06	-3.149827e-06	-1.048517e-09	-2.184407e+01	-7.145078e+01
1.140000e-06	-3.111101e-06	-1.041053e-09	-2.157551e+01	-7.112608e+01
1.150000e-06	-3.072179e-06	-1.031583e-09	-2.130558e+01	-7.079330e+01
1.160000e-06	-3.033078e-06	-1.020425e-09	-2.103442e+01	-7.045230e+01
1.170000e-06	-2.993893e-06	-1.015675e-09	-2.076267e+01	-7.010305e+01
1.180000e-06	-2.954503e-06	-1.013292e-09	-2.048950e+01	-6.974561e+01
1.190000e-06	-2.914925e-06	-1.011623e-09	-2.021503e+01	-6.938010e+01
1.200000e-06	-2.875304e-06	-1.007729e-09	-1.994026e+01	-6.900676e+01
1.210000e-06	-2.835544e-06	-1.001852e-09	-1.966452e+01	-6.862588e+01
1.220000e-06	-2.795593e-06	-9.899516e-10	-1.938746e+01	-6.823781e+01
1.230000e-06	-2.755540e-06	-9.808175e-10	-1.910969e+01	-6.784294e+01
1.240000e-06	-2.715223e-06	-9.760683e-10	-1.883009e+01	-6.744173e+01
1.250000e-06	-2.674578e-06	-9.723250e-10	-1.854822e+01	-6.703464e+01
1.260000e-06	-2.633754e-06	-9.677951e-10	-1.826511e+01	-6.662212e+01
1.270000e-06	-2.592639e-06	-9.617440e-10	-1.797997e+01	-6.620464e+01
1.280000e-06	-2.551158e-06	-9.540169e-10	-1.769230e+01	-6.578265e+01
1.290000e-06	-2.509353e-06	-9.451020e-10	-1.740238e+01	-6.535655e+01
1.300000e-06	-2.467268e-06	-9.351379e-10	-1.711052e+01	-6.492670e+01
1.310000e-06	-2.424904e-06	-9.266793e-10	-1.681673e+01	-6.449340e+01
1.320000e-06	-2.382209e-06	-9.215791e-10	-1.652063e+01	-6.405687e+01
1.330000e-06	-2.339238e-06	-9.165607e-10	-1.622263e+01	-6.361729e+01
1.340000e-06	-2.296109e-06	-9.122477e-10	-1.592353e+01	-6.317471e+01
1.350000e-06	-2.252812e-06	-9.085519e-10	-1.562326e+01	-6.272912e+01
1.360000e-06	-2.209371e-06	-9.004331e-10	-1.532200e+01	-6.228042e+01
1.370000e-06	-2.165890e-06	-8.891617e-10	-1.502046e+01	-6.182842e+01
1.380000e-06	-2.122331e-06	-8.774715e-10	-1.471838e+01	-6.137282e+01
1.390000e-06	-2.078670e-06	-8.669530e-10	-1.441559e+01	-6.091327e+01
1.400000e-06	-2.034924e-06	-8.612390e-10	-1.411222e+01	-6.044932e+01
1.410000e-06	-1.991062e-06	-8.571768e-10	-1.380803e+01	-5.998045e+01
1.420000e-06	-1.947111e-06	-8.524818e-10	-1.350323e+01	-5.950611e+01
1.430000e-06	-1.903091e-06	-8.463161e-10	-1.319795e+01	-5.902565e+01
1.440000e-06	-1.858928e-06	-8.406444e-10	-1.289168e+01	-5.853842e+01
1.450000e-06	-1.814639e-06	-8.317841e-10	-1.258453e+01	-5.804372e+01
1.460000e-06	-1.770199e-06	-8.206599e-10	-1.227634e+01	-5.754083e+01
1.470000e-06	-1.725597e-06	-8.108649e-10	-1.196703e+01	-5.702903e+01
1.480000e-06	-1.680896e-06	-8.045989e-10	-1.165702e+01	-5.650761e+01
1.490000e-06	-1.636137e-06	-7.970853e-10	-1.134662e+01	-5.597585e+01
1.500000e-06	-1.591299e-06	-7.885920e-10	-1.103567e+01	-5.543308e+01
1.510000e-06	-1.546283e-06	-7.837379e-10	-1.072348e+01	-5.487863e+01
1.520000e-06	-1.501161e-06	-7.782965e-10	-1.041057e+01	-5.431188e+01
1.530000e-06	-1.455928e-06	-7.683928e-10	-1.009687e+01	-5.373224e+01
1.540000e-06	-1.410530e-06	-7.572742e-10	-9.782035e+00	-5.313917e+01
1.550000e-06	-1.365012e-06	-7.440385e-10	-9.466369e+00	-5.253215e+01
1.560000e-06	-1.319370e-06	-7.295019e-10	-9.149837e+00	-5.191070e+01
1.570000e-06	-1.273630e-06	-7.162573e-10	-8.832635e+00	-5.127439e+01
1.580000e-06	-1.227813e-06	-7.053558e-10	-8.514893e+00	-5.062280e+01
1.590000e-06	-1.181900e-06	-6.966403e-10	-8.196485e+00	-4.995552e+01
1.600000e-06	-1.135904e-06	-6.903077e-10	-7.877499e+00	-4.927218e+01
1.610000e-06	-1.089871e-06	-6.821165e-10	-7.558262e+00	-4.857238e+01
1.620000e-06	-1.043727e-06	-6.704328e-10	-7.238252e+00	-4.785574e+01
1.630000e-06	-9.974455e-07	-6.585372e-10	-6.917291e+00	-4.712183e+01
1.640000e-06	-9.511853e-07	-6.473955e-10	-6.596477e+00	-4.637022e+01
1.650000e-06	-9.049678e-07	-6.374771e-10	-6.275958e+00	-4.560042e+01
1.660000e-06	-8.586647e-07	-6.255426e-10	-5.954846e+00	-4.481189e+01
1.670000e-06	-8.122088e-07	-6.105353e-10	-5.632674e+00	-4.400405e+01
1.680000e-06	-7.656707e-07	-5.939972e-10	-5.309932e+00	-4.317624e+01
1.690000e-06	-7.191468e-07	-5.771064e-10	-4.987288e+00	-4.232773e+01
1.700000e-06	-6.726987e-07	-5.599525e-10	-4.665170e+00	-4.145773e+01
1.710000e-06	-6.261735e-07	-5.446788e-10	-4.342518e+00	-4.056537e+01
1.720000e-06	-5.794698e-07	-5.326130e-10	-4.018627e+00	-3.964971e+01
1.730000e-06	-5.327105e-07	-5.216514e-10	-3.694351e+00	-3.870973e+01
1.740000e-06	-4.859107e-07	-5.088785e-10	-3.369794e+00	-3.774438e+01
1.750000e-06	-4.391159e-07	-4.917218e-10	-3.045272e+00	-3.675254e+01
1.760000e-06	-3.922781e-07	-4.703233e-10	-2.720452e+00	-3.573306e+01
1.770000e-06	-3.453508e-07	-4.494272e-10	-2.395010e+00	-3.468476e+01
1.780000e-06	-2.984333e-07	-4.332209e-10	-2.069637e+00	-3.360646e+01
1.790000e-06	-2.515712e-07	-4.211572e-10	-1.744648e+00	-3.249701e+01
1.800000e-06	-2.046760e-07	-4.091416e-10	-1.419429e+00	-3.135528e+01
1.810000e-06	-1.576891e-07	-3.942540e-10	-1.093575e+00	-3.018020e+01
1.820000e-06	-1.107455e-07	-3.772558e-10	-7.680211e-01	-2.897077e+01
1.830000e-06	-6.379892e-08	-3.604920e-10	-4.424460e-01	-2.772612e+01
1.840000e-06	-1.680818e-08	-3.423734e-10	-1.165648e-01	-2.644549e+01
1.850000e-06	3.013352e-08	-3.212259e-10	2.089762e-01	-2.512827e+01
1.860000e-06	7.709895e-08	-2.994731e-10	5.346818e-01	-2.377402e+01
1.870000e-06	1.241233e-07	-2.788117e-10	8.607961e-01	-2.238250e+01
1.880000e-06	1.710735e-07	-2.594114e-10	1.186396e+00	-2.095368e+01
1.890000e-06	2.179161e-07	-2.409083e-10	1.511249e+00	-1.948773e+01
1.900000e-06	2.647675e-07	-2.210650e-10	1.836164e+00	-1.798509e+01
1.910000e-06	3.116949e-07	-2.002050e-10	2.161606e+00	-1.644644e+01
1.920000e-06	3.586176e-07	-1.794008e-10	2.487016e+00	-1.487269e+01
1.930000e-06	4.054299e-07	-1.571358e-10	2.811659e+00	-1.326503e+01
1.940000e-06	4.521068e-07	-1.331824e-10	3.135364e+00	-1.162491e+01
1.950000e-06	4.987979e-07	-1.087994e-10	3.459167e+00	-9.953997e+00
1.960000e-06	5.455409e-07	-8.541302e-11	3.783330e+00	-8.254233e+00
1.970000e-06	5.922425e-07	-6.293989e-11	4.107206e+00	-6.527773e+00
1.980000e-06	6.388333e-07	-4.135945e-11	4.430314e+00	-4.776985e+00
1.990000e-06	6.853079e-07	-1.882675e-11	4.752615e+00	-3.004434e+00
2.000000e-06	7.318163e-07	7.378699e-12	5.075151e+00	-1.212854e+00
2.010000e-06	7.783015e-07	3.781232e-11	5.397526e+00	5.948748e-01
2.020000e-06	8.247339e-07	6.938500e-11	5.719535e+00	2.415753e+00
2.030000e-06	8.710957e-07	9.811495e-11	6.041055e+00	4.246690e+00
2.040000e-06	9.173590e-07	1.222624e-10	6.361891e+00	6.084535e+00
2.050000e-06	9.636108e-07	1.444014e-10	6.682647e+00	7.926108e+00
2.060000e-06	1.009804e-06	1.649310e-10	7.002998e+00	9.768229e+00
2.070000e-06	1.055910e-06	1.859741e-10	7.322744e+00	1.160775e+01
2.080000e-06	1.101928e-06	2.125591e-10	7.641880e+00	1.344158e+01
2.090000e-06	1.147848e-06	2.428277e-10	7.960336e+00	1.526673e+01
2.100000e-06	1.193639e-06	2.710410e-10	8.277893e+00	1.708032e+01
2.110000e-06	1.239275e-06	2.960078e-10	8.594381e+00	1.887959e+01
2.120000e-06	1.284826e-06	3.188857e-10	8.910278e+00	2.066197e+01
2.130000e-06	1.330409e-06	3.379997e-10	9.226395e+00	2.242505e+01
2.140000e-06	1.375992e-06	3.556574e-10	9.542516e+00	2.416663e+01
2.150000e-06	1.421438e-06	3.779083e-10	9.857680e+00	2.588469e+01
2.160000e-06	1.466736e-06	4.058062e-10	1.017182e+01	2.757746e+01
2.170000e-06	1.511916e-06	4.339835e-10	1.048515e+01	2.924336e+01
2.180000e-06	1.557015e-06	4.590979e-10	1.079791e+01	3.088105e+01
2.190000e-06	1.602019e-06	4.825643e-10	1.111001e+01	3.248938e+01
2.200000e-06	1.646912e-06	5.021667e-10	1.142135e+01	3.406744e+01
2.210000e-06	1.691681e-06	5.176174e-10	1.173182e+01	3.561451e+01
2.220000e-06	1.736235e-06	5.338103e-10	1.204080e+01	3.713008e+01
2.230000e-06	1.780573e-06	5.513377e-10	1.234829e+01	3.861380e+01
2.240000e-06	1.824859e-06	5.700757e-10	1.265541e+01	4.006549e+01
2.250000e-06	1.869078e-06	5.901615e-10	1.296207e+01	4.148512e+01
2.260000e-06	1.913176e-06	6.116105e-10	1.326789e+01	4.287279e+01
2.270000e-06	1.957211e-06	6.324489e-10	1.357328e+01	4.422872e+01
2.280000e-06	2.001129e-06	6.514782e-10	1.387784e+01	4.555320e+01
2.290000e-06	2.044922e-06	6.683166e-10	1.418155e+01	4.684661e+01
2.300000e-06	2.088666e-06	6.823999e-10	1.448491e+01	4.810940e+01
2.310000e-06	2.132330e-06	6.967219e-10	1.478773e+01	4.934202e+01
2.320000e-06	2.175891e-06	7.136718e-10	1.508982e+01	5.054497e+01
2.330000e-06	2.219381e-06	7.307991e-10	1.539142e+01	5.171875e+01
2.340000e-06	2.262780e-06	7.466497e-10	1.569239e+01	5.286387e+01
2.350000e-06	2.306027e-06	7.629660e-10	1.599231e+01	5.398081e+01
2.360000e-06	2.349083e-06	7.795686e-10	1.629091e+01	5.507003e+01
2.370000e-06	2.391967e-06	7.934454e-10	1.658831e+01	5.613196e+01
2.380000e-06	2.434630e-06	8.065958e-10	1.688418e+01	5.716701e+01
2.390000e-06	2.476985e-06	8.201176e-10	1.717791e+01	5.817553e+01
2.400000e-06	2.518982e-06	8.323900e-10	1.746916e+01	5.915788e+01
2.410000e-06	2.560601e-06	8.458182e-10	1.775779e+01	6.011434e+01
2.420000e-06	2.601846e-06	8.608981e-10	1.804382e+01	6.104520e+01
2.430000e-06	2.642830e-06	8.753333e-10	1.832805e+01	6.195070e+01
2.440000e-06	2.683578e-06	8.869703e-10	1.861063e+01	6.283108e+01
2.450000e-06	2.724102e-06	8.971667e-10	1.889166e+01	6.368658e+01
2.460000e-06	2.764467e-06	9.087472e-10	1.917160e+01	6.451741e+01
2.470000e-06	2.804636e-06	9.217121e-10	1.945017e+01	6.532383e+01
2.480000e-06	2.844613e-06	9.344062e-10	1.972741e+01	6.610608e+01
2.490000e-06	2.884428e-06	9.471221e-10	2.000353e+01	6.686444e+01
2.500000e-06	2.924055e-06	9.606987e-10	2.027834e+01	6.759922e+01
2.510000e-06	2.963539e-06	9.712608e-10	2.055216e+01	6.831078e+01
2.520000e-06	3.002916e-06	9.797363e-10	2.082524e+01	6.899950e+01
2.530000e-06	3.042058e-06	9.884139e-10	2.109669e+01	6.966583e+01
2.540000e-06	3.080929e-06	9.968698e-10	2.136626e+01	7.031027e+01
2.550000e-06	3.119602e-06	1.004632e-09	2.163446e+01	7.093335e+01
2.560000e-06	3.158087e-06	1.011793e-09	2.190136e+01	7.153566e+01
2.570000e-06	3.196423e-06	1.019815e-09	2.216722e+01	7.211786e+01
2.580000e-06	3.234511e-06	1.026640e-09	2.243135e+01	7.268064e+01
2.590000e-06	3.272330e-06	1.035052e-09	2.269363e+01	7.322473e+01
2.600000e-06	3.309971e-06	1.043092e-09	2.295467e+01	7.375089e+01
2.610000e-06	3.347436e-06	1.049992e-09	2.321449e+01	7.425992e+01
2.620000e-06	3.384653e-06	1.056951e-09	2.347259e+01	7.475263e+01
2.630000e-06	3.421539e-06	1.062721e-09	2.372840e+01	7.522985e+01
2.640000e-06	3.458212e-06	1.067280e-09	2.398273e+01	7.569240e+01
2.650000e-06	3.494673e-06	1.072363e-09	2.423558e+01	7.614109e+01
2.660000e-06	3.530873e-06	1.078842e-09	2.448663e+01	7.657672e+01
2.670000e-06	3.566850e-06	1.085639e-09	2.473613e+01	7.700006e+01
2.680000e-06	3.602631e-06	1.091971e-09	2.498427e+01	7.741183e+01
2.690000e-06	3.638291e-06	1.098859e-09	2.523157e+01	7.781273e+01
2.700000e-06	3.673847e-06	1.104218e-09	2.547816e+01	7.820338e+01
2.710000e-06	3.709272e-06	1.107178e-09	2.572383e+01	7.858437e+01
2.720000e-06	3.744503e-06	1.112249e-09	2.596815e+01	7.895620e+01
2.730000e-06	3.779480e-06	1.118489e-09	2.621072e+01	7.931931e+01
2.740000e-06	3.814127e-06	1.123616e-09	2.645100e+01	7.967410e+01
2.750000e-06	3.848327e-06	1.129379e-09	2.668817e+01	8.002087e+01
2.760000e-06	3.881973e-06	1.136335e-09	2.692151e+01	8.035987e+01
2.770000e-06	3.915100e-06	1.141391e-09	2.715125e+01	8.069128e+01
2.780000e-06	3.947846e-06	1.144655e-09	2.737834e+01	8.101523e+01
2.790000e-06	3.980205e-06	1.149526e-09	2.760275e+01	8.133180e+01
2.800000e-06	4.012240e-06	1.157002e-09	2.782491e+01	8.164101e+01
2.810000e-06	4.044066e-06	1.162458e-09	2.804563e+01	8.194285e+01
2.820000e-06	4.075763e-06	1.166686e-09	2.826545e+01	8.223728e+01
2.830000e-06	4.107340e-06	1.170341e-09	2.848443e+01	8.252424e+01
2.840000e-06	4.138670e-06	1.171412e-09	2.870171e+01	8.280365e+01
2.850000e-06	4.169711e-06	1.171136e-09	2.891697e+01	8.307546e+01
2.860000e-06	4.200431e-06	1.174912e-09	2.913002e+01	8.333957e+01
2.870000e-06	4.230808e-06	1.182905e-09	2.934068e+01	8.359595e+01
2.880000e-06	4.260868e-06	1.191031e-09	2.954915e+01	8.384456e+01
2.890000e-06	4.290656e-06	1.197815e-09	2.975573e+01	8.408539e+01
2.900000e-06	4.320210e-06	1.203178e-09	2.996068e+01	8.431849e+01
