# Temperatura_=_10.72
# Concentracion g/m^3_=_1620.0
# C_Vs_to_Am_M_A/Vsm_=_65563218390.804596
# pendiente_HvsI_1/m_=_3716.3
# ordenada_HvsI_A/m_=_1297.0
# frecuencia_Hz_=_135102.77329523218

Tiempo_(s)	Campo_(V.s)	Magnetizacion_(V.s)	Campo_(kA/m)	Magnetizacion_(A/m)
0.000000e+00	-5.529025e-06	-1.408756e-09	-3.836615e+01	-9.524636e+01
1.000000e-08	-5.529197e-06	-1.406881e-09	-3.836734e+01	-9.519062e+01
2.000000e-08	-5.529104e-06	-1.404147e-09	-3.836669e+01	-9.513580e+01
3.000000e-08	-5.528671e-06	-1.402787e-09	-3.836369e+01	-9.508277e+01
4.000000e-08	-5.527839e-06	-1.398087e-09	-3.835792e+01	-9.503234e+01
5.000000e-08	-5.526540e-06	-1.389201e-09	-3.834891e+01	-9.498530e+01
6.000000e-08	-5.524601e-06	-1.377178e-09	-3.833545e+01	-9.494232e+01
7.000000e-08	-5.522008e-06	-1.375413e-09	-3.831745e+01	-9.490399e+01
8.000000e-08	-5.518875e-06	-1.397934e-09	-3.829571e+01	-9.487079e+01
9.000000e-08	-5.515213e-06	-1.414046e-09	-3.827030e+01	-9.484305e+01
1.000000e-07	-5.511078e-06	-1.386082e-09	-3.824161e+01	-9.482098e+01
1.100000e-07	-5.506712e-06	-1.377312e-09	-3.821131e+01	-9.480462e+01
1.200000e-07	-5.502245e-06	-1.372922e-09	-3.818032e+01	-9.479386e+01
1.300000e-07	-5.497565e-06	-1.386050e-09	-3.814784e+01	-9.478843e+01
1.400000e-07	-5.492429e-06	-1.352011e-09	-3.811220e+01	-9.478791e+01
1.500000e-07	-5.486842e-06	-1.351750e-09	-3.807344e+01	-9.479170e+01
1.600000e-07	-5.480945e-06	-1.373396e-09	-3.803252e+01	-9.479908e+01
1.700000e-07	-5.474558e-06	-1.396206e-09	-3.798820e+01	-9.480915e+01
1.800000e-07	-5.467663e-06	-1.399542e-09	-3.794035e+01	-9.482092e+01
1.900000e-07	-5.460489e-06	-1.406601e-09	-3.789057e+01	-9.483328e+01
2.000000e-07	-5.453002e-06	-1.417252e-09	-3.783862e+01	-9.484501e+01
2.100000e-07	-5.445164e-06	-1.401906e-09	-3.778423e+01	-9.485485e+01
2.200000e-07	-5.437152e-06	-1.397899e-09	-3.772864e+01	-9.486147e+01
2.300000e-07	-5.428962e-06	-1.399642e-09	-3.767180e+01	-9.486351e+01
2.400000e-07	-5.420290e-06	-1.424550e-09	-3.761163e+01	-9.485965e+01
2.500000e-07	-5.410881e-06	-1.428545e-09	-3.754634e+01	-9.484856e+01
2.600000e-07	-5.400749e-06	-1.431381e-09	-3.747603e+01	-9.482899e+01
2.700000e-07	-5.390079e-06	-1.402369e-09	-3.740199e+01	-9.479974e+01
2.800000e-07	-5.378940e-06	-1.394427e-09	-3.732470e+01	-9.475974e+01
2.900000e-07	-5.367356e-06	-1.390145e-09	-3.724432e+01	-9.470804e+01
3.000000e-07	-5.355427e-06	-1.401090e-09	-3.716154e+01	-9.464380e+01
3.100000e-07	-5.343116e-06	-1.388206e-09	-3.707611e+01	-9.456639e+01
3.200000e-07	-5.330333e-06	-1.410960e-09	-3.698742e+01	-9.447533e+01
3.300000e-07	-5.317141e-06	-1.431483e-09	-3.689588e+01	-9.437031e+01
3.400000e-07	-5.303618e-06	-1.432286e-09	-3.680204e+01	-9.425123e+01
3.500000e-07	-5.289634e-06	-1.406354e-09	-3.670500e+01	-9.411818e+01
3.600000e-07	-5.275205e-06	-1.411439e-09	-3.660488e+01	-9.397145e+01
3.700000e-07	-5.260357e-06	-1.399221e-09	-3.650185e+01	-9.381150e+01
3.800000e-07	-5.244865e-06	-1.375187e-09	-3.639435e+01	-9.363899e+01
3.900000e-07	-5.228826e-06	-1.381318e-09	-3.628305e+01	-9.345474e+01
4.000000e-07	-5.212493e-06	-1.404951e-09	-3.616971e+01	-9.325971e+01
4.100000e-07	-5.195845e-06	-1.385262e-09	-3.605419e+01	-9.305501e+01
4.200000e-07	-5.178859e-06	-1.368035e-09	-3.593633e+01	-9.284185e+01
4.300000e-07	-5.161552e-06	-1.400273e-09	-3.581623e+01	-9.262155e+01
4.400000e-07	-5.143963e-06	-1.395778e-09	-3.569418e+01	-9.239547e+01
4.500000e-07	-5.126006e-06	-1.358706e-09	-3.556958e+01	-9.216500e+01
4.600000e-07	-5.107486e-06	-1.362660e-09	-3.544107e+01	-9.193158e+01
4.700000e-07	-5.088519e-06	-1.383637e-09	-3.530946e+01	-9.169659e+01
4.800000e-07	-5.069281e-06	-1.346499e-09	-3.517596e+01	-9.146139e+01
4.900000e-07	-5.049752e-06	-1.345662e-09	-3.504045e+01	-9.122726e+01
5.000000e-07	-5.030014e-06	-1.379616e-09	-3.490348e+01	-9.099539e+01
5.100000e-07	-5.010150e-06	-1.371292e-09	-3.476565e+01	-9.076685e+01
5.200000e-07	-4.989987e-06	-1.336038e-09	-3.462574e+01	-9.054259e+01
5.300000e-07	-4.969405e-06	-1.362800e-09	-3.448292e+01	-9.032339e+01
5.400000e-07	-4.948459e-06	-1.361953e-09	-3.433757e+01	-9.010989e+01
5.500000e-07	-4.927183e-06	-1.323586e-09	-3.418994e+01	-8.990252e+01
5.600000e-07	-4.905554e-06	-1.320665e-09	-3.403985e+01	-8.970157e+01
5.700000e-07	-4.883557e-06	-1.345016e-09	-3.388721e+01	-8.950713e+01
5.800000e-07	-4.861249e-06	-1.318960e-09	-3.373242e+01	-8.931911e+01
5.900000e-07	-4.838640e-06	-1.315339e-09	-3.357554e+01	-8.913725e+01
6.000000e-07	-4.815699e-06	-1.342628e-09	-3.341635e+01	-8.896113e+01
6.100000e-07	-4.792430e-06	-1.336612e-09	-3.325488e+01	-8.879016e+01
6.200000e-07	-4.768856e-06	-1.308566e-09	-3.309130e+01	-8.862365e+01
6.300000e-07	-4.745028e-06	-1.320218e-09	-3.292596e+01	-8.846074e+01
6.400000e-07	-4.720996e-06	-1.320636e-09	-3.275920e+01	-8.830052e+01
6.500000e-07	-4.696641e-06	-1.297445e-09	-3.259020e+01	-8.814198e+01
6.600000e-07	-4.671843e-06	-1.298908e-09	-3.241812e+01	-8.798405e+01
6.700000e-07	-4.646549e-06	-1.314317e-09	-3.224261e+01	-8.782565e+01
6.800000e-07	-4.620697e-06	-1.303035e-09	-3.206322e+01	-8.766568e+01
6.900000e-07	-4.594322e-06	-1.297586e-09	-3.188020e+01	-8.750305e+01
7.000000e-07	-4.567491e-06	-1.310053e-09	-3.169402e+01	-8.733672e+01
7.100000e-07	-4.540265e-06	-1.299565e-09	-3.150509e+01	-8.716571e+01
7.200000e-07	-4.512681e-06	-1.279696e-09	-3.131369e+01	-8.698912e+01
7.300000e-07	-4.484892e-06	-1.279456e-09	-3.112086e+01	-8.680614e+01
7.400000e-07	-4.456991e-06	-1.282195e-09	-3.092726e+01	-8.661607e+01
7.500000e-07	-4.428892e-06	-1.272315e-09	-3.073227e+01	-8.641832e+01
7.600000e-07	-4.400517e-06	-1.276094e-09	-3.053538e+01	-8.621244e+01
7.700000e-07	-4.371858e-06	-1.279903e-09	-3.033651e+01	-8.599812e+01
7.800000e-07	-4.342883e-06	-1.271503e-09	-3.013545e+01	-8.577516e+01
7.900000e-07	-4.313599e-06	-1.260858e-09	-2.993225e+01	-8.554352e+01
8.000000e-07	-4.284000e-06	-1.261689e-09	-2.972686e+01	-8.530326e+01
8.100000e-07	-4.254056e-06	-1.250809e-09	-2.951908e+01	-8.505458e+01
8.200000e-07	-4.223836e-06	-1.243646e-09	-2.930939e+01	-8.479778e+01
8.300000e-07	-4.193368e-06	-1.245524e-09	-2.909797e+01	-8.453324e+01
8.400000e-07	-4.162575e-06	-1.245548e-09	-2.888429e+01	-8.426145e+01
8.500000e-07	-4.131470e-06	-1.236337e-09	-2.866845e+01	-8.398294e+01
8.600000e-07	-4.100145e-06	-1.236500e-09	-2.845108e+01	-8.369831e+01
8.700000e-07	-4.068612e-06	-1.229674e-09	-2.823227e+01	-8.340815e+01
8.800000e-07	-4.036954e-06	-1.217857e-09	-2.801260e+01	-8.311310e+01
8.900000e-07	-4.005158e-06	-1.211924e-09	-2.779197e+01	-8.281376e+01
9.000000e-07	-3.973107e-06	-1.211828e-09	-2.756956e+01	-8.251073e+01
9.100000e-07	-3.940735e-06	-1.204300e-09	-2.734493e+01	-8.220455e+01
9.200000e-07	-3.908045e-06	-1.202527e-09	-2.711810e+01	-8.189570e+01
9.300000e-07	-3.874963e-06	-1.204988e-09	-2.688853e+01	-8.158460e+01
9.400000e-07	-3.841364e-06	-1.200071e-09	-2.665539e+01	-8.127160e+01
9.500000e-07	-3.807225e-06	-1.193050e-09	-2.641850e+01	-8.095693e+01
9.600000e-07	-3.772682e-06	-1.191680e-09	-2.617881e+01	-8.064076e+01
9.700000e-07	-3.737772e-06	-1.183122e-09	-2.593656e+01	-8.032314e+01
9.800000e-07	-3.702511e-06	-1.169733e-09	-2.569188e+01	-8.000403e+01
9.900000e-07	-3.667030e-06	-1.165443e-09	-2.544568e+01	-7.968332e+01
1.000000e-06	-3.631399e-06	-1.163743e-09	-2.519844e+01	-7.936078e+01
1.010000e-06	-3.595638e-06	-1.156322e-09	-2.495029e+01	-7.903611e+01
1.020000e-06	-3.559694e-06	-1.150935e-09	-2.470087e+01	-7.870895e+01
1.030000e-06	-3.523612e-06	-1.151682e-09	-2.445050e+01	-7.837888e+01
1.040000e-06	-3.487419e-06	-1.146470e-09	-2.419936e+01	-7.804543e+01
1.050000e-06	-3.450922e-06	-1.138293e-09	-2.394610e+01	-7.770810e+01
1.060000e-06	-3.414019e-06	-1.129788e-09	-2.369003e+01	-7.736639e+01
1.070000e-06	-3.376812e-06	-1.120424e-09	-2.343184e+01	-7.701978e+01
1.080000e-06	-3.339405e-06	-1.111979e-09	-2.317228e+01	-7.666779e+01
1.090000e-06	-3.301818e-06	-1.113646e-09	-2.291146e+01	-7.630996e+01
1.100000e-06	-3.264058e-06	-1.112577e-09	-2.264944e+01	-7.594587e+01
1.110000e-06	-3.226046e-06	-1.105071e-09	-2.238567e+01	-7.557518e+01
1.120000e-06	-3.187767e-06	-1.098458e-09	-2.212006e+01	-7.519759e+01
1.130000e-06	-3.149297e-06	-1.095771e-09	-2.185311e+01	-7.481291e+01
1.140000e-06	-3.110621e-06	-1.084211e-09	-2.158473e+01	-7.442102e+01
1.150000e-06	-3.071770e-06	-1.071039e-09	-2.131515e+01	-7.402189e+01
1.160000e-06	-3.032765e-06	-1.062392e-09	-2.104449e+01	-7.361558e+01
1.170000e-06	-2.993548e-06	-1.056292e-09	-2.077236e+01	-7.320225e+01
1.180000e-06	-2.954014e-06	-1.049593e-09	-2.049803e+01	-7.278214e+01
1.190000e-06	-2.914338e-06	-1.046992e-09	-2.022272e+01	-7.235557e+01
1.200000e-06	-2.874657e-06	-1.041561e-09	-1.994737e+01	-7.192292e+01
1.210000e-06	-2.834843e-06	-1.029829e-09	-1.967110e+01	-7.148467e+01
1.220000e-06	-2.794852e-06	-1.019842e-09	-1.939360e+01	-7.104131e+01
1.230000e-06	-2.754701e-06	-1.016138e-09	-1.911499e+01	-7.059339e+01
1.240000e-06	-2.714464e-06	-1.011830e-09	-1.883578e+01	-7.014146e+01
1.250000e-06	-2.674044e-06	-1.008990e-09	-1.855531e+01	-6.968609e+01
1.260000e-06	-2.633315e-06	-1.007111e-09	-1.827269e+01	-6.922783e+01
1.270000e-06	-2.592303e-06	-9.989254e-10	-1.798810e+01	-6.876721e+01
1.280000e-06	-2.550975e-06	-9.870758e-10	-1.770133e+01	-6.830470e+01
1.290000e-06	-2.509415e-06	-9.780327e-10	-1.741294e+01	-6.784070e+01
1.300000e-06	-2.467588e-06	-9.697578e-10	-1.712270e+01	-6.737558e+01
1.310000e-06	-2.425383e-06	-9.589599e-10	-1.682984e+01	-6.690956e+01
1.320000e-06	-2.382806e-06	-9.508813e-10	-1.653439e+01	-6.644280e+01
1.330000e-06	-2.339941e-06	-9.447467e-10	-1.623695e+01	-6.597535e+01
1.340000e-06	-2.296868e-06	-9.369712e-10	-1.593807e+01	-6.550713e+01
1.350000e-06	-2.253587e-06	-9.279962e-10	-1.563774e+01	-6.503794e+01
1.360000e-06	-2.210155e-06	-9.183562e-10	-1.533636e+01	-6.456748e+01
1.370000e-06	-2.166627e-06	-9.063505e-10	-1.503432e+01	-6.409530e+01
1.380000e-06	-2.122982e-06	-8.943037e-10	-1.473147e+01	-6.362087e+01
1.390000e-06	-2.079209e-06	-8.859495e-10	-1.442772e+01	-6.314352e+01
1.400000e-06	-2.035379e-06	-8.829829e-10	-1.412358e+01	-6.266250e+01
1.410000e-06	-1.991502e-06	-8.773783e-10	-1.381912e+01	-6.217694e+01
1.420000e-06	-1.947562e-06	-8.686931e-10	-1.351422e+01	-6.168593e+01
1.430000e-06	-1.903543e-06	-8.605241e-10	-1.320877e+01	-6.118847e+01
1.440000e-06	-1.859441e-06	-8.528090e-10	-1.290274e+01	-6.068350e+01
1.450000e-06	-1.815219e-06	-8.413273e-10	-1.259588e+01	-6.016996e+01
1.460000e-06	-1.770869e-06	-8.297985e-10	-1.228814e+01	-5.964674e+01
1.470000e-06	-1.726425e-06	-8.178168e-10	-1.197974e+01	-5.911274e+01
1.480000e-06	-1.681819e-06	-8.055665e-10	-1.167021e+01	-5.856688e+01
1.490000e-06	-1.636990e-06	-7.942526e-10	-1.135915e+01	-5.800809e+01
1.500000e-06	-1.592009e-06	-7.857286e-10	-1.104702e+01	-5.743535e+01
1.510000e-06	-1.546947e-06	-7.791438e-10	-1.073433e+01	-5.684769e+01
1.520000e-06	-1.501781e-06	-7.731843e-10	-1.042092e+01	-5.624420e+01
1.530000e-06	-1.456471e-06	-7.658427e-10	-1.010652e+01	-5.562405e+01
1.540000e-06	-1.411070e-06	-7.573101e-10	-9.791474e+00	-5.498647e+01
1.550000e-06	-1.365657e-06	-7.486258e-10	-9.476355e+00	-5.433078e+01
1.560000e-06	-1.320127e-06	-7.393731e-10	-9.160416e+00	-5.365638e+01
1.570000e-06	-1.274479e-06	-7.274576e-10	-8.843664e+00	-5.296274e+01
1.580000e-06	-1.228769e-06	-7.129180e-10	-8.526483e+00	-5.224942e+01
1.590000e-06	-1.182977e-06	-6.992563e-10	-8.208727e+00	-5.151603e+01
1.600000e-06	-1.137105e-06	-6.893916e-10	-7.890418e+00	-5.076226e+01
1.610000e-06	-1.091098e-06	-6.803801e-10	-7.571177e+00	-4.998784e+01
1.620000e-06	-1.044988e-06	-6.691345e-10	-7.251216e+00	-4.919254e+01
1.630000e-06	-9.987912e-07	-6.577474e-10	-6.930656e+00	-4.837618e+01
1.640000e-06	-9.525134e-07	-6.463784e-10	-6.609532e+00	-4.753857e+01
1.650000e-06	-9.062119e-07	-6.325750e-10	-6.288244e+00	-4.667954e+01
1.660000e-06	-8.598691e-07	-6.172417e-10	-5.966669e+00	-4.579890e+01
1.670000e-06	-8.134827e-07	-6.023704e-10	-5.644792e+00	-4.489645e+01
1.680000e-06	-7.669991e-07	-5.866929e-10	-5.322240e+00	-4.397196e+01
1.690000e-06	-7.204402e-07	-5.712872e-10	-4.999166e+00	-4.302514e+01
1.700000e-06	-6.739191e-07	-5.560936e-10	-4.676354e+00	-4.205568e+01
1.710000e-06	-6.274301e-07	-5.419376e-10	-4.353765e+00	-4.106317e+01
1.720000e-06	-5.808587e-07	-5.272840e-10	-4.030604e+00	-4.004719e+01
1.730000e-06	-5.342063e-07	-5.124907e-10	-3.706881e+00	-3.900722e+01
1.740000e-06	-4.874351e-07	-4.962133e-10	-3.382334e+00	-3.794269e+01
1.750000e-06	-4.406072e-07	-4.764372e-10	-3.057393e+00	-3.685297e+01
1.760000e-06	-3.938586e-07	-4.535401e-10	-2.733002e+00	-3.573740e+01
1.770000e-06	-3.471268e-07	-4.334526e-10	-2.408728e+00	-3.459524e+01
1.780000e-06	-3.003223e-07	-4.181154e-10	-2.083950e+00	-3.342574e+01
1.790000e-06	-2.534665e-07	-4.043062e-10	-1.758815e+00	-3.222814e+01
1.800000e-06	-2.066481e-07	-3.892386e-10	-1.433940e+00	-3.100167e+01
1.810000e-06	-1.598327e-07	-3.718025e-10	-1.109086e+00	-2.974556e+01
1.820000e-06	-1.129786e-07	-3.523334e-10	-7.839634e-01	-2.845910e+01
1.830000e-06	-6.601007e-08	-3.323851e-10	-4.580467e-01	-2.714162e+01
1.840000e-06	-1.898686e-08	-3.140007e-10	-1.317506e-01	-2.579253e+01
1.850000e-06	2.797853e-08	-2.963936e-10	1.941443e-01	-2.441133e+01
1.860000e-06	7.482412e-08	-2.769599e-10	5.192078e-01	-2.299765e+01
1.870000e-06	1.216042e-07	-2.553551e-10	8.438166e-01	-2.155123e+01
1.880000e-06	1.684559e-07	-2.343308e-10	1.168923e+00	-2.007199e+01
1.890000e-06	2.152612e-07	-2.153342e-10	1.493707e+00	-1.856001e+01
1.900000e-06	2.619914e-07	-1.949406e-10	1.817970e+00	-1.701556e+01
1.910000e-06	3.087423e-07	-1.720645e-10	2.142376e+00	-1.543910e+01
1.920000e-06	3.554704e-07	-1.498686e-10	2.466624e+00	-1.383131e+01
1.930000e-06	4.022023e-07	-1.273080e-10	2.790899e+00	-1.219307e+01
1.940000e-06	4.489447e-07	-1.038332e-10	3.115247e+00	-1.052549e+01
1.950000e-06	4.956694e-07	-8.031484e-11	3.439472e+00	-8.829888e+00
1.960000e-06	5.423532e-07	-5.811910e-11	3.763412e+00	-7.107806e+00
1.970000e-06	5.888813e-07	-3.517933e-11	4.086273e+00	-5.360989e+00
1.980000e-06	6.352998e-07	-1.066886e-11	4.408373e+00	-3.591382e+00
1.990000e-06	6.817065e-07	1.380099e-11	4.730391e+00	-1.801117e+00
2.000000e-06	7.281536e-07	3.971919e-11	5.052690e+00	7.505851e-03
2.010000e-06	7.746307e-07	6.760459e-11	5.375197e+00	1.832034e+00
2.020000e-06	8.210246e-07	9.552975e-11	5.697126e+00	3.669886e+00
2.030000e-06	8.673010e-07	1.225858e-10	6.018240e+00	5.518369e+00
2.040000e-06	9.135024e-07	1.460516e-10	6.338833e+00	7.374709e+00
2.050000e-06	9.596131e-07	1.679122e-10	6.658797e+00	9.236075e+00
2.060000e-06	1.005675e-06	1.924274e-10	6.978423e+00	1.109960e+01
2.070000e-06	1.051715e-06	2.183168e-10	7.297899e+00	1.296242e+01
2.080000e-06	1.097676e-06	2.453547e-10	7.616823e+00	1.482168e+01
2.090000e-06	1.143598e-06	2.739544e-10	7.935479e+00	1.667457e+01
2.100000e-06	1.189482e-06	3.008668e-10	8.253870e+00	1.851837e+01
2.110000e-06	1.235214e-06	3.256599e-10	8.571202e+00	2.035044e+01
2.120000e-06	1.280802e-06	3.503909e-10	8.887542e+00	2.216824e+01
2.130000e-06	1.326316e-06	3.724305e-10	9.203366e+00	2.396939e+01
2.140000e-06	1.371758e-06	3.921809e-10	9.518688e+00	2.575163e+01
2.150000e-06	1.417090e-06	4.138727e-10	9.833251e+00	2.751289e+01
2.160000e-06	1.462296e-06	4.384414e-10	1.014694e+01	2.925126e+01
2.170000e-06	1.507435e-06	4.639193e-10	1.046015e+01	3.096501e+01
2.180000e-06	1.552379e-06	4.884474e-10	1.077203e+01	3.265260e+01
2.190000e-06	1.597172e-06	5.112404e-10	1.108284e+01	3.431267e+01
2.200000e-06	1.641944e-06	5.316820e-10	1.139352e+01	3.594406e+01
2.210000e-06	1.686584e-06	5.493990e-10	1.170328e+01	3.754580e+01
2.220000e-06	1.731104e-06	5.654119e-10	1.201220e+01	3.911707e+01
2.230000e-06	1.775591e-06	5.824383e-10	1.232091e+01	4.065726e+01
2.240000e-06	1.819907e-06	6.011278e-10	1.262842e+01	4.216589e+01
2.250000e-06	1.864063e-06	6.196553e-10	1.293482e+01	4.364263e+01
2.260000e-06	1.908144e-06	6.410683e-10	1.324070e+01	4.508732e+01
2.270000e-06	1.952122e-06	6.641334e-10	1.354586e+01	4.649988e+01
2.280000e-06	1.996066e-06	6.859433e-10	1.385079e+01	4.788037e+01
2.290000e-06	2.039948e-06	7.045246e-10	1.415529e+01	4.922893e+01
2.300000e-06	2.083738e-06	7.194493e-10	1.445915e+01	5.054579e+01
2.310000e-06	2.127450e-06	7.323180e-10	1.476247e+01	5.183123e+01
2.320000e-06	2.171066e-06	7.458183e-10	1.506512e+01	5.308559e+01
2.330000e-06	2.214587e-06	7.614203e-10	1.536711e+01	5.430926e+01
2.340000e-06	2.258032e-06	7.771073e-10	1.566858e+01	5.550264e+01
2.350000e-06	2.301369e-06	7.951859e-10	1.596930e+01	5.666615e+01
2.360000e-06	2.344514e-06	8.128622e-10	1.626868e+01	5.780024e+01
2.370000e-06	2.387376e-06	8.265486e-10	1.656611e+01	5.890532e+01
2.380000e-06	2.429841e-06	8.375935e-10	1.686077e+01	5.998185e+01
2.390000e-06	2.471958e-06	8.485535e-10	1.715302e+01	6.103023e+01
2.400000e-06	2.513780e-06	8.608017e-10	1.744323e+01	6.205089e+01
2.410000e-06	2.555233e-06	8.762341e-10	1.773087e+01	6.304421e+01
2.420000e-06	2.596341e-06	8.932812e-10	1.801612e+01	6.401060e+01
2.430000e-06	2.637231e-06	9.081788e-10	1.829986e+01	6.495041e+01
2.440000e-06	2.677970e-06	9.203070e-10	1.858255e+01	6.586404e+01
2.450000e-06	2.718509e-06	9.307063e-10	1.886385e+01	6.675183e+01
2.460000e-06	2.758851e-06	9.402764e-10	1.914379e+01	6.761416e+01
2.470000e-06	2.799010e-06	9.487620e-10	1.942245e+01	6.845138e+01
2.480000e-06	2.838949e-06	9.584072e-10	1.969959e+01	6.926387e+01
2.490000e-06	2.878760e-06	9.709442e-10	1.997584e+01	7.005202e+01
2.500000e-06	2.918491e-06	9.834859e-10	2.025154e+01	7.081622e+01
2.510000e-06	2.958031e-06	9.951721e-10	2.052591e+01	7.155690e+01
2.520000e-06	2.997424e-06	1.006119e-09	2.079926e+01	7.227451e+01
2.530000e-06	3.036635e-06	1.015845e-09	2.107134e+01	7.296951e+01
2.540000e-06	3.075634e-06	1.023270e-09	2.134196e+01	7.364239e+01
2.550000e-06	3.114454e-06	1.028836e-09	2.161133e+01	7.429370e+01
2.560000e-06	3.153007e-06	1.036814e-09	2.187885e+01	7.492397e+01
2.570000e-06	3.191324e-06	1.046864e-09	2.214473e+01	7.553381e+01
2.580000e-06	3.229446e-06	1.057713e-09	2.240927e+01	7.612381e+01
2.590000e-06	3.267319e-06	1.068831e-09	2.267207e+01	7.669462e+01
2.600000e-06	3.304941e-06	1.078790e-09	2.293313e+01	7.724688e+01
2.610000e-06	3.342385e-06	1.086092e-09	2.319296e+01	7.778128e+01
2.620000e-06	3.379635e-06	1.090295e-09	2.345144e+01	7.829849e+01
2.630000e-06	3.416577e-06	1.093955e-09	2.370778e+01	7.879922e+01
2.640000e-06	3.453274e-06	1.098150e-09	2.396242e+01	7.928415e+01
2.650000e-06	3.489739e-06	1.103034e-09	2.421545e+01	7.975399e+01
2.660000e-06	3.525945e-06	1.110563e-09	2.446669e+01	8.020941e+01
2.670000e-06	3.561987e-06	1.119352e-09	2.471678e+01	8.065109e+01
2.680000e-06	3.597872e-06	1.127335e-09	2.496579e+01	8.107969e+01
2.690000e-06	3.633621e-06	1.132899e-09	2.521385e+01	8.149583e+01
2.700000e-06	3.669266e-06	1.137780e-09	2.546120e+01	8.190013e+01
2.710000e-06	3.704700e-06	1.142359e-09	2.570708e+01	8.229316e+01
2.720000e-06	3.739812e-06	1.146804e-09	2.595072e+01	8.267547e+01
2.730000e-06	3.774624e-06	1.153189e-09	2.619228e+01	8.304758e+01
2.740000e-06	3.809097e-06	1.159741e-09	2.643149e+01	8.340995e+01
2.750000e-06	3.843148e-06	1.164995e-09	2.666777e+01	8.376303e+01
2.760000e-06	3.876763e-06	1.170456e-09	2.690103e+01	8.410724e+01
2.770000e-06	3.909859e-06	1.176397e-09	2.713068e+01	8.444295e+01
2.780000e-06	3.942489e-06	1.181893e-09	2.735710e+01	8.477050e+01
2.790000e-06	3.974813e-06	1.187449e-09	2.758140e+01	8.509021e+01
2.800000e-06	4.006912e-06	1.192939e-09	2.780413e+01	8.540236e+01
2.810000e-06	4.038810e-06	1.196782e-09	2.802548e+01	8.570723e+01
2.820000e-06	4.070528e-06	1.201008e-09	2.824557e+01	8.600505e+01
2.830000e-06	4.102095e-06	1.206856e-09	2.846461e+01	8.629606e+01
2.840000e-06	4.133413e-06	1.211587e-09	2.868193e+01	8.658046e+01
2.850000e-06	4.164490e-06	1.215746e-09	2.889758e+01	8.685847e+01
2.860000e-06	4.195263e-06	1.222478e-09	2.911111e+01	8.713027e+01
2.870000e-06	4.225621e-06	1.230271e-09	2.932177e+01	8.739605e+01
2.880000e-06	4.255684e-06	1.234527e-09	2.953037e+01	8.765600e+01
2.890000e-06	4.285542e-06	1.238026e-09	2.973756e+01	8.791030e+01
2.900000e-06	4.315145e-06	1.243987e-09	2.994298e+01	8.815913e+01
