# Temperatura_=_14.7
# Concentracion g/m^3_=_1620.0
# C_Vs_to_Am_M_A/Vsm_=_65563218390.804596
# pendiente_HvsI_1/m_=_3716.3
# ordenada_HvsI_A/m_=_1297.0
# frecuencia_Hz_=_135100.29219565546

Tiempo_(s)	Campo_(V.s)	Magnetizacion_(V.s)	Campo_(kA/m)	Magnetizacion_(A/m)
0.000000e+00	-5.533328e-06	-1.501603e-09	-3.836790e+01	-9.960122e+01
1.000000e-08	-5.533548e-06	-1.500701e-09	-3.836943e+01	-9.955961e+01
2.000000e-08	-5.533521e-06	-1.499672e-09	-3.836924e+01	-9.951473e+01
3.000000e-08	-5.533151e-06	-1.499319e-09	-3.836668e+01	-9.946679e+01
4.000000e-08	-5.532452e-06	-1.498073e-09	-3.836183e+01	-9.941606e+01
5.000000e-08	-5.531314e-06	-1.493129e-09	-3.835394e+01	-9.936282e+01
6.000000e-08	-5.529522e-06	-1.481505e-09	-3.834152e+01	-9.930736e+01
7.000000e-08	-5.527020e-06	-1.461247e-09	-3.832417e+01	-9.924998e+01
8.000000e-08	-5.523883e-06	-1.477491e-09	-3.830242e+01	-9.919098e+01
9.000000e-08	-5.520203e-06	-1.543895e-09	-3.827690e+01	-9.913065e+01
1.000000e-07	-5.516127e-06	-1.562704e-09	-3.824863e+01	-9.906924e+01
1.100000e-07	-5.511746e-06	-1.479599e-09	-3.821826e+01	-9.900701e+01
1.200000e-07	-5.507177e-06	-1.446007e-09	-3.818657e+01	-9.894417e+01
1.300000e-07	-5.502450e-06	-1.455616e-09	-3.815380e+01	-9.888090e+01
1.400000e-07	-5.497417e-06	-1.524539e-09	-3.811890e+01	-9.881732e+01
1.500000e-07	-5.491915e-06	-1.471702e-09	-3.808075e+01	-9.875353e+01
1.600000e-07	-5.485999e-06	-1.454269e-09	-3.803973e+01	-9.868955e+01
1.700000e-07	-5.479690e-06	-1.479554e-09	-3.799598e+01	-9.862536e+01
1.800000e-07	-5.472877e-06	-1.522963e-09	-3.794874e+01	-9.856088e+01
1.900000e-07	-5.465658e-06	-1.529021e-09	-3.789869e+01	-9.849597e+01
2.000000e-07	-5.458267e-06	-1.478851e-09	-3.784743e+01	-9.843044e+01
2.100000e-07	-5.450581e-06	-1.471417e-09	-3.779414e+01	-9.836404e+01
2.200000e-07	-5.442563e-06	-1.479027e-09	-3.773855e+01	-9.829647e+01
2.300000e-07	-5.434330e-06	-1.511979e-09	-3.768146e+01	-9.822739e+01
2.400000e-07	-5.425730e-06	-1.485388e-09	-3.762183e+01	-9.815640e+01
2.500000e-07	-5.416526e-06	-1.499021e-09	-3.755801e+01	-9.808309e+01
2.600000e-07	-5.406575e-06	-1.487240e-09	-3.748900e+01	-9.800700e+01
2.700000e-07	-5.395987e-06	-1.487956e-09	-3.741559e+01	-9.792767e+01
2.800000e-07	-5.384768e-06	-1.446550e-09	-3.733780e+01	-9.784463e+01
2.900000e-07	-5.373116e-06	-1.467717e-09	-3.725700e+01	-9.775739e+01
3.000000e-07	-5.361234e-06	-1.475562e-09	-3.717461e+01	-9.766548e+01
3.100000e-07	-5.349011e-06	-1.479757e-09	-3.708986e+01	-9.756844e+01
3.200000e-07	-5.336270e-06	-1.458987e-09	-3.700152e+01	-9.746585e+01
3.300000e-07	-5.323139e-06	-1.487554e-09	-3.691046e+01	-9.735731e+01
3.400000e-07	-5.309702e-06	-1.485086e-09	-3.681729e+01	-9.724245e+01
3.500000e-07	-5.295766e-06	-1.456643e-09	-3.672066e+01	-9.712097e+01
3.600000e-07	-5.281331e-06	-1.448527e-09	-3.662057e+01	-9.699263e+01
3.700000e-07	-5.266550e-06	-1.475456e-09	-3.651807e+01	-9.685721e+01
3.800000e-07	-5.251355e-06	-1.452897e-09	-3.641272e+01	-9.671458e+01
3.900000e-07	-5.235531e-06	-1.430335e-09	-3.630299e+01	-9.656469e+01
4.000000e-07	-5.219231e-06	-1.468779e-09	-3.618997e+01	-9.640753e+01
4.100000e-07	-5.202648e-06	-1.469714e-09	-3.607498e+01	-9.624315e+01
4.200000e-07	-5.185642e-06	-1.419213e-09	-3.595706e+01	-9.607170e+01
4.300000e-07	-5.168190e-06	-1.422307e-09	-3.583605e+01	-9.589337e+01
4.400000e-07	-5.150619e-06	-1.469705e-09	-3.571421e+01	-9.570841e+01
4.500000e-07	-5.132779e-06	-1.427547e-09	-3.559051e+01	-9.551712e+01
4.600000e-07	-5.114354e-06	-1.409186e-09	-3.546275e+01	-9.531986e+01
4.700000e-07	-5.095460e-06	-1.439284e-09	-3.533175e+01	-9.511703e+01
4.800000e-07	-5.076249e-06	-1.433678e-09	-3.519854e+01	-9.490907e+01
4.900000e-07	-5.056767e-06	-1.388828e-09	-3.506345e+01	-9.469643e+01
5.000000e-07	-5.037069e-06	-1.430420e-09	-3.492686e+01	-9.447959e+01
5.100000e-07	-5.017226e-06	-1.433149e-09	-3.478928e+01	-9.425904e+01
5.200000e-07	-4.997096e-06	-1.393062e-09	-3.464969e+01	-9.403526e+01
5.300000e-07	-4.976514e-06	-1.402841e-09	-3.450698e+01	-9.380875e+01
5.400000e-07	-4.955585e-06	-1.442335e-09	-3.436186e+01	-9.357998e+01
5.500000e-07	-4.934288e-06	-1.390989e-09	-3.421419e+01	-9.334938e+01
5.600000e-07	-4.912637e-06	-1.374056e-09	-3.406405e+01	-9.311738e+01
5.700000e-07	-4.890759e-06	-1.401374e-09	-3.391235e+01	-9.288436e+01
5.800000e-07	-4.868603e-06	-1.391519e-09	-3.375873e+01	-9.265067e+01
5.900000e-07	-4.845994e-06	-1.365829e-09	-3.360196e+01	-9.241659e+01
6.000000e-07	-4.822979e-06	-1.397790e-09	-3.344237e+01	-9.218239e+01
6.100000e-07	-4.799721e-06	-1.390777e-09	-3.328110e+01	-9.194825e+01
6.200000e-07	-4.776189e-06	-1.361731e-09	-3.311793e+01	-9.171432e+01
6.300000e-07	-4.752412e-06	-1.368344e-09	-3.295306e+01	-9.148070e+01
6.400000e-07	-4.728449e-06	-1.373564e-09	-3.278690e+01	-9.124743e+01
6.500000e-07	-4.704140e-06	-1.350484e-09	-3.261835e+01	-9.101449e+01
6.600000e-07	-4.679319e-06	-1.354610e-09	-3.244624e+01	-9.078185e+01
6.700000e-07	-4.653993e-06	-1.365929e-09	-3.227063e+01	-9.054939e+01
6.800000e-07	-4.628104e-06	-1.351425e-09	-3.209111e+01	-9.031698e+01
6.900000e-07	-4.601630e-06	-1.348652e-09	-3.190755e+01	-9.008444e+01
7.000000e-07	-4.574779e-06	-1.352618e-09	-3.172136e+01	-8.985157e+01
7.100000e-07	-4.547576e-06	-1.338124e-09	-3.153273e+01	-8.961815e+01
7.200000e-07	-4.520000e-06	-1.324916e-09	-3.134153e+01	-8.938392e+01
7.300000e-07	-4.492252e-06	-1.330873e-09	-3.114912e+01	-8.914862e+01
7.400000e-07	-4.464393e-06	-1.325059e-09	-3.095595e+01	-8.891199e+01
7.500000e-07	-4.436334e-06	-1.323608e-09	-3.076139e+01	-8.867376e+01
7.600000e-07	-4.407959e-06	-1.325946e-09	-3.056464e+01	-8.843365e+01
7.700000e-07	-4.379242e-06	-1.323517e-09	-3.036552e+01	-8.819142e+01
7.800000e-07	-4.350251e-06	-1.305386e-09	-3.016449e+01	-8.794680e+01
7.900000e-07	-4.320996e-06	-1.305002e-09	-2.996163e+01	-8.769957e+01
8.000000e-07	-4.291414e-06	-1.300415e-09	-2.975652e+01	-8.744950e+01
8.100000e-07	-4.261483e-06	-1.290505e-09	-2.954898e+01	-8.719641e+01
8.200000e-07	-4.231273e-06	-1.283367e-09	-2.933950e+01	-8.694011e+01
8.300000e-07	-4.200802e-06	-1.293580e-09	-2.912822e+01	-8.668046e+01
8.400000e-07	-4.170099e-06	-1.289123e-09	-2.891533e+01	-8.641731e+01
8.500000e-07	-4.139145e-06	-1.283365e-09	-2.870069e+01	-8.615057e+01
8.600000e-07	-4.107879e-06	-1.281417e-09	-2.848389e+01	-8.588015e+01
8.700000e-07	-4.076345e-06	-1.276708e-09	-2.826523e+01	-8.560596e+01
8.800000e-07	-4.044625e-06	-1.261143e-09	-2.804529e+01	-8.532797e+01
8.900000e-07	-4.012752e-06	-1.258799e-09	-2.782428e+01	-8.504613e+01
9.000000e-07	-3.980640e-06	-1.254819e-09	-2.760162e+01	-8.476042e+01
9.100000e-07	-3.948203e-06	-1.245200e-09	-2.737671e+01	-8.447082e+01
9.200000e-07	-3.915285e-06	-1.239801e-09	-2.714845e+01	-8.417731e+01
9.300000e-07	-3.881908e-06	-1.243856e-09	-2.691702e+01	-8.387988e+01
9.400000e-07	-3.848261e-06	-1.238670e-09	-2.668371e+01	-8.357854e+01
9.500000e-07	-3.814221e-06	-1.233804e-09	-2.644768e+01	-8.327325e+01
9.600000e-07	-3.779696e-06	-1.231236e-09	-2.620828e+01	-8.296402e+01
9.700000e-07	-3.744770e-06	-1.216300e-09	-2.596611e+01	-8.265080e+01
9.800000e-07	-3.709516e-06	-1.198021e-09	-2.572166e+01	-8.233358e+01
9.900000e-07	-3.674036e-06	-1.189810e-09	-2.547564e+01	-8.201229e+01
1.000000e-06	-3.638420e-06	-1.187963e-09	-2.522868e+01	-8.168690e+01
1.010000e-06	-3.602665e-06	-1.183616e-09	-2.498076e+01	-8.135732e+01
1.020000e-06	-3.566735e-06	-1.189560e-09	-2.473162e+01	-8.102348e+01
1.030000e-06	-3.530639e-06	-1.194582e-09	-2.448133e+01	-8.068528e+01
1.040000e-06	-3.494332e-06	-1.189330e-09	-2.422958e+01	-8.034263e+01
1.050000e-06	-3.457727e-06	-1.178293e-09	-2.397576e+01	-7.999540e+01
1.060000e-06	-3.420885e-06	-1.170790e-09	-2.372030e+01	-7.964348e+01
1.070000e-06	-3.383821e-06	-1.157187e-09	-2.346330e+01	-7.928674e+01
1.080000e-06	-3.346477e-06	-1.147274e-09	-2.320436e+01	-7.892503e+01
1.090000e-06	-3.308909e-06	-1.142941e-09	-2.294386e+01	-7.855823e+01
1.100000e-06	-3.271116e-06	-1.140534e-09	-2.268180e+01	-7.818620e+01
1.110000e-06	-3.233074e-06	-1.131276e-09	-2.241802e+01	-7.780879e+01
1.120000e-06	-3.194833e-06	-1.126133e-09	-2.215286e+01	-7.742587e+01
1.130000e-06	-3.156487e-06	-1.121130e-09	-2.188697e+01	-7.703732e+01
1.140000e-06	-3.117839e-06	-1.113757e-09	-2.161899e+01	-7.664301e+01
1.150000e-06	-3.078885e-06	-1.104941e-09	-2.134888e+01	-7.624282e+01
1.160000e-06	-3.039831e-06	-1.099419e-09	-2.107809e+01	-7.583666e+01
1.170000e-06	-3.000601e-06	-1.089369e-09	-2.080607e+01	-7.542442e+01
1.180000e-06	-2.961165e-06	-1.080949e-09	-2.053262e+01	-7.500603e+01
1.190000e-06	-2.921573e-06	-1.073038e-09	-2.025809e+01	-7.458141e+01
1.200000e-06	-2.881848e-06	-1.065958e-09	-1.998264e+01	-7.415051e+01
1.210000e-06	-2.842041e-06	-1.058160e-09	-1.970662e+01	-7.371328e+01
1.220000e-06	-2.802088e-06	-1.053754e-09	-1.942958e+01	-7.326967e+01
1.230000e-06	-2.761956e-06	-1.048485e-09	-1.915131e+01	-7.281967e+01
1.240000e-06	-2.721594e-06	-1.039319e-09	-1.887144e+01	-7.236325e+01
1.250000e-06	-2.680895e-06	-1.030662e-09	-1.858923e+01	-7.190040e+01
1.260000e-06	-2.639961e-06	-1.025675e-09	-1.830540e+01	-7.143112e+01
1.270000e-06	-2.598791e-06	-1.020295e-09	-1.801992e+01	-7.095542e+01
1.280000e-06	-2.557279e-06	-1.013780e-09	-1.773209e+01	-7.047328e+01
1.290000e-06	-2.515362e-06	-1.008412e-09	-1.744144e+01	-6.998472e+01
1.300000e-06	-2.473166e-06	-9.999535e-10	-1.714885e+01	-6.948974e+01
1.310000e-06	-2.430821e-06	-9.912886e-10	-1.685523e+01	-6.898833e+01
1.320000e-06	-2.388216e-06	-9.818038e-10	-1.655980e+01	-6.848050e+01
1.330000e-06	-2.345373e-06	-9.707849e-10	-1.626274e+01	-6.796624e+01
1.340000e-06	-2.302329e-06	-9.601363e-10	-1.596427e+01	-6.744551e+01
1.350000e-06	-2.258976e-06	-9.548945e-10	-1.566367e+01	-6.691831e+01
1.360000e-06	-2.215457e-06	-9.515101e-10	-1.536190e+01	-6.638458e+01
1.370000e-06	-2.171878e-06	-9.462863e-10	-1.505973e+01	-6.584428e+01
1.380000e-06	-2.128225e-06	-9.376794e-10	-1.475704e+01	-6.529734e+01
1.390000e-06	-2.084549e-06	-9.265730e-10	-1.445419e+01	-6.474368e+01
1.400000e-06	-2.040768e-06	-9.130192e-10	-1.415062e+01	-6.418321e+01
1.410000e-06	-1.996876e-06	-9.011806e-10	-1.384627e+01	-6.361581e+01
1.420000e-06	-1.952915e-06	-8.903382e-10	-1.354145e+01	-6.304136e+01
1.430000e-06	-1.908835e-06	-8.833392e-10	-1.323580e+01	-6.245969e+01
1.440000e-06	-1.864616e-06	-8.781918e-10	-1.292919e+01	-6.187064e+01
1.450000e-06	-1.820258e-06	-8.725248e-10	-1.262160e+01	-6.127401e+01
1.460000e-06	-1.775830e-06	-8.613444e-10	-1.231354e+01	-6.066958e+01
1.470000e-06	-1.731260e-06	-8.484759e-10	-1.200450e+01	-6.005709e+01
1.480000e-06	-1.686510e-06	-8.356485e-10	-1.169420e+01	-5.943626e+01
1.490000e-06	-1.641644e-06	-8.236510e-10	-1.138310e+01	-5.880680e+01
1.500000e-06	-1.596652e-06	-8.124899e-10	-1.107113e+01	-5.816835e+01
1.510000e-06	-1.551521e-06	-8.043374e-10	-1.075820e+01	-5.752053e+01
1.520000e-06	-1.506288e-06	-7.970142e-10	-1.044455e+01	-5.686292e+01
1.530000e-06	-1.460944e-06	-7.895470e-10	-1.013013e+01	-5.619507e+01
1.540000e-06	-1.415414e-06	-7.781426e-10	-9.814432e+00	-5.551646e+01
1.550000e-06	-1.369824e-06	-7.633300e-10	-9.498310e+00	-5.482654e+01
1.560000e-06	-1.324218e-06	-7.452886e-10	-9.182081e+00	-5.412472e+01
1.570000e-06	-1.278535e-06	-7.281885e-10	-8.865314e+00	-5.341033e+01
1.580000e-06	-1.232761e-06	-7.153753e-10	-8.547921e+00	-5.268267e+01
1.590000e-06	-1.186912e-06	-7.063250e-10	-8.230005e+00	-5.194097e+01
1.600000e-06	-1.140988e-06	-6.987514e-10	-7.911573e+00	-5.118441e+01
1.610000e-06	-1.094996e-06	-6.893155e-10	-7.592666e+00	-5.041213e+01
1.620000e-06	-1.048919e-06	-6.795679e-10	-7.273169e+00	-4.962319e+01
1.630000e-06	-1.002719e-06	-6.688232e-10	-6.952816e+00	-4.881661e+01
1.640000e-06	-9.564326e-07	-6.572424e-10	-6.631871e+00	-4.799135e+01
1.650000e-06	-9.101089e-07	-6.437987e-10	-6.310664e+00	-4.714633e+01
1.660000e-06	-8.637360e-07	-6.284733e-10	-5.989116e+00	-4.628043e+01
1.670000e-06	-8.173061e-07	-6.110874e-10	-5.667173e+00	-4.539248e+01
1.680000e-06	-7.707547e-07	-5.932128e-10	-5.344387e+00	-4.448129e+01
1.690000e-06	-7.241037e-07	-5.745330e-10	-5.020910e+00	-4.354565e+01
1.700000e-06	-6.774335e-07	-5.564524e-10	-4.697301e+00	-4.258431e+01
1.710000e-06	-6.307916e-07	-5.395992e-10	-4.373888e+00	-4.159606e+01
1.720000e-06	-5.841303e-07	-5.256373e-10	-4.050339e+00	-4.057967e+01
1.730000e-06	-5.374343e-07	-5.121917e-10	-3.726551e+00	-3.953392e+01
1.740000e-06	-4.907432e-07	-4.986425e-10	-3.402797e+00	-3.845766e+01
1.750000e-06	-4.439605e-07	-4.813806e-10	-3.078407e+00	-3.734975e+01
1.760000e-06	-3.971378e-07	-4.604075e-10	-2.753740e+00	-3.620914e+01
1.770000e-06	-3.503815e-07	-4.381726e-10	-2.429533e+00	-3.503483e+01
1.780000e-06	-3.035516e-07	-4.173800e-10	-2.104816e+00	-3.382594e+01
1.790000e-06	-2.565789e-07	-4.001594e-10	-1.779109e+00	-3.258166e+01
1.800000e-06	-2.095934e-07	-3.864562e-10	-1.453313e+00	-3.130133e+01
1.810000e-06	-1.626381e-07	-3.709260e-10	-1.127727e+00	-2.998440e+01
1.820000e-06	-1.156897e-07	-3.523563e-10	-8.021882e-01	-2.863048e+01
1.830000e-06	-6.872794e-08	-3.323158e-10	-4.765572e-01	-2.723934e+01
1.840000e-06	-2.174307e-08	-3.109970e-10	-1.507657e-01	-2.581091e+01
1.850000e-06	2.521853e-08	-2.880615e-10	1.748645e-01	-2.434530e+01
1.860000e-06	7.219589e-08	-2.638403e-10	5.006038e-01	-2.284281e+01
1.870000e-06	1.191752e-07	-2.401093e-10	8.263570e-01	-2.130392e+01
1.880000e-06	1.661568e-07	-2.181533e-10	1.152126e+00	-1.972933e+01
1.890000e-06	2.131536e-07	-1.993891e-10	1.478000e+00	-1.811991e+01
1.900000e-06	2.600611e-07	-1.815930e-10	1.803254e+00	-1.647676e+01
1.910000e-06	3.069732e-07	-1.613079e-10	2.128542e+00	-1.480115e+01
1.920000e-06	3.538896e-07	-1.389160e-10	2.453858e+00	-1.309456e+01
1.930000e-06	4.008249e-07	-1.137381e-10	2.779306e+00	-1.135864e+01
1.940000e-06	4.476863e-07	-8.565387e-11	3.104241e+00	-9.595244e+00
1.950000e-06	4.944375e-07	-5.904872e-11	3.428412e+00	-7.806368e+00
1.960000e-06	5.411993e-07	-3.705403e-11	3.752658e+00	-5.994177e+00
1.970000e-06	5.878553e-07	-1.880266e-11	4.076168e+00	-4.160973e+00
1.980000e-06	6.343609e-07	5.398813e-14	4.398637e+00	-2.309185e+00
1.990000e-06	6.807828e-07	2.111625e-11	4.720524e+00	-4.413489e-01
2.000000e-06	7.271604e-07	4.892887e-11	5.042105e+00	1.439907e+00
2.010000e-06	7.735968e-07	8.215088e-11	5.364094e+00	3.331884e+00
2.020000e-06	8.200903e-07	1.140278e-10	5.686478e+00	5.231832e+00
2.030000e-06	8.665157e-07	1.402188e-10	6.008390e+00	7.136972e+00
2.040000e-06	9.128343e-07	1.618751e-10	6.329562e+00	9.044509e+00
2.050000e-06	9.589901e-07	1.825648e-10	6.649604e+00	1.095166e+01
2.060000e-06	1.005036e-06	2.044531e-10	6.968888e+00	1.285568e+01
2.070000e-06	1.051090e-06	2.272377e-10	7.288222e+00	1.475385e+01
2.080000e-06	1.097150e-06	2.533687e-10	7.607599e+00	1.664354e+01
2.090000e-06	1.143074e-06	2.831253e-10	7.926035e+00	1.852219e+01
2.100000e-06	1.188875e-06	3.124877e-10	8.243619e+00	2.038734e+01
2.110000e-06	1.234623e-06	3.384306e-10	8.560834e+00	2.223665e+01
2.120000e-06	1.280225e-06	3.618486e-10	8.877035e+00	2.406790e+01
2.130000e-06	1.325728e-06	3.830194e-10	9.192556e+00	2.587901e+01
2.140000e-06	1.371201e-06	4.007089e-10	9.507862e+00	2.766804e+01
2.150000e-06	1.416609e-06	4.201416e-10	9.822719e+00	2.943321e+01
2.160000e-06	1.461962e-06	4.459306e-10	1.013720e+01	3.117288e+01
2.170000e-06	1.507250e-06	4.753521e-10	1.045122e+01	3.288560e+01
2.180000e-06	1.552412e-06	5.034758e-10	1.076437e+01	3.457006e+01
2.190000e-06	1.597490e-06	5.282949e-10	1.107694e+01	3.622511e+01
2.200000e-06	1.642474e-06	5.502086e-10	1.138886e+01	3.784978e+01
2.210000e-06	1.687209e-06	5.700101e-10	1.169905e+01	3.944324e+01
2.220000e-06	1.731776e-06	5.881235e-10	1.200808e+01	4.100482e+01
2.230000e-06	1.776216e-06	6.058493e-10	1.231622e+01	4.253399e+01
2.240000e-06	1.820512e-06	6.231138e-10	1.262337e+01	4.403037e+01
2.250000e-06	1.864714e-06	6.406091e-10	1.292986e+01	4.549368e+01
2.260000e-06	1.908741e-06	6.606624e-10	1.323514e+01	4.692380e+01
2.270000e-06	1.952679e-06	6.851735e-10	1.353981e+01	4.832070e+01
2.280000e-06	1.996579e-06	7.106376e-10	1.384421e+01	4.968446e+01
2.290000e-06	2.040408e-06	7.317119e-10	1.414812e+01	5.101526e+01
2.300000e-06	2.084156e-06	7.493554e-10	1.445147e+01	5.231335e+01
2.310000e-06	2.127842e-06	7.668139e-10	1.475438e+01	5.357907e+01
2.320000e-06	2.171525e-06	7.835455e-10	1.505728e+01	5.481281e+01
2.330000e-06	2.215116e-06	7.987895e-10	1.535954e+01	5.601504e+01
2.340000e-06	2.258544e-06	8.142528e-10	1.566067e+01	5.718624e+01
2.350000e-06	2.301840e-06	8.305774e-10	1.596088e+01	5.832699e+01
2.360000e-06	2.345013e-06	8.470615e-10	1.626024e+01	5.943785e+01
2.370000e-06	2.387947e-06	8.633893e-10	1.655794e+01	6.051944e+01
2.380000e-06	2.430541e-06	8.789645e-10	1.685328e+01	6.157239e+01
2.390000e-06	2.472868e-06	8.947403e-10	1.714678e+01	6.259735e+01
2.400000e-06	2.514854e-06	9.088723e-10	1.743791e+01	6.359501e+01
2.410000e-06	2.556424e-06	9.215383e-10	1.772616e+01	6.456602e+01
2.420000e-06	2.597729e-06	9.340985e-10	1.801256e+01	6.551109e+01
2.430000e-06	2.638835e-06	9.453938e-10	1.829759e+01	6.643089e+01
2.440000e-06	2.679659e-06	9.562721e-10	1.858066e+01	6.732613e+01
2.450000e-06	2.720164e-06	9.676485e-10	1.886152e+01	6.819750e+01
2.460000e-06	2.760433e-06	9.807885e-10	1.914074e+01	6.904570e+01
2.470000e-06	2.800534e-06	9.947665e-10	1.941881e+01	6.987140e+01
2.480000e-06	2.840478e-06	1.007313e-09	1.969577e+01	7.067531e+01
2.490000e-06	2.880302e-06	1.019120e-09	1.997191e+01	7.145810e+01
2.500000e-06	2.920028e-06	1.031106e-09	2.024737e+01	7.222045e+01
2.510000e-06	2.959595e-06	1.041971e-09	2.052173e+01	7.296302e+01
2.520000e-06	2.999028e-06	1.051375e-09	2.079516e+01	7.368647e+01
2.530000e-06	3.038396e-06	1.059978e-09	2.106813e+01	7.439143e+01
2.540000e-06	3.077634e-06	1.067992e-09	2.134021e+01	7.507855e+01
2.550000e-06	3.116557e-06	1.075722e-09	2.161010e+01	7.574842e+01
2.560000e-06	3.155052e-06	1.084307e-09	2.187702e+01	7.640163e+01
2.570000e-06	3.193274e-06	1.093306e-09	2.214205e+01	7.703876e+01
2.580000e-06	3.231326e-06	1.101753e-09	2.240590e+01	7.766036e+01
2.590000e-06	3.269297e-06	1.110004e-09	2.266920e+01	7.826694e+01
2.600000e-06	3.307182e-06	1.118604e-09	2.293189e+01	7.885899e+01
2.610000e-06	3.344756e-06	1.127611e-09	2.319242e+01	7.943697e+01
2.620000e-06	3.381994e-06	1.136340e-09	2.345063e+01	8.000131e+01
2.630000e-06	3.418941e-06	1.142700e-09	2.370682e+01	8.055240e+01
2.640000e-06	3.455663e-06	1.147541e-09	2.396145e+01	8.109060e+01
2.650000e-06	3.492186e-06	1.153504e-09	2.421470e+01	8.161624e+01
2.660000e-06	3.528433e-06	1.160672e-09	2.446603e+01	8.212960e+01
2.670000e-06	3.564429e-06	1.166982e-09	2.471563e+01	8.263093e+01
2.680000e-06	3.600263e-06	1.171271e-09	2.496410e+01	8.312046e+01
2.690000e-06	3.636006e-06	1.175910e-09	2.521194e+01	8.359836e+01
2.700000e-06	3.671682e-06	1.181492e-09	2.545932e+01	8.406479e+01
2.710000e-06	3.707199e-06	1.187269e-09	2.570559e+01	8.451989e+01
2.720000e-06	3.742465e-06	1.195179e-09	2.595012e+01	8.496375e+01
2.730000e-06	3.777405e-06	1.203067e-09	2.619240e+01	8.539646e+01
2.740000e-06	3.811993e-06	1.207487e-09	2.643223e+01	8.581810e+01
2.750000e-06	3.846105e-06	1.211386e-09	2.666876e+01	8.622873e+01
2.760000e-06	3.879739e-06	1.216357e-09	2.690198e+01	8.662840e+01
2.770000e-06	3.912844e-06	1.220787e-09	2.713153e+01	8.701717e+01
2.780000e-06	3.945385e-06	1.225862e-09	2.735717e+01	8.739510e+01
2.790000e-06	3.977630e-06	1.233034e-09	2.758075e+01	8.776227e+01
2.800000e-06	4.009662e-06	1.240626e-09	2.780286e+01	8.811878e+01
2.810000e-06	4.041541e-06	1.247120e-09	2.802391e+01	8.846473e+01
2.820000e-06	4.073332e-06	1.253591e-09	2.824434e+01	8.880027e+01
2.830000e-06	4.105037e-06	1.259205e-09	2.846419e+01	8.912557e+01
2.840000e-06	4.136563e-06	1.262279e-09	2.868279e+01	8.944084e+01
2.850000e-06	4.167751e-06	1.265799e-09	2.889904e+01	8.974630e+01
2.860000e-06	4.198602e-06	1.273179e-09	2.911296e+01	9.004224e+01
2.870000e-06	4.229083e-06	1.281543e-09	2.932432e+01	9.032898e+01
2.880000e-06	4.259175e-06	1.288658e-09	2.953297e+01	9.060687e+01
2.890000e-06	4.288954e-06	1.296177e-09	2.973946e+01	9.087629e+01
2.900000e-06	4.318507e-06	1.303704e-09	2.994438e+01	9.113768e+01
