# Temperatura_=_14.7
# Concentracion g/m^3_=_1620.0
# C_Vs_to_Am_M_A/Vsm_=_65563218390.804596
# pendiente_HvsI_1/m_=_3716.3
# ordenada_HvsI_A/m_=_1297.0
# frecuencia_Hz_=_135099.8332664707

Tiempo_(s)	Campo_(V.s)	Magnetizacion_(V.s)	Campo_(kA/m)	Magnetizacion_(A/m)
0.000000e+00	-5.526730e-06	-1.482727e-09	-3.837600e+01	-9.891604e+01
1.000000e-08	-5.526793e-06	-1.484836e-09	-3.837643e+01	-9.890356e+01
2.000000e-08	-5.526639e-06	-1.484728e-09	-3.837536e+01	-9.889014e+01
3.000000e-08	-5.526046e-06	-1.483739e-09	-3.837125e+01	-9.887591e+01
4.000000e-08	-5.525047e-06	-1.481251e-09	-3.836431e+01	-9.886098e+01
5.000000e-08	-5.523593e-06	-1.475461e-09	-3.835422e+01	-9.884544e+01
6.000000e-08	-5.521451e-06	-1.474995e-09	-3.833934e+01	-9.882935e+01
7.000000e-08	-5.518665e-06	-1.504146e-09	-3.831999e+01	-9.881274e+01
8.000000e-08	-5.515394e-06	-1.505410e-09	-3.829728e+01	-9.879558e+01
9.000000e-08	-5.511698e-06	-1.431021e-09	-3.827162e+01	-9.877783e+01
1.000000e-07	-5.507645e-06	-1.400361e-09	-3.824347e+01	-9.875938e+01
1.100000e-07	-5.503362e-06	-1.481079e-09	-3.821374e+01	-9.874005e+01
1.200000e-07	-5.498775e-06	-1.541473e-09	-3.818189e+01	-9.871965e+01
1.300000e-07	-5.493807e-06	-1.458014e-09	-3.814739e+01	-9.869789e+01
1.400000e-07	-5.488511e-06	-1.398615e-09	-3.811061e+01	-9.867445e+01
1.500000e-07	-5.482913e-06	-1.473654e-09	-3.807174e+01	-9.864895e+01
1.600000e-07	-5.476922e-06	-1.541831e-09	-3.803014e+01	-9.862096e+01
1.700000e-07	-5.470418e-06	-1.470733e-09	-3.798498e+01	-9.859001e+01
1.800000e-07	-5.463494e-06	-1.405277e-09	-3.793691e+01	-9.855559e+01
1.900000e-07	-5.456273e-06	-1.479682e-09	-3.788677e+01	-9.851713e+01
2.000000e-07	-5.448755e-06	-1.537615e-09	-3.783456e+01	-9.847408e+01
2.100000e-07	-5.440986e-06	-1.509163e-09	-3.778062e+01	-9.842585e+01
2.200000e-07	-5.433004e-06	-1.455174e-09	-3.772519e+01	-9.837184e+01
2.300000e-07	-5.424671e-06	-1.480416e-09	-3.766733e+01	-9.831147e+01
2.400000e-07	-5.415763e-06	-1.506119e-09	-3.760547e+01	-9.824417e+01
2.500000e-07	-5.406198e-06	-1.510940e-09	-3.753906e+01	-9.816939e+01
2.600000e-07	-5.396011e-06	-1.470705e-09	-3.746832e+01	-9.808665e+01
2.700000e-07	-5.385272e-06	-1.463448e-09	-3.739376e+01	-9.799548e+01
2.800000e-07	-5.374037e-06	-1.474022e-09	-3.731574e+01	-9.789551e+01
2.900000e-07	-5.362391e-06	-1.475795e-09	-3.723488e+01	-9.778639e+01
3.000000e-07	-5.350443e-06	-1.444164e-09	-3.715191e+01	-9.766791e+01
3.100000e-07	-5.338110e-06	-1.445730e-09	-3.706627e+01	-9.753989e+01
3.200000e-07	-5.325237e-06	-1.499652e-09	-3.697689e+01	-9.740229e+01
3.300000e-07	-5.311972e-06	-1.495193e-09	-3.688478e+01	-9.725511e+01
3.400000e-07	-5.298380e-06	-1.434761e-09	-3.679040e+01	-9.709851e+01
3.500000e-07	-5.284359e-06	-1.445042e-09	-3.669305e+01	-9.693269e+01
3.600000e-07	-5.270004e-06	-1.488736e-09	-3.659337e+01	-9.675798e+01
3.700000e-07	-5.255295e-06	-1.445362e-09	-3.649123e+01	-9.657480e+01
3.800000e-07	-5.239979e-06	-1.422324e-09	-3.638488e+01	-9.638364e+01
3.900000e-07	-5.224064e-06	-1.483554e-09	-3.627437e+01	-9.618509e+01
4.000000e-07	-5.207661e-06	-1.460363e-09	-3.616047e+01	-9.597980e+01
4.100000e-07	-5.190849e-06	-1.382119e-09	-3.604374e+01	-9.576849e+01
4.200000e-07	-5.173700e-06	-1.449372e-09	-3.592466e+01	-9.555190e+01
4.300000e-07	-5.156236e-06	-1.493071e-09	-3.580339e+01	-9.533085e+01
4.400000e-07	-5.138489e-06	-1.394130e-09	-3.568016e+01	-9.510616e+01
4.500000e-07	-5.120375e-06	-1.375033e-09	-3.555439e+01	-9.487865e+01
4.600000e-07	-5.101899e-06	-1.480562e-09	-3.542610e+01	-9.464914e+01
4.700000e-07	-5.083011e-06	-1.420631e-09	-3.529494e+01	-9.441845e+01
4.800000e-07	-5.063705e-06	-1.350636e-09	-3.516089e+01	-9.418733e+01
4.900000e-07	-5.044122e-06	-1.434143e-09	-3.502491e+01	-9.395652e+01
5.000000e-07	-5.024291e-06	-1.454320e-09	-3.488721e+01	-9.372666e+01
5.100000e-07	-5.004188e-06	-1.354796e-09	-3.474762e+01	-9.349834e+01
5.200000e-07	-4.983824e-06	-1.406502e-09	-3.460622e+01	-9.327208e+01
5.300000e-07	-4.963144e-06	-1.459716e-09	-3.446262e+01	-9.304828e+01
5.400000e-07	-4.942151e-06	-1.362948e-09	-3.431685e+01	-9.282726e+01
5.500000e-07	-4.920798e-06	-1.341265e-09	-3.416858e+01	-9.260923e+01
5.600000e-07	-4.899087e-06	-1.430971e-09	-3.401783e+01	-9.239431e+01
5.700000e-07	-4.877094e-06	-1.387774e-09	-3.386512e+01	-9.218250e+01
5.800000e-07	-4.854695e-06	-1.336387e-09	-3.370958e+01	-9.197370e+01
5.900000e-07	-4.831921e-06	-1.401335e-09	-3.355145e+01	-9.176771e+01
6.000000e-07	-4.808841e-06	-1.402647e-09	-3.339119e+01	-9.156423e+01
6.100000e-07	-4.785419e-06	-1.336756e-09	-3.322855e+01	-9.136287e+01
6.200000e-07	-4.761765e-06	-1.361948e-09	-3.306431e+01	-9.116318e+01
6.300000e-07	-4.737894e-06	-1.382164e-09	-3.289855e+01	-9.096462e+01
6.400000e-07	-4.713752e-06	-1.335647e-09	-3.273091e+01	-9.076659e+01
6.500000e-07	-4.689248e-06	-1.343468e-09	-3.256077e+01	-9.056847e+01
6.600000e-07	-4.664241e-06	-1.369577e-09	-3.238713e+01	-9.036958e+01
6.700000e-07	-4.638682e-06	-1.343585e-09	-3.220965e+01	-9.016923e+01
6.800000e-07	-4.612659e-06	-1.333094e-09	-3.202896e+01	-8.996674e+01
6.900000e-07	-4.586175e-06	-1.355567e-09	-3.184506e+01	-8.976141e+01
7.000000e-07	-4.559229e-06	-1.335072e-09	-3.165795e+01	-8.955259e+01
7.100000e-07	-4.531914e-06	-1.318999e-09	-3.146828e+01	-8.933964e+01
7.200000e-07	-4.504326e-06	-1.328704e-09	-3.127672e+01	-8.912198e+01
7.300000e-07	-4.476609e-06	-1.326077e-09	-3.108427e+01	-8.889907e+01
7.400000e-07	-4.448701e-06	-1.312435e-09	-3.089048e+01	-8.867045e+01
7.500000e-07	-4.420567e-06	-1.322668e-09	-3.069513e+01	-8.843571e+01
7.600000e-07	-4.392154e-06	-1.317526e-09	-3.049783e+01	-8.819453e+01
7.700000e-07	-4.363333e-06	-1.306379e-09	-3.029771e+01	-8.794666e+01
7.800000e-07	-4.334156e-06	-1.304823e-09	-3.009511e+01	-8.769193e+01
7.900000e-07	-4.304756e-06	-1.299634e-09	-2.989097e+01	-8.743025e+01
8.000000e-07	-4.275116e-06	-1.278759e-09	-2.968516e+01	-8.716161e+01
8.100000e-07	-4.245127e-06	-1.279460e-09	-2.947692e+01	-8.688607e+01
8.200000e-07	-4.214833e-06	-1.286323e-09	-2.926657e+01	-8.660376e+01
8.300000e-07	-4.184269e-06	-1.278381e-09	-2.905434e+01	-8.631487e+01
8.400000e-07	-4.153379e-06	-1.268058e-09	-2.883985e+01	-8.601964e+01
8.500000e-07	-4.122218e-06	-1.273721e-09	-2.862348e+01	-8.571837e+01
8.600000e-07	-4.090879e-06	-1.266060e-09	-2.840587e+01	-8.541139e+01
8.700000e-07	-4.059334e-06	-1.249179e-09	-2.818683e+01	-8.509904e+01
8.800000e-07	-4.027590e-06	-1.245647e-09	-2.796641e+01	-8.478170e+01
8.900000e-07	-3.995696e-06	-1.243241e-09	-2.774495e+01	-8.445974e+01
9.000000e-07	-3.963584e-06	-1.229884e-09	-2.752197e+01	-8.413353e+01
9.100000e-07	-3.931138e-06	-1.228721e-09	-2.729667e+01	-8.380344e+01
9.200000e-07	-3.898285e-06	-1.236110e-09	-2.706855e+01	-8.346980e+01
9.300000e-07	-3.865061e-06	-1.225684e-09	-2.683785e+01	-8.313292e+01
9.400000e-07	-3.831460e-06	-1.214149e-09	-2.660454e+01	-8.279306e+01
9.500000e-07	-3.797367e-06	-1.215125e-09	-2.636781e+01	-8.245047e+01
9.600000e-07	-3.762800e-06	-1.207369e-09	-2.612778e+01	-8.210532e+01
9.700000e-07	-3.727856e-06	-1.188743e-09	-2.588514e+01	-8.175776e+01
9.800000e-07	-3.692635e-06	-1.184952e-09	-2.564058e+01	-8.140786e+01
9.900000e-07	-3.657180e-06	-1.183051e-09	-2.539439e+01	-8.105568e+01
1.000000e-06	-3.621525e-06	-1.173864e-09	-2.514681e+01	-8.070119e+01
1.010000e-06	-3.585696e-06	-1.170300e-09	-2.489803e+01	-8.034436e+01
1.020000e-06	-3.549713e-06	-1.176836e-09	-2.464817e+01	-7.998507e+01
1.030000e-06	-3.513638e-06	-1.171695e-09	-2.439768e+01	-7.962320e+01
1.040000e-06	-3.477384e-06	-1.163934e-09	-2.414594e+01	-7.925860e+01
1.050000e-06	-3.440807e-06	-1.158343e-09	-2.389196e+01	-7.889106e+01
1.060000e-06	-3.403913e-06	-1.149489e-09	-2.363578e+01	-7.852039e+01
1.070000e-06	-3.366776e-06	-1.135061e-09	-2.337791e+01	-7.814638e+01
1.080000e-06	-3.329369e-06	-1.132231e-09	-2.311817e+01	-7.776881e+01
1.090000e-06	-3.291740e-06	-1.134131e-09	-2.285688e+01	-7.738745e+01
1.100000e-06	-3.253933e-06	-1.129173e-09	-2.259436e+01	-7.700212e+01
1.110000e-06	-3.215876e-06	-1.120675e-09	-2.233010e+01	-7.661262e+01
1.120000e-06	-3.177562e-06	-1.117890e-09	-2.206406e+01	-7.621879e+01
1.130000e-06	-3.139045e-06	-1.108614e-09	-2.179661e+01	-7.582048e+01
1.140000e-06	-3.100363e-06	-1.096703e-09	-2.152801e+01	-7.541759e+01
1.150000e-06	-3.061449e-06	-1.090308e-09	-2.125781e+01	-7.501004e+01
1.160000e-06	-3.022328e-06	-1.085544e-09	-2.098616e+01	-7.459779e+01
1.170000e-06	-2.983063e-06	-1.077690e-09	-2.071352e+01	-7.418081e+01
1.180000e-06	-2.943578e-06	-1.073019e-09	-2.043935e+01	-7.375912e+01
1.190000e-06	-2.903914e-06	-1.069767e-09	-2.016393e+01	-7.333278e+01
1.200000e-06	-2.864185e-06	-1.061357e-09	-1.988807e+01	-7.290186e+01
1.210000e-06	-2.824378e-06	-1.051998e-09	-1.961165e+01	-7.246646e+01
1.220000e-06	-2.784450e-06	-1.043420e-09	-1.933441e+01	-7.202668e+01
1.230000e-06	-2.744359e-06	-1.036243e-09	-1.905603e+01	-7.158265e+01
1.240000e-06	-2.704062e-06	-1.030231e-09	-1.877621e+01	-7.113451e+01
1.250000e-06	-2.663540e-06	-1.028367e-09	-1.849484e+01	-7.068236e+01
1.260000e-06	-2.622737e-06	-1.024489e-09	-1.821152e+01	-7.022634e+01
1.270000e-06	-2.581662e-06	-1.015043e-09	-1.792630e+01	-6.976655e+01
1.280000e-06	-2.540315e-06	-1.003983e-09	-1.763920e+01	-6.930306e+01
1.290000e-06	-2.498626e-06	-9.954737e-10	-1.734973e+01	-6.883593e+01
1.300000e-06	-2.456604e-06	-9.848349e-10	-1.705794e+01	-6.836517e+01
1.310000e-06	-2.414213e-06	-9.758402e-10	-1.676359e+01	-6.789077e+01
1.320000e-06	-2.371558e-06	-9.707503e-10	-1.646741e+01	-6.741266e+01
1.330000e-06	-2.328768e-06	-9.650587e-10	-1.617028e+01	-6.693073e+01
1.340000e-06	-2.285735e-06	-9.567732e-10	-1.587148e+01	-6.644481e+01
1.350000e-06	-2.242456e-06	-9.492383e-10	-1.557096e+01	-6.595471e+01
1.360000e-06	-2.199039e-06	-9.389009e-10	-1.526949e+01	-6.546015e+01
1.370000e-06	-2.155508e-06	-9.282617e-10	-1.496722e+01	-6.496083e+01
1.380000e-06	-2.111845e-06	-9.186611e-10	-1.466403e+01	-6.445640e+01
1.390000e-06	-2.068082e-06	-9.095414e-10	-1.436016e+01	-6.394644e+01
1.400000e-06	-2.024246e-06	-9.000161e-10	-1.405577e+01	-6.343052e+01
1.410000e-06	-1.980319e-06	-8.913758e-10	-1.375076e+01	-6.290814e+01
1.420000e-06	-1.936317e-06	-8.833388e-10	-1.344522e+01	-6.237880e+01
1.430000e-06	-1.892277e-06	-8.752320e-10	-1.313942e+01	-6.184194e+01
1.440000e-06	-1.848142e-06	-8.654415e-10	-1.283296e+01	-6.129700e+01
1.450000e-06	-1.803865e-06	-8.544864e-10	-1.252551e+01	-6.074340e+01
1.460000e-06	-1.759497e-06	-8.423690e-10	-1.221743e+01	-6.018052e+01
1.470000e-06	-1.715092e-06	-8.292669e-10	-1.190909e+01	-5.960775e+01
1.480000e-06	-1.670486e-06	-8.182496e-10	-1.159936e+01	-5.902450e+01
1.490000e-06	-1.625602e-06	-8.095697e-10	-1.128771e+01	-5.843013e+01
1.500000e-06	-1.580601e-06	-8.013788e-10	-1.097523e+01	-5.782403e+01
1.510000e-06	-1.535439e-06	-7.938378e-10	-1.066164e+01	-5.720561e+01
1.520000e-06	-1.490142e-06	-7.867290e-10	-1.034711e+01	-5.657424e+01
1.530000e-06	-1.444790e-06	-7.778652e-10	-1.003220e+01	-5.592935e+01
1.540000e-06	-1.399346e-06	-7.670396e-10	-9.716651e+00	-5.527033e+01
1.550000e-06	-1.353860e-06	-7.557493e-10	-9.400809e+00	-5.459659e+01
1.560000e-06	-1.308368e-06	-7.427862e-10	-9.084921e+00	-5.390756e+01
1.570000e-06	-1.262812e-06	-7.309253e-10	-8.768599e+00	-5.320264e+01
1.580000e-06	-1.217121e-06	-7.206965e-10	-8.451331e+00	-5.248124e+01
1.590000e-06	-1.171251e-06	-7.123688e-10	-8.132825e+00	-5.174277e+01
1.600000e-06	-1.125249e-06	-7.039061e-10	-7.813403e+00	-5.098660e+01
1.610000e-06	-1.079197e-06	-6.926423e-10	-7.493631e+00	-5.021212e+01
1.620000e-06	-1.033125e-06	-6.797090e-10	-7.173716e+00	-4.941868e+01
1.630000e-06	-9.870581e-07	-6.662092e-10	-6.853843e+00	-4.860559e+01
1.640000e-06	-9.409361e-07	-6.559668e-10	-6.533585e+00	-4.777216e+01
1.650000e-06	-8.947177e-07	-6.451818e-10	-6.212658e+00	-4.691764e+01
1.660000e-06	-8.484852e-07	-6.317191e-10	-5.891633e+00	-4.604128e+01
1.670000e-06	-8.021079e-07	-6.162139e-10	-5.569603e+00	-4.514227e+01
1.680000e-06	-7.555252e-07	-6.002697e-10	-5.246146e+00	-4.421977e+01
1.690000e-06	-7.089262e-07	-5.825586e-10	-4.922576e+00	-4.327293e+01
1.700000e-06	-6.624444e-07	-5.660052e-10	-4.599820e+00	-4.230085e+01
1.710000e-06	-6.160017e-07	-5.511694e-10	-4.277336e+00	-4.130260e+01
1.720000e-06	-5.694266e-07	-5.383401e-10	-3.953932e+00	-4.027727e+01
1.730000e-06	-5.226723e-07	-5.251326e-10	-3.629284e+00	-3.922391e+01
1.740000e-06	-4.759003e-07	-5.091235e-10	-3.304513e+00	-3.814159e+01
1.750000e-06	-4.291774e-07	-4.898354e-10	-2.980082e+00	-3.702937e+01
1.760000e-06	-3.823489e-07	-4.678872e-10	-2.654919e+00	-3.588636e+01
1.770000e-06	-3.354562e-07	-4.482012e-10	-2.329310e+00	-3.471169e+01
1.780000e-06	-2.885266e-07	-4.316261e-10	-2.003444e+00	-3.350456e+01
1.790000e-06	-2.415720e-07	-4.162789e-10	-1.677405e+00	-3.226422e+01
1.800000e-06	-1.947494e-07	-4.021739e-10	-1.352283e+00	-3.099003e+01
1.810000e-06	-1.479643e-07	-3.854831e-10	-1.027421e+00	-2.968141e+01
1.820000e-06	-1.011112e-07	-3.665090e-10	-7.020868e-01	-2.833794e+01
1.830000e-06	-5.420562e-08	-3.475424e-10	-3.763880e-01	-2.695929e+01
1.840000e-06	-7.249546e-09	-3.286724e-10	-5.033872e-02	-2.554529e+01
1.850000e-06	3.972857e-08	-3.083887e-10	2.758635e-01	-2.409594e+01
1.860000e-06	8.665545e-08	-2.861613e-10	6.017101e-01	-2.261140e+01
1.870000e-06	1.335285e-07	-2.635874e-10	9.271828e-01	-2.109199e+01
1.880000e-06	1.804029e-07	-2.409028e-10	1.252665e+00	-1.953825e+01
1.890000e-06	2.272850e-07	-2.202344e-10	1.578200e+00	-1.795089e+01
1.900000e-06	2.741357e-07	-1.998099e-10	1.903518e+00	-1.633083e+01
1.910000e-06	3.209884e-07	-1.793637e-10	2.228850e+00	-1.467919e+01
1.920000e-06	3.678113e-07	-1.583129e-10	2.553974e+00	-1.299727e+01
1.930000e-06	4.145400e-07	-1.341066e-10	2.878445e+00	-1.128658e+01
1.940000e-06	4.612511e-07	-1.074225e-10	3.202793e+00	-9.548817e+00
1.950000e-06	5.079402e-07	-7.977926e-11	3.526989e+00	-7.785853e+00
1.960000e-06	5.546013e-07	-5.422231e-11	3.850989e+00	-5.999730e+00
1.970000e-06	6.012044e-07	-3.086470e-11	4.174588e+00	-4.192640e+00
1.980000e-06	6.477287e-07	-8.951909e-12	4.497638e+00	-2.366918e+00
1.990000e-06	6.941521e-07	1.349704e-11	4.819989e+00	-5.250156e-01
2.000000e-06	7.405212e-07	4.083779e-11	5.141963e+00	1.330511e+00
2.010000e-06	7.868960e-07	7.219514e-11	5.463976e+00	3.197026e+00
2.020000e-06	8.331845e-07	1.029132e-10	5.785389e+00	5.071832e+00
2.030000e-06	8.793809e-07	1.284778e-10	6.106164e+00	6.952195e+00
2.040000e-06	9.255572e-07	1.525629e-10	6.426798e+00	8.835366e+00
2.050000e-06	9.717225e-07	1.797706e-10	6.747357e+00	1.071860e+01
2.060000e-06	1.017857e-06	2.058316e-10	7.067701e+00	1.259919e+01
2.070000e-06	1.063787e-06	2.307744e-10	7.386622e+00	1.447445e+01
2.080000e-06	1.109589e-06	2.567490e-10	7.704661e+00	1.634181e+01
2.090000e-06	1.155412e-06	2.835447e-10	8.022843e+00	1.819874e+01
2.100000e-06	1.201214e-06	3.096551e-10	8.340881e+00	2.004285e+01
2.110000e-06	1.246896e-06	3.370962e-10	8.658084e+00	2.187185e+01
2.120000e-06	1.292462e-06	3.633609e-10	8.974481e+00	2.368359e+01
2.130000e-06	1.337939e-06	3.844183e-10	9.290259e+00	2.547606e+01
2.140000e-06	1.383323e-06	4.050267e-10	9.605391e+00	2.724741e+01
2.150000e-06	1.428695e-06	4.277040e-10	9.920439e+00	2.899594e+01
2.160000e-06	1.473963e-06	4.529839e-10	1.023477e+01	3.072011e+01
2.170000e-06	1.519018e-06	4.799259e-10	1.054762e+01	3.241855e+01
2.180000e-06	1.563928e-06	5.066253e-10	1.085946e+01	3.409005e+01
2.190000e-06	1.608726e-06	5.332861e-10	1.117052e+01	3.573355e+01
2.200000e-06	1.653423e-06	5.568195e-10	1.148089e+01	3.734817e+01
2.210000e-06	1.698049e-06	5.756996e-10	1.179075e+01	3.893316e+01
2.220000e-06	1.742539e-06	5.920889e-10	1.209968e+01	4.048791e+01
2.230000e-06	1.786875e-06	6.086058e-10	1.240754e+01	4.201195e+01
2.240000e-06	1.831134e-06	6.263919e-10	1.271486e+01	4.350492e+01
2.250000e-06	1.875333e-06	6.453504e-10	1.302177e+01	4.496658e+01
2.260000e-06	1.919404e-06	6.701479e-10	1.332778e+01	4.639679e+01
2.270000e-06	1.963361e-06	6.946113e-10	1.363300e+01	4.779550e+01
2.280000e-06	2.007247e-06	7.166512e-10	1.393774e+01	4.916273e+01
2.290000e-06	2.051073e-06	7.348417e-10	1.424205e+01	5.049857e+01
2.300000e-06	2.094862e-06	7.488554e-10	1.454611e+01	5.180317e+01
2.310000e-06	2.138570e-06	7.608958e-10	1.484960e+01	5.307672e+01
2.320000e-06	2.182196e-06	7.737117e-10	1.515253e+01	5.431945e+01
2.330000e-06	2.225700e-06	7.910028e-10	1.545461e+01	5.553163e+01
2.340000e-06	2.269032e-06	8.106454e-10	1.575549e+01	5.671355e+01
2.350000e-06	2.312227e-06	8.303895e-10	1.605543e+01	5.786552e+01
2.360000e-06	2.355179e-06	8.491226e-10	1.635367e+01	5.898786e+01
2.370000e-06	2.397808e-06	8.639809e-10	1.664967e+01	6.008091e+01
2.380000e-06	2.440144e-06	8.751856e-10	1.694365e+01	6.114503e+01
2.390000e-06	2.482153e-06	8.850275e-10	1.723534e+01	6.218058e+01
2.400000e-06	2.523775e-06	8.972446e-10	1.752435e+01	6.318794e+01
2.410000e-06	2.565070e-06	9.124287e-10	1.781109e+01	6.416751e+01
2.420000e-06	2.606084e-06	9.273716e-10	1.809588e+01	6.511969e+01
2.430000e-06	2.646845e-06	9.416746e-10	1.837892e+01	6.604493e+01
2.440000e-06	2.687397e-06	9.549583e-10	1.866050e+01	6.694367e+01
2.450000e-06	2.727775e-06	9.663852e-10	1.894087e+01	6.781639e+01
2.460000e-06	2.768021e-06	9.760976e-10	1.922033e+01	6.866360e+01
2.470000e-06	2.808118e-06	9.859834e-10	1.949875e+01	6.948584e+01
2.480000e-06	2.848092e-06	9.962959e-10	1.977632e+01	7.028369e+01
2.490000e-06	2.887966e-06	1.008071e-09	2.005319e+01	7.105776e+01
2.500000e-06	2.927712e-06	1.018814e-09	2.032918e+01	7.180868e+01
2.510000e-06	2.967269e-06	1.028329e-09	2.060385e+01	7.253714e+01
2.520000e-06	3.006640e-06	1.037686e-09	2.087723e+01	7.324386e+01
2.530000e-06	3.045774e-06	1.047325e-09	2.114896e+01	7.392959e+01
2.540000e-06	3.084622e-06	1.057376e-09	2.141871e+01	7.459509e+01
2.550000e-06	3.123282e-06	1.066915e-09	2.168716e+01	7.524119e+01
2.560000e-06	3.161690e-06	1.075362e-09	2.195385e+01	7.586870e+01
2.570000e-06	3.199841e-06	1.082447e-09	2.221876e+01	7.647846e+01
2.580000e-06	3.237872e-06	1.089619e-09	2.248283e+01	7.707133e+01
2.590000e-06	3.275760e-06	1.098371e-09	2.274592e+01	7.764817e+01
2.600000e-06	3.313352e-06	1.107013e-09	2.300695e+01	7.820981e+01
2.610000e-06	3.350704e-06	1.115455e-09	2.326631e+01	7.875710e+01
2.620000e-06	3.387909e-06	1.122804e-09	2.352465e+01	7.929084e+01
2.630000e-06	3.424830e-06	1.129159e-09	2.378102e+01	7.981183e+01
2.640000e-06	3.461431e-06	1.134825e-09	2.403517e+01	8.032081e+01
2.650000e-06	3.497784e-06	1.139751e-09	2.428759e+01	8.081849e+01
2.660000e-06	3.533928e-06	1.145225e-09	2.453856e+01	8.130552e+01
2.670000e-06	3.569910e-06	1.151015e-09	2.478841e+01	8.178251e+01
2.680000e-06	3.605801e-06	1.158034e-09	2.503763e+01	8.225001e+01
2.690000e-06	3.641599e-06	1.167670e-09	2.528620e+01	8.270847e+01
2.700000e-06	3.677220e-06	1.177717e-09	2.553354e+01	8.315833e+01
2.710000e-06	3.712620e-06	1.186593e-09	2.577935e+01	8.359992e+01
2.720000e-06	3.747740e-06	1.194153e-09	2.602321e+01	8.403352e+01
2.730000e-06	3.782563e-06	1.199739e-09	2.626501e+01	8.445936e+01
2.740000e-06	3.817086e-06	1.204721e-09	2.650473e+01	8.487757e+01
2.750000e-06	3.851091e-06	1.210991e-09	2.674085e+01	8.528825e+01
2.760000e-06	3.884494e-06	1.218106e-09	2.697279e+01	8.569144e+01
2.770000e-06	3.917459e-06	1.224360e-09	2.720169e+01	8.608713e+01
2.780000e-06	3.950026e-06	1.231644e-09	2.742782e+01	8.647528e+01
2.790000e-06	3.982237e-06	1.239831e-09	2.765149e+01	8.685579e+01
2.800000e-06	4.014256e-06	1.247025e-09	2.787382e+01	8.722857e+01
2.810000e-06	4.046147e-06	1.252599e-09	2.809526e+01	8.759350e+01
2.820000e-06	4.077884e-06	1.259093e-09	2.831563e+01	8.795043e+01
2.830000e-06	4.109477e-06	1.265691e-09	2.853501e+01	8.829925e+01
2.840000e-06	4.140840e-06	1.270071e-09	2.875278e+01	8.863983e+01
2.850000e-06	4.171819e-06	1.274471e-09	2.896789e+01	8.897207e+01
2.860000e-06	4.202375e-06	1.281794e-09	2.918007e+01	8.929588e+01
2.870000e-06	4.232606e-06	1.290080e-09	2.938998e+01	8.961123e+01
2.880000e-06	4.262562e-06	1.296571e-09	2.959799e+01	8.991810e+01
2.890000e-06	4.292258e-06	1.301351e-09	2.980419e+01	9.021651e+01
2.900000e-06	4.321762e-06	1.304389e-09	3.000905e+01	9.050653e+01
