# Temperatura_=_-8.0
# Concentracion g/m^3_=_1620.0
# C_Vs_to_Am_M_A/Vsm_=_65563218390.804596
# pendiente_HvsI_1/m_=_3716.3
# ordenada_HvsI_A/m_=_1297.0
# frecuencia_Hz_=_135108.5905370157

Tiempo_(s)	Campo_(V.s)	Magnetizacion_(V.s)	Campo_(kA/m)	Magnetizacion_(A/m)
0.000000e+00	-5.528448e-06	-1.075560e-09	-3.837245e+01	-7.402486e+01
1.000000e-08	-5.528687e-06	-1.075906e-09	-3.837411e+01	-7.398134e+01
2.000000e-08	-5.528730e-06	-1.076622e-09	-3.837441e+01	-7.393627e+01
3.000000e-08	-5.528418e-06	-1.077722e-09	-3.837224e+01	-7.388991e+01
4.000000e-08	-5.527620e-06	-1.076427e-09	-3.836670e+01	-7.384256e+01
5.000000e-08	-5.526268e-06	-1.071248e-09	-3.835732e+01	-7.379449e+01
6.000000e-08	-5.524326e-06	-1.062337e-09	-3.834384e+01	-7.374596e+01
7.000000e-08	-5.521829e-06	-1.050468e-09	-3.832651e+01	-7.369721e+01
8.000000e-08	-5.518754e-06	-1.050164e-09	-3.830517e+01	-7.364845e+01
9.000000e-08	-5.515184e-06	-1.091099e-09	-3.828039e+01	-7.359985e+01
1.000000e-07	-5.511208e-06	-1.136412e-09	-3.825279e+01	-7.355153e+01
1.100000e-07	-5.506846e-06	-1.097969e-09	-3.822251e+01	-7.350358e+01
1.200000e-07	-5.502240e-06	-1.026648e-09	-3.819054e+01	-7.345600e+01
1.300000e-07	-5.497473e-06	-1.041695e-09	-3.815746e+01	-7.340876e+01
1.400000e-07	-5.492351e-06	-1.115947e-09	-3.812191e+01	-7.336175e+01
1.500000e-07	-5.486670e-06	-1.088012e-09	-3.808247e+01	-7.331482e+01
1.600000e-07	-5.480607e-06	-1.010634e-09	-3.804039e+01	-7.326774e+01
1.700000e-07	-5.474336e-06	-1.029492e-09	-3.799686e+01	-7.322024e+01
1.800000e-07	-5.467667e-06	-1.120025e-09	-3.795058e+01	-7.317200e+01
1.900000e-07	-5.460532e-06	-1.121951e-09	-3.790105e+01	-7.312264e+01
2.000000e-07	-5.453099e-06	-1.043441e-09	-3.784946e+01	-7.307177e+01
2.100000e-07	-5.445412e-06	-1.046020e-09	-3.779610e+01	-7.301897e+01
2.200000e-07	-5.437430e-06	-1.111124e-09	-3.774070e+01	-7.296377e+01
2.300000e-07	-5.429193e-06	-1.134182e-09	-3.768353e+01	-7.290575e+01
2.400000e-07	-5.420626e-06	-1.084231e-09	-3.762407e+01	-7.284446e+01
2.500000e-07	-5.411460e-06	-1.076149e-09	-3.756045e+01	-7.277947e+01
2.600000e-07	-5.401455e-06	-1.105514e-09	-3.749100e+01	-7.271041e+01
2.700000e-07	-5.390863e-06	-1.103214e-09	-3.741749e+01	-7.263692e+01
2.800000e-07	-5.379822e-06	-1.062590e-09	-3.734085e+01	-7.255871e+01
2.900000e-07	-5.368270e-06	-1.067860e-09	-3.726067e+01	-7.247554e+01
3.000000e-07	-5.356386e-06	-1.091654e-09	-3.717818e+01	-7.238727e+01
3.100000e-07	-5.344206e-06	-1.080966e-09	-3.709364e+01	-7.229381e+01
3.200000e-07	-5.331573e-06	-1.057127e-09	-3.700596e+01	-7.219515e+01
3.300000e-07	-5.318437e-06	-1.072479e-09	-3.691478e+01	-7.209140e+01
3.400000e-07	-5.305023e-06	-1.094386e-09	-3.682168e+01	-7.198273e+01
3.500000e-07	-5.291293e-06	-1.070935e-09	-3.672638e+01	-7.186940e+01
3.600000e-07	-5.277074e-06	-1.040238e-09	-3.662768e+01	-7.175178e+01
3.700000e-07	-5.262360e-06	-1.054067e-09	-3.652556e+01	-7.163029e+01
3.800000e-07	-5.247135e-06	-1.068427e-09	-3.641988e+01	-7.150544e+01
3.900000e-07	-5.231262e-06	-1.040392e-09	-3.630971e+01	-7.137781e+01
4.000000e-07	-5.214871e-06	-1.030504e-09	-3.619594e+01	-7.124802e+01
4.100000e-07	-5.198185e-06	-1.064920e-09	-3.608012e+01	-7.111676e+01
4.200000e-07	-5.181224e-06	-1.056439e-09	-3.596240e+01	-7.098472e+01
4.300000e-07	-5.163917e-06	-1.013494e-09	-3.584227e+01	-7.085263e+01
4.400000e-07	-5.146265e-06	-1.042958e-09	-3.571975e+01	-7.072121e+01
4.500000e-07	-5.128315e-06	-1.076638e-09	-3.559517e+01	-7.059117e+01
4.600000e-07	-5.109898e-06	-1.034396e-09	-3.546733e+01	-7.046321e+01
4.700000e-07	-5.090999e-06	-1.007510e-09	-3.533616e+01	-7.033796e+01
4.800000e-07	-5.071833e-06	-1.053071e-09	-3.520313e+01	-7.021601e+01
4.900000e-07	-5.052434e-06	-1.045896e-09	-3.506848e+01	-7.009788e+01
5.000000e-07	-5.032748e-06	-1.016817e-09	-3.493184e+01	-6.998401e+01
5.100000e-07	-5.012866e-06	-1.045614e-09	-3.479384e+01	-6.987476e+01
5.200000e-07	-4.992748e-06	-1.059247e-09	-3.465421e+01	-6.977038e+01
5.300000e-07	-4.972311e-06	-1.017139e-09	-3.451235e+01	-6.967103e+01
5.400000e-07	-4.951560e-06	-1.033670e-09	-3.436832e+01	-6.957675e+01
5.500000e-07	-4.930403e-06	-1.058901e-09	-3.422147e+01	-6.948749e+01
5.600000e-07	-4.908849e-06	-1.009917e-09	-3.407187e+01	-6.940307e+01
5.700000e-07	-4.886982e-06	-9.883738e-10	-3.392010e+01	-6.932324e+01
5.800000e-07	-4.864768e-06	-1.034869e-09	-3.376591e+01	-6.924764e+01
5.900000e-07	-4.842187e-06	-1.028973e-09	-3.360917e+01	-6.917580e+01
6.000000e-07	-4.819204e-06	-1.005874e-09	-3.344965e+01	-6.910720e+01
6.100000e-07	-4.795860e-06	-1.036198e-09	-3.328762e+01	-6.904124e+01
6.200000e-07	-4.772306e-06	-1.040272e-09	-3.312414e+01	-6.897728e+01
6.300000e-07	-4.748596e-06	-1.001483e-09	-3.295957e+01	-6.891462e+01
6.400000e-07	-4.724640e-06	-1.007297e-09	-3.279329e+01	-6.885254e+01
6.500000e-07	-4.700325e-06	-1.022645e-09	-3.262453e+01	-6.879032e+01
6.600000e-07	-4.675633e-06	-1.000390e-09	-3.245314e+01	-6.872724e+01
6.700000e-07	-4.650571e-06	-1.002270e-09	-3.227918e+01	-6.866260e+01
6.800000e-07	-4.624995e-06	-1.022476e-09	-3.210166e+01	-6.859574e+01
6.900000e-07	-4.598800e-06	-1.012659e-09	-3.191985e+01	-6.852605e+01
7.000000e-07	-4.572085e-06	-1.004298e-09	-3.173442e+01	-6.845298e+01
7.100000e-07	-4.544925e-06	-1.015599e-09	-3.154591e+01	-6.837605e+01
7.200000e-07	-4.517451e-06	-1.000646e-09	-3.135521e+01	-6.829485e+01
7.300000e-07	-4.489757e-06	-9.846670e-10	-3.116299e+01	-6.820910e+01
7.400000e-07	-4.461862e-06	-9.951885e-10	-3.096937e+01	-6.811856e+01
7.500000e-07	-4.433783e-06	-9.999867e-10	-3.077448e+01	-6.802312e+01
7.600000e-07	-4.405441e-06	-9.910676e-10	-3.057776e+01	-6.792275e+01
7.700000e-07	-4.376747e-06	-9.961989e-10	-3.037860e+01	-6.781752e+01
7.800000e-07	-4.347688e-06	-9.937717e-10	-3.017690e+01	-6.770759e+01
7.900000e-07	-4.318333e-06	-9.798740e-10	-2.997315e+01	-6.759318e+01
8.000000e-07	-4.288773e-06	-9.790254e-10	-2.976798e+01	-6.747461e+01
8.100000e-07	-4.258997e-06	-9.822858e-10	-2.956130e+01	-6.735224e+01
8.200000e-07	-4.228880e-06	-9.700497e-10	-2.935227e+01	-6.722648e+01
8.300000e-07	-4.198418e-06	-9.710246e-10	-2.914084e+01	-6.709780e+01
8.400000e-07	-4.167629e-06	-9.809082e-10	-2.892713e+01	-6.696667e+01
8.500000e-07	-4.136538e-06	-9.759189e-10	-2.871133e+01	-6.683356e+01
8.600000e-07	-4.105194e-06	-9.680018e-10	-2.849377e+01	-6.669895e+01
8.700000e-07	-4.073685e-06	-9.712386e-10	-2.827507e+01	-6.656329e+01
8.800000e-07	-4.042023e-06	-9.645070e-10	-2.805531e+01	-6.642700e+01
8.900000e-07	-4.010185e-06	-9.539577e-10	-2.783433e+01	-6.629044e+01
9.000000e-07	-3.978202e-06	-9.573631e-10	-2.761233e+01	-6.615393e+01
9.100000e-07	-3.945906e-06	-9.595524e-10	-2.738817e+01	-6.601770e+01
9.200000e-07	-3.913262e-06	-9.524585e-10	-2.716159e+01	-6.588192e+01
9.300000e-07	-3.880235e-06	-9.540904e-10	-2.693235e+01	-6.574667e+01
9.400000e-07	-3.846781e-06	-9.592875e-10	-2.670015e+01	-6.561194e+01
9.500000e-07	-3.812912e-06	-9.528235e-10	-2.646507e+01	-6.547764e+01
9.600000e-07	-3.778587e-06	-9.460043e-10	-2.622683e+01	-6.534358e+01
9.700000e-07	-3.743892e-06	-9.428006e-10	-2.598601e+01	-6.520951e+01
9.800000e-07	-3.708821e-06	-9.334844e-10	-2.574259e+01	-6.507509e+01
9.900000e-07	-3.673395e-06	-9.247120e-10	-2.549670e+01	-6.493990e+01
1.000000e-06	-3.637802e-06	-9.276003e-10	-2.524965e+01	-6.480348e+01
1.010000e-06	-3.602121e-06	-9.294702e-10	-2.500199e+01	-6.466531e+01
1.020000e-06	-3.566284e-06	-9.260382e-10	-2.475325e+01	-6.452483e+01
1.030000e-06	-3.530243e-06	-9.268346e-10	-2.450309e+01	-6.438148e+01
1.040000e-06	-3.493964e-06	-9.287923e-10	-2.425128e+01	-6.423466e+01
1.050000e-06	-3.457433e-06	-9.224977e-10	-2.399772e+01	-6.408380e+01
1.060000e-06	-3.420665e-06	-9.161514e-10	-2.374252e+01	-6.392835e+01
1.070000e-06	-3.383667e-06	-9.134115e-10	-2.348572e+01	-6.376779e+01
1.080000e-06	-3.346338e-06	-9.122428e-10	-2.322663e+01	-6.360164e+01
1.090000e-06	-3.308729e-06	-9.141235e-10	-2.296559e+01	-6.342949e+01
1.100000e-06	-3.270903e-06	-9.203447e-10	-2.270304e+01	-6.325101e+01
1.110000e-06	-3.232859e-06	-9.204380e-10	-2.243898e+01	-6.306594e+01
1.120000e-06	-3.194619e-06	-9.153522e-10	-2.217356e+01	-6.287411e+01
1.130000e-06	-3.156133e-06	-9.103120e-10	-2.190643e+01	-6.267545e+01
1.140000e-06	-3.117431e-06	-9.049500e-10	-2.163780e+01	-6.246996e+01
1.150000e-06	-3.078527e-06	-8.976669e-10	-2.136777e+01	-6.225776e+01
1.160000e-06	-3.039414e-06	-8.937043e-10	-2.109630e+01	-6.203905e+01
1.170000e-06	-3.000122e-06	-8.912469e-10	-2.082357e+01	-6.181412e+01
1.180000e-06	-2.960657e-06	-8.872385e-10	-2.054965e+01	-6.158334e+01
1.190000e-06	-2.921051e-06	-8.845567e-10	-2.027475e+01	-6.134714e+01
1.200000e-06	-2.881342e-06	-8.823892e-10	-1.999913e+01	-6.110604e+01
1.210000e-06	-2.841482e-06	-8.769933e-10	-1.972247e+01	-6.086056e+01
1.220000e-06	-2.801515e-06	-8.728011e-10	-1.944506e+01	-6.061128e+01
1.230000e-06	-2.761454e-06	-8.716298e-10	-1.916700e+01	-6.035881e+01
1.240000e-06	-2.721229e-06	-8.691278e-10	-1.888780e+01	-6.010372e+01
1.250000e-06	-2.680725e-06	-8.663918e-10	-1.860666e+01	-5.984660e+01
1.260000e-06	-2.639901e-06	-8.655447e-10	-1.832331e+01	-5.958798e+01
1.270000e-06	-2.598902e-06	-8.636031e-10	-1.803874e+01	-5.932838e+01
1.280000e-06	-2.557670e-06	-8.589137e-10	-1.775255e+01	-5.906821e+01
1.290000e-06	-2.516036e-06	-8.549634e-10	-1.746358e+01	-5.880785e+01
1.300000e-06	-2.474042e-06	-8.481816e-10	-1.717210e+01	-5.854756e+01
1.310000e-06	-2.431775e-06	-8.393914e-10	-1.687872e+01	-5.828753e+01
1.320000e-06	-2.389263e-06	-8.338567e-10	-1.658365e+01	-5.802781e+01
1.330000e-06	-2.346506e-06	-8.324782e-10	-1.628688e+01	-5.776837e+01
1.340000e-06	-2.303505e-06	-8.324417e-10	-1.598842e+01	-5.750905e+01
1.350000e-06	-2.260300e-06	-8.311083e-10	-1.568853e+01	-5.724958e+01
1.360000e-06	-2.216885e-06	-8.285708e-10	-1.538719e+01	-5.698959e+01
1.370000e-06	-2.173315e-06	-8.212547e-10	-1.508478e+01	-5.672857e+01
1.380000e-06	-2.129692e-06	-8.103783e-10	-1.478199e+01	-5.646593e+01
1.390000e-06	-2.085966e-06	-8.009261e-10	-1.447850e+01	-5.620099e+01
1.400000e-06	-2.042162e-06	-7.945518e-10	-1.417446e+01	-5.593297e+01
1.410000e-06	-1.998321e-06	-7.930035e-10	-1.387016e+01	-5.566102e+01
1.420000e-06	-1.954414e-06	-7.946587e-10	-1.356540e+01	-5.538425e+01
1.430000e-06	-1.910397e-06	-7.952439e-10	-1.325989e+01	-5.510171e+01
1.440000e-06	-1.866252e-06	-7.911329e-10	-1.295349e+01	-5.481241e+01
1.450000e-06	-1.822049e-06	-7.827765e-10	-1.264667e+01	-5.451537e+01
1.460000e-06	-1.777726e-06	-7.723244e-10	-1.233904e+01	-5.420961e+01
1.470000e-06	-1.733224e-06	-7.620653e-10	-1.203015e+01	-5.389414e+01
1.480000e-06	-1.688549e-06	-7.539964e-10	-1.172006e+01	-5.356802e+01
1.490000e-06	-1.643729e-06	-7.501431e-10	-1.140897e+01	-5.323036e+01
1.500000e-06	-1.598809e-06	-7.502796e-10	-1.109719e+01	-5.288029e+01
1.510000e-06	-1.553753e-06	-7.508035e-10	-1.078446e+01	-5.251703e+01
1.520000e-06	-1.508573e-06	-7.475797e-10	-1.047087e+01	-5.213984e+01
1.530000e-06	-1.463316e-06	-7.413447e-10	-1.015674e+01	-5.174809e+01
1.540000e-06	-1.417986e-06	-7.292696e-10	-9.842109e+00	-5.134118e+01
1.550000e-06	-1.372530e-06	-7.149082e-10	-9.526603e+00	-5.091861e+01
1.560000e-06	-1.326901e-06	-7.022367e-10	-9.209899e+00	-5.047995e+01
1.570000e-06	-1.281183e-06	-6.919718e-10	-8.892574e+00	-5.002482e+01
1.580000e-06	-1.235416e-06	-6.851778e-10	-8.574910e+00	-4.955292e+01
1.590000e-06	-1.189565e-06	-6.808338e-10	-8.256660e+00	-4.906398e+01
1.600000e-06	-1.143637e-06	-6.765528e-10	-7.937880e+00	-4.855779e+01
1.610000e-06	-1.097621e-06	-6.704099e-10	-7.618489e+00	-4.803415e+01
1.620000e-06	-1.051584e-06	-6.618056e-10	-7.298949e+00	-4.749288e+01
1.630000e-06	-1.005473e-06	-6.507862e-10	-6.978892e+00	-4.693381e+01
1.640000e-06	-9.592432e-07	-6.389153e-10	-6.658019e+00	-4.635675e+01
1.650000e-06	-9.129884e-07	-6.277316e-10	-6.336968e+00	-4.576148e+01
1.660000e-06	-8.666808e-07	-6.170155e-10	-6.015552e+00	-4.514776e+01
1.670000e-06	-8.202858e-07	-6.068994e-10	-5.693528e+00	-4.451527e+01
1.680000e-06	-7.738556e-07	-5.977943e-10	-5.371260e+00	-4.386366e+01
1.690000e-06	-7.274678e-07	-5.895609e-10	-5.049287e+00	-4.319249e+01
1.700000e-06	-6.809627e-07	-5.799990e-10	-4.726499e+00	-4.250126e+01
1.710000e-06	-6.342580e-07	-5.678386e-10	-4.402326e+00	-4.178938e+01
1.720000e-06	-5.874825e-07	-5.574807e-10	-4.077662e+00	-4.105618e+01
1.730000e-06	-5.407327e-07	-5.481380e-10	-3.753176e+00	-4.030090e+01
1.740000e-06	-4.939579e-07	-5.379002e-10	-3.428516e+00	-3.952273e+01
1.750000e-06	-4.471095e-07	-5.250617e-10	-3.103346e+00	-3.872075e+01
1.760000e-06	-4.002190e-07	-5.103313e-10	-2.777883e+00	-3.789401e+01
1.770000e-06	-3.533310e-07	-4.974714e-10	-2.452438e+00	-3.704151e+01
1.780000e-06	-3.064466e-07	-4.863106e-10	-2.127018e+00	-3.616219e+01
1.790000e-06	-2.595180e-07	-4.743648e-10	-1.801290e+00	-3.525500e+01
1.800000e-06	-2.125883e-07	-4.621176e-10	-1.475556e+00	-3.431887e+01
1.810000e-06	-1.657051e-07	-4.497894e-10	-1.150144e+00	-3.335277e+01
1.820000e-06	-1.188426e-07	-4.366762e-10	-8.248759e-01	-3.235569e+01
1.830000e-06	-7.196842e-08	-4.240542e-10	-4.995262e-01	-3.132670e+01
1.840000e-06	-2.513192e-08	-4.113356e-10	-1.744383e-01	-3.026495e+01
1.850000e-06	2.168415e-08	-3.960121e-10	1.505077e-01	-2.916969e+01
1.860000e-06	6.855184e-08	-3.785640e-10	4.758120e-01	-2.804033e+01
1.870000e-06	1.154317e-07	-3.586257e-10	8.012010e-01	-2.687639e+01
1.880000e-06	1.623144e-07	-3.381781e-10	1.126610e+00	-2.567759e+01
1.890000e-06	2.092289e-07	-3.206990e-10	1.452239e+00	-2.444382e+01
1.900000e-06	2.561331e-07	-3.057835e-10	1.777796e+00	-2.317518e+01
1.910000e-06	3.029562e-07	-2.909688e-10	2.102791e+00	-2.187197e+01
1.920000e-06	3.497750e-07	-2.754390e-10	2.427756e+00	-2.053471e+01
1.930000e-06	3.965810e-07	-2.583259e-10	2.752632e+00	-1.916417e+01
1.940000e-06	4.432972e-07	-2.373714e-10	3.076885e+00	-1.776132e+01
1.950000e-06	4.899929e-07	-2.137104e-10	3.400995e+00	-1.632737e+01
1.960000e-06	5.366043e-07	-1.917133e-10	3.724521e+00	-1.486375e+01
1.970000e-06	5.831680e-07	-1.738797e-10	4.047716e+00	-1.337209e+01
1.980000e-06	6.297499e-07	-1.576126e-10	4.371036e+00	-1.185426e+01
1.990000e-06	6.762287e-07	-1.397638e-10	4.693641e+00	-1.031227e+01
2.000000e-06	7.226320e-07	-1.186004e-10	5.015722e+00	-8.748332e+00
2.010000e-06	7.690217e-07	-9.262531e-11	5.337709e+00	-7.164796e+00
2.020000e-06	8.153973e-07	-6.413956e-11	5.659598e+00	-5.564141e+00
2.030000e-06	8.616683e-07	-3.782999e-11	5.980760e+00	-3.948950e+00
2.040000e-06	9.077456e-07	-1.504519e-11	6.300579e+00	-2.321884e+00
2.050000e-06	9.537697e-07	6.074369e-12	6.620028e+00	-6.856590e-01
2.060000e-06	9.997986e-07	2.840401e-11	6.939510e+00	9.569862e-01
2.070000e-06	1.045761e-06	5.097074e-11	7.258528e+00	2.603311e+00
2.080000e-06	1.091657e-06	7.437237e-11	7.577088e+00	4.250601e+00
2.090000e-06	1.137445e-06	9.978041e-11	7.894900e+00	5.896194e+00
2.100000e-06	1.183097e-06	1.246115e-10	8.211766e+00	7.537499e+00
2.110000e-06	1.228731e-06	1.468736e-10	8.528508e+00	9.172023e+00
2.120000e-06	1.274372e-06	1.688444e-10	8.845302e+00	1.079739e+01
2.130000e-06	1.319949e-06	1.907408e-10	9.161648e+00	1.241134e+01
2.140000e-06	1.365409e-06	2.100532e-10	9.477176e+00	1.401179e+01
2.150000e-06	1.410731e-06	2.299496e-10	9.791754e+00	1.559678e+01
2.160000e-06	1.455933e-06	2.533746e-10	1.010550e+01	1.716453e+01
2.170000e-06	1.501056e-06	2.778673e-10	1.041869e+01	1.871344e+01
2.180000e-06	1.546145e-06	3.015420e-10	1.073165e+01	2.024207e+01
2.190000e-06	1.591164e-06	3.238799e-10	1.104412e+01	2.174916e+01
2.200000e-06	1.635961e-06	3.443666e-10	1.135506e+01	2.323362e+01
2.210000e-06	1.680556e-06	3.620723e-10	1.166459e+01	2.469451e+01
2.220000e-06	1.725007e-06	3.770522e-10	1.197311e+01	2.613107e+01
2.230000e-06	1.769340e-06	3.925644e-10	1.228083e+01	2.754267e+01
2.240000e-06	1.813652e-06	4.088393e-10	1.258839e+01	2.892881e+01
2.250000e-06	1.857870e-06	4.257507e-10	1.289530e+01	3.028912e+01
2.260000e-06	1.901937e-06	4.467734e-10	1.320117e+01	3.162335e+01
2.270000e-06	1.945886e-06	4.707827e-10	1.350621e+01	3.293131e+01
2.280000e-06	1.989736e-06	4.935480e-10	1.381057e+01	3.421292e+01
2.290000e-06	2.033517e-06	5.132167e-10	1.411445e+01	3.546816e+01
2.300000e-06	2.077259e-06	5.289453e-10	1.441806e+01	3.669703e+01
2.310000e-06	2.120942e-06	5.413437e-10	1.472126e+01	3.789961e+01
2.320000e-06	2.164591e-06	5.529724e-10	1.502422e+01	3.907596e+01
2.330000e-06	2.208226e-06	5.664068e-10	1.532709e+01	4.022620e+01
2.340000e-06	2.251713e-06	5.821408e-10	1.562893e+01	4.135041e+01
2.350000e-06	2.294985e-06	5.993038e-10	1.592928e+01	4.244870e+01
2.360000e-06	2.338108e-06	6.166454e-10	1.622859e+01	4.352114e+01
2.370000e-06	2.381039e-06	6.315759e-10	1.652657e+01	4.456782e+01
2.380000e-06	2.423654e-06	6.440974e-10	1.682236e+01	4.558880e+01
2.390000e-06	2.465844e-06	6.557405e-10	1.711520e+01	4.658410e+01
2.400000e-06	2.507701e-06	6.670293e-10	1.740572e+01	4.755377e+01
2.410000e-06	2.549246e-06	6.791034e-10	1.769408e+01	4.849781e+01
2.420000e-06	2.590413e-06	6.910111e-10	1.797982e+01	4.941623e+01
2.430000e-06	2.631335e-06	7.028061e-10	1.826386e+01	5.030903e+01
2.440000e-06	2.672083e-06	7.148722e-10	1.854668e+01	5.117621e+01
2.450000e-06	2.712595e-06	7.262116e-10	1.882787e+01	5.201780e+01
2.460000e-06	2.752820e-06	7.367959e-10	1.910707e+01	5.283383e+01
2.470000e-06	2.792835e-06	7.472095e-10	1.938481e+01	5.362435e+01
2.480000e-06	2.832759e-06	7.587093e-10	1.966192e+01	5.438945e+01
2.490000e-06	2.872612e-06	7.714891e-10	1.993853e+01	5.512926e+01
2.500000e-06	2.912358e-06	7.840026e-10	2.021441e+01	5.584396e+01
2.510000e-06	2.952003e-06	7.935034e-10	2.048958e+01	5.653376e+01
2.520000e-06	2.991481e-06	7.993906e-10	2.076360e+01	5.719895e+01
2.530000e-06	3.030719e-06	8.063434e-10	2.103594e+01	5.783985e+01
2.540000e-06	3.069728e-06	8.148776e-10	2.130670e+01	5.845687e+01
2.550000e-06	3.108566e-06	8.230866e-10	2.157627e+01	5.905047e+01
2.560000e-06	3.147184e-06	8.307715e-10	2.184432e+01	5.962116e+01
2.570000e-06	3.185508e-06	8.369414e-10	2.211032e+01	6.016952e+01
2.580000e-06	3.223520e-06	8.428438e-10	2.237416e+01	6.069617e+01
2.590000e-06	3.261310e-06	8.476335e-10	2.263646e+01	6.120181e+01
2.600000e-06	3.298965e-06	8.544364e-10	2.289781e+01	6.168717e+01
2.610000e-06	3.336450e-06	8.613362e-10	2.315799e+01	6.215299e+01
2.620000e-06	3.373686e-06	8.669768e-10	2.341644e+01	6.260010e+01
2.630000e-06	3.410635e-06	8.713025e-10	2.367290e+01	6.302929e+01
2.640000e-06	3.447384e-06	8.746135e-10	2.392798e+01	6.344142e+01
2.650000e-06	3.483875e-06	8.788593e-10	2.418126e+01	6.383731e+01
2.660000e-06	3.520066e-06	8.840660e-10	2.443245e+01	6.421781e+01
2.670000e-06	3.556088e-06	8.886890e-10	2.468248e+01	6.458375e+01
2.680000e-06	3.592011e-06	8.949025e-10	2.493182e+01	6.493594e+01
2.690000e-06	3.627812e-06	9.018084e-10	2.518031e+01	6.527515e+01
2.700000e-06	3.663495e-06	9.091166e-10	2.542798e+01	6.560214e+01
2.710000e-06	3.699031e-06	9.160013e-10	2.567464e+01	6.591762e+01
2.720000e-06	3.734302e-06	9.199665e-10	2.591945e+01	6.622226e+01
2.730000e-06	3.769314e-06	9.230617e-10	2.616246e+01	6.651668e+01
2.740000e-06	3.804043e-06	9.245752e-10	2.640352e+01	6.680145e+01
2.750000e-06	3.838296e-06	9.273177e-10	2.664126e+01	6.707710e+01
2.760000e-06	3.871914e-06	9.313363e-10	2.687460e+01	6.734411e+01
2.770000e-06	3.904975e-06	9.363025e-10	2.710407e+01	6.760289e+01
2.780000e-06	3.937583e-06	9.431102e-10	2.733040e+01	6.785382e+01
2.790000e-06	3.969836e-06	9.500394e-10	2.755427e+01	6.809725e+01
2.800000e-06	4.001882e-06	9.547546e-10	2.777670e+01	6.833346e+01
2.810000e-06	4.033759e-06	9.574976e-10	2.799795e+01	6.856272e+01
2.820000e-06	4.065488e-06	9.590020e-10	2.821818e+01	6.878526e+01
2.830000e-06	4.097100e-06	9.613303e-10	2.843760e+01	6.900128e+01
2.840000e-06	4.128532e-06	9.644885e-10	2.865576e+01	6.921098e+01
2.850000e-06	4.159671e-06	9.701891e-10	2.887189e+01	6.941452e+01
2.860000e-06	4.190484e-06	9.773875e-10	2.908576e+01	6.961208e+01
2.870000e-06	4.220992e-06	9.847410e-10	2.929752e+01	6.980380e+01
2.880000e-06	4.251173e-06	9.915061e-10	2.950700e+01	6.998986e+01
2.890000e-06	4.281020e-06	9.966812e-10	2.971417e+01	7.017043e+01
2.900000e-06	4.310585e-06	1.000304e-09	2.991937e+01	7.034567e+01
