# Temperatura_=_14.6
# Concentracion g/m^3_=_1620.0
# C_Vs_to_Am_M_A/Vsm_=_65563218390.804596
# pendiente_HvsI_1/m_=_3716.3
# ordenada_HvsI_A/m_=_1297.0
# frecuencia_Hz_=_135099.8491505207

Tiempo_(s)	Campo_(V.s)	Magnetizacion_(V.s)	Campo_(kA/m)	Magnetizacion_(A/m)
0.000000e+00	-5.574265e-06	-1.497726e-09	-3.836929e+01	-1.007800e+02
1.000000e-08	-5.574521e-06	-1.497444e-09	-3.837105e+01	-1.007691e+02
2.000000e-08	-5.574504e-06	-1.496599e-09	-3.837093e+01	-1.007566e+02
3.000000e-08	-5.574095e-06	-1.494890e-09	-3.836811e+01	-1.007425e+02
4.000000e-08	-5.573234e-06	-1.493191e-09	-3.836218e+01	-1.007272e+02
5.000000e-08	-5.571787e-06	-1.490093e-09	-3.835223e+01	-1.007108e+02
6.000000e-08	-5.569769e-06	-1.486243e-09	-3.833834e+01	-1.006935e+02
7.000000e-08	-5.567303e-06	-1.493716e-09	-3.832136e+01	-1.006756e+02
8.000000e-08	-5.564259e-06	-1.511022e-09	-3.830041e+01	-1.006573e+02
9.000000e-08	-5.560680e-06	-1.520047e-09	-3.827577e+01	-1.006386e+02
1.000000e-07	-5.556701e-06	-1.489776e-09	-3.824839e+01	-1.006199e+02
1.100000e-07	-5.552324e-06	-1.456525e-09	-3.821826e+01	-1.006010e+02
1.200000e-07	-5.547775e-06	-1.484126e-09	-3.818695e+01	-1.005821e+02
1.300000e-07	-5.543082e-06	-1.505006e-09	-3.815464e+01	-1.005632e+02
1.400000e-07	-5.537944e-06	-1.493640e-09	-3.811928e+01	-1.005441e+02
1.500000e-07	-5.532387e-06	-1.461093e-09	-3.808102e+01	-1.005247e+02
1.600000e-07	-5.526428e-06	-1.479017e-09	-3.804000e+01	-1.005048e+02
1.700000e-07	-5.520074e-06	-1.525750e-09	-3.799627e+01	-1.004840e+02
1.800000e-07	-5.513344e-06	-1.500132e-09	-3.794994e+01	-1.004620e+02
1.900000e-07	-5.506203e-06	-1.479192e-09	-3.790079e+01	-1.004384e+02
2.000000e-07	-5.498799e-06	-1.486402e-09	-3.784983e+01	-1.004127e+02
2.100000e-07	-5.491106e-06	-1.520346e-09	-3.779688e+01	-1.003843e+02
2.200000e-07	-5.483090e-06	-1.499745e-09	-3.774170e+01	-1.003527e+02
2.300000e-07	-5.474803e-06	-1.483178e-09	-3.768466e+01	-1.003171e+02
2.400000e-07	-5.466058e-06	-1.491648e-09	-3.762447e+01	-1.002769e+02
2.500000e-07	-5.456716e-06	-1.523323e-09	-3.756016e+01	-1.002315e+02
2.600000e-07	-5.446798e-06	-1.527768e-09	-3.749189e+01	-1.001801e+02
2.700000e-07	-5.436229e-06	-1.510354e-09	-3.741914e+01	-1.001221e+02
2.800000e-07	-5.425109e-06	-1.493513e-09	-3.734260e+01	-1.000567e+02
2.900000e-07	-5.413610e-06	-1.502860e-09	-3.726345e+01	-9.998342e+01
3.000000e-07	-5.401716e-06	-1.507658e-09	-3.718158e+01	-9.990160e+01
3.100000e-07	-5.389341e-06	-1.487110e-09	-3.709640e+01	-9.981073e+01
3.200000e-07	-5.376500e-06	-1.497529e-09	-3.700801e+01	-9.971034e+01
3.300000e-07	-5.363252e-06	-1.529314e-09	-3.691682e+01	-9.960006e+01
3.400000e-07	-5.349655e-06	-1.528868e-09	-3.682323e+01	-9.947961e+01
3.500000e-07	-5.335668e-06	-1.480975e-09	-3.672695e+01	-9.934877e+01
3.600000e-07	-5.321164e-06	-1.480556e-09	-3.662711e+01	-9.920748e+01
3.700000e-07	-5.306334e-06	-1.499174e-09	-3.652504e+01	-9.905574e+01
3.800000e-07	-5.291019e-06	-1.473176e-09	-3.641962e+01	-9.889366e+01
3.900000e-07	-5.274932e-06	-1.457497e-09	-3.630889e+01	-9.872148e+01
4.000000e-07	-5.258467e-06	-1.501661e-09	-3.619555e+01	-9.853953e+01
4.100000e-07	-5.241818e-06	-1.498230e-09	-3.608095e+01	-9.834823e+01
4.200000e-07	-5.224812e-06	-1.455813e-09	-3.596390e+01	-9.814810e+01
4.300000e-07	-5.207417e-06	-1.472987e-09	-3.584417e+01	-9.793974e+01
4.400000e-07	-5.189677e-06	-1.504742e-09	-3.572206e+01	-9.772383e+01
4.500000e-07	-5.171565e-06	-1.445000e-09	-3.559738e+01	-9.750109e+01
4.600000e-07	-5.152974e-06	-1.429202e-09	-3.546942e+01	-9.727232e+01
4.700000e-07	-5.133984e-06	-1.475775e-09	-3.533870e+01	-9.703832e+01
4.800000e-07	-5.114720e-06	-1.460034e-09	-3.520610e+01	-9.679994e+01
4.900000e-07	-5.095250e-06	-1.414371e-09	-3.507209e+01	-9.655800e+01
5.000000e-07	-5.075562e-06	-1.457677e-09	-3.493657e+01	-9.631334e+01
5.100000e-07	-5.055604e-06	-1.471314e-09	-3.479919e+01	-9.606675e+01
5.200000e-07	-5.035270e-06	-1.422179e-09	-3.465922e+01	-9.581899e+01
5.300000e-07	-5.014535e-06	-1.440127e-09	-3.451650e+01	-9.557078e+01
5.400000e-07	-4.993540e-06	-1.476818e-09	-3.437199e+01	-9.532274e+01
5.500000e-07	-4.972222e-06	-1.420134e-09	-3.422525e+01	-9.507544e+01
5.600000e-07	-4.950501e-06	-1.396329e-09	-3.407574e+01	-9.482936e+01
5.700000e-07	-4.928476e-06	-1.442721e-09	-3.392413e+01	-9.458489e+01
5.800000e-07	-4.906098e-06	-1.430197e-09	-3.377010e+01	-9.434230e+01
5.900000e-07	-4.883285e-06	-1.395484e-09	-3.361307e+01	-9.410179e+01
6.000000e-07	-4.860139e-06	-1.427660e-09	-3.345375e+01	-9.386345e+01
6.100000e-07	-4.836764e-06	-1.430616e-09	-3.329285e+01	-9.362725e+01
6.200000e-07	-4.813162e-06	-1.383903e-09	-3.313039e+01	-9.339307e+01
6.300000e-07	-4.789297e-06	-1.392546e-09	-3.296612e+01	-9.316073e+01
6.400000e-07	-4.765130e-06	-1.409558e-09	-3.279978e+01	-9.292992e+01
6.500000e-07	-4.740540e-06	-1.383167e-09	-3.263051e+01	-9.270027e+01
6.600000e-07	-4.715536e-06	-1.377967e-09	-3.245840e+01	-9.247136e+01
6.700000e-07	-4.690046e-06	-1.397719e-09	-3.228295e+01	-9.224269e+01
6.800000e-07	-4.663913e-06	-1.379183e-09	-3.210307e+01	-9.201374e+01
6.900000e-07	-4.637246e-06	-1.365390e-09	-3.191951e+01	-9.178395e+01
7.000000e-07	-4.610151e-06	-1.375639e-09	-3.173300e+01	-9.155273e+01
7.100000e-07	-4.582738e-06	-1.369459e-09	-3.154431e+01	-9.131952e+01
7.200000e-07	-4.555109e-06	-1.349813e-09	-3.135414e+01	-9.108374e+01
7.300000e-07	-4.527316e-06	-1.357873e-09	-3.116283e+01	-9.084484e+01
7.400000e-07	-4.499392e-06	-1.358485e-09	-3.097062e+01	-9.060232e+01
7.500000e-07	-4.471271e-06	-1.344018e-09	-3.077706e+01	-9.035569e+01
7.600000e-07	-4.442748e-06	-1.339381e-09	-3.058072e+01	-9.010455e+01
7.700000e-07	-4.413765e-06	-1.340231e-09	-3.038123e+01	-8.984854e+01
7.800000e-07	-4.384514e-06	-1.325677e-09	-3.017989e+01	-8.958737e+01
7.900000e-07	-4.355047e-06	-1.318826e-09	-2.997705e+01	-8.932082e+01
8.000000e-07	-4.325297e-06	-1.318467e-09	-2.977228e+01	-8.904874e+01
8.100000e-07	-4.295269e-06	-1.308751e-09	-2.956558e+01	-8.877104e+01
8.200000e-07	-4.264856e-06	-1.301162e-09	-2.935624e+01	-8.848774e+01
8.300000e-07	-4.234114e-06	-1.306922e-09	-2.914463e+01	-8.819888e+01
8.400000e-07	-4.203173e-06	-1.302610e-09	-2.893166e+01	-8.790460e+01
8.500000e-07	-4.171947e-06	-1.291353e-09	-2.871672e+01	-8.760506e+01
8.600000e-07	-4.140450e-06	-1.291290e-09	-2.849992e+01	-8.730050e+01
8.700000e-07	-4.108795e-06	-1.291966e-09	-2.828203e+01	-8.699118e+01
8.800000e-07	-4.077013e-06	-1.277890e-09	-2.806327e+01	-8.667738e+01
8.900000e-07	-4.045033e-06	-1.270957e-09	-2.784314e+01	-8.635944e+01
9.000000e-07	-4.012740e-06	-1.267089e-09	-2.762085e+01	-8.603766e+01
9.100000e-07	-3.980071e-06	-1.252861e-09	-2.739599e+01	-8.571235e+01
9.200000e-07	-3.946957e-06	-1.249591e-09	-2.716805e+01	-8.538384e+01
9.300000e-07	-3.913333e-06	-1.254408e-09	-2.693661e+01	-8.505238e+01
9.400000e-07	-3.879241e-06	-1.249039e-09	-2.670194e+01	-8.471824e+01
9.500000e-07	-3.844716e-06	-1.232352e-09	-2.646430e+01	-8.438162e+01
9.600000e-07	-3.809757e-06	-1.226751e-09	-2.622366e+01	-8.404268e+01
9.700000e-07	-3.774510e-06	-1.217364e-09	-2.598105e+01	-8.370154e+01
9.800000e-07	-3.739055e-06	-1.202545e-09	-2.573700e+01	-8.335823e+01
9.900000e-07	-3.703412e-06	-1.200332e-09	-2.549166e+01	-8.301277e+01
1.000000e-06	-3.667698e-06	-1.203102e-09	-2.524583e+01	-8.266507e+01
1.010000e-06	-3.631833e-06	-1.193106e-09	-2.499896e+01	-8.231501e+01
1.020000e-06	-3.595764e-06	-1.187580e-09	-2.475069e+01	-8.196242e+01
1.030000e-06	-3.559474e-06	-1.187357e-09	-2.450089e+01	-8.160705e+01
1.040000e-06	-3.522918e-06	-1.180696e-09	-2.424927e+01	-8.124862e+01
1.050000e-06	-3.486061e-06	-1.169101e-09	-2.399557e+01	-8.088681e+01
1.060000e-06	-3.448885e-06	-1.164968e-09	-2.373967e+01	-8.052126e+01
1.070000e-06	-3.411515e-06	-1.159088e-09	-2.348244e+01	-8.015159e+01
1.080000e-06	-3.373970e-06	-1.150281e-09	-2.322401e+01	-7.977740e+01
1.090000e-06	-3.336125e-06	-1.147953e-09	-2.296352e+01	-7.939828e+01
1.100000e-06	-3.298051e-06	-1.145302e-09	-2.270144e+01	-7.901385e+01
1.110000e-06	-3.259740e-06	-1.134104e-09	-2.243774e+01	-7.862370e+01
1.120000e-06	-3.221254e-06	-1.126738e-09	-2.217283e+01	-7.822748e+01
1.130000e-06	-3.182594e-06	-1.123432e-09	-2.190672e+01	-7.782484e+01
1.140000e-06	-3.143670e-06	-1.115582e-09	-2.163879e+01	-7.741551e+01
1.150000e-06	-3.104562e-06	-1.107271e-09	-2.136960e+01	-7.699921e+01
1.160000e-06	-3.065275e-06	-1.103918e-09	-2.109918e+01	-7.657576e+01
1.170000e-06	-3.025845e-06	-1.097646e-09	-2.082777e+01	-7.614500e+01
1.180000e-06	-2.986283e-06	-1.085326e-09	-2.055545e+01	-7.570686e+01
1.190000e-06	-2.946599e-06	-1.078822e-09	-2.028229e+01	-7.526130e+01
1.200000e-06	-2.906831e-06	-1.074284e-09	-2.000856e+01	-7.480835e+01
1.210000e-06	-2.866917e-06	-1.065008e-09	-1.973382e+01	-7.434811e+01
1.220000e-06	-2.826720e-06	-1.055116e-09	-1.945713e+01	-7.388071e+01
1.230000e-06	-2.786169e-06	-1.050209e-09	-1.917801e+01	-7.340634e+01
1.240000e-06	-2.745292e-06	-1.044133e-09	-1.889664e+01	-7.292524e+01
1.250000e-06	-2.704256e-06	-1.039878e-09	-1.861418e+01	-7.243767e+01
1.260000e-06	-2.662927e-06	-1.038536e-09	-1.832970e+01	-7.194395e+01
1.270000e-06	-2.621118e-06	-1.032593e-09	-1.804191e+01	-7.144438e+01
1.280000e-06	-2.579121e-06	-1.021127e-09	-1.775284e+01	-7.093929e+01
1.290000e-06	-2.537063e-06	-1.012135e-09	-1.746334e+01	-7.042902e+01
1.300000e-06	-2.494686e-06	-1.003427e-09	-1.717165e+01	-6.991387e+01
1.310000e-06	-2.451942e-06	-9.939327e-10	-1.687743e+01	-6.939416e+01
1.320000e-06	-2.408915e-06	-9.879341e-10	-1.658126e+01	-6.887016e+01
1.330000e-06	-2.365686e-06	-9.836286e-10	-1.628370e+01	-6.834211e+01
1.340000e-06	-2.322347e-06	-9.764543e-10	-1.598539e+01	-6.781019e+01
1.350000e-06	-2.278884e-06	-9.704147e-10	-1.568622e+01	-6.727454e+01
1.360000e-06	-2.235296e-06	-9.635810e-10	-1.538619e+01	-6.673526e+01
1.370000e-06	-2.191608e-06	-9.522622e-10	-1.508548e+01	-6.619236e+01
1.380000e-06	-2.147821e-06	-9.374312e-10	-1.478408e+01	-6.564579e+01
1.390000e-06	-2.103938e-06	-9.246586e-10	-1.448201e+01	-6.509544e+01
1.400000e-06	-2.059985e-06	-9.154366e-10	-1.417948e+01	-6.454112e+01
1.410000e-06	-2.015934e-06	-9.089770e-10	-1.387626e+01	-6.398257e+01
1.420000e-06	-1.971763e-06	-9.050443e-10	-1.357222e+01	-6.341948e+01
1.430000e-06	-1.927403e-06	-9.005823e-10	-1.326688e+01	-6.285144e+01
1.440000e-06	-1.882850e-06	-8.927443e-10	-1.296021e+01	-6.227801e+01
1.450000e-06	-1.838246e-06	-8.839375e-10	-1.265318e+01	-6.169866e+01
1.460000e-06	-1.793622e-06	-8.741482e-10	-1.234602e+01	-6.111284e+01
1.470000e-06	-1.748784e-06	-8.618275e-10	-1.203739e+01	-6.051991e+01
1.480000e-06	-1.703692e-06	-8.503838e-10	-1.172701e+01	-5.991923e+01
1.490000e-06	-1.658464e-06	-8.407601e-10	-1.141569e+01	-5.931008e+01
1.500000e-06	-1.613115e-06	-8.307930e-10	-1.110354e+01	-5.869173e+01
1.510000e-06	-1.567652e-06	-8.203495e-10	-1.079061e+01	-5.806343e+01
1.520000e-06	-1.522064e-06	-8.110281e-10	-1.047681e+01	-5.742440e+01
1.530000e-06	-1.476429e-06	-8.027051e-10	-1.016269e+01	-5.677384e+01
1.540000e-06	-1.430759e-06	-7.928030e-10	-9.848328e+00	-5.611093e+01
1.550000e-06	-1.384987e-06	-7.785419e-10	-9.533265e+00	-5.543488e+01
1.560000e-06	-1.339159e-06	-7.654064e-10	-9.217821e+00	-5.474484e+01
1.570000e-06	-1.293267e-06	-7.537219e-10	-8.901934e+00	-5.404000e+01
1.580000e-06	-1.247300e-06	-7.412786e-10	-8.585530e+00	-5.331952e+01
1.590000e-06	-1.201265e-06	-7.304519e-10	-8.268654e+00	-5.258258e+01
1.600000e-06	-1.155114e-06	-7.216648e-10	-7.950983e+00	-5.182834e+01
1.610000e-06	-1.108846e-06	-7.117342e-10	-7.632508e+00	-5.105597e+01
1.620000e-06	-1.062440e-06	-7.011942e-10	-7.313080e+00	-5.026462e+01
1.630000e-06	-1.015988e-06	-6.901751e-10	-6.993342e+00	-4.945346e+01
1.640000e-06	-9.694894e-07	-6.786023e-10	-6.673277e+00	-4.862162e+01
1.650000e-06	-9.228794e-07	-6.659454e-10	-6.352447e+00	-4.776826e+01
1.660000e-06	-8.761082e-07	-6.524235e-10	-6.030507e+00	-4.689250e+01
1.670000e-06	-8.292473e-07	-6.373459e-10	-5.707950e+00	-4.599345e+01
1.680000e-06	-7.824102e-07	-6.197094e-10	-5.385557e+00	-4.507023e+01
1.690000e-06	-7.354898e-07	-6.008450e-10	-5.062590e+00	-4.412193e+01
1.700000e-06	-6.884805e-07	-5.824387e-10	-4.739011e+00	-4.314765e+01
1.710000e-06	-6.414465e-07	-5.657314e-10	-4.415262e+00	-4.214644e+01
1.720000e-06	-5.943725e-07	-5.518258e-10	-4.091238e+00	-4.111741e+01
1.730000e-06	-5.472427e-07	-5.379105e-10	-3.766831e+00	-4.005961e+01
1.740000e-06	-5.000502e-07	-5.223851e-10	-3.441990e+00	-3.897213e+01
1.750000e-06	-4.527962e-07	-5.037672e-10	-3.116728e+00	-3.785408e+01
1.760000e-06	-4.055327e-07	-4.821311e-10	-2.791399e+00	-3.670458e+01
1.770000e-06	-3.582302e-07	-4.611650e-10	-2.465802e+00	-3.552278e+01
1.780000e-06	-3.109161e-07	-4.438867e-10	-2.140126e+00	-3.430788e+01
1.790000e-06	-2.636306e-07	-4.303790e-10	-1.814646e+00	-3.305914e+01
1.800000e-06	-2.163683e-07	-4.155637e-10	-1.489326e+00	-3.177590e+01
1.810000e-06	-1.691166e-07	-3.972585e-10	-1.164079e+00	-3.045757e+01
1.820000e-06	-1.218348e-07	-3.783046e-10	-8.386241e-01	-2.910367e+01
1.830000e-06	-7.455976e-08	-3.594876e-10	-5.132165e-01	-2.771383e+01
1.840000e-06	-2.737467e-08	-3.390929e-10	-1.884278e-01	-2.628779e+01
1.850000e-06	1.983050e-08	-3.183979e-10	1.364991e-01	-2.482547e+01
1.860000e-06	6.711738e-08	-2.965235e-10	4.619884e-01	-2.332692e+01
1.870000e-06	1.144173e-07	-2.742932e-10	7.875677e-01	-2.179237e+01
1.880000e-06	1.617114e-07	-2.519019e-10	1.113106e+00	-2.022221e+01
1.890000e-06	2.089778e-07	-2.299047e-10	1.438455e+00	-1.861704e+01
1.900000e-06	2.562599e-07	-2.091235e-10	1.763911e+00	-1.697765e+01
1.910000e-06	3.034985e-07	-1.875311e-10	2.089068e+00	-1.530502e+01
1.920000e-06	3.507737e-07	-1.658224e-10	2.414477e+00	-1.360035e+01
1.930000e-06	3.980977e-07	-1.443005e-10	2.740222e+00	-1.186504e+01
1.940000e-06	4.452547e-07	-1.203027e-10	3.064818e+00	-1.010069e+01
1.950000e-06	4.923313e-07	-9.388126e-11	3.388859e+00	-8.309089e+00
1.960000e-06	5.394352e-07	-6.763219e-11	3.713089e+00	-6.492241e+00
1.970000e-06	5.865226e-07	-4.470785e-11	4.037206e+00	-4.652312e+00
1.980000e-06	6.335719e-07	-2.241289e-11	4.361059e+00	-2.791641e+00
1.990000e-06	6.804566e-07	1.451509e-12	4.683780e+00	-9.127214e-01
2.000000e-06	7.272935e-07	2.851428e-11	5.006172e+00	9.818175e-01
2.010000e-06	7.742101e-07	5.944067e-11	5.329113e+00	2.889231e+00
2.020000e-06	8.210623e-07	9.126762e-11	5.651610e+00	4.806677e+00
2.030000e-06	8.677615e-07	1.200557e-10	5.973054e+00	6.731242e+00
2.040000e-06	9.143325e-07	1.463473e-10	6.293616e+00	8.659963e+00
2.050000e-06	9.608578e-07	1.702812e-10	6.613863e+00	1.058985e+01
2.060000e-06	1.007360e-06	1.939420e-10	6.933952e+00	1.251792e+01
2.070000e-06	1.053752e-06	2.184089e-10	7.253279e+00	1.444121e+01
2.080000e-06	1.100101e-06	2.449675e-10	7.572311e+00	1.635680e+01
2.090000e-06	1.146377e-06	2.755566e-10	7.890847e+00	1.826186e+01
2.100000e-06	1.192465e-06	3.068946e-10	8.208085e+00	2.015365e+01
2.110000e-06	1.238451e-06	3.364021e-10	8.524620e+00	2.202953e+01
2.120000e-06	1.284340e-06	3.614453e-10	8.840482e+00	2.388703e+01
2.130000e-06	1.330144e-06	3.831977e-10	9.155765e+00	2.572380e+01
2.140000e-06	1.375884e-06	4.028501e-10	9.470608e+00	2.753768e+01
2.150000e-06	1.421538e-06	4.235908e-10	9.784856e+00	2.932669e+01
2.160000e-06	1.467145e-06	4.493586e-10	1.009879e+01	3.108904e+01
2.170000e-06	1.512712e-06	4.789216e-10	1.041244e+01	3.282313e+01
2.180000e-06	1.558124e-06	5.083669e-10	1.072502e+01	3.452759e+01
2.190000e-06	1.603372e-06	5.359327e-10	1.103647e+01	3.620121e+01
2.200000e-06	1.648572e-06	5.605010e-10	1.134760e+01	3.784303e+01
2.210000e-06	1.693685e-06	5.799366e-10	1.165813e+01	3.945226e+01
2.220000e-06	1.738636e-06	5.949956e-10	1.196754e+01	4.102832e+01
2.230000e-06	1.783431e-06	6.089810e-10	1.227587e+01	4.257081e+01
2.240000e-06	1.828011e-06	6.246677e-10	1.258273e+01	4.407950e+01
2.250000e-06	1.872483e-06	6.442097e-10	1.288884e+01	4.555433e+01
2.260000e-06	1.916860e-06	6.666082e-10	1.319431e+01	4.699538e+01
2.270000e-06	1.961039e-06	6.933541e-10	1.349840e+01	4.840287e+01
2.280000e-06	2.005097e-06	7.179109e-10	1.380167e+01	4.977714e+01
2.290000e-06	2.049093e-06	7.368813e-10	1.410450e+01	5.111863e+01
2.300000e-06	2.092984e-06	7.519631e-10	1.440662e+01	5.242786e+01
2.310000e-06	2.136736e-06	7.655625e-10	1.470777e+01	5.370543e+01
2.320000e-06	2.180417e-06	7.800104e-10	1.500844e+01	5.495198e+01
2.330000e-06	2.224084e-06	7.968824e-10	1.530901e+01	5.616820e+01
2.340000e-06	2.267723e-06	8.160937e-10	1.560940e+01	5.735481e+01
2.350000e-06	2.311279e-06	8.359886e-10	1.590921e+01	5.851251e+01
2.360000e-06	2.354713e-06	8.546309e-10	1.620817e+01	5.964204e+01
2.370000e-06	2.398042e-06	8.674475e-10	1.650642e+01	6.074410e+01
2.380000e-06	2.441184e-06	8.763156e-10	1.680338e+01	6.181938e+01
2.390000e-06	2.484012e-06	8.853796e-10	1.709817e+01	6.286856e+01
2.400000e-06	2.526574e-06	8.990163e-10	1.739114e+01	6.389226e+01
2.410000e-06	2.568884e-06	9.168952e-10	1.768238e+01	6.489109e+01
2.420000e-06	2.610795e-06	9.340687e-10	1.797086e+01	6.586561e+01
2.430000e-06	2.652347e-06	9.500183e-10	1.825687e+01	6.681635e+01
2.440000e-06	2.693740e-06	9.632330e-10	1.854180e+01	6.774380e+01
2.450000e-06	2.734927e-06	9.742905e-10	1.882530e+01	6.864843e+01
2.460000e-06	2.775770e-06	9.846330e-10	1.910643e+01	6.953066e+01
2.470000e-06	2.816240e-06	9.938280e-10	1.938500e+01	7.039090e+01
2.480000e-06	2.856418e-06	1.006447e-09	1.966155e+01	7.122952e+01
2.490000e-06	2.896475e-06	1.021099e-09	1.993728e+01	7.204691e+01
2.500000e-06	2.936395e-06	1.037179e-09	2.021206e+01	7.284340e+01
2.510000e-06	2.976136e-06	1.051392e-09	2.048561e+01	7.361936e+01
2.520000e-06	3.015751e-06	1.062289e-09	2.075829e+01	7.437514e+01
2.530000e-06	3.055196e-06	1.070712e-09	2.102980e+01	7.511108e+01
2.540000e-06	3.094459e-06	1.076099e-09	2.130006e+01	7.582756e+01
2.550000e-06	3.133541e-06	1.079335e-09	2.156907e+01	7.652496e+01
2.560000e-06	3.172459e-06	1.083913e-09	2.183696e+01	7.720366e+01
2.570000e-06	3.211194e-06	1.093113e-09	2.210358e+01	7.786409e+01
2.580000e-06	3.249602e-06	1.105299e-09	2.236795e+01	7.850667e+01
2.590000e-06	3.287722e-06	1.117468e-09	2.263035e+01	7.913185e+01
2.600000e-06	3.325728e-06	1.128141e-09	2.289195e+01	7.974010e+01
2.610000e-06	3.363555e-06	1.136934e-09	2.315233e+01	8.033192e+01
2.620000e-06	3.401140e-06	1.143443e-09	2.341103e+01	8.090780e+01
2.630000e-06	3.438563e-06	1.148576e-09	2.366863e+01	8.146827e+01
2.640000e-06	3.475775e-06	1.153817e-09	2.392477e+01	8.201385e+01
2.650000e-06	3.512665e-06	1.160715e-09	2.417869e+01	8.254507e+01
2.660000e-06	3.549220e-06	1.169958e-09	2.443031e+01	8.306246e+01
2.670000e-06	3.585557e-06	1.181021e-09	2.468043e+01	8.356656e+01
2.680000e-06	3.621701e-06	1.191035e-09	2.492922e+01	8.405788e+01
2.690000e-06	3.657616e-06	1.198726e-09	2.517643e+01	8.453694e+01
2.700000e-06	3.693348e-06	1.202288e-09	2.542239e+01	8.500423e+01
2.710000e-06	3.728944e-06	1.204126e-09	2.566740e+01	8.546022e+01
2.720000e-06	3.764385e-06	1.208601e-09	2.591135e+01	8.590536e+01
2.730000e-06	3.799628e-06	1.217723e-09	2.615394e+01	8.634008e+01
2.740000e-06	3.834583e-06	1.228389e-09	2.639455e+01	8.676478e+01
2.750000e-06	3.869105e-06	1.238347e-09	2.663218e+01	8.717982e+01
2.760000e-06	3.903157e-06	1.247393e-09	2.686656e+01	8.758553e+01
2.770000e-06	3.936775e-06	1.253147e-09	2.709797e+01	8.798222e+01
2.780000e-06	3.969948e-06	1.257281e-09	2.732631e+01	8.837017e+01
2.790000e-06	4.002671e-06	1.262096e-09	2.755154e+01	8.874963e+01
2.800000e-06	4.035070e-06	1.268523e-09	2.777456e+01	8.912082e+01
2.810000e-06	4.067168e-06	1.275673e-09	2.799550e+01	8.948393e+01
2.820000e-06	4.098988e-06	1.282527e-09	2.821452e+01	8.983916e+01
2.830000e-06	4.130676e-06	1.290790e-09	2.843264e+01	9.018664e+01
2.840000e-06	4.162198e-06	1.296885e-09	2.864961e+01	9.052655e+01
2.850000e-06	4.193462e-06	1.299259e-09	2.886481e+01	9.085901e+01
2.860000e-06	4.224498e-06	1.302877e-09	2.907845e+01	9.118416e+01
2.870000e-06	4.255253e-06	1.307131e-09	2.929014e+01	9.150213e+01
2.880000e-06	4.285628e-06	1.313878e-09	2.949922e+01	9.181305e+01
2.890000e-06	4.315694e-06	1.320708e-09	2.970617e+01	9.211706e+01
2.900000e-06	4.345543e-06	1.327355e-09	2.991164e+01	9.241430e+01
