# Temperatura_=_14.2
# Concentracion g/m^3_=_1620.0
# C_Vs_to_Am_M_A/Vsm_=_65563218390.804596
# pendiente_HvsI_1/m_=_3716.3
# ordenada_HvsI_A/m_=_1297.0
# frecuencia_Hz_=_135100.1674983799

Tiempo_(s)	Campo_(V.s)	Magnetizacion_(V.s)	Campo_(kA/m)	Magnetizacion_(A/m)
0.000000e+00	-5.522911e-06	-1.494178e-09	-3.837490e+01	-1.000867e+02
1.000000e-08	-5.523035e-06	-1.492585e-09	-3.837577e+01	-1.000264e+02
2.000000e-08	-5.522893e-06	-1.487606e-09	-3.837478e+01	-9.996662e+01
3.000000e-08	-5.522484e-06	-1.482528e-09	-3.837193e+01	-9.990792e+01
4.000000e-08	-5.521595e-06	-1.481383e-09	-3.836576e+01	-9.985085e+01
5.000000e-08	-5.519988e-06	-1.481324e-09	-3.835459e+01	-9.979596e+01
6.000000e-08	-5.517902e-06	-1.488274e-09	-3.834010e+01	-9.974372e+01
7.000000e-08	-5.515336e-06	-1.489276e-09	-3.832227e+01	-9.969456e+01
8.000000e-08	-5.512165e-06	-1.444326e-09	-3.830024e+01	-9.964880e+01
9.000000e-08	-5.508545e-06	-1.430236e-09	-3.827509e+01	-9.960672e+01
1.000000e-07	-5.504508e-06	-1.520780e-09	-3.824703e+01	-9.956845e+01
1.100000e-07	-5.499994e-06	-1.552938e-09	-3.821567e+01	-9.953404e+01
1.200000e-07	-5.495278e-06	-1.442270e-09	-3.818290e+01	-9.950342e+01
1.300000e-07	-5.490557e-06	-1.383277e-09	-3.815010e+01	-9.947640e+01
1.400000e-07	-5.485536e-06	-1.462244e-09	-3.811521e+01	-9.945267e+01
1.500000e-07	-5.480011e-06	-1.549483e-09	-3.807682e+01	-9.943179e+01
1.600000e-07	-5.474037e-06	-1.442283e-09	-3.803531e+01	-9.941322e+01
1.700000e-07	-5.467671e-06	-1.399430e-09	-3.799108e+01	-9.939630e+01
1.800000e-07	-5.460827e-06	-1.493397e-09	-3.794352e+01	-9.938027e+01
1.900000e-07	-5.453544e-06	-1.591099e-09	-3.789292e+01	-9.936427e+01
2.000000e-07	-5.445989e-06	-1.501112e-09	-3.784042e+01	-9.934739e+01
2.100000e-07	-5.438232e-06	-1.426677e-09	-3.778653e+01	-9.932863e+01
2.200000e-07	-5.430206e-06	-1.468239e-09	-3.773076e+01	-9.930697e+01
2.300000e-07	-5.421893e-06	-1.538933e-09	-3.767300e+01	-9.928137e+01
2.400000e-07	-5.413210e-06	-1.516002e-09	-3.761267e+01	-9.925076e+01
2.500000e-07	-5.403950e-06	-1.484942e-09	-3.754832e+01	-9.921411e+01
2.600000e-07	-5.393898e-06	-1.517436e-09	-3.747848e+01	-9.917043e+01
2.700000e-07	-5.383184e-06	-1.526242e-09	-3.740404e+01	-9.911876e+01
2.800000e-07	-5.372041e-06	-1.490792e-09	-3.732661e+01	-9.905826e+01
2.900000e-07	-5.360443e-06	-1.456346e-09	-3.724603e+01	-9.898814e+01
3.000000e-07	-5.348452e-06	-1.500407e-09	-3.716271e+01	-9.890775e+01
3.100000e-07	-5.336045e-06	-1.516768e-09	-3.707650e+01	-9.881656e+01
3.200000e-07	-5.323233e-06	-1.514900e-09	-3.698748e+01	-9.871417e+01
3.300000e-07	-5.310012e-06	-1.479532e-09	-3.689561e+01	-9.860033e+01
3.400000e-07	-5.296439e-06	-1.515980e-09	-3.680131e+01	-9.847493e+01
3.500000e-07	-5.282631e-06	-1.515215e-09	-3.670536e+01	-9.833802e+01
3.600000e-07	-5.268418e-06	-1.477426e-09	-3.660661e+01	-9.818982e+01
3.700000e-07	-5.253583e-06	-1.448240e-09	-3.650353e+01	-9.803067e+01
3.800000e-07	-5.238239e-06	-1.515482e-09	-3.639691e+01	-9.786106e+01
3.900000e-07	-5.222373e-06	-1.496613e-09	-3.628667e+01	-9.768161e+01
4.000000e-07	-5.206008e-06	-1.434685e-09	-3.617296e+01	-9.749308e+01
4.100000e-07	-5.189339e-06	-1.469832e-09	-3.605714e+01	-9.729629e+01
4.200000e-07	-5.172293e-06	-1.525256e-09	-3.593870e+01	-9.709219e+01
4.300000e-07	-5.154894e-06	-1.436421e-09	-3.581781e+01	-9.688175e+01
4.400000e-07	-5.137247e-06	-1.413562e-09	-3.569519e+01	-9.666603e+01
4.500000e-07	-5.119269e-06	-1.506692e-09	-3.557027e+01	-9.644606e+01
4.600000e-07	-5.100804e-06	-1.475949e-09	-3.544197e+01	-9.622291e+01
4.700000e-07	-5.081866e-06	-1.378977e-09	-3.531038e+01	-9.599761e+01
4.800000e-07	-5.062617e-06	-1.442075e-09	-3.517664e+01	-9.577115e+01
4.900000e-07	-5.043081e-06	-1.485718e-09	-3.504089e+01	-9.554444e+01
5.000000e-07	-5.023266e-06	-1.399916e-09	-3.490322e+01	-9.531831e+01
5.100000e-07	-5.003267e-06	-1.419851e-09	-3.476425e+01	-9.509350e+01
5.200000e-07	-4.983085e-06	-1.484755e-09	-3.462402e+01	-9.487062e+01
5.300000e-07	-4.962583e-06	-1.410896e-09	-3.448157e+01	-9.465016e+01
5.400000e-07	-4.941637e-06	-1.377178e-09	-3.433603e+01	-9.443245e+01
5.500000e-07	-4.920359e-06	-1.464276e-09	-3.418819e+01	-9.421770e+01
5.600000e-07	-4.898743e-06	-1.425626e-09	-3.403799e+01	-9.400596e+01
5.700000e-07	-4.876799e-06	-1.350256e-09	-3.388552e+01	-9.379713e+01
5.800000e-07	-4.854594e-06	-1.408564e-09	-3.373123e+01	-9.359098e+01
5.900000e-07	-4.831960e-06	-1.441897e-09	-3.357396e+01	-9.338713e+01
6.000000e-07	-4.808850e-06	-1.372026e-09	-3.341338e+01	-9.318509e+01
6.100000e-07	-4.785519e-06	-1.390951e-09	-3.325127e+01	-9.298426e+01
6.200000e-07	-4.761975e-06	-1.424082e-09	-3.308768e+01	-9.278392e+01
6.300000e-07	-4.738077e-06	-1.377969e-09	-3.292163e+01	-9.258330e+01
6.400000e-07	-4.713972e-06	-1.359617e-09	-3.275414e+01	-9.238156e+01
6.500000e-07	-4.689658e-06	-1.399211e-09	-3.258520e+01	-9.217782e+01
6.600000e-07	-4.664947e-06	-1.376505e-09	-3.241350e+01	-9.197119e+01
6.700000e-07	-4.639783e-06	-1.358976e-09	-3.223866e+01	-9.176079e+01
6.800000e-07	-4.614011e-06	-1.383049e-09	-3.205958e+01	-9.154576e+01
6.900000e-07	-4.587596e-06	-1.384528e-09	-3.187605e+01	-9.132529e+01
7.000000e-07	-4.560686e-06	-1.358030e-09	-3.168907e+01	-9.109863e+01
7.100000e-07	-4.533427e-06	-1.362414e-09	-3.149966e+01	-9.086512e+01
7.200000e-07	-4.505918e-06	-1.354173e-09	-3.130852e+01	-9.062422e+01
7.300000e-07	-4.478164e-06	-1.335047e-09	-3.111567e+01	-9.037546e+01
7.400000e-07	-4.450261e-06	-1.337105e-09	-3.092180e+01	-9.011852e+01
7.500000e-07	-4.422179e-06	-1.345530e-09	-3.072667e+01	-8.985322e+01
7.600000e-07	-4.393819e-06	-1.336924e-09	-3.052962e+01	-8.957949e+01
7.700000e-07	-4.365108e-06	-1.334675e-09	-3.033013e+01	-8.929739e+01
7.800000e-07	-4.335995e-06	-1.331363e-09	-3.012784e+01	-8.900715e+01
7.900000e-07	-4.306596e-06	-1.314386e-09	-2.992357e+01	-8.870907e+01
8.000000e-07	-4.276967e-06	-1.308260e-09	-2.971770e+01	-8.840362e+01
8.100000e-07	-4.247077e-06	-1.308910e-09	-2.951001e+01	-8.809133e+01
8.200000e-07	-4.216886e-06	-1.299027e-09	-2.930024e+01	-8.777284e+01
8.300000e-07	-4.186375e-06	-1.290352e-09	-2.908824e+01	-8.744887e+01
8.400000e-07	-4.155640e-06	-1.298930e-09	-2.887468e+01	-8.712019e+01
8.500000e-07	-4.124643e-06	-1.294849e-09	-2.865930e+01	-8.678759e+01
8.600000e-07	-4.093423e-06	-1.281827e-09	-2.844237e+01	-8.645189e+01
8.700000e-07	-4.062023e-06	-1.276314e-09	-2.822420e+01	-8.611391e+01
8.800000e-07	-4.030394e-06	-1.274910e-09	-2.800443e+01	-8.577444e+01
8.900000e-07	-3.998605e-06	-1.261303e-09	-2.778355e+01	-8.543422e+01
9.000000e-07	-3.966611e-06	-1.260234e-09	-2.756125e+01	-8.509394e+01
9.100000e-07	-3.934305e-06	-1.263636e-09	-2.733677e+01	-8.475419e+01
9.200000e-07	-3.901573e-06	-1.256248e-09	-2.710934e+01	-8.441548e+01
9.300000e-07	-3.868465e-06	-1.244953e-09	-2.687930e+01	-8.407820e+01
9.400000e-07	-3.835018e-06	-1.247292e-09	-2.664690e+01	-8.374265e+01
9.500000e-07	-3.801073e-06	-1.236971e-09	-2.641103e+01	-8.340897e+01
9.600000e-07	-3.766529e-06	-1.221289e-09	-2.617102e+01	-8.307719e+01
9.700000e-07	-3.731569e-06	-1.214001e-09	-2.592810e+01	-8.274721e+01
9.800000e-07	-3.696332e-06	-1.213376e-09	-2.568326e+01	-8.241879e+01
9.900000e-07	-3.660867e-06	-1.204585e-09	-2.543684e+01	-8.209158e+01
1.000000e-06	-3.625256e-06	-1.201881e-09	-2.518941e+01	-8.176511e+01
1.010000e-06	-3.589471e-06	-1.200094e-09	-2.494076e+01	-8.143880e+01
1.020000e-06	-3.553599e-06	-1.190348e-09	-2.469151e+01	-8.111198e+01
1.030000e-06	-3.517595e-06	-1.179681e-09	-2.444134e+01	-8.078392e+01
1.040000e-06	-3.481349e-06	-1.177563e-09	-2.418949e+01	-8.045379e+01
1.050000e-06	-3.444862e-06	-1.173875e-09	-2.393598e+01	-8.012077e+01
1.060000e-06	-3.408073e-06	-1.165735e-09	-2.368035e+01	-7.978396e+01
1.070000e-06	-3.371016e-06	-1.162395e-09	-2.342287e+01	-7.944251e+01
1.080000e-06	-3.333736e-06	-1.157105e-09	-2.316384e+01	-7.909553e+01
1.090000e-06	-3.296130e-06	-1.148100e-09	-2.290254e+01	-7.874221e+01
1.100000e-06	-3.258280e-06	-1.139819e-09	-2.263955e+01	-7.838175e+01
1.110000e-06	-3.220282e-06	-1.135888e-09	-2.237552e+01	-7.801345e+01
1.120000e-06	-3.182088e-06	-1.129725e-09	-2.211014e+01	-7.763667e+01
1.130000e-06	-3.143727e-06	-1.124691e-09	-2.184360e+01	-7.725085e+01
1.140000e-06	-3.105135e-06	-1.120295e-09	-2.157544e+01	-7.685557e+01
1.150000e-06	-3.066265e-06	-1.111242e-09	-2.130537e+01	-7.645046e+01
1.160000e-06	-3.027145e-06	-1.095210e-09	-2.103355e+01	-7.603533e+01
1.170000e-06	-2.987871e-06	-1.084243e-09	-2.076066e+01	-7.561004e+01
1.180000e-06	-2.948481e-06	-1.076976e-09	-2.048696e+01	-7.517461e+01
1.190000e-06	-2.908898e-06	-1.072678e-09	-2.021193e+01	-7.472914e+01
1.200000e-06	-2.869131e-06	-1.068375e-09	-1.993562e+01	-7.427385e+01
1.210000e-06	-2.829221e-06	-1.062970e-09	-1.965831e+01	-7.380904e+01
1.220000e-06	-2.789278e-06	-1.052220e-09	-1.938077e+01	-7.333509e+01
1.230000e-06	-2.749252e-06	-1.043735e-09	-1.910266e+01	-7.285246e+01
1.240000e-06	-2.709031e-06	-1.035056e-09	-1.882319e+01	-7.236166e+01
1.250000e-06	-2.668545e-06	-1.028661e-09	-1.854188e+01	-7.186323e+01
1.260000e-06	-2.627761e-06	-1.022533e-09	-1.825850e+01	-7.135775e+01
1.270000e-06	-2.586691e-06	-1.014077e-09	-1.797313e+01	-7.084578e+01
1.280000e-06	-2.545416e-06	-1.005617e-09	-1.768634e+01	-7.032789e+01
1.290000e-06	-2.503853e-06	-9.968649e-10	-1.739755e+01	-6.980462e+01
1.300000e-06	-2.461964e-06	-9.865316e-10	-1.710649e+01	-6.927645e+01
1.310000e-06	-2.419845e-06	-9.766327e-10	-1.681384e+01	-6.874383e+01
1.320000e-06	-2.377410e-06	-9.683655e-10	-1.651898e+01	-6.820712e+01
1.330000e-06	-2.334540e-06	-9.602195e-10	-1.622111e+01	-6.766661e+01
1.340000e-06	-2.291406e-06	-9.517956e-10	-1.592140e+01	-6.712250e+01
1.350000e-06	-2.248141e-06	-9.435400e-10	-1.562078e+01	-6.657490e+01
1.360000e-06	-2.204717e-06	-9.331214e-10	-1.531906e+01	-6.602382e+01
1.370000e-06	-2.161181e-06	-9.202885e-10	-1.501655e+01	-6.546916e+01
1.380000e-06	-2.117491e-06	-9.091086e-10	-1.471299e+01	-6.491075e+01
1.390000e-06	-2.073688e-06	-9.013830e-10	-1.440863e+01	-6.434829e+01
1.400000e-06	-2.029840e-06	-8.950404e-10	-1.410396e+01	-6.378141e+01
1.410000e-06	-1.985905e-06	-8.872126e-10	-1.379868e+01	-6.320965e+01
1.420000e-06	-1.941898e-06	-8.798716e-10	-1.349291e+01	-6.263248e+01
1.430000e-06	-1.897886e-06	-8.707602e-10	-1.318711e+01	-6.204929e+01
1.440000e-06	-1.853798e-06	-8.591006e-10	-1.288076e+01	-6.145943e+01
1.450000e-06	-1.809621e-06	-8.460419e-10	-1.257381e+01	-6.086221e+01
1.460000e-06	-1.765382e-06	-8.341775e-10	-1.226643e+01	-6.025690e+01
1.470000e-06	-1.720969e-06	-8.223085e-10	-1.195783e+01	-5.964274e+01
1.480000e-06	-1.676383e-06	-8.131509e-10	-1.164803e+01	-5.901899e+01
1.490000e-06	-1.631635e-06	-8.056490e-10	-1.133711e+01	-5.838490e+01
1.500000e-06	-1.586696e-06	-7.975972e-10	-1.102485e+01	-5.773972e+01
1.510000e-06	-1.541644e-06	-7.885613e-10	-1.071182e+01	-5.708273e+01
1.520000e-06	-1.496520e-06	-7.816129e-10	-1.039829e+01	-5.641325e+01
1.530000e-06	-1.451336e-06	-7.717329e-10	-1.008433e+01	-5.573062e+01
1.540000e-06	-1.406056e-06	-7.570101e-10	-9.769716e+00	-5.503422e+01
1.550000e-06	-1.360649e-06	-7.421252e-10	-9.454213e+00	-5.432346e+01
1.560000e-06	-1.315178e-06	-7.310020e-10	-9.138268e+00	-5.359781e+01
1.570000e-06	-1.269589e-06	-7.217150e-10	-8.821499e+00	-5.285674e+01
1.580000e-06	-1.223884e-06	-7.123630e-10	-8.503928e+00	-5.209978e+01
1.590000e-06	-1.178131e-06	-7.040048e-10	-8.186023e+00	-5.132647e+01
1.600000e-06	-1.132258e-06	-6.979438e-10	-7.867280e+00	-5.053638e+01
1.610000e-06	-1.086316e-06	-6.890415e-10	-7.548061e+00	-4.972906e+01
1.620000e-06	-1.040340e-06	-6.771274e-10	-7.228607e+00	-4.890408e+01
1.630000e-06	-9.942555e-07	-6.636553e-10	-6.908396e+00	-4.806101e+01
1.640000e-06	-9.481104e-07	-6.488401e-10	-6.587766e+00	-4.719938e+01
1.650000e-06	-9.019506e-07	-6.341341e-10	-6.267033e+00	-4.631870e+01
1.660000e-06	-8.557206e-07	-6.178311e-10	-5.945813e+00	-4.541843e+01
1.670000e-06	-8.093371e-07	-6.010442e-10	-5.623526e+00	-4.449799e+01
1.680000e-06	-7.628970e-07	-5.837711e-10	-5.300846e+00	-4.355675e+01
1.690000e-06	-7.164963e-07	-5.678643e-10	-4.978439e+00	-4.259402e+01
1.700000e-06	-6.700246e-07	-5.517054e-10	-4.655539e+00	-4.160904e+01
1.710000e-06	-6.234992e-07	-5.361355e-10	-4.332266e+00	-4.060100e+01
1.720000e-06	-5.769407e-07	-5.227662e-10	-4.008763e+00	-3.956901e+01
1.730000e-06	-5.303191e-07	-5.073227e-10	-3.684822e+00	-3.851215e+01
1.740000e-06	-4.836624e-07	-4.869088e-10	-3.360637e+00	-3.742941e+01
1.750000e-06	-4.368939e-07	-4.659780e-10	-3.035675e+00	-3.631977e+01
1.760000e-06	-3.900757e-07	-4.457281e-10	-2.710367e+00	-3.518217e+01
1.770000e-06	-3.433779e-07	-4.277914e-10	-2.385896e+00	-3.401554e+01
1.780000e-06	-2.966236e-07	-4.119627e-10	-2.061033e+00	-3.281879e+01
1.790000e-06	-2.498145e-07	-3.974332e-10	-1.735789e+00	-3.159087e+01
1.800000e-06	-2.030633e-07	-3.818008e-10	-1.410947e+00	-3.033075e+01
1.810000e-06	-1.562807e-07	-3.643339e-10	-1.085887e+00	-2.903747e+01
1.820000e-06	-1.094692e-07	-3.459644e-10	-7.606259e-01	-2.771014e+01
1.830000e-06	-6.267039e-08	-3.270480e-10	-4.354534e-01	-2.634797e+01
1.840000e-06	-1.576376e-08	-3.088088e-10	-1.095315e-01	-2.495032e+01
1.850000e-06	3.113256e-08	-2.894905e-10	2.163187e-01	-2.351665e+01
1.860000e-06	7.792454e-08	-2.672152e-10	5.414440e-01	-2.204663e+01
1.870000e-06	1.247817e-07	-2.432130e-10	8.670221e-01	-2.054008e+01
1.880000e-06	1.716808e-07	-2.209687e-10	1.192892e+00	-1.899704e+01
1.890000e-06	2.185441e-07	-2.016199e-10	1.518512e+00	-1.741777e+01
1.900000e-06	2.653328e-07	-1.817541e-10	1.843615e+00	-1.580274e+01
1.910000e-06	3.121009e-07	-1.606868e-10	2.168574e+00	-1.415268e+01
1.920000e-06	3.588337e-07	-1.401330e-10	2.493288e+00	-1.246854e+01
1.930000e-06	4.055387e-07	-1.171969e-10	2.817809e+00	-1.075154e+01
1.940000e-06	4.522518e-07	-9.100852e-11	3.142386e+00	-9.003127e+00
1.950000e-06	4.988841e-07	-6.433528e-11	3.466402e+00	-7.225000e+00
1.960000e-06	5.454349e-07	-4.103955e-11	3.789852e+00	-5.419084e+00
1.970000e-06	5.919748e-07	-2.046941e-11	4.113225e+00	-3.587530e+00
1.980000e-06	6.384555e-07	4.313888e-13	4.436187e+00	-1.732690e+00
1.990000e-06	6.848496e-07	2.421637e-11	4.758548e+00	1.428916e-01
2.000000e-06	7.311650e-07	5.222547e-11	5.080362e+00	2.036506e+00
2.010000e-06	7.774575e-07	8.296565e-11	5.402016e+00	3.945300e+00
2.020000e-06	8.237618e-07	1.128629e-10	5.723754e+00	5.866301e+00
2.030000e-06	8.700669e-07	1.394745e-10	6.045495e+00	7.796446e+00
2.040000e-06	9.163081e-07	1.624604e-10	6.366793e+00	9.732608e+00
2.050000e-06	9.623825e-07	1.860603e-10	6.686933e+00	1.167163e+01
2.060000e-06	1.008311e-06	2.116580e-10	7.006059e+00	1.361033e+01
2.070000e-06	1.054187e-06	2.376195e-10	7.324820e+00	1.554558e+01
2.080000e-06	1.100121e-06	2.650748e-10	7.643984e+00	1.747429e+01
2.090000e-06	1.146032e-06	2.945510e-10	7.962989e+00	1.939343e+01
2.100000e-06	1.191826e-06	3.227664e-10	8.281178e+00	2.130009e+01
2.110000e-06	1.237494e-06	3.476584e-10	8.598491e+00	2.319149e+01
2.120000e-06	1.283095e-06	3.722862e-10	8.915344e+00	2.506499e+01
2.130000e-06	1.328616e-06	3.963019e-10	9.231640e+00	2.691811e+01
2.140000e-06	1.373992e-06	4.170636e-10	9.546925e+00	2.874855e+01
2.150000e-06	1.419346e-06	4.387930e-10	9.862056e+00	3.055420e+01
2.160000e-06	1.464636e-06	4.651794e-10	1.017675e+01	3.233317e+01
2.170000e-06	1.509758e-06	4.913091e-10	1.049027e+01	3.408375e+01
2.180000e-06	1.554768e-06	5.142484e-10	1.080301e+01	3.580445e+01
2.190000e-06	1.599650e-06	5.369997e-10	1.111487e+01	3.749400e+01
2.200000e-06	1.644357e-06	5.579559e-10	1.142550e+01	3.915131e+01
2.210000e-06	1.688966e-06	5.762817e-10	1.173546e+01	4.077551e+01
2.220000e-06	1.733440e-06	5.947267e-10	1.204448e+01	4.236592e+01
2.230000e-06	1.777696e-06	6.134423e-10	1.235198e+01	4.392205e+01
2.240000e-06	1.821840e-06	6.329092e-10	1.265871e+01	4.544355e+01
2.250000e-06	1.865858e-06	6.536938e-10	1.296456e+01	4.693027e+01
2.260000e-06	1.909748e-06	6.765984e-10	1.326952e+01	4.838217e+01
2.270000e-06	1.953611e-06	6.996102e-10	1.357430e+01	4.979935e+01
2.280000e-06	1.997476e-06	7.207208e-10	1.387908e+01	5.118203e+01
2.290000e-06	2.041331e-06	7.394013e-10	1.418380e+01	5.253052e+01
2.300000e-06	2.085122e-06	7.545503e-10	1.448808e+01	5.384523e+01
2.310000e-06	2.128833e-06	7.683852e-10	1.479179e+01	5.512660e+01
2.320000e-06	2.172434e-06	7.851015e-10	1.509474e+01	5.637518e+01
2.330000e-06	2.215879e-06	8.038278e-10	1.539662e+01	5.759153e+01
2.340000e-06	2.259182e-06	8.221832e-10	1.569750e+01	5.877625e+01
2.350000e-06	2.302392e-06	8.407256e-10	1.599774e+01	5.992997e+01
2.360000e-06	2.345559e-06	8.588103e-10	1.629767e+01	6.105333e+01
2.370000e-06	2.388418e-06	8.734327e-10	1.659547e+01	6.214698e+01
2.380000e-06	2.430823e-06	8.854642e-10	1.689011e+01	6.321159e+01
2.390000e-06	2.472841e-06	8.979031e-10	1.718207e+01	6.424782e+01
2.400000e-06	2.514534e-06	9.104391e-10	1.747177e+01	6.525632e+01
2.410000e-06	2.556005e-06	9.233738e-10	1.775992e+01	6.623776e+01
2.420000e-06	2.597221e-06	9.384910e-10	1.804630e+01	6.719280e+01
2.430000e-06	2.638172e-06	9.540339e-10	1.833084e+01	6.812208e+01
2.440000e-06	2.678820e-06	9.678455e-10	1.861328e+01	6.902628e+01
2.450000e-06	2.719201e-06	9.801323e-10	1.889385e+01	6.990605e+01
2.460000e-06	2.759366e-06	9.905591e-10	1.917293e+01	7.076205e+01
2.470000e-06	2.799348e-06	1.000989e-09	1.945074e+01	7.159497e+01
2.480000e-06	2.839228e-06	1.012469e-09	1.972784e+01	7.240548e+01
2.490000e-06	2.879022e-06	1.025223e-09	2.000434e+01	7.319427e+01
2.500000e-06	2.918746e-06	1.039203e-09	2.028035e+01	7.396204e+01
2.510000e-06	2.958345e-06	1.051213e-09	2.055550e+01	7.470950e+01
2.520000e-06	2.997722e-06	1.060904e-09	2.082910e+01	7.543738e+01
2.530000e-06	3.036850e-06	1.070596e-09	2.110098e+01	7.614640e+01
2.540000e-06	3.075792e-06	1.079973e-09	2.137156e+01	7.683730e+01
2.550000e-06	3.114502e-06	1.087389e-09	2.164053e+01	7.751080e+01
2.560000e-06	3.152922e-06	1.094812e-09	2.190748e+01	7.816766e+01
2.570000e-06	3.191131e-06	1.104170e-09	2.217297e+01	7.880858e+01
2.580000e-06	3.229173e-06	1.114100e-09	2.243730e+01	7.943428e+01
2.590000e-06	3.266999e-06	1.124109e-09	2.270013e+01	8.004546e+01
2.600000e-06	3.304616e-06	1.132004e-09	2.296150e+01	8.064278e+01
2.610000e-06	3.342038e-06	1.138064e-09	2.322152e+01	8.122687e+01
2.620000e-06	3.379142e-06	1.144052e-09	2.347933e+01	8.179835e+01
2.630000e-06	3.416012e-06	1.152220e-09	2.373551e+01	8.235775e+01
2.640000e-06	3.452693e-06	1.160491e-09	2.399039e+01	8.290558e+01
2.650000e-06	3.489074e-06	1.166516e-09	2.424317e+01	8.344228e+01
2.660000e-06	3.525233e-06	1.173913e-09	2.449442e+01	8.396825e+01
2.670000e-06	3.561237e-06	1.182216e-09	2.474458e+01	8.448380e+01
2.680000e-06	3.597106e-06	1.189487e-09	2.499381e+01	8.498920e+01
2.690000e-06	3.632849e-06	1.196606e-09	2.524216e+01	8.548464e+01
2.700000e-06	3.668493e-06	1.204196e-09	2.548983e+01	8.597026e+01
2.710000e-06	3.703954e-06	1.211576e-09	2.573622e+01	8.644612e+01
2.720000e-06	3.739159e-06	1.217410e-09	2.598084e+01	8.691223e+01
2.730000e-06	3.774079e-06	1.222909e-09	2.622347e+01	8.736855e+01
2.740000e-06	3.808586e-06	1.230469e-09	2.646324e+01	8.781499e+01
2.750000e-06	3.842660e-06	1.238501e-09	2.670000e+01	8.825142e+01
2.760000e-06	3.876189e-06	1.245376e-09	2.693296e+01	8.867768e+01
2.770000e-06	3.909160e-06	1.252354e-09	2.716206e+01	8.909359e+01
2.780000e-06	3.941682e-06	1.261794e-09	2.738803e+01	8.949895e+01
2.790000e-06	3.973880e-06	1.268862e-09	2.761175e+01	8.989357e+01
2.800000e-06	4.005885e-06	1.271779e-09	2.783414e+01	9.027726e+01
2.810000e-06	4.037740e-06	1.273482e-09	2.805548e+01	9.064984e+01
2.820000e-06	4.069473e-06	1.277256e-09	2.827596e+01	9.101118e+01
2.830000e-06	4.101016e-06	1.283986e-09	2.849513e+01	9.136118e+01
2.840000e-06	4.132338e-06	1.291767e-09	2.871277e+01	9.169976e+01
2.850000e-06	4.163460e-06	1.299589e-09	2.892901e+01	9.202694e+01
2.860000e-06	4.194204e-06	1.305207e-09	2.914263e+01	9.234277e+01
2.870000e-06	4.224488e-06	1.310866e-09	2.935306e+01	9.264736e+01
2.880000e-06	4.254543e-06	1.314588e-09	2.956189e+01	9.294090e+01
2.890000e-06	4.284384e-06	1.320377e-09	2.976923e+01	9.322365e+01
2.900000e-06	4.313944e-06	1.327467e-09	2.997462e+01	9.349592e+01
