# Temperatura_=_15.12
# Concentracion g/m^3_=_1620.0
# C_Vs_to_Am_M_A/Vsm_=_65563218390.804596
# pendiente_HvsI_1/m_=_3716.3
# ordenada_HvsI_A/m_=_1297.0
# frecuencia_Hz_=_135098.71578545508

Tiempo_(s)	Campo_(V.s)	Magnetizacion_(V.s)	Campo_(kA/m)	Magnetizacion_(A/m)
0.000000e+00	-5.530332e-06	-1.484075e-09	-3.837355e+01	-9.857356e+01
1.000000e-08	-5.530457e-06	-1.484047e-09	-3.837442e+01	-9.852332e+01
2.000000e-08	-5.530298e-06	-1.484288e-09	-3.837332e+01	-9.847505e+01
3.000000e-08	-5.529719e-06	-1.483083e-09	-3.836930e+01	-9.842925e+01
4.000000e-08	-5.528529e-06	-1.479186e-09	-3.836104e+01	-9.838632e+01
5.000000e-08	-5.526717e-06	-1.472492e-09	-3.834847e+01	-9.834663e+01
6.000000e-08	-5.524352e-06	-1.466269e-09	-3.833206e+01	-9.831044e+01
7.000000e-08	-5.521417e-06	-1.485659e-09	-3.831170e+01	-9.827792e+01
8.000000e-08	-5.517948e-06	-1.505437e-09	-3.828762e+01	-9.824915e+01
9.000000e-08	-5.513935e-06	-1.468435e-09	-3.825978e+01	-9.822411e+01
1.000000e-07	-5.509564e-06	-1.437770e-09	-3.822945e+01	-9.820265e+01
1.100000e-07	-5.505114e-06	-1.470887e-09	-3.819857e+01	-9.818453e+01
1.200000e-07	-5.500452e-06	-1.478797e-09	-3.816622e+01	-9.816939e+01
1.300000e-07	-5.495394e-06	-1.476112e-09	-3.813113e+01	-9.815679e+01
1.400000e-07	-5.489989e-06	-1.430334e-09	-3.809362e+01	-9.814614e+01
1.500000e-07	-5.484272e-06	-1.473355e-09	-3.805395e+01	-9.813680e+01
1.600000e-07	-5.478130e-06	-1.490037e-09	-3.801134e+01	-9.812803e+01
1.700000e-07	-5.471489e-06	-1.471285e-09	-3.796526e+01	-9.811901e+01
1.800000e-07	-5.464459e-06	-1.489169e-09	-3.791648e+01	-9.810887e+01
1.900000e-07	-5.457154e-06	-1.503777e-09	-3.786579e+01	-9.809668e+01
2.000000e-07	-5.449508e-06	-1.514452e-09	-3.781273e+01	-9.808148e+01
2.100000e-07	-5.441574e-06	-1.469285e-09	-3.775769e+01	-9.806229e+01
2.200000e-07	-5.433480e-06	-1.483681e-09	-3.770152e+01	-9.803815e+01
2.300000e-07	-5.424984e-06	-1.488202e-09	-3.764257e+01	-9.800810e+01
2.400000e-07	-5.415872e-06	-1.513904e-09	-3.757934e+01	-9.797120e+01
2.500000e-07	-5.406155e-06	-1.505248e-09	-3.751192e+01	-9.792658e+01
2.600000e-07	-5.395860e-06	-1.508348e-09	-3.744049e+01	-9.787343e+01
2.700000e-07	-5.385022e-06	-1.473626e-09	-3.736528e+01	-9.781101e+01
2.800000e-07	-5.373726e-06	-1.477560e-09	-3.728691e+01	-9.773869e+01
2.900000e-07	-5.362059e-06	-1.472752e-09	-3.720595e+01	-9.765592e+01
3.000000e-07	-5.349981e-06	-1.465274e-09	-3.712215e+01	-9.756229e+01
3.100000e-07	-5.337393e-06	-1.459041e-09	-3.703480e+01	-9.745749e+01
3.200000e-07	-5.324359e-06	-1.494845e-09	-3.694436e+01	-9.734134e+01
3.300000e-07	-5.310935e-06	-1.500184e-09	-3.685121e+01	-9.721379e+01
3.400000e-07	-5.297174e-06	-1.462415e-09	-3.675573e+01	-9.707493e+01
3.500000e-07	-5.282996e-06	-1.468315e-09	-3.665735e+01	-9.692497e+01
3.600000e-07	-5.268442e-06	-1.476915e-09	-3.655637e+01	-9.676425e+01
3.700000e-07	-5.253366e-06	-1.443440e-09	-3.645176e+01	-9.659321e+01
3.800000e-07	-5.237711e-06	-1.431707e-09	-3.634313e+01	-9.641242e+01
3.900000e-07	-5.221667e-06	-1.483113e-09	-3.623181e+01	-9.622254e+01
4.000000e-07	-5.205145e-06	-1.457518e-09	-3.611717e+01	-9.602432e+01
4.100000e-07	-5.188215e-06	-1.417554e-09	-3.599969e+01	-9.581857e+01
4.200000e-07	-5.170988e-06	-1.456816e-09	-3.588016e+01	-9.560618e+01
4.300000e-07	-5.153472e-06	-1.480495e-09	-3.575862e+01	-9.538807e+01
4.400000e-07	-5.135567e-06	-1.405903e-09	-3.563438e+01	-9.516519e+01
4.500000e-07	-5.117219e-06	-1.420125e-09	-3.550707e+01	-9.493848e+01
4.600000e-07	-5.098493e-06	-1.465507e-09	-3.537714e+01	-9.470890e+01
4.700000e-07	-5.079476e-06	-1.416344e-09	-3.524518e+01	-9.447736e+01
4.800000e-07	-5.060127e-06	-1.381078e-09	-3.511092e+01	-9.424476e+01
4.900000e-07	-5.040562e-06	-1.453800e-09	-3.497516e+01	-9.401191e+01
5.000000e-07	-5.020831e-06	-1.430932e-09	-3.483826e+01	-9.377958e+01
5.100000e-07	-5.000804e-06	-1.378192e-09	-3.469929e+01	-9.354845e+01
5.200000e-07	-4.980448e-06	-1.424946e-09	-3.455805e+01	-9.331909e+01
5.300000e-07	-4.959702e-06	-1.447764e-09	-3.441410e+01	-9.309201e+01
5.400000e-07	-4.938487e-06	-1.370351e-09	-3.426690e+01	-9.286759e+01
5.500000e-07	-4.916919e-06	-1.384232e-09	-3.411724e+01	-9.264610e+01
5.600000e-07	-4.895044e-06	-1.421980e-09	-3.396545e+01	-9.242770e+01
5.700000e-07	-4.872853e-06	-1.369884e-09	-3.381148e+01	-9.221246e+01
5.800000e-07	-4.850376e-06	-1.353768e-09	-3.365552e+01	-9.200031e+01
5.900000e-07	-4.827565e-06	-1.411532e-09	-3.349724e+01	-9.179109e+01
6.000000e-07	-4.804408e-06	-1.389216e-09	-3.333655e+01	-9.158455e+01
6.100000e-07	-4.781003e-06	-1.354126e-09	-3.317415e+01	-9.138034e+01
6.200000e-07	-4.757386e-06	-1.388319e-09	-3.301028e+01	-9.117802e+01
6.300000e-07	-4.733502e-06	-1.384347e-09	-3.284456e+01	-9.097709e+01
6.400000e-07	-4.709251e-06	-1.345014e-09	-3.267629e+01	-9.077700e+01
6.500000e-07	-4.684606e-06	-1.361573e-09	-3.250528e+01	-9.057713e+01
6.600000e-07	-4.659517e-06	-1.373999e-09	-3.233119e+01	-9.037685e+01
6.700000e-07	-4.633964e-06	-1.341108e-09	-3.215389e+01	-9.017549e+01
6.800000e-07	-4.607955e-06	-1.346274e-09	-3.197342e+01	-8.997239e+01
6.900000e-07	-4.581305e-06	-1.362873e-09	-3.178850e+01	-8.976687e+01
7.000000e-07	-4.554116e-06	-1.340946e-09	-3.159984e+01	-8.955829e+01
7.100000e-07	-4.526700e-06	-1.322613e-09	-3.140961e+01	-8.934602e+01
7.200000e-07	-4.499129e-06	-1.335133e-09	-3.121830e+01	-8.912949e+01
7.300000e-07	-4.471352e-06	-1.323330e-09	-3.102557e+01	-8.890815e+01
7.400000e-07	-4.443362e-06	-1.315991e-09	-3.083135e+01	-8.868152e+01
7.500000e-07	-4.415082e-06	-1.325212e-09	-3.063512e+01	-8.844918e+01
7.600000e-07	-4.386512e-06	-1.325344e-09	-3.043688e+01	-8.821076e+01
7.700000e-07	-4.357683e-06	-1.304596e-09	-3.023684e+01	-8.796598e+01
7.800000e-07	-4.328494e-06	-1.304470e-09	-3.003431e+01	-8.771461e+01
7.900000e-07	-4.298976e-06	-1.301995e-09	-2.982949e+01	-8.745650e+01
8.000000e-07	-4.269219e-06	-1.288724e-09	-2.962301e+01	-8.719156e+01
8.100000e-07	-4.239176e-06	-1.282749e-09	-2.941456e+01	-8.691976e+01
8.200000e-07	-4.208825e-06	-1.293134e-09	-2.920395e+01	-8.664114e+01
8.300000e-07	-4.178159e-06	-1.286099e-09	-2.899118e+01	-8.635579e+01
8.400000e-07	-4.147163e-06	-1.279095e-09	-2.877610e+01	-8.606383e+01
8.500000e-07	-4.115843e-06	-1.281038e-09	-2.855878e+01	-8.576546e+01
8.600000e-07	-4.084308e-06	-1.275228e-09	-2.833996e+01	-8.546088e+01
8.700000e-07	-4.052659e-06	-1.258774e-09	-2.812036e+01	-8.515031e+01
8.800000e-07	-4.020899e-06	-1.257599e-09	-2.789999e+01	-8.483403e+01
8.900000e-07	-3.988932e-06	-1.253605e-09	-2.767818e+01	-8.451229e+01
9.000000e-07	-3.956653e-06	-1.239950e-09	-2.745420e+01	-8.418535e+01
9.100000e-07	-3.924060e-06	-1.236442e-09	-2.722804e+01	-8.385348e+01
9.200000e-07	-3.891066e-06	-1.237009e-09	-2.699911e+01	-8.351692e+01
9.300000e-07	-3.857666e-06	-1.223589e-09	-2.676736e+01	-8.317592e+01
9.400000e-07	-3.823913e-06	-1.213909e-09	-2.653315e+01	-8.283068e+01
9.500000e-07	-3.789735e-06	-1.214969e-09	-2.629600e+01	-8.248140e+01
9.600000e-07	-3.755015e-06	-1.205147e-09	-2.605508e+01	-8.212823e+01
9.700000e-07	-3.719854e-06	-1.192488e-09	-2.581111e+01	-8.177131e+01
9.800000e-07	-3.684461e-06	-1.188562e-09	-2.556553e+01	-8.141075e+01
9.900000e-07	-3.648918e-06	-1.184566e-09	-2.531891e+01	-8.104660e+01
1.000000e-06	-3.613263e-06	-1.170999e-09	-2.507151e+01	-8.067892e+01
1.010000e-06	-3.577431e-06	-1.167517e-09	-2.482288e+01	-8.030774e+01
1.020000e-06	-3.541387e-06	-1.167166e-09	-2.457277e+01	-7.993303e+01
1.030000e-06	-3.505146e-06	-1.163241e-09	-2.432131e+01	-7.955478e+01
1.040000e-06	-3.468689e-06	-1.159831e-09	-2.406834e+01	-7.917295e+01
1.050000e-06	-3.432009e-06	-1.160278e-09	-2.381383e+01	-7.878748e+01
1.060000e-06	-3.395082e-06	-1.149389e-09	-2.355760e+01	-7.839830e+01
1.070000e-06	-3.357892e-06	-1.138308e-09	-2.329955e+01	-7.800537e+01
1.080000e-06	-3.320400e-06	-1.133897e-09	-2.303940e+01	-7.760859e+01
1.090000e-06	-3.282641e-06	-1.129890e-09	-2.277740e+01	-7.720793e+01
1.100000e-06	-3.244693e-06	-1.117725e-09	-2.251409e+01	-7.680332e+01
1.110000e-06	-3.206524e-06	-1.112571e-09	-2.224925e+01	-7.639472e+01
1.120000e-06	-3.168077e-06	-1.110105e-09	-2.198247e+01	-7.598211e+01
1.130000e-06	-3.129435e-06	-1.103527e-09	-2.171434e+01	-7.556546e+01
1.140000e-06	-3.090683e-06	-1.094534e-09	-2.144545e+01	-7.514478e+01
1.150000e-06	-3.051679e-06	-1.090860e-09	-2.117482e+01	-7.472009e+01
1.160000e-06	-3.012478e-06	-1.082964e-09	-2.090281e+01	-7.429143e+01
1.170000e-06	-2.973117e-06	-1.071842e-09	-2.062970e+01	-7.385883e+01
1.180000e-06	-2.933587e-06	-1.064281e-09	-2.035540e+01	-7.342236e+01
1.190000e-06	-2.893913e-06	-1.058173e-09	-2.008012e+01	-7.298210e+01
1.200000e-06	-2.854095e-06	-1.045300e-09	-1.980383e+01	-7.253811e+01
1.210000e-06	-2.814109e-06	-1.035566e-09	-1.952638e+01	-7.209048e+01
1.220000e-06	-2.774007e-06	-1.030080e-09	-1.924812e+01	-7.163929e+01
1.230000e-06	-2.733756e-06	-1.024505e-09	-1.896883e+01	-7.118460e+01
1.240000e-06	-2.693199e-06	-1.023302e-09	-1.868742e+01	-7.072649e+01
1.250000e-06	-2.652525e-06	-1.023415e-09	-1.840519e+01	-7.026499e+01
1.260000e-06	-2.611645e-06	-1.018683e-09	-1.812153e+01	-6.980014e+01
1.270000e-06	-2.570516e-06	-1.006643e-09	-1.783615e+01	-6.933195e+01
1.280000e-06	-2.529117e-06	-9.963611e-10	-1.754890e+01	-6.886038e+01
1.290000e-06	-2.487316e-06	-9.850702e-10	-1.725885e+01	-6.838539e+01
1.300000e-06	-2.445180e-06	-9.729011e-10	-1.696648e+01	-6.790689e+01
1.310000e-06	-2.402759e-06	-9.646514e-10	-1.667213e+01	-6.742476e+01
1.320000e-06	-2.360227e-06	-9.638292e-10	-1.637701e+01	-6.693883e+01
1.330000e-06	-2.317518e-06	-9.597949e-10	-1.608066e+01	-6.644892e+01
1.340000e-06	-2.274464e-06	-9.532037e-10	-1.578192e+01	-6.595478e+01
1.350000e-06	-2.231149e-06	-9.459357e-10	-1.548137e+01	-6.545613e+01
1.360000e-06	-2.187705e-06	-9.352217e-10	-1.517993e+01	-6.495268e+01
1.370000e-06	-2.144147e-06	-9.215287e-10	-1.487769e+01	-6.444406e+01
1.380000e-06	-2.100455e-06	-9.095997e-10	-1.457452e+01	-6.392989e+01
1.390000e-06	-2.056647e-06	-9.000864e-10	-1.427054e+01	-6.340977e+01
1.400000e-06	-2.012762e-06	-8.937313e-10	-1.396604e+01	-6.288326e+01
1.410000e-06	-1.968835e-06	-8.858192e-10	-1.366124e+01	-6.234988e+01
1.420000e-06	-1.924873e-06	-8.795701e-10	-1.335620e+01	-6.180916e+01
1.430000e-06	-1.880808e-06	-8.710058e-10	-1.305044e+01	-6.126058e+01
1.440000e-06	-1.836623e-06	-8.622654e-10	-1.274385e+01	-6.070363e+01
1.450000e-06	-1.792247e-06	-8.529935e-10	-1.243594e+01	-6.013778e+01
1.460000e-06	-1.747635e-06	-8.411175e-10	-1.212639e+01	-5.956248e+01
1.470000e-06	-1.702934e-06	-8.284592e-10	-1.181623e+01	-5.897720e+01
1.480000e-06	-1.658137e-06	-8.173491e-10	-1.150539e+01	-5.838137e+01
1.490000e-06	-1.613228e-06	-8.047904e-10	-1.119378e+01	-5.777444e+01
1.500000e-06	-1.568270e-06	-7.926159e-10	-1.088182e+01	-5.715585e+01
1.510000e-06	-1.523226e-06	-7.838528e-10	-1.056927e+01	-5.652504e+01
1.520000e-06	-1.477986e-06	-7.775817e-10	-1.025537e+01	-5.588144e+01
1.530000e-06	-1.432545e-06	-7.704480e-10	-9.940065e+00	-5.522448e+01
1.540000e-06	-1.386984e-06	-7.611668e-10	-9.623927e+00	-5.455358e+01
1.550000e-06	-1.341346e-06	-7.482387e-10	-9.307253e+00	-5.386814e+01
1.560000e-06	-1.295704e-06	-7.312799e-10	-8.990555e+00	-5.316757e+01
1.570000e-06	-1.250026e-06	-7.134158e-10	-8.673609e+00	-5.245125e+01
1.580000e-06	-1.204220e-06	-6.998051e-10	-8.355776e+00	-5.171855e+01
1.590000e-06	-1.158305e-06	-6.946099e-10	-8.037180e+00	-5.096881e+01
1.600000e-06	-1.112307e-06	-6.894660e-10	-7.718015e+00	-5.020135e+01
1.610000e-06	-1.066237e-06	-6.811319e-10	-7.398344e+00	-4.941547e+01
1.620000e-06	-1.020166e-06	-6.700964e-10	-7.078671e+00	-4.861043e+01
1.630000e-06	-9.739956e-07	-6.562028e-10	-6.758306e+00	-4.778548e+01
1.640000e-06	-9.277156e-07	-6.393913e-10	-6.437181e+00	-4.693980e+01
1.650000e-06	-8.814472e-07	-6.228460e-10	-6.116136e+00	-4.607258e+01
1.660000e-06	-8.351490e-07	-6.061999e-10	-5.794885e+00	-4.518295e+01
1.670000e-06	-7.887341e-07	-5.908966e-10	-5.472823e+00	-4.427004e+01
1.680000e-06	-7.421754e-07	-5.777457e-10	-5.149765e+00	-4.333292e+01
1.690000e-06	-6.955703e-07	-5.646121e-10	-4.826384e+00	-4.237067e+01
1.700000e-06	-6.489694e-07	-5.487975e-10	-4.503032e+00	-4.138234e+01
1.710000e-06	-6.023677e-07	-5.342589e-10	-4.179675e+00	-4.036698e+01
1.720000e-06	-5.556824e-07	-5.206025e-10	-3.855738e+00	-3.932363e+01
1.730000e-06	-5.089210e-07	-5.051699e-10	-3.531272e+00	-3.825135e+01
1.740000e-06	-4.621825e-07	-4.863962e-10	-3.206966e+00	-3.714921e+01
1.750000e-06	-4.154247e-07	-4.675354e-10	-2.882526e+00	-3.601633e+01
1.760000e-06	-3.686432e-07	-4.476459e-10	-2.557920e+00	-3.485186e+01
1.770000e-06	-3.218576e-07	-4.298511e-10	-2.233287e+00	-3.365500e+01
1.780000e-06	-2.749792e-07	-4.147263e-10	-1.908010e+00	-3.242504e+01
1.790000e-06	-2.280209e-07	-3.996551e-10	-1.582178e+00	-3.116134e+01
1.800000e-06	-1.811098e-07	-3.834092e-10	-1.256674e+00	-2.986336e+01
1.810000e-06	-1.342588e-07	-3.642655e-10	-9.315872e-01	-2.853066e+01
1.820000e-06	-8.731825e-08	-3.427149e-10	-6.058789e-01	-2.716295e+01
1.830000e-06	-4.035415e-08	-3.211586e-10	-2.800071e-01	-2.576006e+01
1.840000e-06	6.691229e-09	-3.017791e-10	4.642872e-02	-2.432196e+01
1.850000e-06	5.377276e-08	-2.826742e-10	3.731154e-01	-2.284877e+01
1.860000e-06	1.007446e-07	-2.636988e-10	6.990411e-01	-2.134081e+01
1.870000e-06	1.477025e-07	-2.430342e-10	1.024870e+00	-1.979854e+01
1.880000e-06	1.945742e-07	-2.206713e-10	1.350100e+00	-1.822261e+01
1.890000e-06	2.413920e-07	-1.976633e-10	1.674957e+00	-1.661385e+01
1.900000e-06	2.882046e-07	-1.730840e-10	1.999778e+00	-1.497326e+01
1.910000e-06	3.350732e-07	-1.493090e-10	2.324987e+00	-1.330205e+01
1.920000e-06	3.819844e-07	-1.271032e-10	2.650492e+00	-1.160159e+01
1.930000e-06	4.287937e-07	-1.033095e-10	2.975290e+00	-9.873415e+00
1.940000e-06	4.755100e-07	-7.961856e-11	3.299442e+00	-8.119253e+00
1.950000e-06	5.221232e-07	-5.616392e-11	3.622879e+00	-6.340976e+00
1.960000e-06	5.686726e-07	-3.531197e-11	3.945874e+00	-4.540609e+00
1.970000e-06	6.151422e-07	-1.108460e-11	4.268314e+00	-2.720312e+00
1.980000e-06	6.615646e-07	1.533713e-11	4.590427e+00	-8.823681e-01
1.990000e-06	7.080246e-07	4.442209e-11	4.912801e+00	9.708320e-01
2.000000e-06	7.544323e-07	7.664317e-11	5.234812e+00	2.836808e+00
2.010000e-06	8.008110e-07	1.077274e-10	5.556622e+00	4.713006e+00
2.020000e-06	8.471213e-07	1.346017e-10	5.877957e+00	6.596818e+00
2.030000e-06	8.933482e-07	1.584087e-10	6.198714e+00	8.485599e+00
2.040000e-06	9.394948e-07	1.788500e-10	6.518913e+00	1.037669e+01
2.050000e-06	9.856271e-07	2.022608e-10	6.839013e+00	1.226743e+01
2.060000e-06	1.031745e-06	2.288099e-10	7.159014e+00	1.415517e+01
2.070000e-06	1.077770e-06	2.580588e-10	7.478372e+00	1.603733e+01
2.080000e-06	1.123665e-06	2.903653e-10	7.796820e+00	1.791135e+01
2.090000e-06	1.169367e-06	3.179319e-10	8.113936e+00	1.977476e+01
2.100000e-06	1.214987e-06	3.424911e-10	8.430484e+00	2.162518e+01
2.110000e-06	1.260604e-06	3.649811e-10	8.747005e+00	2.346033e+01
2.120000e-06	1.306125e-06	3.873586e-10	9.062863e+00	2.527803e+01
2.130000e-06	1.351543e-06	4.088263e-10	9.378011e+00	2.707624e+01
2.140000e-06	1.396924e-06	4.325378e-10	9.692901e+00	2.885304e+01
2.150000e-06	1.442178e-06	4.576490e-10	1.000690e+01	3.060667e+01
2.160000e-06	1.487336e-06	4.838240e-10	1.032024e+01	3.233551e+01
2.170000e-06	1.532430e-06	5.087506e-10	1.063314e+01	3.403808e+01
2.180000e-06	1.577451e-06	5.348516e-10	1.094553e+01	3.571305e+01
2.190000e-06	1.622415e-06	5.596979e-10	1.125752e+01	3.735927e+01
2.200000e-06	1.667178e-06	5.820435e-10	1.156812e+01	3.897572e+01
2.210000e-06	1.711734e-06	6.010619e-10	1.187728e+01	4.056154e+01
2.220000e-06	1.756144e-06	6.197105e-10	1.218544e+01	4.211601e+01
2.230000e-06	1.800409e-06	6.391383e-10	1.249258e+01	4.363856e+01
2.240000e-06	1.844600e-06	6.574681e-10	1.279920e+01	4.512875e+01
2.250000e-06	1.888662e-06	6.777922e-10	1.310494e+01	4.658627e+01
2.260000e-06	1.932585e-06	7.030660e-10	1.340971e+01	4.801093e+01
2.270000e-06	1.976485e-06	7.279522e-10	1.371432e+01	4.940266e+01
2.280000e-06	2.020333e-06	7.490364e-10	1.401857e+01	5.076148e+01
2.290000e-06	2.064095e-06	7.663875e-10	1.432223e+01	5.208753e+01
2.300000e-06	2.107809e-06	7.803217e-10	1.462555e+01	5.338102e+01
2.310000e-06	2.151468e-06	7.932902e-10	1.492848e+01	5.464223e+01
2.320000e-06	2.195010e-06	8.089467e-10	1.523061e+01	5.587154e+01
2.330000e-06	2.238450e-06	8.253385e-10	1.553203e+01	5.706935e+01
2.340000e-06	2.281771e-06	8.397249e-10	1.583262e+01	5.823616e+01
2.350000e-06	2.324911e-06	8.552524e-10	1.613196e+01	5.937247e+01
2.360000e-06	2.367836e-06	8.707970e-10	1.642981e+01	6.047883e+01
2.370000e-06	2.410494e-06	8.865476e-10	1.672580e+01	6.155585e+01
2.380000e-06	2.452955e-06	9.049005e-10	1.702042e+01	6.260412e+01
2.390000e-06	2.495145e-06	9.239211e-10	1.731317e+01	6.362428e+01
2.400000e-06	2.536861e-06	9.377350e-10	1.760263e+01	6.461696e+01
2.410000e-06	2.578209e-06	9.494633e-10	1.788953e+01	6.558281e+01
2.420000e-06	2.619300e-06	9.607472e-10	1.817465e+01	6.652250e+01
2.430000e-06	2.660080e-06	9.729013e-10	1.845761e+01	6.743666e+01
2.440000e-06	2.700568e-06	9.827988e-10	1.873855e+01	6.832596e+01
2.450000e-06	2.740825e-06	9.915109e-10	1.901788e+01	6.919103e+01
2.460000e-06	2.780907e-06	1.003085e-09	1.929600e+01	7.003251e+01
2.470000e-06	2.820898e-06	1.016389e-09	1.957349e+01	7.085103e+01
2.480000e-06	2.860794e-06	1.028196e-09	1.985032e+01	7.164721e+01
2.490000e-06	2.900482e-06	1.040150e-09	2.012570e+01	7.242164e+01
2.500000e-06	2.940016e-06	1.050847e-09	2.040001e+01	7.317490e+01
2.510000e-06	2.979460e-06	1.059640e-09	2.067371e+01	7.390758e+01
2.520000e-06	3.018781e-06	1.068298e-09	2.094655e+01	7.462023e+01
2.530000e-06	3.057944e-06	1.078287e-09	2.121829e+01	7.531338e+01
2.540000e-06	3.096875e-06	1.087804e-09	2.148842e+01	7.598756e+01
2.550000e-06	3.135565e-06	1.094512e-09	2.175688e+01	7.664328e+01
2.560000e-06	3.173997e-06	1.100387e-09	2.202355e+01	7.728102e+01
2.570000e-06	3.212167e-06	1.107853e-09	2.228840e+01	7.790126e+01
2.580000e-06	3.250125e-06	1.116707e-09	2.255179e+01	7.850445e+01
2.590000e-06	3.287897e-06	1.125447e-09	2.281388e+01	7.909104e+01
2.600000e-06	3.325493e-06	1.133928e-09	2.307474e+01	7.966145e+01
2.610000e-06	3.362886e-06	1.142787e-09	2.333420e+01	8.021609e+01
2.620000e-06	3.400006e-06	1.151225e-09	2.359177e+01	8.075537e+01
2.630000e-06	3.436836e-06	1.156972e-09	2.384732e+01	8.127968e+01
2.640000e-06	3.473439e-06	1.160271e-09	2.410130e+01	8.178939e+01
2.650000e-06	3.509797e-06	1.163773e-09	2.435358e+01	8.228488e+01
2.660000e-06	3.545908e-06	1.168653e-09	2.460415e+01	8.276650e+01
2.670000e-06	3.581832e-06	1.173117e-09	2.485342e+01	8.323463e+01
2.680000e-06	3.617626e-06	1.178869e-09	2.510178e+01	8.368961e+01
2.690000e-06	3.653286e-06	1.187266e-09	2.534921e+01	8.413180e+01
2.700000e-06	3.688789e-06	1.194060e-09	2.559556e+01	8.456156e+01
2.710000e-06	3.724092e-06	1.198630e-09	2.584052e+01	8.497925e+01
2.720000e-06	3.759126e-06	1.204860e-09	2.608361e+01	8.538522e+01
2.730000e-06	3.793897e-06	1.210781e-09	2.632488e+01	8.577986e+01
2.740000e-06	3.828241e-06	1.217178e-09	2.656318e+01	8.616354e+01
2.750000e-06	3.861987e-06	1.223835e-09	2.679734e+01	8.653663e+01
2.760000e-06	3.895241e-06	1.229926e-09	2.702808e+01	8.689955e+01
2.770000e-06	3.928043e-06	1.236251e-09	2.725568e+01	8.725268e+01
2.780000e-06	3.960497e-06	1.243943e-09	2.748087e+01	8.759645e+01
2.790000e-06	3.992687e-06	1.250574e-09	2.770423e+01	8.793128e+01
2.800000e-06	4.024629e-06	1.254575e-09	2.792587e+01	8.825760e+01
2.810000e-06	4.056386e-06	1.257496e-09	2.814622e+01	8.857584e+01
2.820000e-06	4.088048e-06	1.261815e-09	2.836592e+01	8.888645e+01
2.830000e-06	4.119639e-06	1.267903e-09	2.858512e+01	8.918987e+01
2.840000e-06	4.150981e-06	1.274145e-09	2.880259e+01	8.948656e+01
2.850000e-06	4.181901e-06	1.280145e-09	2.901714e+01	8.977694e+01
2.860000e-06	4.212419e-06	1.286435e-09	2.922890e+01	9.006147e+01
2.870000e-06	4.242634e-06	1.292326e-09	2.943855e+01	9.034056e+01
2.880000e-06	4.272564e-06	1.297574e-09	2.964623e+01	9.061463e+01
2.890000e-06	4.302233e-06	1.303820e-09	2.985209e+01	9.088407e+01
2.900000e-06	4.331667e-06	1.311573e-09	3.005632e+01	9.114925e+01
