# Temperatura_=_1.75
# Concentracion g/m^3_=_1620.0
# C_Vs_to_Am_M_A/Vsm_=_65563218390.804596
# pendiente_HvsI_1/m_=_3716.3
# ordenada_HvsI_A/m_=_1297.0
# frecuencia_Hz_=_135103.81568416374

Tiempo_(s)	Campo_(V.s)	Magnetizacion_(V.s)	Campo_(kA/m)	Magnetizacion_(A/m)
0.000000e+00	-5.525638e-06	-1.204097e-09	-3.837106e+01	-8.051800e+01
1.000000e-08	-5.525848e-06	-1.204548e-09	-3.837252e+01	-8.051663e+01
2.000000e-08	-5.525724e-06	-1.203916e-09	-3.837166e+01	-8.051589e+01
3.000000e-08	-5.525264e-06	-1.204807e-09	-3.836846e+01	-8.051581e+01
4.000000e-08	-5.524287e-06	-1.203799e-09	-3.836168e+01	-8.051639e+01
5.000000e-08	-5.522596e-06	-1.197450e-09	-3.834993e+01	-8.051759e+01
6.000000e-08	-5.520160e-06	-1.183716e-09	-3.833302e+01	-8.051932e+01
7.000000e-08	-5.517144e-06	-1.167748e-09	-3.831208e+01	-8.052145e+01
8.000000e-08	-5.513731e-06	-1.191305e-09	-3.828837e+01	-8.052381e+01
9.000000e-08	-5.509942e-06	-1.268251e-09	-3.826206e+01	-8.052616e+01
1.000000e-07	-5.505730e-06	-1.268680e-09	-3.823281e+01	-8.052824e+01
1.100000e-07	-5.501270e-06	-1.148570e-09	-3.820184e+01	-8.052972e+01
1.200000e-07	-5.496712e-06	-1.103202e-09	-3.817019e+01	-8.053023e+01
1.300000e-07	-5.491836e-06	-1.171605e-09	-3.813633e+01	-8.052938e+01
1.400000e-07	-5.486506e-06	-1.245051e-09	-3.809932e+01	-8.052672e+01
1.500000e-07	-5.480826e-06	-1.167417e-09	-3.805988e+01	-8.052179e+01
1.600000e-07	-5.474875e-06	-1.129696e-09	-3.801855e+01	-8.051409e+01
1.700000e-07	-5.468436e-06	-1.208326e-09	-3.797384e+01	-8.050313e+01
1.800000e-07	-5.461338e-06	-1.263127e-09	-3.792455e+01	-8.048839e+01
1.900000e-07	-5.453875e-06	-1.226628e-09	-3.787273e+01	-8.046937e+01
2.000000e-07	-5.446323e-06	-1.149290e-09	-3.782028e+01	-8.044559e+01
2.100000e-07	-5.438580e-06	-1.187149e-09	-3.776651e+01	-8.041658e+01
2.200000e-07	-5.430452e-06	-1.226692e-09	-3.771007e+01	-8.038190e+01
2.300000e-07	-5.421991e-06	-1.229384e-09	-3.765131e+01	-8.034115e+01
2.400000e-07	-5.413096e-06	-1.178368e-09	-3.758955e+01	-8.029401e+01
2.500000e-07	-5.403347e-06	-1.206919e-09	-3.752185e+01	-8.024017e+01
2.600000e-07	-5.392828e-06	-1.210982e-09	-3.744880e+01	-8.017941e+01
2.700000e-07	-5.381964e-06	-1.185520e-09	-3.737336e+01	-8.011159e+01
2.800000e-07	-5.370737e-06	-1.150374e-09	-3.729540e+01	-8.003662e+01
2.900000e-07	-5.359077e-06	-1.190464e-09	-3.721443e+01	-7.995450e+01
3.000000e-07	-5.347061e-06	-1.208960e-09	-3.713099e+01	-7.986531e+01
3.100000e-07	-5.334661e-06	-1.184229e-09	-3.704488e+01	-7.976919e+01
3.200000e-07	-5.321803e-06	-1.174290e-09	-3.695559e+01	-7.966639e+01
3.300000e-07	-5.308530e-06	-1.206118e-09	-3.686342e+01	-7.955722e+01
3.400000e-07	-5.294965e-06	-1.217791e-09	-3.676922e+01	-7.944204e+01
3.500000e-07	-5.280994e-06	-1.175627e-09	-3.667221e+01	-7.932131e+01
3.600000e-07	-5.266471e-06	-1.178070e-09	-3.657136e+01	-7.919551e+01
3.700000e-07	-5.251618e-06	-1.210048e-09	-3.646822e+01	-7.906522e+01
3.800000e-07	-5.236250e-06	-1.195522e-09	-3.636149e+01	-7.893100e+01
3.900000e-07	-5.220106e-06	-1.146880e-09	-3.624939e+01	-7.879349e+01
4.000000e-07	-5.203569e-06	-1.185909e-09	-3.613455e+01	-7.865333e+01
4.100000e-07	-5.186856e-06	-1.208215e-09	-3.601849e+01	-7.851116e+01
4.200000e-07	-5.169772e-06	-1.157481e-09	-3.589986e+01	-7.836763e+01
4.300000e-07	-5.152231e-06	-1.142053e-09	-3.577806e+01	-7.822337e+01
4.400000e-07	-5.134453e-06	-1.214061e-09	-3.565460e+01	-7.807900e+01
4.500000e-07	-5.116380e-06	-1.183018e-09	-3.552909e+01	-7.793509e+01
4.600000e-07	-5.097752e-06	-1.123145e-09	-3.539974e+01	-7.779215e+01
4.700000e-07	-5.078704e-06	-1.147892e-09	-3.526747e+01	-7.765068e+01
4.800000e-07	-5.059398e-06	-1.181662e-09	-3.513341e+01	-7.751107e+01
4.900000e-07	-5.039869e-06	-1.126447e-09	-3.499779e+01	-7.737368e+01
5.000000e-07	-5.020207e-06	-1.141731e-09	-3.486125e+01	-7.723877e+01
5.100000e-07	-5.000339e-06	-1.180006e-09	-3.472328e+01	-7.710654e+01
5.200000e-07	-4.980058e-06	-1.145644e-09	-3.458245e+01	-7.697709e+01
5.300000e-07	-4.959355e-06	-1.125676e-09	-3.443868e+01	-7.685046e+01
5.400000e-07	-4.938386e-06	-1.178558e-09	-3.429307e+01	-7.672661e+01
5.500000e-07	-4.917037e-06	-1.148941e-09	-3.414482e+01	-7.660540e+01
5.600000e-07	-4.895276e-06	-1.098722e-09	-3.399371e+01	-7.648663e+01
5.700000e-07	-4.873231e-06	-1.133207e-09	-3.384063e+01	-7.637004e+01
5.800000e-07	-4.850833e-06	-1.154827e-09	-3.368509e+01	-7.625529e+01
5.900000e-07	-4.828002e-06	-1.111698e-09	-3.352655e+01	-7.614199e+01
6.000000e-07	-4.804872e-06	-1.119497e-09	-3.336593e+01	-7.602970e+01
6.100000e-07	-4.781501e-06	-1.140054e-09	-3.320363e+01	-7.591796e+01
6.200000e-07	-4.757886e-06	-1.105140e-09	-3.303965e+01	-7.580625e+01
6.300000e-07	-4.734067e-06	-1.098904e-09	-3.287425e+01	-7.569406e+01
6.400000e-07	-4.710021e-06	-1.124546e-09	-3.270726e+01	-7.558085e+01
6.500000e-07	-4.685506e-06	-1.115127e-09	-3.253703e+01	-7.546609e+01
6.600000e-07	-4.660471e-06	-1.101878e-09	-3.236318e+01	-7.534925e+01
6.700000e-07	-4.635012e-06	-1.120747e-09	-3.218638e+01	-7.522985e+01
6.800000e-07	-4.609075e-06	-1.109095e-09	-3.200627e+01	-7.510740e+01
6.900000e-07	-4.582557e-06	-1.093190e-09	-3.182213e+01	-7.498146e+01
7.000000e-07	-4.555527e-06	-1.097793e-09	-3.163443e+01	-7.485164e+01
7.100000e-07	-4.528172e-06	-1.095609e-09	-3.144447e+01	-7.471760e+01
7.200000e-07	-4.500564e-06	-1.081131e-09	-3.125275e+01	-7.457903e+01
7.300000e-07	-4.472847e-06	-1.095906e-09	-3.106028e+01	-7.443570e+01
7.400000e-07	-4.445012e-06	-1.098380e-09	-3.086699e+01	-7.428742e+01
7.500000e-07	-4.416951e-06	-1.088574e-09	-3.067213e+01	-7.413408e+01
7.600000e-07	-4.388568e-06	-1.083608e-09	-3.047504e+01	-7.397561e+01
7.700000e-07	-4.359799e-06	-1.082650e-09	-3.027526e+01	-7.381200e+01
7.800000e-07	-4.330622e-06	-1.063316e-09	-3.007265e+01	-7.364329e+01
7.900000e-07	-4.301134e-06	-1.065947e-09	-2.986788e+01	-7.346959e+01
8.000000e-07	-4.271395e-06	-1.075499e-09	-2.966137e+01	-7.329104e+01
8.100000e-07	-4.241358e-06	-1.068572e-09	-2.945278e+01	-7.310781e+01
8.200000e-07	-4.211060e-06	-1.061191e-09	-2.924239e+01	-7.292014e+01
8.300000e-07	-4.180470e-06	-1.072603e-09	-2.902996e+01	-7.272826e+01
8.400000e-07	-4.149534e-06	-1.066589e-09	-2.881514e+01	-7.253244e+01
8.500000e-07	-4.118327e-06	-1.052237e-09	-2.859843e+01	-7.233297e+01
8.600000e-07	-4.086944e-06	-1.052298e-09	-2.838050e+01	-7.213013e+01
8.700000e-07	-4.055457e-06	-1.051617e-09	-2.816185e+01	-7.192421e+01
8.800000e-07	-4.023822e-06	-1.039364e-09	-2.794217e+01	-7.171551e+01
8.900000e-07	-3.991956e-06	-1.040002e-09	-2.772088e+01	-7.150429e+01
9.000000e-07	-3.959856e-06	-1.044920e-09	-2.749798e+01	-7.129081e+01
9.100000e-07	-3.927394e-06	-1.035213e-09	-2.727256e+01	-7.107532e+01
9.200000e-07	-3.894500e-06	-1.028903e-09	-2.704413e+01	-7.085801e+01
9.300000e-07	-3.861191e-06	-1.032440e-09	-2.681283e+01	-7.063909e+01
9.400000e-07	-3.827406e-06	-1.028098e-09	-2.657822e+01	-7.041868e+01
9.500000e-07	-3.793041e-06	-1.017483e-09	-2.633958e+01	-7.019693e+01
9.600000e-07	-3.758215e-06	-1.018115e-09	-2.609774e+01	-6.997390e+01
9.700000e-07	-3.723159e-06	-1.013102e-09	-2.585431e+01	-6.974966e+01
9.800000e-07	-3.687855e-06	-1.004118e-09	-2.560915e+01	-6.952422e+01
9.900000e-07	-3.652329e-06	-1.002081e-09	-2.536245e+01	-6.929758e+01
1.000000e-06	-3.616678e-06	-1.004299e-09	-2.511489e+01	-6.906968e+01
1.010000e-06	-3.580880e-06	-9.962092e-10	-2.486630e+01	-6.884046e+01
1.020000e-06	-3.544938e-06	-9.948819e-10	-2.461671e+01	-6.860982e+01
1.030000e-06	-3.508891e-06	-9.966161e-10	-2.436639e+01	-6.837765e+01
1.040000e-06	-3.472672e-06	-9.939289e-10	-2.411488e+01	-6.814382e+01
1.050000e-06	-3.436176e-06	-9.851050e-10	-2.386145e+01	-6.790817e+01
1.060000e-06	-3.399302e-06	-9.808788e-10	-2.360539e+01	-6.767054e+01
1.070000e-06	-3.362115e-06	-9.733617e-10	-2.334715e+01	-6.743078e+01
1.080000e-06	-3.324748e-06	-9.683589e-10	-2.308767e+01	-6.718869e+01
1.090000e-06	-3.287160e-06	-9.684671e-10	-2.282665e+01	-6.694411e+01
1.100000e-06	-3.249422e-06	-9.692873e-10	-2.256459e+01	-6.669686e+01
1.110000e-06	-3.211433e-06	-9.645088e-10	-2.230079e+01	-6.644676e+01
1.120000e-06	-3.173066e-06	-9.625255e-10	-2.203436e+01	-6.619365e+01
1.130000e-06	-3.134465e-06	-9.605441e-10	-2.176631e+01	-6.593736e+01
1.140000e-06	-3.095746e-06	-9.553078e-10	-2.149743e+01	-6.567773e+01
1.150000e-06	-3.056871e-06	-9.482393e-10	-2.122748e+01	-6.541461e+01
1.160000e-06	-3.017798e-06	-9.428507e-10	-2.095615e+01	-6.514785e+01
1.170000e-06	-2.978534e-06	-9.360565e-10	-2.068350e+01	-6.487731e+01
1.180000e-06	-2.939071e-06	-9.303581e-10	-2.040946e+01	-6.460286e+01
1.190000e-06	-2.899443e-06	-9.278440e-10	-2.013427e+01	-6.432437e+01
1.200000e-06	-2.859664e-06	-9.228686e-10	-1.985804e+01	-6.404171e+01
1.210000e-06	-2.819745e-06	-9.156651e-10	-1.958083e+01	-6.375477e+01
1.220000e-06	-2.779689e-06	-9.108131e-10	-1.930268e+01	-6.346341e+01
1.230000e-06	-2.739532e-06	-9.103440e-10	-1.902382e+01	-6.316752e+01
1.240000e-06	-2.699165e-06	-9.075377e-10	-1.874351e+01	-6.286697e+01
1.250000e-06	-2.658454e-06	-9.066794e-10	-1.846080e+01	-6.256164e+01
1.260000e-06	-2.617462e-06	-9.047591e-10	-1.817615e+01	-6.225140e+01
1.270000e-06	-2.576217e-06	-8.993351e-10	-1.788973e+01	-6.193612e+01
1.280000e-06	-2.534682e-06	-8.916382e-10	-1.760130e+01	-6.161567e+01
1.290000e-06	-2.492854e-06	-8.856230e-10	-1.731084e+01	-6.128991e+01
1.300000e-06	-2.450716e-06	-8.785924e-10	-1.701823e+01	-6.095868e+01
1.310000e-06	-2.408251e-06	-8.717826e-10	-1.672335e+01	-6.062186e+01
1.320000e-06	-2.365518e-06	-8.666575e-10	-1.642660e+01	-6.027928e+01
1.330000e-06	-2.322555e-06	-8.625013e-10	-1.612826e+01	-5.993079e+01
1.340000e-06	-2.279370e-06	-8.574964e-10	-1.582837e+01	-5.957624e+01
1.350000e-06	-2.236018e-06	-8.522892e-10	-1.552733e+01	-5.921548e+01
1.360000e-06	-2.192552e-06	-8.435430e-10	-1.522549e+01	-5.884835e+01
1.370000e-06	-2.149026e-06	-8.338708e-10	-1.492324e+01	-5.847470e+01
1.380000e-06	-2.105449e-06	-8.237129e-10	-1.462063e+01	-5.809437e+01
1.390000e-06	-2.061780e-06	-8.164925e-10	-1.431739e+01	-5.770723e+01
1.400000e-06	-2.018024e-06	-8.118266e-10	-1.401354e+01	-5.731311e+01
1.410000e-06	-1.974153e-06	-8.075343e-10	-1.370889e+01	-5.691188e+01
1.420000e-06	-1.930188e-06	-8.017815e-10	-1.340359e+01	-5.650339e+01
1.430000e-06	-1.886153e-06	-7.957981e-10	-1.309780e+01	-5.608750e+01
1.440000e-06	-1.841918e-06	-7.896910e-10	-1.279062e+01	-5.566407e+01
1.450000e-06	-1.797555e-06	-7.831190e-10	-1.248255e+01	-5.523296e+01
1.460000e-06	-1.753098e-06	-7.741205e-10	-1.217384e+01	-5.479400e+01
1.470000e-06	-1.708517e-06	-7.640941e-10	-1.186426e+01	-5.434704e+01
1.480000e-06	-1.663857e-06	-7.555658e-10	-1.155413e+01	-5.389190e+01
1.490000e-06	-1.619071e-06	-7.454555e-10	-1.124313e+01	-5.342840e+01
1.500000e-06	-1.574186e-06	-7.350700e-10	-1.093144e+01	-5.295632e+01
1.510000e-06	-1.529143e-06	-7.279795e-10	-1.061866e+01	-5.247542e+01
1.520000e-06	-1.483927e-06	-7.239141e-10	-1.030467e+01	-5.198544e+01
1.530000e-06	-1.438610e-06	-7.205674e-10	-9.989976e+00	-5.148606e+01
1.540000e-06	-1.393191e-06	-7.128534e-10	-9.674580e+00	-5.097694e+01
1.550000e-06	-1.347683e-06	-7.024816e-10	-9.358560e+00	-5.045768e+01
1.560000e-06	-1.302079e-06	-6.927175e-10	-9.041877e+00	-4.992783e+01
1.570000e-06	-1.256369e-06	-6.819089e-10	-8.724457e+00	-4.938689e+01
1.580000e-06	-1.210612e-06	-6.725202e-10	-8.406714e+00	-4.883429e+01
1.590000e-06	-1.164820e-06	-6.670374e-10	-8.088724e+00	-4.826940e+01
1.600000e-06	-1.118921e-06	-6.614376e-10	-7.769996e+00	-4.769154e+01
1.610000e-06	-1.072883e-06	-6.523367e-10	-7.450302e+00	-4.709994e+01
1.620000e-06	-1.026723e-06	-6.450023e-10	-7.129757e+00	-4.649377e+01
1.630000e-06	-9.805671e-07	-6.394358e-10	-6.809241e+00	-4.587214e+01
1.640000e-06	-9.344334e-07	-6.326166e-10	-6.488880e+00	-4.523409e+01
1.650000e-06	-8.882539e-07	-6.229706e-10	-6.168201e+00	-4.457860e+01
1.660000e-06	-8.419587e-07	-6.107256e-10	-5.846718e+00	-4.390461e+01
1.670000e-06	-7.955371e-07	-5.966906e-10	-5.524358e+00	-4.321098e+01
1.680000e-06	-7.490974e-07	-5.834909e-10	-5.201872e+00	-4.249655e+01
1.690000e-06	-7.026311e-07	-5.697127e-10	-4.879201e+00	-4.176013e+01
1.700000e-06	-6.560880e-07	-5.556265e-10	-4.555997e+00	-4.100050e+01
1.710000e-06	-6.095379e-07	-5.440995e-10	-4.232745e+00	-4.021642e+01
1.720000e-06	-5.630250e-07	-5.358725e-10	-3.909751e+00	-3.940665e+01
1.730000e-06	-5.164793e-07	-5.268913e-10	-3.586529e+00	-3.856999e+01
1.740000e-06	-4.698621e-07	-5.153073e-10	-3.262810e+00	-3.770524e+01
1.750000e-06	-4.231377e-07	-4.991994e-10	-2.938347e+00	-3.681124e+01
1.760000e-06	-3.763228e-07	-4.809909e-10	-2.613256e+00	-3.588691e+01
1.770000e-06	-3.294782e-07	-4.629544e-10	-2.287958e+00	-3.493120e+01
1.780000e-06	-2.826417e-07	-4.462174e-10	-1.962717e+00	-3.394319e+01
1.790000e-06	-2.357564e-07	-4.334524e-10	-1.637136e+00	-3.292201e+01
1.800000e-06	-1.887632e-07	-4.216108e-10	-1.310807e+00	-3.186695e+01
1.810000e-06	-1.417861e-07	-4.079846e-10	-9.845889e-01	-3.077737e+01
1.820000e-06	-9.491895e-08	-3.943800e-10	-6.591349e-01	-2.965281e+01
1.830000e-06	-4.812726e-08	-3.809096e-10	-3.342047e-01	-2.849293e+01
1.840000e-06	-1.313271e-09	-3.648620e-10	-9.119597e-03	-2.729754e+01
1.850000e-06	4.555580e-08	-3.450782e-10	3.163479e-01	-2.606664e+01
1.860000e-06	9.240932e-08	-3.234628e-10	6.417075e-01	-2.480037e+01
1.870000e-06	1.393561e-07	-3.007351e-10	9.677151e-01	-2.349905e+01
1.880000e-06	1.863868e-07	-2.803827e-10	1.294304e+00	-2.216318e+01
1.890000e-06	2.333150e-07	-2.643489e-10	1.620183e+00	-2.079341e+01
1.900000e-06	2.802303e-07	-2.475942e-10	1.945972e+00	-1.939060e+01
1.910000e-06	3.271919e-07	-2.301498e-10	2.272082e+00	-1.795577e+01
1.920000e-06	3.740261e-07	-2.121178e-10	2.597307e+00	-1.649007e+01
1.930000e-06	4.207382e-07	-1.897794e-10	2.921685e+00	-1.499487e+01
1.940000e-06	4.674173e-07	-1.633871e-10	3.245833e+00	-1.347164e+01
1.950000e-06	5.141216e-07	-1.377324e-10	3.570156e+00	-1.192203e+01
1.960000e-06	5.608308e-07	-1.166803e-10	3.894514e+00	-1.034779e+01
1.970000e-06	6.074118e-07	-9.743830e-11	4.217981e+00	-8.750824e+00
1.980000e-06	6.538569e-07	-7.831612e-11	4.540504e+00	-7.133115e+00
1.990000e-06	7.001946e-07	-5.789806e-11	4.862282e+00	-5.496756e+00
2.000000e-06	7.465203e-07	-3.098387e-11	5.183976e+00	-3.843917e+00
2.010000e-06	7.927706e-07	-4.321430e-13	5.505147e+00	-2.176836e+00
2.020000e-06	8.389523e-07	2.746994e-11	5.825841e+00	-4.977993e-01
2.030000e-06	8.851726e-07	5.205631e-11	6.146803e+00	1.190866e+00
2.040000e-06	9.313767e-07	7.204728e-11	6.467654e+00	2.886813e+00
2.050000e-06	9.775514e-07	9.056390e-11	6.788299e+00	4.587683e+00
2.060000e-06	1.023597e-06	1.117096e-10	7.108048e+00	6.291126e+00
2.070000e-06	1.069558e-06	1.356546e-10	7.427208e+00	7.994807e+00
2.080000e-06	1.115473e-06	1.628572e-10	7.746050e+00	9.696423e+00
2.090000e-06	1.161303e-06	1.922822e-10	8.064304e+00	1.139371e+01
2.100000e-06	1.207057e-06	2.206315e-10	8.382026e+00	1.308447e+01
2.110000e-06	1.252759e-06	2.425261e-10	8.699391e+00	1.476654e+01
2.120000e-06	1.298368e-06	2.599745e-10	9.016109e+00	1.643786e+01
2.130000e-06	1.343837e-06	2.766829e-10	9.331855e+00	1.809642e+01
2.140000e-06	1.389211e-06	2.959223e-10	9.646939e+00	1.974032e+01
2.150000e-06	1.434517e-06	3.182695e-10	9.961555e+00	2.136774e+01
2.160000e-06	1.479768e-06	3.452116e-10	1.027578e+01	2.297694e+01
2.170000e-06	1.524873e-06	3.727104e-10	1.058900e+01	2.456631e+01
2.180000e-06	1.569818e-06	3.967529e-10	1.090111e+01	2.613432e+01
2.190000e-06	1.614640e-06	4.190295e-10	1.121236e+01	2.767956e+01
2.200000e-06	1.659392e-06	4.381592e-10	1.152313e+01	2.920073e+01
2.210000e-06	1.704010e-06	4.540418e-10	1.183297e+01	3.069660e+01
2.220000e-06	1.748445e-06	4.697934e-10	1.214153e+01	3.216610e+01
2.230000e-06	1.792740e-06	4.866338e-10	1.244912e+01	3.360824e+01
2.240000e-06	1.836924e-06	5.052974e-10	1.275594e+01	3.502214e+01
2.250000e-06	1.881009e-06	5.259451e-10	1.306208e+01	3.640702e+01
2.260000e-06	1.924919e-06	5.495468e-10	1.336699e+01	3.776223e+01
2.270000e-06	1.968713e-06	5.722470e-10	1.367111e+01	3.908719e+01
2.280000e-06	2.012478e-06	5.907058e-10	1.397502e+01	4.038145e+01
2.290000e-06	2.056195e-06	6.065319e-10	1.427860e+01	4.164464e+01
2.300000e-06	2.099826e-06	6.195309e-10	1.458158e+01	4.287650e+01
2.310000e-06	2.143398e-06	6.327338e-10	1.488415e+01	4.407687e+01
2.320000e-06	2.186950e-06	6.476210e-10	1.518659e+01	4.524567e+01
2.330000e-06	2.230387e-06	6.628326e-10	1.548823e+01	4.638291e+01
2.340000e-06	2.273704e-06	6.792112e-10	1.578902e+01	4.748869e+01
2.350000e-06	2.316865e-06	6.961777e-10	1.608874e+01	4.856319e+01
2.360000e-06	2.359838e-06	7.096273e-10	1.638716e+01	4.960669e+01
2.370000e-06	2.402615e-06	7.203848e-10	1.668421e+01	5.061952e+01
2.380000e-06	2.445127e-06	7.311416e-10	1.697942e+01	5.160210e+01
2.390000e-06	2.487262e-06	7.421593e-10	1.727201e+01	5.255490e+01
2.400000e-06	2.529106e-06	7.552111e-10	1.756259e+01	5.347846e+01
2.410000e-06	2.570653e-06	7.704377e-10	1.785110e+01	5.437338e+01
2.420000e-06	2.611840e-06	7.838759e-10	1.813710e+01	5.524032e+01
2.430000e-06	2.652710e-06	7.954270e-10	1.842092e+01	5.607997e+01
2.440000e-06	2.693176e-06	8.062364e-10	1.870192e+01	5.689306e+01
2.450000e-06	2.733393e-06	8.153721e-10	1.898119e+01	5.768036e+01
2.460000e-06	2.773542e-06	8.225630e-10	1.925999e+01	5.844267e+01
2.470000e-06	2.813546e-06	8.328335e-10	1.953779e+01	5.918079e+01
2.480000e-06	2.853333e-06	8.465267e-10	1.981408e+01	5.989555e+01
2.490000e-06	2.893029e-06	8.607830e-10	2.008973e+01	6.058779e+01
2.500000e-06	2.932591e-06	8.737833e-10	2.036446e+01	6.125832e+01
2.510000e-06	2.971989e-06	8.833952e-10	2.063804e+01	6.190797e+01
2.520000e-06	3.011308e-06	8.894486e-10	2.091109e+01	6.253753e+01
2.530000e-06	3.050494e-06	8.947744e-10	2.118320e+01	6.314780e+01
2.540000e-06	3.089396e-06	9.016393e-10	2.145334e+01	6.373952e+01
2.550000e-06	3.128026e-06	9.096712e-10	2.172160e+01	6.431342e+01
2.560000e-06	3.166492e-06	9.178113e-10	2.198871e+01	6.487017e+01
2.570000e-06	3.204744e-06	9.259284e-10	2.225434e+01	6.541042e+01
2.580000e-06	3.242732e-06	9.343610e-10	2.251814e+01	6.593476e+01
2.590000e-06	3.280460e-06	9.424508e-10	2.278013e+01	6.644375e+01
2.600000e-06	3.318047e-06	9.504595e-10	2.304114e+01	6.693790e+01
2.610000e-06	3.355463e-06	9.575425e-10	2.330096e+01	6.741765e+01
2.620000e-06	3.392576e-06	9.625128e-10	2.355868e+01	6.788340e+01
2.630000e-06	3.429343e-06	9.672728e-10	2.381399e+01	6.833553e+01
2.640000e-06	3.465798e-06	9.717834e-10	2.406715e+01	6.877435e+01
2.650000e-06	3.502061e-06	9.754298e-10	2.431896e+01	6.920013e+01
2.660000e-06	3.538142e-06	9.820471e-10	2.456952e+01	6.961311e+01
2.670000e-06	3.574031e-06	9.900685e-10	2.481874e+01	7.001350e+01
2.680000e-06	3.609773e-06	9.967645e-10	2.506693e+01	7.040147e+01
2.690000e-06	3.645379e-06	1.003735e-09	2.531419e+01	7.077719e+01
2.700000e-06	3.680820e-06	1.010154e-09	2.556030e+01	7.114080e+01
2.710000e-06	3.716050e-06	1.014146e-09	2.580494e+01	7.149242e+01
2.720000e-06	3.751048e-06	1.017449e-09	2.604798e+01	7.183220e+01
2.730000e-06	3.785774e-06	1.021603e-09	2.628912e+01	7.216027e+01
2.740000e-06	3.820195e-06	1.026642e-09	2.652815e+01	7.247678e+01
2.750000e-06	3.854269e-06	1.032418e-09	2.676476e+01	7.278187e+01
2.760000e-06	3.887775e-06	1.039081e-09	2.699743e+01	7.307575e+01
2.770000e-06	3.920649e-06	1.045932e-09	2.722571e+01	7.335860e+01
2.780000e-06	3.953080e-06	1.050563e-09	2.745093e+01	7.363068e+01
2.790000e-06	3.985192e-06	1.053833e-09	2.767392e+01	7.389225e+01
2.800000e-06	4.017061e-06	1.057833e-09	2.789522e+01	7.414361e+01
2.810000e-06	4.048772e-06	1.060013e-09	2.811542e+01	7.438509e+01
2.820000e-06	4.080348e-06	1.063160e-09	2.833470e+01	7.461707e+01
2.830000e-06	4.111739e-06	1.068185e-09	2.855268e+01	7.483996e+01
2.840000e-06	4.142975e-06	1.071656e-09	2.876959e+01	7.505419e+01
2.850000e-06	4.174036e-06	1.075121e-09	2.898528e+01	7.526023e+01
2.860000e-06	4.204727e-06	1.081151e-09	2.919841e+01	7.545857e+01
2.870000e-06	4.235013e-06	1.087630e-09	2.940872e+01	7.564972e+01
2.880000e-06	4.264951e-06	1.092126e-09	2.961661e+01	7.583420e+01
2.890000e-06	4.294598e-06	1.096815e-09	2.982249e+01	7.601255e+01
2.900000e-06	4.324042e-06	1.100774e-09	3.002695e+01	7.618529e+01
