# Temperatura_=_14.3
# Concentracion g/m^3_=_1620.0
# C_Vs_to_Am_M_A/Vsm_=_65563218390.804596
# pendiente_HvsI_1/m_=_3716.3
# ordenada_HvsI_A/m_=_1297.0
# frecuencia_Hz_=_135101.86780343932

Tiempo_(s)	Campo_(V.s)	Magnetizacion_(V.s)	Campo_(kA/m)	Magnetizacion_(A/m)
0.000000e+00	-5.526862e-06	-1.517255e-09	-3.838045e+01	-1.008857e+02
1.000000e-08	-5.527054e-06	-1.514158e-09	-3.838177e+01	-1.008577e+02
2.000000e-08	-5.527000e-06	-1.510689e-09	-3.838140e+01	-1.008275e+02
3.000000e-08	-5.526597e-06	-1.507166e-09	-3.837860e+01	-1.007956e+02
4.000000e-08	-5.525713e-06	-1.504789e-09	-3.837246e+01	-1.007620e+02
5.000000e-08	-5.524204e-06	-1.507032e-09	-3.836199e+01	-1.007273e+02
6.000000e-08	-5.522068e-06	-1.513705e-09	-3.834715e+01	-1.006915e+02
7.000000e-08	-5.519424e-06	-1.502877e-09	-3.832879e+01	-1.006550e+02
8.000000e-08	-5.516300e-06	-1.473657e-09	-3.830710e+01	-1.006179e+02
9.000000e-08	-5.512716e-06	-1.477962e-09	-3.828221e+01	-1.005803e+02
1.000000e-07	-5.508719e-06	-1.521719e-09	-3.825445e+01	-1.005424e+02
1.100000e-07	-5.504402e-06	-1.553144e-09	-3.822447e+01	-1.005041e+02
1.200000e-07	-5.499848e-06	-1.483968e-09	-3.819285e+01	-1.004653e+02
1.300000e-07	-5.495020e-06	-1.422445e-09	-3.815932e+01	-1.004259e+02
1.400000e-07	-5.489802e-06	-1.481298e-09	-3.812309e+01	-1.003857e+02
1.500000e-07	-5.484173e-06	-1.534811e-09	-3.808400e+01	-1.003443e+02
1.600000e-07	-5.478217e-06	-1.515327e-09	-3.804264e+01	-1.003015e+02
1.700000e-07	-5.471884e-06	-1.426710e-09	-3.799866e+01	-1.002567e+02
1.800000e-07	-5.465107e-06	-1.462525e-09	-3.795160e+01	-1.002095e+02
1.900000e-07	-5.457954e-06	-1.535656e-09	-3.790192e+01	-1.001593e+02
2.000000e-07	-5.450482e-06	-1.535557e-09	-3.785003e+01	-1.001055e+02
2.100000e-07	-5.442736e-06	-1.471785e-09	-3.779624e+01	-1.000476e+02
2.200000e-07	-5.434717e-06	-1.474829e-09	-3.774055e+01	-9.998475e+01
2.300000e-07	-5.426399e-06	-1.526267e-09	-3.768280e+01	-9.991641e+01
2.400000e-07	-5.417718e-06	-1.525356e-09	-3.762251e+01	-9.984191e+01
2.500000e-07	-5.408415e-06	-1.492531e-09	-3.755791e+01	-9.976059e+01
2.600000e-07	-5.398358e-06	-1.490534e-09	-3.748807e+01	-9.967186e+01
2.700000e-07	-5.387609e-06	-1.518162e-09	-3.741342e+01	-9.957513e+01
2.800000e-07	-5.376403e-06	-1.502171e-09	-3.733561e+01	-9.946992e+01
2.900000e-07	-5.364881e-06	-1.482425e-09	-3.725560e+01	-9.935576e+01
3.000000e-07	-5.352977e-06	-1.477606e-09	-3.717293e+01	-9.923231e+01
3.100000e-07	-5.340720e-06	-1.503278e-09	-3.708781e+01	-9.909928e+01
3.200000e-07	-5.328049e-06	-1.499239e-09	-3.699982e+01	-9.895650e+01
3.300000e-07	-5.314901e-06	-1.490568e-09	-3.690851e+01	-9.880388e+01
3.400000e-07	-5.301347e-06	-1.475636e-09	-3.681439e+01	-9.864145e+01
3.500000e-07	-5.287336e-06	-1.484371e-09	-3.671709e+01	-9.846934e+01
3.600000e-07	-5.272839e-06	-1.480648e-09	-3.661642e+01	-9.828779e+01
3.700000e-07	-5.257998e-06	-1.472125e-09	-3.651336e+01	-9.809713e+01
3.800000e-07	-5.242712e-06	-1.465887e-09	-3.640721e+01	-9.789780e+01
3.900000e-07	-5.226889e-06	-1.473951e-09	-3.629733e+01	-9.769033e+01
4.000000e-07	-5.210583e-06	-1.460550e-09	-3.618409e+01	-9.747533e+01
4.100000e-07	-5.193879e-06	-1.457299e-09	-3.606810e+01	-9.725350e+01
4.200000e-07	-5.176815e-06	-1.470294e-09	-3.594960e+01	-9.702557e+01
4.300000e-07	-5.159391e-06	-1.459224e-09	-3.582860e+01	-9.679234e+01
4.400000e-07	-5.141643e-06	-1.423155e-09	-3.570535e+01	-9.655464e+01
4.500000e-07	-5.123531e-06	-1.438124e-09	-3.557958e+01	-9.631332e+01
4.600000e-07	-5.105097e-06	-1.465176e-09	-3.545156e+01	-9.606923e+01
4.700000e-07	-5.086263e-06	-1.429402e-09	-3.532077e+01	-9.582322e+01
4.800000e-07	-5.067015e-06	-1.409696e-09	-3.518711e+01	-9.557610e+01
4.900000e-07	-5.047563e-06	-1.448054e-09	-3.505203e+01	-9.532865e+01
5.000000e-07	-5.027959e-06	-1.445017e-09	-3.491589e+01	-9.508158e+01
5.100000e-07	-5.008111e-06	-1.405684e-09	-3.477806e+01	-9.483557e+01
5.200000e-07	-4.987921e-06	-1.426280e-09	-3.463785e+01	-9.459118e+01
5.300000e-07	-4.967301e-06	-1.436700e-09	-3.449466e+01	-9.434891e+01
5.400000e-07	-4.946282e-06	-1.394701e-09	-3.434869e+01	-9.410916e+01
5.500000e-07	-4.924964e-06	-1.395301e-09	-3.420066e+01	-9.387222e+01
5.600000e-07	-4.903265e-06	-1.427398e-09	-3.404997e+01	-9.363828e+01
5.700000e-07	-4.881260e-06	-1.390983e-09	-3.389716e+01	-9.340743e+01
5.800000e-07	-4.859021e-06	-1.371108e-09	-3.374273e+01	-9.317966e+01
5.900000e-07	-4.836355e-06	-1.407703e-09	-3.358532e+01	-9.295483e+01
6.000000e-07	-4.813318e-06	-1.403144e-09	-3.342535e+01	-9.273272e+01
6.100000e-07	-4.790005e-06	-1.362839e-09	-3.326345e+01	-9.251303e+01
6.200000e-07	-4.766441e-06	-1.380662e-09	-3.309982e+01	-9.229533e+01
6.300000e-07	-4.742690e-06	-1.387774e-09	-3.293488e+01	-9.207917e+01
6.400000e-07	-4.718675e-06	-1.356309e-09	-3.276812e+01	-9.186399e+01
6.500000e-07	-4.694298e-06	-1.355081e-09	-3.259883e+01	-9.164921e+01
6.600000e-07	-4.669450e-06	-1.371977e-09	-3.242628e+01	-9.143417e+01
6.700000e-07	-4.644042e-06	-1.352801e-09	-3.224983e+01	-9.121823e+01
6.800000e-07	-4.618109e-06	-1.348329e-09	-3.206975e+01	-9.100071e+01
6.900000e-07	-4.591690e-06	-1.362293e-09	-3.188629e+01	-9.078091e+01
7.000000e-07	-4.564811e-06	-1.351511e-09	-3.169963e+01	-9.055818e+01
7.100000e-07	-4.537593e-06	-1.333227e-09	-3.151062e+01	-9.033187e+01
7.200000e-07	-4.510121e-06	-1.336068e-09	-3.131984e+01	-9.010136e+01
7.300000e-07	-4.482430e-06	-1.328155e-09	-3.112755e+01	-8.986608e+01
7.400000e-07	-4.454537e-06	-1.312777e-09	-3.093385e+01	-8.962554e+01
7.500000e-07	-4.426349e-06	-1.313342e-09	-3.073810e+01	-8.937926e+01
7.600000e-07	-4.397947e-06	-1.314953e-09	-3.054087e+01	-8.912686e+01
7.700000e-07	-4.369261e-06	-1.306596e-09	-3.034166e+01	-8.886803e+01
7.800000e-07	-4.340219e-06	-1.302129e-09	-3.013998e+01	-8.860252e+01
7.900000e-07	-4.310893e-06	-1.301388e-09	-2.993633e+01	-8.833015e+01
8.000000e-07	-4.281289e-06	-1.293589e-09	-2.973075e+01	-8.805084e+01
8.100000e-07	-4.251345e-06	-1.287728e-09	-2.952281e+01	-8.776453e+01
8.200000e-07	-4.221085e-06	-1.284261e-09	-2.931268e+01	-8.747128e+01
8.300000e-07	-4.190491e-06	-1.277247e-09	-2.910022e+01	-8.717118e+01
8.400000e-07	-4.159659e-06	-1.269864e-09	-2.888611e+01	-8.686436e+01
8.500000e-07	-4.128711e-06	-1.268383e-09	-2.867120e+01	-8.655104e+01
8.600000e-07	-4.097543e-06	-1.260775e-09	-2.845476e+01	-8.623144e+01
8.700000e-07	-4.066127e-06	-1.250496e-09	-2.823659e+01	-8.590582e+01
8.800000e-07	-4.034515e-06	-1.246055e-09	-2.801707e+01	-8.557446e+01
8.900000e-07	-4.002737e-06	-1.245806e-09	-2.779639e+01	-8.523765e+01
9.000000e-07	-3.970685e-06	-1.238755e-09	-2.757381e+01	-8.489570e+01
9.100000e-07	-3.938334e-06	-1.234767e-09	-2.734916e+01	-8.454888e+01
9.200000e-07	-3.905619e-06	-1.228184e-09	-2.712197e+01	-8.419747e+01
9.300000e-07	-3.872486e-06	-1.217438e-09	-2.689189e+01	-8.384174e+01
9.400000e-07	-3.838911e-06	-1.206941e-09	-2.665873e+01	-8.348189e+01
9.500000e-07	-3.804811e-06	-1.203457e-09	-2.642192e+01	-8.311814e+01
9.600000e-07	-3.770227e-06	-1.194677e-09	-2.618176e+01	-8.275063e+01
9.700000e-07	-3.735341e-06	-1.184147e-09	-2.593951e+01	-8.237949e+01
9.800000e-07	-3.700227e-06	-1.179153e-09	-2.569566e+01	-8.200481e+01
9.900000e-07	-3.664836e-06	-1.174120e-09	-2.544989e+01	-8.162663e+01
1.000000e-06	-3.629199e-06	-1.162680e-09	-2.520241e+01	-8.124496e+01
1.010000e-06	-3.593440e-06	-1.156361e-09	-2.495409e+01	-8.085976e+01
1.020000e-06	-3.557553e-06	-1.152651e-09	-2.470488e+01	-8.047098e+01
1.030000e-06	-3.521508e-06	-1.145838e-09	-2.445457e+01	-8.007853e+01
1.040000e-06	-3.485228e-06	-1.141722e-09	-2.420263e+01	-7.968229e+01
1.050000e-06	-3.448556e-06	-1.140241e-09	-2.394796e+01	-7.928215e+01
1.060000e-06	-3.411616e-06	-1.133975e-09	-2.369145e+01	-7.887797e+01
1.070000e-06	-3.374501e-06	-1.123620e-09	-2.343371e+01	-7.846960e+01
1.080000e-06	-3.337127e-06	-1.117459e-09	-2.317416e+01	-7.805691e+01
1.090000e-06	-3.299540e-06	-1.112136e-09	-2.291315e+01	-7.763977e+01
1.100000e-06	-3.261760e-06	-1.104219e-09	-2.265079e+01	-7.721806e+01
1.110000e-06	-3.223745e-06	-1.099215e-09	-2.238680e+01	-7.679168e+01
1.120000e-06	-3.185486e-06	-1.098653e-09	-2.212112e+01	-7.636057e+01
1.130000e-06	-3.147003e-06	-1.092870e-09	-2.185388e+01	-7.592467e+01
1.140000e-06	-3.108344e-06	-1.086495e-09	-2.158542e+01	-7.548398e+01
1.150000e-06	-3.069421e-06	-1.079485e-09	-2.131512e+01	-7.503850e+01
1.160000e-06	-3.030251e-06	-1.069529e-09	-2.104311e+01	-7.458830e+01
1.170000e-06	-2.990993e-06	-1.055828e-09	-2.077049e+01	-7.413344e+01
1.180000e-06	-2.951638e-06	-1.047304e-09	-2.049720e+01	-7.367405e+01
1.190000e-06	-2.912124e-06	-1.043643e-09	-2.022280e+01	-7.321025e+01
1.200000e-06	-2.872429e-06	-1.041091e-09	-1.994714e+01	-7.274221e+01
1.210000e-06	-2.832547e-06	-1.036570e-09	-1.967019e+01	-7.227012e+01
1.220000e-06	-2.792508e-06	-1.030278e-09	-1.939215e+01	-7.179416e+01
1.230000e-06	-2.752417e-06	-1.021554e-09	-1.911373e+01	-7.131453e+01
1.240000e-06	-2.712225e-06	-1.013218e-09	-1.883463e+01	-7.083143e+01
1.250000e-06	-2.671752e-06	-1.005771e-09	-1.855357e+01	-7.034505e+01
1.260000e-06	-2.630930e-06	-9.982127e-10	-1.827009e+01	-6.985558e+01
1.270000e-06	-2.589712e-06	-9.911515e-10	-1.798385e+01	-6.936316e+01
1.280000e-06	-2.548249e-06	-9.856392e-10	-1.769592e+01	-6.886792e+01
1.290000e-06	-2.506481e-06	-9.805947e-10	-1.740587e+01	-6.836995e+01
1.300000e-06	-2.464460e-06	-9.739286e-10	-1.711406e+01	-6.786930e+01
1.310000e-06	-2.422370e-06	-9.637581e-10	-1.682178e+01	-6.736596e+01
1.320000e-06	-2.379981e-06	-9.535425e-10	-1.652741e+01	-6.685989e+01
1.330000e-06	-2.337264e-06	-9.419632e-10	-1.623077e+01	-6.635098e+01
1.340000e-06	-2.294229e-06	-9.311682e-10	-1.593192e+01	-6.583905e+01
1.350000e-06	-2.250958e-06	-9.238301e-10	-1.563143e+01	-6.532388e+01
1.360000e-06	-2.207591e-06	-9.170324e-10	-1.533028e+01	-6.480518e+01
1.370000e-06	-2.164117e-06	-9.085417e-10	-1.502838e+01	-6.428260e+01
1.380000e-06	-2.120524e-06	-8.993202e-10	-1.472566e+01	-6.375573e+01
1.390000e-06	-2.076792e-06	-8.920354e-10	-1.442196e+01	-6.322410e+01
1.400000e-06	-2.032922e-06	-8.837068e-10	-1.411732e+01	-6.268719e+01
1.410000e-06	-1.989010e-06	-8.743424e-10	-1.381237e+01	-6.214443e+01
1.420000e-06	-1.945065e-06	-8.654325e-10	-1.350721e+01	-6.159522e+01
1.430000e-06	-1.901082e-06	-8.563361e-10	-1.320177e+01	-6.103891e+01
1.440000e-06	-1.856948e-06	-8.470906e-10	-1.289529e+01	-6.047481e+01
1.450000e-06	-1.812664e-06	-8.379697e-10	-1.258777e+01	-5.990221e+01
1.460000e-06	-1.768354e-06	-8.267971e-10	-1.228006e+01	-5.932040e+01
1.470000e-06	-1.723864e-06	-8.156004e-10	-1.197111e+01	-5.872864e+01
1.480000e-06	-1.679129e-06	-8.057841e-10	-1.166045e+01	-5.812618e+01
1.490000e-06	-1.634310e-06	-7.952989e-10	-1.134922e+01	-5.751228e+01
1.500000e-06	-1.589476e-06	-7.856522e-10	-1.103787e+01	-5.688619e+01
1.510000e-06	-1.544548e-06	-7.767598e-10	-1.072588e+01	-5.624719e+01
1.520000e-06	-1.499460e-06	-7.675009e-10	-1.041277e+01	-5.559455e+01
1.530000e-06	-1.454202e-06	-7.589859e-10	-1.009849e+01	-5.492757e+01
1.540000e-06	-1.408785e-06	-7.493223e-10	-9.783092e+00	-5.424556e+01
1.550000e-06	-1.363246e-06	-7.388227e-10	-9.466855e+00	-5.354784e+01
1.560000e-06	-1.317669e-06	-7.255482e-10	-9.150350e+00	-5.283378e+01
1.570000e-06	-1.272034e-06	-7.127651e-10	-8.833444e+00	-5.210271e+01
1.580000e-06	-1.226289e-06	-7.004808e-10	-8.515773e+00	-5.135404e+01
1.590000e-06	-1.180433e-06	-6.910752e-10	-8.197338e+00	-5.058714e+01
1.600000e-06	-1.134544e-06	-6.827584e-10	-7.878666e+00	-4.980143e+01
1.610000e-06	-1.088575e-06	-6.739949e-10	-7.559440e+00	-4.899630e+01
1.620000e-06	-1.042494e-06	-6.615122e-10	-7.239440e+00	-4.817117e+01
1.630000e-06	-9.963136e-07	-6.448171e-10	-6.918747e+00	-4.732546e+01
1.640000e-06	-9.500041e-07	-6.273441e-10	-6.597157e+00	-4.645855e+01
1.650000e-06	-9.036940e-07	-6.109282e-10	-6.275564e+00	-4.556987e+01
1.660000e-06	-8.573702e-07	-5.974215e-10	-5.953875e+00	-4.465878e+01
1.670000e-06	-8.109321e-07	-5.851520e-10	-5.631393e+00	-4.372467e+01
1.680000e-06	-7.645037e-07	-5.728302e-10	-5.308979e+00	-4.276689e+01
1.690000e-06	-7.181546e-07	-5.584902e-10	-4.987114e+00	-4.178478e+01
1.700000e-06	-6.717530e-07	-5.417277e-10	-4.664885e+00	-4.077768e+01
1.710000e-06	-6.253100e-07	-5.255149e-10	-4.342369e+00	-3.974490e+01
1.720000e-06	-5.787723e-07	-5.104353e-10	-4.019195e+00	-3.868573e+01
1.730000e-06	-5.321094e-07	-4.965769e-10	-3.695152e+00	-3.759948e+01
1.740000e-06	-4.854716e-07	-4.813525e-10	-3.371283e+00	-3.648544e+01
1.750000e-06	-4.387694e-07	-4.621248e-10	-3.046967e+00	-3.534290e+01
1.760000e-06	-3.919884e-07	-4.406257e-10	-2.722103e+00	-3.417118e+01
1.770000e-06	-3.451706e-07	-4.209192e-10	-2.396985e+00	-3.296960e+01
1.780000e-06	-2.982888e-07	-4.043207e-10	-2.071421e+00	-3.173755e+01
1.790000e-06	-2.513812e-07	-3.878507e-10	-1.745678e+00	-3.047442e+01
1.800000e-06	-2.044778e-07	-3.722095e-10	-1.419965e+00	-2.917968e+01
1.810000e-06	-1.576307e-07	-3.551133e-10	-1.094642e+00	-2.785287e+01
1.820000e-06	-1.108680e-07	-3.360149e-10	-7.699060e-01	-2.649359e+01
1.830000e-06	-6.406136e-08	-3.152321e-10	-4.448643e-01	-2.510156e+01
1.840000e-06	-1.715826e-08	-2.937941e-10	-1.191529e-01	-2.367659e+01
1.850000e-06	2.971642e-08	-2.707201e-10	2.063611e-01	-2.221861e+01
1.860000e-06	7.664365e-08	-2.476177e-10	5.322401e-01	-2.072768e+01
1.870000e-06	1.235882e-07	-2.245565e-10	8.582390e-01	-1.920400e+01
1.880000e-06	1.704640e-07	-2.034306e-10	1.183761e+00	-1.764794e+01
1.890000e-06	2.173774e-07	-1.857685e-10	1.509544e+00	-1.605999e+01
1.900000e-06	2.643598e-07	-1.674673e-10	1.835806e+00	-1.444085e+01
1.910000e-06	3.113160e-07	-1.469701e-10	2.161886e+00	-1.279136e+01
1.920000e-06	3.581422e-07	-1.264786e-10	2.487063e+00	-1.111254e+01
1.930000e-06	4.049741e-07	-1.023055e-10	2.812280e+00	-9.405594e+00
1.940000e-06	4.517946e-07	-7.399129e-11	3.137418e+00	-7.671894e+00
1.950000e-06	4.984940e-07	-4.622440e-11	3.461715e+00	-5.912981e+00
1.960000e-06	5.451166e-07	-2.243650e-11	3.785479e+00	-4.130566e+00
1.970000e-06	5.916251e-07	-9.594813e-13	4.108450e+00	-2.326514e+00
1.980000e-06	6.380852e-07	1.987957e-11	4.431085e+00	-5.028418e-01
1.990000e-06	6.845308e-07	4.255271e-11	4.753619e+00	1.338297e+00
2.000000e-06	7.309354e-07	7.164344e-11	5.075869e+00	3.194625e+00
2.010000e-06	7.772996e-07	1.054384e-10	5.397838e+00	5.063754e+00
2.020000e-06	8.235976e-07	1.368238e-10	5.719347e+00	6.943204e+00
2.030000e-06	8.698441e-07	1.617561e-10	6.040499e+00	8.830417e+00
2.040000e-06	9.160426e-07	1.822836e-10	6.361317e+00	1.072278e+01
2.050000e-06	9.621624e-07	2.026394e-10	6.681589e+00	1.261763e+01
2.060000e-06	1.008153e-06	2.270343e-10	7.000966e+00	1.451231e+01
2.070000e-06	1.054088e-06	2.548755e-10	7.319954e+00	1.640414e+01
2.080000e-06	1.100053e-06	2.852771e-10	7.639150e+00	1.829047e+01
2.090000e-06	1.146008e-06	3.160974e-10	7.958274e+00	2.016868e+01
2.100000e-06	1.191928e-06	3.462439e-10	8.277159e+00	2.203621e+01
2.110000e-06	1.237734e-06	3.715065e-10	8.595250e+00	2.389060e+01
2.120000e-06	1.283379e-06	3.917456e-10	8.912226e+00	2.572944e+01
2.130000e-06	1.328873e-06	4.113924e-10	9.228153e+00	2.755047e+01
2.140000e-06	1.374222e-06	4.322704e-10	9.543073e+00	2.935151e+01
2.150000e-06	1.419474e-06	4.565478e-10	9.857316e+00	3.113055e+01
2.160000e-06	1.464697e-06	4.858986e-10	1.017136e+01	3.288570e+01
2.170000e-06	1.509902e-06	5.166093e-10	1.048528e+01	3.461522e+01
2.180000e-06	1.555031e-06	5.443041e-10	1.079868e+01	3.631755e+01
2.190000e-06	1.599987e-06	5.680171e-10	1.111086e+01	3.799129e+01
2.200000e-06	1.644726e-06	5.863893e-10	1.142155e+01	3.963518e+01
2.210000e-06	1.689354e-06	5.999403e-10	1.173146e+01	4.124816e+01
2.220000e-06	1.733854e-06	6.134389e-10	1.204048e+01	4.282933e+01
2.230000e-06	1.778204e-06	6.309351e-10	1.234847e+01	4.437795e+01
2.240000e-06	1.822463e-06	6.535219e-10	1.265581e+01	4.589343e+01
2.250000e-06	1.866648e-06	6.788714e-10	1.296265e+01	4.737537e+01
2.260000e-06	1.910707e-06	7.063794e-10	1.326861e+01	4.882348e+01
2.270000e-06	1.954606e-06	7.321896e-10	1.357346e+01	5.023764e+01
2.280000e-06	1.998438e-06	7.501845e-10	1.387785e+01	5.161786e+01
2.290000e-06	2.042231e-06	7.624495e-10	1.418196e+01	5.296426e+01
2.300000e-06	2.085923e-06	7.728075e-10	1.448537e+01	5.427709e+01
2.310000e-06	2.129529e-06	7.845192e-10	1.478819e+01	5.555669e+01
2.320000e-06	2.173127e-06	8.016215e-10	1.509095e+01	5.680349e+01
2.330000e-06	2.216676e-06	8.232336e-10	1.539336e+01	5.801803e+01
2.340000e-06	2.260078e-06	8.459438e-10	1.569477e+01	5.920088e+01
2.350000e-06	2.303266e-06	8.669150e-10	1.599468e+01	6.035269e+01
2.360000e-06	2.346225e-06	8.835749e-10	1.629300e+01	6.147417e+01
2.370000e-06	2.389058e-06	8.954221e-10	1.659045e+01	6.256606e+01
2.380000e-06	2.431677e-06	9.038965e-10	1.688641e+01	6.362910e+01
2.390000e-06	2.473967e-06	9.111543e-10	1.718009e+01	6.466411e+01
2.400000e-06	2.515883e-06	9.206040e-10	1.747116e+01	6.567186e+01
2.410000e-06	2.557385e-06	9.360336e-10	1.775937e+01	6.665317e+01
2.420000e-06	2.598591e-06	9.547576e-10	1.804552e+01	6.760884e+01
2.430000e-06	2.639517e-06	9.723937e-10	1.832972e+01	6.853965e+01
2.440000e-06	2.680187e-06	9.874165e-10	1.861215e+01	6.944638e+01
2.450000e-06	2.720601e-06	9.991708e-10	1.889279e+01	7.032979e+01
2.460000e-06	2.760733e-06	1.008202e-09	1.917149e+01	7.119060e+01
2.470000e-06	2.800710e-06	1.017161e-09	1.944910e+01	7.202952e+01
2.480000e-06	2.840585e-06	1.027523e-09	1.972601e+01	7.284722e+01
2.490000e-06	2.880326e-06	1.039791e-09	2.000198e+01	7.364433e+01
2.500000e-06	2.919945e-06	1.052908e-09	2.027711e+01	7.442147e+01
2.510000e-06	2.959468e-06	1.064445e-09	2.055157e+01	7.517919e+01
2.520000e-06	2.998839e-06	1.073792e-09	2.082498e+01	7.591804e+01
2.530000e-06	3.038049e-06	1.081990e-09	2.109726e+01	7.663849e+01
2.540000e-06	3.077032e-06	1.088953e-09	2.136798e+01	7.734102e+01
2.550000e-06	3.115796e-06	1.096490e-09	2.163717e+01	7.802604e+01
2.560000e-06	3.154300e-06	1.105550e-09	2.190455e+01	7.869393e+01
2.570000e-06	3.192450e-06	1.114360e-09	2.216948e+01	7.934506e+01
2.580000e-06	3.230392e-06	1.123458e-09	2.243296e+01	7.997974e+01
2.590000e-06	3.268226e-06	1.133720e-09	2.269569e+01	8.059828e+01
2.600000e-06	3.305851e-06	1.142094e-09	2.295698e+01	8.120093e+01
2.610000e-06	3.343267e-06	1.149331e-09	2.321681e+01	8.178794e+01
2.620000e-06	3.380514e-06	1.157204e-09	2.347546e+01	8.235954e+01
2.630000e-06	3.417522e-06	1.165293e-09	2.373246e+01	8.291594e+01
2.640000e-06	3.454210e-06	1.173068e-09	2.398723e+01	8.345732e+01
2.650000e-06	3.490599e-06	1.179153e-09	2.423993e+01	8.398387e+01
2.660000e-06	3.526791e-06	1.186573e-09	2.449126e+01	8.449578e+01
2.670000e-06	3.562828e-06	1.193919e-09	2.474151e+01	8.499321e+01
2.680000e-06	3.598687e-06	1.202249e-09	2.499053e+01	8.547635e+01
2.690000e-06	3.634412e-06	1.210742e-09	2.523862e+01	8.594539e+01
2.700000e-06	3.670038e-06	1.217423e-09	2.548601e+01	8.640052e+01
2.710000e-06	3.705452e-06	1.222925e-09	2.573195e+01	8.684195e+01
2.720000e-06	3.740653e-06	1.229159e-09	2.597639e+01	8.726990e+01
2.730000e-06	3.775607e-06	1.235725e-09	2.621912e+01	8.768463e+01
2.740000e-06	3.810157e-06	1.242450e-09	2.645905e+01	8.808641e+01
2.750000e-06	3.844196e-06	1.251095e-09	2.669543e+01	8.847553e+01
2.760000e-06	3.877812e-06	1.259735e-09	2.692887e+01	8.885232e+01
2.770000e-06	3.910976e-06	1.266385e-09	2.715917e+01	8.921715e+01
2.780000e-06	3.943643e-06	1.271993e-09	2.738602e+01	8.957038e+01
2.790000e-06	3.975952e-06	1.277436e-09	2.761039e+01	8.991245e+01
2.800000e-06	4.008027e-06	1.283560e-09	2.783313e+01	9.024380e+01
2.810000e-06	4.039905e-06	1.287240e-09	2.805450e+01	9.056491e+01
2.820000e-06	4.071597e-06	1.290811e-09	2.827458e+01	9.087628e+01
2.830000e-06	4.103090e-06	1.296221e-09	2.849328e+01	9.117844e+01
2.840000e-06	4.134324e-06	1.300540e-09	2.871018e+01	9.147194e+01
2.850000e-06	4.165283e-06	1.304466e-09	2.892517e+01	9.175735e+01
2.860000e-06	4.195973e-06	1.310860e-09	2.913829e+01	9.203525e+01
2.870000e-06	4.226345e-06	1.318529e-09	2.934920e+01	9.230622e+01
2.880000e-06	4.256419e-06	1.325533e-09	2.955805e+01	9.257085e+01
2.890000e-06	4.286250e-06	1.332796e-09	2.976521e+01	9.282972e+01
2.900000e-06	4.315770e-06	1.336497e-09	2.997020e+01	9.308340e+01
