# Temperatura_=_11.78
# Concentracion g/m^3_=_1620.0
# C_Vs_to_Am_M_A/Vsm_=_65563218390.804596
# pendiente_HvsI_1/m_=_3716.3
# ordenada_HvsI_A/m_=_1297.0
# frecuencia_Hz_=_135102.6941271357

Tiempo_(s)	Campo_(V.s)	Magnetizacion_(V.s)	Campo_(kA/m)	Magnetizacion_(A/m)
0.000000e+00	-5.532440e-06	-1.432430e-09	-3.838218e+01	-9.535996e+01
1.000000e-08	-5.532629e-06	-1.429912e-09	-3.838349e+01	-9.531534e+01
2.000000e-08	-5.532560e-06	-1.426154e-09	-3.838302e+01	-9.527005e+01
3.000000e-08	-5.532165e-06	-1.422772e-09	-3.838027e+01	-9.522464e+01
4.000000e-08	-5.531290e-06	-1.420091e-09	-3.837420e+01	-9.517965e+01
5.000000e-08	-5.529870e-06	-1.417671e-09	-3.836435e+01	-9.513560e+01
6.000000e-08	-5.527812e-06	-1.421486e-09	-3.835008e+01	-9.509292e+01
7.000000e-08	-5.525133e-06	-1.433453e-09	-3.833149e+01	-9.505202e+01
8.000000e-08	-5.522002e-06	-1.406291e-09	-3.830976e+01	-9.501322e+01
9.000000e-08	-5.518429e-06	-1.356416e-09	-3.828498e+01	-9.497677e+01
1.000000e-07	-5.514401e-06	-1.408019e-09	-3.825704e+01	-9.494281e+01
1.100000e-07	-5.509980e-06	-1.489452e-09	-3.822636e+01	-9.491141e+01
1.200000e-07	-5.505339e-06	-1.436158e-09	-3.819416e+01	-9.488253e+01
1.300000e-07	-5.500533e-06	-1.332620e-09	-3.816082e+01	-9.485603e+01
1.400000e-07	-5.495334e-06	-1.344479e-09	-3.812475e+01	-9.483166e+01
1.500000e-07	-5.489698e-06	-1.462137e-09	-3.808565e+01	-9.480908e+01
1.600000e-07	-5.483741e-06	-1.436579e-09	-3.804432e+01	-9.478784e+01
1.700000e-07	-5.477453e-06	-1.351564e-09	-3.800070e+01	-9.476741e+01
1.800000e-07	-5.470710e-06	-1.373000e-09	-3.795392e+01	-9.474718e+01
1.900000e-07	-5.463464e-06	-1.483643e-09	-3.790365e+01	-9.472643e+01
2.000000e-07	-5.455853e-06	-1.466197e-09	-3.785084e+01	-9.470442e+01
2.100000e-07	-5.448018e-06	-1.385362e-09	-3.779649e+01	-9.468034e+01
2.200000e-07	-5.439941e-06	-1.379597e-09	-3.774045e+01	-9.465333e+01
2.300000e-07	-5.431582e-06	-1.458289e-09	-3.768246e+01	-9.462254e+01
2.400000e-07	-5.422893e-06	-1.474366e-09	-3.762218e+01	-9.458710e+01
2.500000e-07	-5.413672e-06	-1.439869e-09	-3.755821e+01	-9.454613e+01
2.600000e-07	-5.403699e-06	-1.432077e-09	-3.748902e+01	-9.449881e+01
2.700000e-07	-5.393055e-06	-1.437258e-09	-3.741517e+01	-9.444434e+01
2.800000e-07	-5.381949e-06	-1.429851e-09	-3.733812e+01	-9.438199e+01
2.900000e-07	-5.370444e-06	-1.405858e-09	-3.725831e+01	-9.431111e+01
3.000000e-07	-5.358547e-06	-1.417835e-09	-3.717577e+01	-9.423111e+01
3.100000e-07	-5.346251e-06	-1.431304e-09	-3.709047e+01	-9.414152e+01
3.200000e-07	-5.333548e-06	-1.457692e-09	-3.700234e+01	-9.404197e+01
3.300000e-07	-5.320384e-06	-1.433820e-09	-3.691101e+01	-9.393221e+01
3.400000e-07	-5.306786e-06	-1.423658e-09	-3.681667e+01	-9.381210e+01
3.500000e-07	-5.292827e-06	-1.430981e-09	-3.671983e+01	-9.368164e+01
3.600000e-07	-5.278438e-06	-1.427798e-09	-3.662000e+01	-9.354095e+01
3.700000e-07	-5.263585e-06	-1.379518e-09	-3.651696e+01	-9.339026e+01
3.800000e-07	-5.248236e-06	-1.413635e-09	-3.641047e+01	-9.322994e+01
3.900000e-07	-5.232323e-06	-1.448405e-09	-3.630007e+01	-9.306048e+01
4.000000e-07	-5.215931e-06	-1.392019e-09	-3.618635e+01	-9.288246e+01
4.100000e-07	-5.199100e-06	-1.365018e-09	-3.606958e+01	-9.269655e+01
4.200000e-07	-5.181964e-06	-1.450915e-09	-3.595070e+01	-9.250353e+01
4.300000e-07	-5.164566e-06	-1.428997e-09	-3.583000e+01	-9.230424e+01
4.400000e-07	-5.146794e-06	-1.339881e-09	-3.570670e+01	-9.209956e+01
4.500000e-07	-5.128684e-06	-1.393151e-09	-3.558106e+01	-9.189043e+01
4.600000e-07	-5.110220e-06	-1.450448e-09	-3.545296e+01	-9.167780e+01
4.700000e-07	-5.091366e-06	-1.346846e-09	-3.532216e+01	-9.146263e+01
4.800000e-07	-5.072193e-06	-1.328069e-09	-3.518914e+01	-9.124587e+01
4.900000e-07	-5.052753e-06	-1.426474e-09	-3.505428e+01	-9.102844e+01
5.000000e-07	-5.033044e-06	-1.389547e-09	-3.491754e+01	-9.081122e+01
5.100000e-07	-5.013078e-06	-1.328030e-09	-3.477903e+01	-9.059502e+01
5.200000e-07	-4.992878e-06	-1.405472e-09	-3.463889e+01	-9.038058e+01
5.300000e-07	-4.972333e-06	-1.408884e-09	-3.449635e+01	-9.016855e+01
5.400000e-07	-4.951394e-06	-1.316129e-09	-3.435108e+01	-8.995949e+01
5.500000e-07	-4.930079e-06	-1.354099e-09	-3.420321e+01	-8.975386e+01
5.600000e-07	-4.908413e-06	-1.399032e-09	-3.405289e+01	-8.955199e+01
5.700000e-07	-4.886372e-06	-1.320789e-09	-3.389998e+01	-8.935410e+01
5.800000e-07	-4.864003e-06	-1.314662e-09	-3.374479e+01	-8.916029e+01
5.900000e-07	-4.841361e-06	-1.391772e-09	-3.358771e+01	-8.897055e+01
6.000000e-07	-4.818275e-06	-1.353721e-09	-3.342755e+01	-8.878475e+01
6.100000e-07	-4.794812e-06	-1.311067e-09	-3.326477e+01	-8.860263e+01
6.200000e-07	-4.771176e-06	-1.353935e-09	-3.310079e+01	-8.842386e+01
6.300000e-07	-4.747368e-06	-1.348572e-09	-3.293562e+01	-8.824798e+01
6.400000e-07	-4.723304e-06	-1.298795e-09	-3.276867e+01	-8.807445e+01
6.500000e-07	-4.698924e-06	-1.327431e-09	-3.259953e+01	-8.790268e+01
6.600000e-07	-4.674184e-06	-1.341619e-09	-3.242789e+01	-8.773199e+01
6.700000e-07	-4.648907e-06	-1.307872e-09	-3.225253e+01	-8.756166e+01
6.800000e-07	-4.622964e-06	-1.309818e-09	-3.207255e+01	-8.739094e+01
6.900000e-07	-4.596497e-06	-1.330921e-09	-3.188893e+01	-8.721905e+01
7.000000e-07	-4.569591e-06	-1.303542e-09	-3.170226e+01	-8.704522e+01
7.100000e-07	-4.542269e-06	-1.290184e-09	-3.151271e+01	-8.686869e+01
7.200000e-07	-4.514676e-06	-1.300011e-09	-3.132128e+01	-8.668869e+01
7.300000e-07	-4.486956e-06	-1.290899e-09	-3.112897e+01	-8.650453e+01
7.400000e-07	-4.459087e-06	-1.281086e-09	-3.093563e+01	-8.631554e+01
7.500000e-07	-4.430970e-06	-1.294222e-09	-3.074056e+01	-8.612110e+01
7.600000e-07	-4.402556e-06	-1.290382e-09	-3.054343e+01	-8.592069e+01
7.700000e-07	-4.373813e-06	-1.277005e-09	-3.034402e+01	-8.571384e+01
7.800000e-07	-4.344768e-06	-1.275156e-09	-3.014252e+01	-8.550015e+01
7.900000e-07	-4.315434e-06	-1.267637e-09	-2.993901e+01	-8.527932e+01
8.000000e-07	-4.285856e-06	-1.252935e-09	-2.973381e+01	-8.505112e+01
8.100000e-07	-4.256010e-06	-1.253097e-09	-2.952675e+01	-8.481542e+01
8.200000e-07	-4.225757e-06	-1.257088e-09	-2.931686e+01	-8.457217e+01
8.300000e-07	-4.195169e-06	-1.249688e-09	-2.910465e+01	-8.432137e+01
8.400000e-07	-4.164354e-06	-1.249446e-09	-2.889087e+01	-8.406313e+01
8.500000e-07	-4.133308e-06	-1.253055e-09	-2.867548e+01	-8.379762e+01
8.600000e-07	-4.102005e-06	-1.244822e-09	-2.845831e+01	-8.352504e+01
8.700000e-07	-4.070455e-06	-1.233444e-09	-2.823943e+01	-8.324569e+01
8.800000e-07	-4.038752e-06	-1.233314e-09	-2.801948e+01	-8.295988e+01
8.900000e-07	-4.006857e-06	-1.225511e-09	-2.779821e+01	-8.266795e+01
9.000000e-07	-3.974711e-06	-1.216065e-09	-2.757519e+01	-8.237028e+01
9.100000e-07	-3.942290e-06	-1.216694e-09	-2.735026e+01	-8.206726e+01
9.200000e-07	-3.909563e-06	-1.219025e-09	-2.712321e+01	-8.175928e+01
9.300000e-07	-3.876521e-06	-1.208497e-09	-2.689398e+01	-8.144673e+01
9.400000e-07	-3.843076e-06	-1.204625e-09	-2.666195e+01	-8.112996e+01
9.500000e-07	-3.809105e-06	-1.203676e-09	-2.642627e+01	-8.080934e+01
9.600000e-07	-3.774609e-06	-1.192628e-09	-2.618695e+01	-8.048518e+01
9.700000e-07	-3.739640e-06	-1.177765e-09	-2.594435e+01	-8.015776e+01
9.800000e-07	-3.704335e-06	-1.175531e-09	-2.569941e+01	-7.982732e+01
9.900000e-07	-3.668775e-06	-1.170173e-09	-2.545271e+01	-7.949407e+01
1.000000e-06	-3.633060e-06	-1.162636e-09	-2.520493e+01	-7.915816e+01
1.010000e-06	-3.597272e-06	-1.163644e-09	-2.495664e+01	-7.881970e+01
1.020000e-06	-3.561327e-06	-1.166939e-09	-2.470727e+01	-7.847873e+01
1.030000e-06	-3.525213e-06	-1.159909e-09	-2.445673e+01	-7.813529e+01
1.040000e-06	-3.488943e-06	-1.154503e-09	-2.420510e+01	-7.778934e+01
1.050000e-06	-3.452430e-06	-1.151859e-09	-2.395178e+01	-7.744081e+01
1.060000e-06	-3.415624e-06	-1.141270e-09	-2.369643e+01	-7.708959e+01
1.070000e-06	-3.378585e-06	-1.128532e-09	-2.343947e+01	-7.673554e+01
1.080000e-06	-3.341275e-06	-1.125234e-09	-2.318063e+01	-7.637852e+01
1.090000e-06	-3.303682e-06	-1.123691e-09	-2.291982e+01	-7.601832e+01
1.100000e-06	-3.265815e-06	-1.117425e-09	-2.265711e+01	-7.565474e+01
1.110000e-06	-3.227698e-06	-1.113688e-09	-2.239267e+01	-7.528759e+01
1.120000e-06	-3.189367e-06	-1.112275e-09	-2.212674e+01	-7.491665e+01
1.130000e-06	-3.150817e-06	-1.105028e-09	-2.185930e+01	-7.454170e+01
1.140000e-06	-3.112112e-06	-1.094515e-09	-2.159077e+01	-7.416254e+01
1.150000e-06	-3.073187e-06	-1.089140e-09	-2.132072e+01	-7.377896e+01
1.160000e-06	-3.034015e-06	-1.081363e-09	-2.104896e+01	-7.339080e+01
1.170000e-06	-2.994691e-06	-1.070128e-09	-2.077615e+01	-7.299788e+01
1.180000e-06	-2.955214e-06	-1.061119e-09	-2.050226e+01	-7.260006e+01
1.190000e-06	-2.915544e-06	-1.056447e-09	-2.022705e+01	-7.219720e+01
1.200000e-06	-2.875713e-06	-1.051276e-09	-1.995072e+01	-7.178920e+01
1.210000e-06	-2.835824e-06	-1.047739e-09	-1.967398e+01	-7.137596e+01
1.220000e-06	-2.795799e-06	-1.042773e-09	-1.939630e+01	-7.095743e+01
1.230000e-06	-2.755553e-06	-1.035120e-09	-1.911708e+01	-7.053353e+01
1.240000e-06	-2.715179e-06	-1.024914e-09	-1.883698e+01	-7.010424e+01
1.250000e-06	-2.674584e-06	-1.018466e-09	-1.855535e+01	-6.966952e+01
1.260000e-06	-2.633710e-06	-1.014092e-09	-1.827178e+01	-6.922935e+01
1.270000e-06	-2.592682e-06	-1.007838e-09	-1.798714e+01	-6.878371e+01
1.280000e-06	-2.551345e-06	-9.998220e-10	-1.770036e+01	-6.833259e+01
1.290000e-06	-2.509709e-06	-9.921095e-10	-1.741151e+01	-6.787596e+01
1.300000e-06	-2.467784e-06	-9.807027e-10	-1.712064e+01	-6.741379e+01
1.310000e-06	-2.425382e-06	-9.693752e-10	-1.682647e+01	-6.694605e+01
1.320000e-06	-2.382747e-06	-9.616323e-10	-1.653069e+01	-6.647268e+01
1.330000e-06	-2.340049e-06	-9.549864e-10	-1.623446e+01	-6.599360e+01
1.340000e-06	-2.297089e-06	-9.465987e-10	-1.593642e+01	-6.550873e+01
1.350000e-06	-2.253820e-06	-9.391202e-10	-1.563624e+01	-6.501793e+01
1.360000e-06	-2.210400e-06	-9.311451e-10	-1.533500e+01	-6.452109e+01
1.370000e-06	-2.166884e-06	-9.210748e-10	-1.503310e+01	-6.401802e+01
1.380000e-06	-2.123227e-06	-9.106558e-10	-1.473023e+01	-6.350853e+01
1.390000e-06	-2.079401e-06	-9.003651e-10	-1.442617e+01	-6.299241e+01
1.400000e-06	-2.035526e-06	-8.907504e-10	-1.412178e+01	-6.246941e+01
1.410000e-06	-1.991621e-06	-8.828724e-10	-1.381718e+01	-6.193926e+01
1.420000e-06	-1.947655e-06	-8.780646e-10	-1.351217e+01	-6.140167e+01
1.430000e-06	-1.903634e-06	-8.726484e-10	-1.320677e+01	-6.085632e+01
1.440000e-06	-1.859426e-06	-8.634865e-10	-1.290006e+01	-6.030289e+01
1.450000e-06	-1.815070e-06	-8.505619e-10	-1.259234e+01	-5.974100e+01
1.460000e-06	-1.770614e-06	-8.348129e-10	-1.228391e+01	-5.917030e+01
1.470000e-06	-1.726055e-06	-8.193422e-10	-1.197478e+01	-5.859039e+01
1.480000e-06	-1.681406e-06	-8.088440e-10	-1.166502e+01	-5.800087e+01
1.490000e-06	-1.636585e-06	-7.994971e-10	-1.135407e+01	-5.740134e+01
1.500000e-06	-1.591618e-06	-7.903542e-10	-1.104210e+01	-5.679135e+01
1.510000e-06	-1.546539e-06	-7.839219e-10	-1.072936e+01	-5.617049e+01
1.520000e-06	-1.501315e-06	-7.786289e-10	-1.041561e+01	-5.553830e+01
1.530000e-06	-1.455972e-06	-7.701421e-10	-1.010104e+01	-5.489431e+01
1.540000e-06	-1.410558e-06	-7.591694e-10	-9.785971e+00	-5.423806e+01
1.550000e-06	-1.365076e-06	-7.451517e-10	-9.470433e+00	-5.356906e+01
1.560000e-06	-1.319439e-06	-7.299412e-10	-9.153817e+00	-5.288681e+01
1.570000e-06	-1.273655e-06	-7.165665e-10	-8.836183e+00	-5.219077e+01
1.580000e-06	-1.227859e-06	-7.063269e-10	-8.518468e+00	-5.148042e+01
1.590000e-06	-1.182020e-06	-6.989671e-10	-8.200449e+00	-5.075519e+01
1.600000e-06	-1.136074e-06	-6.930107e-10	-7.881694e+00	-5.001447e+01
1.610000e-06	-1.090046e-06	-6.844478e-10	-7.562364e+00	-4.925766e+01
1.620000e-06	-1.043885e-06	-6.725622e-10	-7.242120e+00	-4.848409e+01
1.630000e-06	-9.976714e-07	-6.606029e-10	-6.921504e+00	-4.769308e+01
1.640000e-06	-9.514970e-07	-6.499169e-10	-6.601162e+00	-4.688391e+01
1.650000e-06	-9.052363e-07	-6.380753e-10	-6.280221e+00	-4.605582e+01
1.660000e-06	-8.589086e-07	-6.249140e-10	-5.958815e+00	-4.520801e+01
1.670000e-06	-8.125285e-07	-6.109305e-10	-5.637045e+00	-4.433965e+01
1.680000e-06	-7.660672e-07	-5.949256e-10	-5.314713e+00	-4.344986e+01
1.690000e-06	-7.195556e-07	-5.790563e-10	-4.992031e+00	-4.253776e+01
1.700000e-06	-6.730229e-07	-5.639747e-10	-4.669203e+00	-4.160239e+01
1.710000e-06	-6.264583e-07	-5.499876e-10	-4.346154e+00	-4.064283e+01
1.720000e-06	-5.798162e-07	-5.369149e-10	-4.022567e+00	-3.965808e+01
1.730000e-06	-5.331328e-07	-5.230489e-10	-3.698694e+00	-3.864717e+01
1.740000e-06	-4.864043e-07	-5.077470e-10	-3.374507e+00	-3.760912e+01
1.750000e-06	-4.396037e-07	-4.897997e-10	-3.049821e+00	-3.654295e+01
1.760000e-06	-3.927309e-07	-4.683562e-10	-2.724633e+00	-3.544769e+01
1.770000e-06	-3.458869e-07	-4.477509e-10	-2.399645e+00	-3.432244e+01
1.780000e-06	-2.990190e-07	-4.300151e-10	-2.074492e+00	-3.316630e+01
1.790000e-06	-2.520598e-07	-4.137922e-10	-1.748705e+00	-3.197846e+01
1.800000e-06	-2.051701e-07	-3.985646e-10	-1.423400e+00	-3.075816e+01
1.810000e-06	-1.582449e-07	-3.818720e-10	-1.097849e+00	-2.950473e+01
1.820000e-06	-1.112263e-07	-3.642032e-10	-7.716501e-01	-2.821760e+01
1.830000e-06	-6.416224e-08	-3.463751e-10	-4.451357e-01	-2.689633e+01
1.840000e-06	-1.714758e-08	-3.281781e-10	-1.189641e-01	-2.554058e+01
1.850000e-06	2.974304e-08	-3.094915e-10	2.063471e-01	-2.415017e+01
1.860000e-06	7.666650e-08	-2.875400e-10	5.318860e-01	-2.272506e+01
1.870000e-06	1.236357e-07	-2.635416e-10	8.577423e-01	-2.126537e+01
1.880000e-06	1.705518e-07	-2.403068e-10	1.183230e+00	-1.977139e+01
1.890000e-06	2.174838e-07	-2.198206e-10	1.508828e+00	-1.824362e+01
1.900000e-06	2.644499e-07	-1.997012e-10	1.834663e+00	-1.668269e+01
1.910000e-06	3.113535e-07	-1.785036e-10	2.160064e+00	-1.508946e+01
1.920000e-06	3.581674e-07	-1.577982e-10	2.484843e+00	-1.346497e+01
1.930000e-06	4.049616e-07	-1.362936e-10	2.809485e+00	-1.181044e+01
1.940000e-06	4.517903e-07	-1.121206e-10	3.134367e+00	-1.012728e+01
1.950000e-06	4.985179e-07	-8.647761e-11	3.458547e+00	-8.417088e+00
1.960000e-06	5.451172e-07	-6.307109e-11	3.781837e+00	-6.681634e+00
1.970000e-06	5.917115e-07	-4.184277e-11	4.105093e+00	-4.922855e+00
1.980000e-06	6.383135e-07	-2.101525e-11	4.428401e+00	-3.142840e+00
1.990000e-06	6.848996e-07	2.855127e-12	4.751600e+00	-1.343825e+00
2.000000e-06	7.313730e-07	3.051130e-11	5.074016e+00	4.718302e-01
2.010000e-06	7.777133e-07	6.116827e-11	5.395510e+00	2.301653e+00
2.020000e-06	8.240074e-07	9.270225e-11	5.716682e+00	4.143078e+00
2.030000e-06	8.702883e-07	1.203945e-10	6.037763e+00	5.993463e+00
2.040000e-06	9.165686e-07	1.435588e-10	6.358840e+00	7.850113e+00
2.050000e-06	9.627795e-07	1.662116e-10	6.679436e+00	9.710293e+00
2.060000e-06	1.008923e-06	1.933846e-10	6.999562e+00	1.157126e+01
2.070000e-06	1.055040e-06	2.207753e-10	7.319507e+00	1.343026e+01
2.080000e-06	1.101060e-06	2.498950e-10	7.638777e+00	1.528459e+01
2.090000e-06	1.146927e-06	2.808278e-10	7.956989e+00	1.713156e+01
2.100000e-06	1.192728e-06	3.089114e-10	8.274738e+00	1.896858e+01
2.110000e-06	1.238491e-06	3.325596e-10	8.592228e+00	2.079310e+01
2.120000e-06	1.284161e-06	3.536822e-10	8.909069e+00	2.260269e+01
2.130000e-06	1.329704e-06	3.742503e-10	9.225036e+00	2.439503e+01
2.140000e-06	1.375163e-06	3.950058e-10	9.540415e+00	2.616793e+01
2.150000e-06	1.420593e-06	4.171718e-10	9.855593e+00	2.791932e+01
2.160000e-06	1.465993e-06	4.420987e-10	1.017056e+01	2.964730e+01
2.170000e-06	1.511319e-06	4.682181e-10	1.048502e+01	3.135010e+01
2.180000e-06	1.556518e-06	4.924796e-10	1.079859e+01	3.302614e+01
2.190000e-06	1.601395e-06	5.160419e-10	1.110993e+01	3.467396e+01
2.200000e-06	1.646007e-06	5.380539e-10	1.141943e+01	3.629232e+01
2.210000e-06	1.690640e-06	5.564824e-10	1.172908e+01	3.788011e+01
2.220000e-06	1.735240e-06	5.720261e-10	1.203850e+01	3.943640e+01
2.230000e-06	1.779672e-06	5.889517e-10	1.234676e+01	4.096042e+01
2.240000e-06	1.823914e-06	6.072145e-10	1.265369e+01	4.245157e+01
2.250000e-06	1.868017e-06	6.259357e-10	1.295967e+01	4.390938e+01
2.260000e-06	1.912067e-06	6.478291e-10	1.326527e+01	4.533354e+01
2.270000e-06	1.956066e-06	6.714445e-10	1.357052e+01	4.672388e+01
2.280000e-06	1.999964e-06	6.928662e-10	1.387507e+01	4.808036e+01
2.290000e-06	2.043788e-06	7.125922e-10	1.417910e+01	4.940304e+01
2.300000e-06	2.087593e-06	7.286572e-10	1.448301e+01	5.069212e+01
2.310000e-06	2.131324e-06	7.426651e-10	1.478640e+01	5.194787e+01
2.320000e-06	2.174929e-06	7.564494e-10	1.508892e+01	5.317066e+01
2.330000e-06	2.218445e-06	7.715344e-10	1.539082e+01	5.436095e+01
2.340000e-06	2.261871e-06	7.875227e-10	1.569209e+01	5.551924e+01
2.350000e-06	2.305147e-06	8.037940e-10	1.599232e+01	5.664611e+01
2.360000e-06	2.348211e-06	8.201895e-10	1.629109e+01	5.774218e+01
2.370000e-06	2.391009e-06	8.336419e-10	1.658801e+01	5.880812e+01
2.380000e-06	2.433518e-06	8.451780e-10	1.688292e+01	5.984461e+01
2.390000e-06	2.475748e-06	8.580361e-10	1.717589e+01	6.085238e+01
2.400000e-06	2.517614e-06	8.717071e-10	1.746634e+01	6.183214e+01
2.410000e-06	2.559173e-06	8.856890e-10	1.775467e+01	6.278465e+01
2.420000e-06	2.600421e-06	8.988579e-10	1.804083e+01	6.371065e+01
2.430000e-06	2.641243e-06	9.107082e-10	1.832404e+01	6.461088e+01
2.440000e-06	2.681796e-06	9.212902e-10	1.860539e+01	6.548608e+01
2.450000e-06	2.722159e-06	9.319606e-10	1.888541e+01	6.633698e+01
2.460000e-06	2.762381e-06	9.436764e-10	1.916446e+01	6.716429e+01
2.470000e-06	2.802513e-06	9.568114e-10	1.944288e+01	6.796873e+01
2.480000e-06	2.842523e-06	9.719710e-10	1.972045e+01	6.875097e+01
2.490000e-06	2.882402e-06	9.850305e-10	1.999712e+01	6.951170e+01
2.500000e-06	2.922161e-06	9.975126e-10	2.027296e+01	7.025154e+01
2.510000e-06	2.961804e-06	1.005969e-09	2.054799e+01	7.097115e+01
2.520000e-06	3.001280e-06	1.012431e-09	2.082186e+01	7.167113e+01
2.530000e-06	3.040542e-06	1.020133e-09	2.109424e+01	7.235206e+01
2.540000e-06	3.079552e-06	1.029108e-09	2.136488e+01	7.301452e+01
2.550000e-06	3.118320e-06	1.039757e-09	2.163384e+01	7.365906e+01
2.560000e-06	3.156820e-06	1.050762e-09	2.190094e+01	7.428619e+01
2.570000e-06	3.195077e-06	1.061721e-09	2.216636e+01	7.489644e+01
2.580000e-06	3.233150e-06	1.068428e-09	2.243049e+01	7.549029e+01
2.590000e-06	3.271016e-06	1.074459e-09	2.269319e+01	7.606820e+01
2.600000e-06	3.308680e-06	1.081774e-09	2.295449e+01	7.663063e+01
2.610000e-06	3.346164e-06	1.090811e-09	2.321455e+01	7.717801e+01
2.620000e-06	3.383439e-06	1.099753e-09	2.347315e+01	7.771075e+01
2.630000e-06	3.420441e-06	1.108317e-09	2.372985e+01	7.822925e+01
2.640000e-06	3.457120e-06	1.116380e-09	2.398432e+01	7.873390e+01
2.650000e-06	3.493476e-06	1.122020e-09	2.423655e+01	7.922506e+01
2.660000e-06	3.529612e-06	1.126002e-09	2.448724e+01	7.970308e+01
2.670000e-06	3.565612e-06	1.129638e-09	2.473700e+01	8.016830e+01
2.680000e-06	3.601511e-06	1.135101e-09	2.498605e+01	8.062105e+01
2.690000e-06	3.637294e-06	1.143332e-09	2.523431e+01	8.106166e+01
2.700000e-06	3.672948e-06	1.151455e-09	2.548166e+01	8.149043e+01
2.710000e-06	3.708408e-06	1.158751e-09	2.572767e+01	8.190766e+01
2.720000e-06	3.743650e-06	1.164987e-09	2.597217e+01	8.231366e+01
2.730000e-06	3.778599e-06	1.170094e-09	2.621463e+01	8.270871e+01
2.740000e-06	3.813096e-06	1.174889e-09	2.645396e+01	8.309310e+01
2.750000e-06	3.847100e-06	1.181237e-09	2.668986e+01	8.346713e+01
2.760000e-06	3.880525e-06	1.187483e-09	2.692176e+01	8.383108e+01
2.770000e-06	3.913466e-06	1.192374e-09	2.715029e+01	8.418524e+01
2.780000e-06	3.946161e-06	1.198732e-09	2.737712e+01	8.452991e+01
2.790000e-06	3.978552e-06	1.205895e-09	2.760184e+01	8.486538e+01
2.800000e-06	4.010636e-06	1.212960e-09	2.782443e+01	8.519195e+01
2.810000e-06	4.042587e-06	1.218293e-09	2.804609e+01	8.550993e+01
2.820000e-06	4.074379e-06	1.223943e-09	2.826665e+01	8.581963e+01
2.830000e-06	4.105977e-06	1.227507e-09	2.848586e+01	8.612136e+01
2.840000e-06	4.137291e-06	1.230413e-09	2.870311e+01	8.641543e+01
2.850000e-06	4.168289e-06	1.233064e-09	2.891817e+01	8.670216e+01
2.860000e-06	4.199048e-06	1.236771e-09	2.913156e+01	8.698188e+01
2.870000e-06	4.229482e-06	1.242290e-09	2.934270e+01	8.725490e+01
2.880000e-06	4.259559e-06	1.248190e-09	2.955137e+01	8.752154e+01
2.890000e-06	4.289317e-06	1.257553e-09	2.975782e+01	8.778210e+01
2.900000e-06	4.318751e-06	1.266851e-09	2.996202e+01	8.803690e+01
