# Temperatura_=_6.29
# Concentracion g/m^3_=_1620.0
# C_Vs_to_Am_M_A/Vsm_=_65563218390.804596
# pendiente_HvsI_1/m_=_3716.3
# ordenada_HvsI_A/m_=_1297.0
# frecuencia_Hz_=_135104.9327494963

Tiempo_(s)	Campo_(V.s)	Magnetizacion_(V.s)	Campo_(kA/m)	Magnetizacion_(A/m)
0.000000e+00	-5.530076e-06	-1.274592e-09	-3.837068e+01	-8.602142e+01
1.000000e-08	-5.530291e-06	-1.271675e-09	-3.837217e+01	-8.599754e+01
2.000000e-08	-5.530282e-06	-1.269877e-09	-3.837210e+01	-8.597493e+01
3.000000e-08	-5.529985e-06	-1.268526e-09	-3.837004e+01	-8.595391e+01
4.000000e-08	-5.529312e-06	-1.268552e-09	-3.836537e+01	-8.593479e+01
5.000000e-08	-5.528065e-06	-1.269413e-09	-3.835672e+01	-8.591788e+01
6.000000e-08	-5.526178e-06	-1.272675e-09	-3.834363e+01	-8.590343e+01
7.000000e-08	-5.523659e-06	-1.280124e-09	-3.832615e+01	-8.589170e+01
8.000000e-08	-5.520467e-06	-1.265395e-09	-3.830400e+01	-8.588288e+01
9.000000e-08	-5.516814e-06	-1.214638e-09	-3.827866e+01	-8.587711e+01
1.000000e-07	-5.512890e-06	-1.251861e-09	-3.825143e+01	-8.587448e+01
1.100000e-07	-5.508626e-06	-1.375463e-09	-3.822184e+01	-8.587501e+01
1.200000e-07	-5.503967e-06	-1.321499e-09	-3.818952e+01	-8.587865e+01
1.300000e-07	-5.499107e-06	-1.170235e-09	-3.815579e+01	-8.588527e+01
1.400000e-07	-5.494081e-06	-1.199947e-09	-3.812093e+01	-8.589467e+01
1.500000e-07	-5.488664e-06	-1.349798e-09	-3.808333e+01	-8.590655e+01
1.600000e-07	-5.482772e-06	-1.368297e-09	-3.804246e+01	-8.592055e+01
1.700000e-07	-5.476508e-06	-1.163356e-09	-3.799899e+01	-8.593621e+01
1.800000e-07	-5.469922e-06	-1.190754e-09	-3.795329e+01	-8.595302e+01
1.900000e-07	-5.462867e-06	-1.338661e-09	-3.790434e+01	-8.597037e+01
2.000000e-07	-5.455413e-06	-1.389106e-09	-3.785263e+01	-8.598761e+01
2.100000e-07	-5.447740e-06	-1.237930e-09	-3.779938e+01	-8.600403e+01
2.200000e-07	-5.439798e-06	-1.220956e-09	-3.774428e+01	-8.601887e+01
2.300000e-07	-5.431481e-06	-1.317565e-09	-3.768657e+01	-8.603134e+01
2.400000e-07	-5.422729e-06	-1.364703e-09	-3.762584e+01	-8.604065e+01
2.500000e-07	-5.413450e-06	-1.292975e-09	-3.756146e+01	-8.604598e+01
2.600000e-07	-5.403499e-06	-1.263433e-09	-3.749242e+01	-8.604653e+01
2.700000e-07	-5.392801e-06	-1.316319e-09	-3.741819e+01	-8.604152e+01
2.800000e-07	-5.381612e-06	-1.323177e-09	-3.734055e+01	-8.603020e+01
2.900000e-07	-5.370185e-06	-1.291167e-09	-3.726126e+01	-8.601188e+01
3.000000e-07	-5.358390e-06	-1.265077e-09	-3.717942e+01	-8.598593e+01
3.100000e-07	-5.346199e-06	-1.323985e-09	-3.709483e+01	-8.595181e+01
3.200000e-07	-5.333641e-06	-1.334487e-09	-3.700771e+01	-8.590904e+01
3.300000e-07	-5.320705e-06	-1.308895e-09	-3.691794e+01	-8.585724e+01
3.400000e-07	-5.307291e-06	-1.251706e-09	-3.682487e+01	-8.579615e+01
3.500000e-07	-5.293474e-06	-1.320770e-09	-3.672900e+01	-8.572561e+01
3.600000e-07	-5.279288e-06	-1.322377e-09	-3.663057e+01	-8.564556e+01
3.700000e-07	-5.264430e-06	-1.262734e-09	-3.652748e+01	-8.555607e+01
3.800000e-07	-5.248939e-06	-1.255591e-09	-3.641999e+01	-8.545730e+01
3.900000e-07	-5.233087e-06	-1.350829e-09	-3.631001e+01	-8.534954e+01
4.000000e-07	-5.216751e-06	-1.277303e-09	-3.619666e+01	-8.523315e+01
4.100000e-07	-5.200025e-06	-1.222965e-09	-3.608060e+01	-8.510863e+01
4.200000e-07	-5.183166e-06	-1.325307e-09	-3.596362e+01	-8.497652e+01
4.300000e-07	-5.165983e-06	-1.341454e-09	-3.584440e+01	-8.483745e+01
4.400000e-07	-5.148321e-06	-1.181997e-09	-3.572185e+01	-8.469212e+01
4.500000e-07	-5.130405e-06	-1.243563e-09	-3.559754e+01	-8.454126e+01
4.600000e-07	-5.112214e-06	-1.370917e-09	-3.547132e+01	-8.438563e+01
4.700000e-07	-5.093508e-06	-1.239762e-09	-3.534153e+01	-8.422602e+01
4.800000e-07	-5.074343e-06	-1.167762e-09	-3.520855e+01	-8.406321e+01
4.900000e-07	-5.054854e-06	-1.331644e-09	-3.507333e+01	-8.389795e+01
5.000000e-07	-5.035158e-06	-1.304119e-09	-3.493667e+01	-8.373099e+01
5.100000e-07	-5.015284e-06	-1.166479e-09	-3.479877e+01	-8.356301e+01
5.200000e-07	-4.995245e-06	-1.278802e-09	-3.465973e+01	-8.339463e+01
5.300000e-07	-4.974855e-06	-1.328078e-09	-3.451825e+01	-8.322641e+01
5.400000e-07	-4.953953e-06	-1.166429e-09	-3.437322e+01	-8.305881e+01
5.500000e-07	-4.932686e-06	-1.204402e-09	-3.422566e+01	-8.289224e+01
5.600000e-07	-4.911097e-06	-1.341139e-09	-3.407587e+01	-8.272696e+01
5.700000e-07	-4.889165e-06	-1.218131e-09	-3.392369e+01	-8.256317e+01
5.800000e-07	-4.866922e-06	-1.162506e-09	-3.376935e+01	-8.240095e+01
5.900000e-07	-4.844417e-06	-1.294203e-09	-3.361320e+01	-8.224028e+01
6.000000e-07	-4.821586e-06	-1.259637e-09	-3.345479e+01	-8.208106e+01
6.100000e-07	-4.798348e-06	-1.146780e-09	-3.329355e+01	-8.192307e+01
6.200000e-07	-4.774821e-06	-1.239677e-09	-3.313030e+01	-8.176602e+01
6.300000e-07	-4.751082e-06	-1.264990e-09	-3.296559e+01	-8.160953e+01
6.400000e-07	-4.727100e-06	-1.173560e-09	-3.279919e+01	-8.145318e+01
6.500000e-07	-4.702836e-06	-1.201351e-09	-3.263084e+01	-8.129646e+01
6.600000e-07	-4.678192e-06	-1.263904e-09	-3.245984e+01	-8.113884e+01
6.700000e-07	-4.653000e-06	-1.191914e-09	-3.228505e+01	-8.097977e+01
6.800000e-07	-4.627213e-06	-1.183075e-09	-3.210612e+01	-8.081867e+01
6.900000e-07	-4.600898e-06	-1.232600e-09	-3.192353e+01	-8.065497e+01
7.000000e-07	-4.574109e-06	-1.203628e-09	-3.173766e+01	-8.048811e+01
7.100000e-07	-4.546886e-06	-1.171299e-09	-3.154877e+01	-8.031756e+01
7.200000e-07	-4.519400e-06	-1.216213e-09	-3.135806e+01	-8.014284e+01
7.300000e-07	-4.491738e-06	-1.205575e-09	-3.116612e+01	-7.996351e+01
7.400000e-07	-4.463918e-06	-1.169608e-09	-3.097309e+01	-7.977921e+01
7.500000e-07	-4.435965e-06	-1.183563e-09	-3.077914e+01	-7.958963e+01
7.600000e-07	-4.407760e-06	-1.193776e-09	-3.058344e+01	-7.939456e+01
7.700000e-07	-4.379187e-06	-1.165340e-09	-3.038518e+01	-7.919385e+01
7.800000e-07	-4.350234e-06	-1.169826e-09	-3.018429e+01	-7.898746e+01
7.900000e-07	-4.320901e-06	-1.178940e-09	-2.998076e+01	-7.877540e+01
8.000000e-07	-4.291245e-06	-1.157327e-09	-2.977499e+01	-7.855780e+01
8.100000e-07	-4.261400e-06	-1.154729e-09	-2.956791e+01	-7.833482e+01
8.200000e-07	-4.231269e-06	-1.169323e-09	-2.935885e+01	-7.810675e+01
8.300000e-07	-4.200715e-06	-1.153721e-09	-2.914685e+01	-7.787388e+01
8.400000e-07	-4.169835e-06	-1.139380e-09	-2.893258e+01	-7.763661e+01
8.500000e-07	-4.138710e-06	-1.157515e-09	-2.871662e+01	-7.739535e+01
8.600000e-07	-4.107372e-06	-1.151567e-09	-2.849918e+01	-7.715055e+01
8.700000e-07	-4.075857e-06	-1.131311e-09	-2.828051e+01	-7.690268e+01
8.800000e-07	-4.044183e-06	-1.134103e-09	-2.806074e+01	-7.665221e+01
8.900000e-07	-4.012356e-06	-1.136912e-09	-2.783991e+01	-7.639961e+01
9.000000e-07	-3.980342e-06	-1.114496e-09	-2.761778e+01	-7.614532e+01
9.100000e-07	-3.948007e-06	-1.120187e-09	-2.739342e+01	-7.588976e+01
9.200000e-07	-3.915258e-06	-1.131032e-09	-2.716619e+01	-7.563329e+01
9.300000e-07	-3.882131e-06	-1.117173e-09	-2.693634e+01	-7.537624e+01
9.400000e-07	-3.848602e-06	-1.106360e-09	-2.670370e+01	-7.511886e+01
9.500000e-07	-3.814597e-06	-1.119752e-09	-2.646775e+01	-7.486132e+01
9.600000e-07	-3.780051e-06	-1.105608e-09	-2.622805e+01	-7.460374e+01
9.700000e-07	-3.745084e-06	-1.085399e-09	-2.598543e+01	-7.434614e+01
9.800000e-07	-3.709874e-06	-1.086998e-09	-2.574112e+01	-7.408848e+01
9.900000e-07	-3.674460e-06	-1.088140e-09	-2.549540e+01	-7.383062e+01
1.000000e-06	-3.638889e-06	-1.069908e-09	-2.524859e+01	-7.357236e+01
1.010000e-06	-3.603232e-06	-1.071554e-09	-2.500118e+01	-7.331341e+01
1.020000e-06	-3.567434e-06	-1.078912e-09	-2.475280e+01	-7.305343e+01
1.030000e-06	-3.531441e-06	-1.069383e-09	-2.450306e+01	-7.279201e+01
1.040000e-06	-3.495253e-06	-1.059447e-09	-2.425196e+01	-7.252871e+01
1.050000e-06	-3.458807e-06	-1.062634e-09	-2.399908e+01	-7.226302e+01
1.060000e-06	-3.422059e-06	-1.054026e-09	-2.374410e+01	-7.199442e+01
1.070000e-06	-3.385017e-06	-1.043581e-09	-2.348709e+01	-7.172240e+01
1.080000e-06	-3.347677e-06	-1.047916e-09	-2.322800e+01	-7.144639e+01
1.090000e-06	-3.310109e-06	-1.047316e-09	-2.296733e+01	-7.116589e+01
1.100000e-06	-3.272272e-06	-1.035490e-09	-2.270481e+01	-7.088038e+01
1.110000e-06	-3.234211e-06	-1.033617e-09	-2.244071e+01	-7.058938e+01
1.120000e-06	-3.196018e-06	-1.035587e-09	-2.217571e+01	-7.029247e+01
1.130000e-06	-3.157585e-06	-1.024507e-09	-2.190904e+01	-6.998927e+01
1.140000e-06	-3.118984e-06	-1.017078e-09	-2.164121e+01	-6.967946e+01
1.150000e-06	-3.080199e-06	-1.016407e-09	-2.137210e+01	-6.936280e+01
1.160000e-06	-3.041142e-06	-1.010070e-09	-2.110110e+01	-6.903909e+01
1.170000e-06	-3.001889e-06	-9.994412e-10	-2.082874e+01	-6.870824e+01
1.180000e-06	-2.962483e-06	-9.980203e-10	-2.055532e+01	-6.837022e+01
1.190000e-06	-2.922928e-06	-9.925485e-10	-2.028086e+01	-6.802506e+01
1.200000e-06	-2.883211e-06	-9.823665e-10	-2.000529e+01	-6.767288e+01
1.210000e-06	-2.843329e-06	-9.739733e-10	-1.972856e+01	-6.731386e+01
1.220000e-06	-2.803303e-06	-9.689579e-10	-1.945084e+01	-6.694824e+01
1.230000e-06	-2.763197e-06	-9.600175e-10	-1.917256e+01	-6.657631e+01
1.240000e-06	-2.722838e-06	-9.578468e-10	-1.889253e+01	-6.619840e+01
1.250000e-06	-2.682203e-06	-9.573775e-10	-1.861059e+01	-6.581488e+01
1.260000e-06	-2.641386e-06	-9.540774e-10	-1.832738e+01	-6.542613e+01
1.270000e-06	-2.600297e-06	-9.465254e-10	-1.804228e+01	-6.503254e+01
1.280000e-06	-2.558920e-06	-9.406050e-10	-1.775518e+01	-6.463450e+01
1.290000e-06	-2.517249e-06	-9.334811e-10	-1.746605e+01	-6.423240e+01
1.300000e-06	-2.475268e-06	-9.239174e-10	-1.717476e+01	-6.382657e+01
1.310000e-06	-2.432911e-06	-9.144990e-10	-1.688086e+01	-6.341733e+01
1.320000e-06	-2.390221e-06	-9.096423e-10	-1.658465e+01	-6.300496e+01
1.330000e-06	-2.347318e-06	-9.041264e-10	-1.628697e+01	-6.258964e+01
1.340000e-06	-2.304224e-06	-9.000167e-10	-1.598796e+01	-6.217153e+01
1.350000e-06	-2.260989e-06	-8.977091e-10	-1.568797e+01	-6.175070e+01
1.360000e-06	-2.217613e-06	-8.927545e-10	-1.538700e+01	-6.132715e+01
1.370000e-06	-2.174064e-06	-8.829127e-10	-1.508484e+01	-6.090079e+01
1.380000e-06	-2.130422e-06	-8.724477e-10	-1.478202e+01	-6.047146e+01
1.390000e-06	-2.086741e-06	-8.619263e-10	-1.447895e+01	-6.003893e+01
1.400000e-06	-2.043017e-06	-8.515104e-10	-1.417556e+01	-5.960286e+01
1.410000e-06	-1.999258e-06	-8.439691e-10	-1.387194e+01	-5.916287e+01
1.420000e-06	-1.955400e-06	-8.395683e-10	-1.356763e+01	-5.871849e+01
1.430000e-06	-1.911377e-06	-8.354538e-10	-1.326218e+01	-5.826919e+01
1.440000e-06	-1.867259e-06	-8.299714e-10	-1.295606e+01	-5.781438e+01
1.450000e-06	-1.823048e-06	-8.235637e-10	-1.264930e+01	-5.735343e+01
1.460000e-06	-1.778733e-06	-8.123725e-10	-1.234182e+01	-5.688566e+01
1.470000e-06	-1.734328e-06	-7.981554e-10	-1.203371e+01	-5.641035e+01
1.480000e-06	-1.689750e-06	-7.861733e-10	-1.172440e+01	-5.592677e+01
1.490000e-06	-1.644906e-06	-7.802536e-10	-1.141325e+01	-5.543418e+01
1.500000e-06	-1.599935e-06	-7.751610e-10	-1.110122e+01	-5.493180e+01
1.510000e-06	-1.554903e-06	-7.705629e-10	-1.078877e+01	-5.441888e+01
1.520000e-06	-1.509694e-06	-7.650556e-10	-1.047508e+01	-5.389467e+01
1.530000e-06	-1.464394e-06	-7.585367e-10	-1.016076e+01	-5.335842e+01
1.540000e-06	-1.419000e-06	-7.476265e-10	-9.845794e+00	-5.280941e+01
1.550000e-06	-1.373482e-06	-7.353154e-10	-9.529967e+00	-5.224692e+01
1.560000e-06	-1.327898e-06	-7.224829e-10	-9.213681e+00	-5.167026e+01
1.570000e-06	-1.282276e-06	-7.112514e-10	-8.897126e+00	-5.107878e+01
1.580000e-06	-1.236593e-06	-7.021233e-10	-8.580152e+00	-5.047181e+01
1.590000e-06	-1.190804e-06	-6.965212e-10	-8.262449e+00	-4.984873e+01
1.600000e-06	-1.144943e-06	-6.900055e-10	-7.944234e+00	-4.920892e+01
1.610000e-06	-1.098994e-06	-6.800867e-10	-7.625421e+00	-4.855178e+01
1.620000e-06	-1.052915e-06	-6.683118e-10	-7.305700e+00	-4.787671e+01
1.630000e-06	-1.006800e-06	-6.558991e-10	-6.985723e+00	-4.718310e+01
1.640000e-06	-9.606814e-07	-6.461582e-10	-6.665730e+00	-4.647035e+01
1.650000e-06	-9.144364e-07	-6.373734e-10	-6.344858e+00	-4.573784e+01
1.660000e-06	-8.680499e-07	-6.249900e-10	-6.023002e+00	-4.498493e+01
1.670000e-06	-8.215984e-07	-6.112709e-10	-5.700697e+00	-4.421098e+01
1.680000e-06	-7.751886e-07	-5.967379e-10	-5.378680e+00	-4.341530e+01
1.690000e-06	-7.287531e-07	-5.812136e-10	-5.056485e+00	-4.259717e+01
1.700000e-06	-6.822476e-07	-5.656256e-10	-4.733805e+00	-4.175585e+01
1.710000e-06	-6.356751e-07	-5.505888e-10	-4.410659e+00	-4.089058e+01
1.720000e-06	-5.890391e-07	-5.379912e-10	-4.087074e+00	-4.000053e+01
1.730000e-06	-5.423617e-07	-5.247079e-10	-3.763200e+00	-3.908488e+01
1.740000e-06	-4.956566e-07	-5.092034e-10	-3.439135e+00	-3.814277e+01
1.750000e-06	-4.489429e-07	-4.930854e-10	-3.115010e+00	-3.717332e+01
1.760000e-06	-4.021462e-07	-4.770716e-10	-2.790309e+00	-3.617565e+01
1.770000e-06	-3.552076e-07	-4.611243e-10	-2.464623e+00	-3.514887e+01
1.780000e-06	-3.082212e-07	-4.467347e-10	-2.138607e+00	-3.409212e+01
1.790000e-06	-2.612936e-07	-4.325316e-10	-1.812997e+00	-3.300455e+01
1.800000e-06	-2.143932e-07	-4.177790e-10	-1.487577e+00	-3.188536e+01
1.810000e-06	-1.674420e-07	-4.020885e-10	-1.161804e+00	-3.073379e+01
1.820000e-06	-1.204934e-07	-3.848338e-10	-8.360485e-01	-2.954917e+01
1.830000e-06	-7.356053e-08	-3.670991e-10	-5.104030e-01	-2.833092e+01
1.840000e-06	-2.662329e-08	-3.516923e-10	-1.847269e-01	-2.707855e+01
1.850000e-06	2.025764e-08	-3.366869e-10	1.405585e-01	-2.579171e+01
1.860000e-06	6.710255e-08	-3.197791e-10	4.655940e-01	-2.447018e+01
1.870000e-06	1.140368e-07	-3.007173e-10	7.912495e-01	-2.311390e+01
1.880000e-06	1.609895e-07	-2.803872e-10	1.117033e+00	-2.172297e+01
1.890000e-06	2.078351e-07	-2.593130e-10	1.442073e+00	-2.029769e+01
1.900000e-06	2.547191e-07	-2.382781e-10	1.767380e+00	-1.883852e+01
1.910000e-06	3.016651e-07	-2.171494e-10	2.093117e+00	-1.734614e+01
1.920000e-06	3.486281e-07	-1.970266e-10	2.418972e+00	-1.582143e+01
1.930000e-06	3.955204e-07	-1.772850e-10	2.744335e+00	-1.426549e+01
1.940000e-06	4.422779e-07	-1.552102e-10	3.068764e+00	-1.267962e+01
1.950000e-06	4.890662e-07	-1.305163e-10	3.393407e+00	-1.106531e+01
1.960000e-06	5.358718e-07	-1.075695e-10	3.718170e+00	-9.424264e+00
1.970000e-06	5.824797e-07	-8.841360e-11	4.041561e+00	-7.758389e+00
1.980000e-06	6.289337e-07	-6.901016e-11	4.363884e+00	-6.069756e+00
1.990000e-06	6.754151e-07	-4.739333e-11	4.686398e+00	-4.360607e+00
2.000000e-06	7.218816e-07	-2.242399e-11	5.008807e+00	-2.633336e+00
2.010000e-06	7.682418e-07	6.268234e-12	5.330479e+00	-8.904687e-01
2.020000e-06	8.145479e-07	3.537222e-11	5.651777e+00	8.653591e-01
2.030000e-06	8.608504e-07	6.121524e-11	5.973049e+00	2.631422e+00
2.040000e-06	9.071274e-07	8.276619e-11	6.294143e+00	4.404928e+00
2.050000e-06	9.532962e-07	1.026871e-10	6.614487e+00	6.183045e+00
2.060000e-06	9.993648e-07	1.248716e-10	6.934136e+00	7.962922e+00
2.070000e-06	1.045411e-06	1.481900e-10	7.253630e+00	9.741718e+00
2.080000e-06	1.091371e-06	1.731905e-10	7.572528e+00	1.151662e+01
2.090000e-06	1.137202e-06	2.000132e-10	7.890525e+00	1.328488e+01
2.100000e-06	1.182977e-06	2.260862e-10	8.208139e+00	1.504382e+01
2.110000e-06	1.228687e-06	2.502715e-10	8.525299e+00	1.679086e+01
2.120000e-06	1.274276e-06	2.730985e-10	8.841617e+00	1.852354e+01
2.130000e-06	1.319795e-06	2.945612e-10	9.157454e+00	2.023955e+01
2.140000e-06	1.365271e-06	3.148253e-10	9.472995e+00	2.193671e+01
2.150000e-06	1.410600e-06	3.356610e-10	9.787509e+00	2.361302e+01
2.160000e-06	1.455849e-06	3.592709e-10	1.010147e+01	2.526664e+01
2.170000e-06	1.501082e-06	3.832195e-10	1.041532e+01	2.689591e+01
2.180000e-06	1.546218e-06	4.054898e-10	1.072850e+01	2.849937e+01
2.190000e-06	1.591228e-06	4.271614e-10	1.104081e+01	3.007574e+01
2.200000e-06	1.636051e-06	4.480981e-10	1.135182e+01	3.162391e+01
2.210000e-06	1.680727e-06	4.681638e-10	1.166180e+01	3.314296e+01
2.220000e-06	1.725317e-06	4.872890e-10	1.197119e+01	3.463217e+01
2.230000e-06	1.769774e-06	5.054655e-10	1.227966e+01	3.609095e+01
2.240000e-06	1.814048e-06	5.228520e-10	1.258685e+01	3.751890e+01
2.250000e-06	1.858214e-06	5.400388e-10	1.289330e+01	3.891574e+01
2.260000e-06	1.902216e-06	5.599187e-10	1.319861e+01	4.028136e+01
2.270000e-06	1.946035e-06	5.823172e-10	1.350265e+01	4.161574e+01
2.280000e-06	1.989811e-06	6.033685e-10	1.380639e+01	4.291898e+01
2.290000e-06	2.033552e-06	6.224539e-10	1.410989e+01	4.419128e+01
2.300000e-06	2.077227e-06	6.406592e-10	1.441293e+01	4.543292e+01
2.310000e-06	2.120834e-06	6.576024e-10	1.471550e+01	4.664424e+01
2.320000e-06	2.164399e-06	6.723903e-10	1.501778e+01	4.782563e+01
2.330000e-06	2.207849e-06	6.866887e-10	1.531926e+01	4.897755e+01
2.340000e-06	2.251241e-06	7.027787e-10	1.562034e+01	5.010044e+01
2.350000e-06	2.294556e-06	7.205301e-10	1.592088e+01	5.119481e+01
2.360000e-06	2.337612e-06	7.375414e-10	1.621962e+01	5.226115e+01
2.370000e-06	2.380434e-06	7.516579e-10	1.651674e+01	5.329997e+01
2.380000e-06	2.423051e-06	7.640024e-10	1.681245e+01	5.431177e+01
2.390000e-06	2.465368e-06	7.765385e-10	1.710606e+01	5.529704e+01
2.400000e-06	2.507475e-06	7.894648e-10	1.739823e+01	5.625629e+01
2.410000e-06	2.549278e-06	8.033550e-10	1.768828e+01	5.718998e+01
2.420000e-06	2.590672e-06	8.178112e-10	1.797549e+01	5.809858e+01
2.430000e-06	2.631784e-06	8.319911e-10	1.826075e+01	5.898255e+01
2.440000e-06	2.672587e-06	8.454176e-10	1.854386e+01	5.984234e+01
2.450000e-06	2.713084e-06	8.573411e-10	1.882485e+01	6.067841e+01
2.460000e-06	2.753325e-06	8.666907e-10	1.910407e+01	6.149119e+01
2.470000e-06	2.793410e-06	8.753530e-10	1.938220e+01	6.228112e+01
2.480000e-06	2.833350e-06	8.861232e-10	1.965932e+01	6.304866e+01
2.490000e-06	2.873118e-06	8.985926e-10	1.993526e+01	6.379428e+01
2.500000e-06	2.912784e-06	9.110905e-10	2.021048e+01	6.451843e+01
2.510000e-06	2.952321e-06	9.238648e-10	2.048481e+01	6.522160e+01
2.520000e-06	2.991672e-06	9.343762e-10	2.075785e+01	6.590430e+01
2.530000e-06	3.030892e-06	9.420129e-10	2.102998e+01	6.656705e+01
2.540000e-06	3.069935e-06	9.501643e-10	2.130088e+01	6.721038e+01
2.550000e-06	3.108724e-06	9.586912e-10	2.157002e+01	6.783485e+01
2.560000e-06	3.147255e-06	9.669106e-10	2.183736e+01	6.844105e+01
2.570000e-06	3.185559e-06	9.747631e-10	2.210314e+01	6.902955e+01
2.580000e-06	3.223677e-06	9.822991e-10	2.236763e+01	6.960097e+01
2.590000e-06	3.261594e-06	9.907016e-10	2.263071e+01	7.015592e+01
2.600000e-06	3.299288e-06	9.989676e-10	2.289225e+01	7.069502e+01
2.610000e-06	3.336772e-06	1.005662e-09	2.315234e+01	7.121888e+01
2.620000e-06	3.374015e-06	1.013010e-09	2.341075e+01	7.172811e+01
2.630000e-06	3.411051e-06	1.020483e-09	2.366773e+01	7.222331e+01
2.640000e-06	3.447852e-06	1.025795e-09	2.392307e+01	7.270506e+01
2.650000e-06	3.484315e-06	1.029325e-09	2.417607e+01	7.317393e+01
2.660000e-06	3.520510e-06	1.034167e-09	2.442721e+01	7.363043e+01
2.670000e-06	3.556491e-06	1.039983e-09	2.467687e+01	7.407506e+01
2.680000e-06	3.592285e-06	1.044913e-09	2.492523e+01	7.450826e+01
2.690000e-06	3.627981e-06	1.051131e-09	2.517291e+01	7.493045e+01
2.700000e-06	3.663592e-06	1.057522e-09	2.541999e+01	7.534198e+01
2.710000e-06	3.699078e-06	1.062209e-09	2.566621e+01	7.574318e+01
2.720000e-06	3.734372e-06	1.068976e-09	2.591111e+01	7.613429e+01
2.730000e-06	3.769382e-06	1.077829e-09	2.615402e+01	7.651552e+01
2.740000e-06	3.804123e-06	1.084668e-09	2.639508e+01	7.688705e+01
2.750000e-06	3.838464e-06	1.089770e-09	2.663335e+01	7.724897e+01
2.760000e-06	3.872302e-06	1.094410e-09	2.686814e+01	7.760137e+01
2.770000e-06	3.905602e-06	1.098282e-09	2.709919e+01	7.794428e+01
2.780000e-06	3.938368e-06	1.101398e-09	2.732654e+01	7.827769e+01
2.790000e-06	3.970751e-06	1.105190e-09	2.755123e+01	7.860157e+01
2.800000e-06	4.002800e-06	1.110212e-09	2.777360e+01	7.891589e+01
2.810000e-06	4.034612e-06	1.115123e-09	2.799433e+01	7.922058e+01
2.820000e-06	4.066285e-06	1.121202e-09	2.821410e+01	7.951557e+01
2.830000e-06	4.097841e-06	1.127955e-09	2.843305e+01	7.980080e+01
2.840000e-06	4.129238e-06	1.133465e-09	2.865090e+01	8.007624e+01
2.850000e-06	4.160403e-06	1.137171e-09	2.886714e+01	8.034183e+01
2.860000e-06	4.191275e-06	1.141264e-09	2.908134e+01	8.059759e+01
2.870000e-06	4.221869e-06	1.147496e-09	2.929362e+01	8.084354e+01
2.880000e-06	4.252146e-06	1.154835e-09	2.950371e+01	8.107975e+01
2.890000e-06	4.281992e-06	1.161785e-09	2.971079e+01	8.130632e+01
2.900000e-06	4.311468e-06	1.167456e-09	2.991531e+01	8.152341e+01
