# Temperatura_=_14.9
# Concentracion g/m^3_=_1620.0
# C_Vs_to_Am_M_A/Vsm_=_65563218390.804596
# pendiente_HvsI_1/m_=_3716.3
# ordenada_HvsI_A/m_=_1297.0
# frecuencia_Hz_=_135098.38732012382

Tiempo_(s)	Campo_(V.s)	Magnetizacion_(V.s)	Campo_(kA/m)	Magnetizacion_(A/m)
0.000000e+00	-5.531136e-06	-1.485972e-09	-3.836240e+01	-9.997846e+01
1.000000e-08	-5.531418e-06	-1.482206e-09	-3.836436e+01	-9.994638e+01
2.000000e-08	-5.531479e-06	-1.479311e-09	-3.836479e+01	-9.991359e+01
3.000000e-08	-5.531266e-06	-1.475889e-09	-3.836331e+01	-9.988003e+01
4.000000e-08	-5.530556e-06	-1.476246e-09	-3.835838e+01	-9.984561e+01
5.000000e-08	-5.529303e-06	-1.478131e-09	-3.834969e+01	-9.981024e+01
6.000000e-08	-5.527567e-06	-1.481649e-09	-3.833765e+01	-9.977384e+01
7.000000e-08	-5.525159e-06	-1.506151e-09	-3.832095e+01	-9.973627e+01
8.000000e-08	-5.522184e-06	-1.503737e-09	-3.830032e+01	-9.969744e+01
9.000000e-08	-5.518852e-06	-1.407399e-09	-3.827720e+01	-9.965722e+01
1.000000e-07	-5.515125e-06	-1.375017e-09	-3.825136e+01	-9.961545e+01
1.100000e-07	-5.510980e-06	-1.525997e-09	-3.822261e+01	-9.957199e+01
1.200000e-07	-5.506452e-06	-1.573596e-09	-3.819121e+01	-9.952667e+01
1.300000e-07	-5.501716e-06	-1.456456e-09	-3.815835e+01	-9.947932e+01
1.400000e-07	-5.496725e-06	-1.351970e-09	-3.812374e+01	-9.942974e+01
1.500000e-07	-5.491369e-06	-1.494318e-09	-3.808659e+01	-9.937773e+01
1.600000e-07	-5.485553e-06	-1.604469e-09	-3.804625e+01	-9.932307e+01
1.700000e-07	-5.479292e-06	-1.459979e-09	-3.800283e+01	-9.926554e+01
1.800000e-07	-5.472679e-06	-1.367552e-09	-3.795696e+01	-9.920489e+01
1.900000e-07	-5.465676e-06	-1.459435e-09	-3.790839e+01	-9.914088e+01
2.000000e-07	-5.458311e-06	-1.592681e-09	-3.785731e+01	-9.907327e+01
2.100000e-07	-5.450658e-06	-1.505355e-09	-3.780423e+01	-9.900181e+01
2.200000e-07	-5.442803e-06	-1.437538e-09	-3.774975e+01	-9.892622e+01
2.300000e-07	-5.434594e-06	-1.466237e-09	-3.769281e+01	-9.884628e+01
2.400000e-07	-5.425930e-06	-1.546563e-09	-3.763273e+01	-9.876174e+01
2.500000e-07	-5.416863e-06	-1.502804e-09	-3.756984e+01	-9.867236e+01
2.600000e-07	-5.407132e-06	-1.465436e-09	-3.750235e+01	-9.857794e+01
2.700000e-07	-5.396630e-06	-1.466142e-09	-3.742951e+01	-9.847827e+01
2.800000e-07	-5.385599e-06	-1.501270e-09	-3.735300e+01	-9.837318e+01
2.900000e-07	-5.374178e-06	-1.472319e-09	-3.727379e+01	-9.826252e+01
3.000000e-07	-5.362394e-06	-1.432005e-09	-3.719206e+01	-9.814617e+01
3.100000e-07	-5.350221e-06	-1.449332e-09	-3.710763e+01	-9.802404e+01
3.200000e-07	-5.337701e-06	-1.500272e-09	-3.702079e+01	-9.789609e+01
3.300000e-07	-5.324711e-06	-1.489959e-09	-3.693070e+01	-9.776230e+01
3.400000e-07	-5.311277e-06	-1.421515e-09	-3.683752e+01	-9.762268e+01
3.500000e-07	-5.297490e-06	-1.452201e-09	-3.674190e+01	-9.747731e+01
3.600000e-07	-5.283302e-06	-1.488686e-09	-3.664350e+01	-9.732627e+01
3.700000e-07	-5.268540e-06	-1.436231e-09	-3.654111e+01	-9.716971e+01
3.800000e-07	-5.253237e-06	-1.409545e-09	-3.643498e+01	-9.700780e+01
3.900000e-07	-5.237515e-06	-1.499860e-09	-3.632593e+01	-9.684074e+01
4.000000e-07	-5.221277e-06	-1.455861e-09	-3.621331e+01	-9.666878e+01
4.100000e-07	-5.204584e-06	-1.372846e-09	-3.609753e+01	-9.649219e+01
4.200000e-07	-5.187575e-06	-1.454082e-09	-3.597956e+01	-9.631124e+01
4.300000e-07	-5.170390e-06	-1.517628e-09	-3.586037e+01	-9.612626e+01
4.400000e-07	-5.152824e-06	-1.365318e-09	-3.573854e+01	-9.593756e+01
4.500000e-07	-5.134803e-06	-1.369626e-09	-3.561355e+01	-9.574547e+01
4.600000e-07	-5.116470e-06	-1.503008e-09	-3.548640e+01	-9.555033e+01
4.700000e-07	-5.097787e-06	-1.436733e-09	-3.535681e+01	-9.535247e+01
4.800000e-07	-5.078697e-06	-1.324221e-09	-3.522442e+01	-9.515219e+01
4.900000e-07	-5.059392e-06	-1.453930e-09	-3.509052e+01	-9.494983e+01
5.000000e-07	-5.039887e-06	-1.464236e-09	-3.495524e+01	-9.474565e+01
5.100000e-07	-5.020038e-06	-1.340180e-09	-3.481757e+01	-9.453991e+01
5.200000e-07	-4.999919e-06	-1.409801e-09	-3.467803e+01	-9.433286e+01
5.300000e-07	-4.979500e-06	-1.498221e-09	-3.453641e+01	-9.412469e+01
5.400000e-07	-4.958658e-06	-1.354550e-09	-3.439186e+01	-9.391557e+01
5.500000e-07	-4.937426e-06	-1.338920e-09	-3.424460e+01	-9.370561e+01
5.600000e-07	-4.915902e-06	-1.464010e-09	-3.409531e+01	-9.349491e+01
5.700000e-07	-4.894056e-06	-1.400206e-09	-3.394380e+01	-9.328350e+01
5.800000e-07	-4.871838e-06	-1.316260e-09	-3.378970e+01	-9.307138e+01
5.900000e-07	-4.849310e-06	-1.417208e-09	-3.363345e+01	-9.285853e+01
6.000000e-07	-4.826469e-06	-1.420115e-09	-3.347503e+01	-9.264486e+01
6.100000e-07	-4.803254e-06	-1.321683e-09	-3.331402e+01	-9.243026e+01
6.200000e-07	-4.779775e-06	-1.368875e-09	-3.315118e+01	-9.221459e+01
6.300000e-07	-4.756073e-06	-1.411184e-09	-3.298679e+01	-9.199766e+01
6.400000e-07	-4.732152e-06	-1.342149e-09	-3.282088e+01	-9.177929e+01
6.500000e-07	-4.707980e-06	-1.344487e-09	-3.265323e+01	-9.155924e+01
6.600000e-07	-4.683359e-06	-1.397667e-09	-3.248246e+01	-9.133729e+01
6.700000e-07	-4.658141e-06	-1.351580e-09	-3.230756e+01	-9.111319e+01
6.800000e-07	-4.632301e-06	-1.334618e-09	-3.212834e+01	-9.088669e+01
6.900000e-07	-4.605958e-06	-1.373578e-09	-3.194563e+01	-9.065755e+01
7.000000e-07	-4.579145e-06	-1.360094e-09	-3.175966e+01	-9.042551e+01
7.100000e-07	-4.551908e-06	-1.321891e-09	-3.157076e+01	-9.019034e+01
7.200000e-07	-4.524448e-06	-1.348403e-09	-3.138030e+01	-8.995184e+01
7.300000e-07	-4.496817e-06	-1.347568e-09	-3.118866e+01	-8.970979e+01
7.400000e-07	-4.468960e-06	-1.322818e-09	-3.099545e+01	-8.946402e+01
7.500000e-07	-4.440867e-06	-1.324991e-09	-3.080060e+01	-8.921438e+01
7.600000e-07	-4.412576e-06	-1.336016e-09	-3.060439e+01	-8.896074e+01
7.700000e-07	-4.383974e-06	-1.312847e-09	-3.040601e+01	-8.870300e+01
7.800000e-07	-4.355038e-06	-1.313875e-09	-3.020532e+01	-8.844109e+01
7.900000e-07	-4.325846e-06	-1.319033e-09	-3.000285e+01	-8.817497e+01
8.000000e-07	-4.296316e-06	-1.304411e-09	-2.979804e+01	-8.790463e+01
8.100000e-07	-4.266529e-06	-1.294833e-09	-2.959144e+01	-8.763006e+01
8.200000e-07	-4.236539e-06	-1.308953e-09	-2.938344e+01	-8.735132e+01
8.300000e-07	-4.206146e-06	-1.298676e-09	-2.917265e+01	-8.706844e+01
8.400000e-07	-4.175321e-06	-1.285248e-09	-2.895886e+01	-8.678150e+01
8.500000e-07	-4.144210e-06	-1.291765e-09	-2.874307e+01	-8.649057e+01
8.600000e-07	-4.112905e-06	-1.287484e-09	-2.852596e+01	-8.619576e+01
8.700000e-07	-4.081428e-06	-1.264246e-09	-2.830763e+01	-8.589716e+01
8.800000e-07	-4.049800e-06	-1.262813e-09	-2.808827e+01	-8.559486e+01
8.900000e-07	-4.018007e-06	-1.266350e-09	-2.786777e+01	-8.528896e+01
9.000000e-07	-3.986047e-06	-1.250022e-09	-2.764610e+01	-8.497955e+01
9.100000e-07	-3.953872e-06	-1.247383e-09	-2.742295e+01	-8.466671e+01
9.200000e-07	-3.921275e-06	-1.256226e-09	-2.719686e+01	-8.435049e+01
9.300000e-07	-3.888224e-06	-1.244456e-09	-2.696763e+01	-8.403096e+01
9.400000e-07	-3.854693e-06	-1.228060e-09	-2.673507e+01	-8.370814e+01
9.500000e-07	-3.820771e-06	-1.234135e-09	-2.649979e+01	-8.338203e+01
9.600000e-07	-3.786480e-06	-1.223127e-09	-2.626196e+01	-8.305264e+01
9.700000e-07	-3.751674e-06	-1.200623e-09	-2.602056e+01	-8.271992e+01
9.800000e-07	-3.716507e-06	-1.196838e-09	-2.577665e+01	-8.238382e+01
9.900000e-07	-3.681154e-06	-1.200769e-09	-2.553145e+01	-8.204428e+01
1.000000e-06	-3.645611e-06	-1.183989e-09	-2.528493e+01	-8.170119e+01
1.010000e-06	-3.609907e-06	-1.178544e-09	-2.503730e+01	-8.135446e+01
1.020000e-06	-3.574013e-06	-1.180957e-09	-2.478835e+01	-8.100395e+01
1.030000e-06	-3.537906e-06	-1.171398e-09	-2.453792e+01	-8.064953e+01
1.040000e-06	-3.501694e-06	-1.158369e-09	-2.428676e+01	-8.029107e+01
1.050000e-06	-3.465286e-06	-1.161760e-09	-2.403425e+01	-7.992840e+01
1.060000e-06	-3.428580e-06	-1.154546e-09	-2.377967e+01	-7.956139e+01
1.070000e-06	-3.391574e-06	-1.141890e-09	-2.352301e+01	-7.918988e+01
1.080000e-06	-3.354245e-06	-1.137751e-09	-2.326410e+01	-7.881373e+01
1.090000e-06	-3.316655e-06	-1.137032e-09	-2.300339e+01	-7.843280e+01
1.100000e-06	-3.278891e-06	-1.124137e-09	-2.274146e+01	-7.804696e+01
1.110000e-06	-3.240931e-06	-1.115760e-09	-2.247819e+01	-7.765611e+01
1.120000e-06	-3.202747e-06	-1.113792e-09	-2.221335e+01	-7.726013e+01
1.130000e-06	-3.164346e-06	-1.106771e-09	-2.194701e+01	-7.685896e+01
1.140000e-06	-3.125721e-06	-1.098743e-09	-2.167912e+01	-7.645252e+01
1.150000e-06	-3.086924e-06	-1.098963e-09	-2.141004e+01	-7.604076e+01
1.160000e-06	-3.047908e-06	-1.092817e-09	-2.113944e+01	-7.562365e+01
1.170000e-06	-3.008640e-06	-1.079177e-09	-2.086708e+01	-7.520118e+01
1.180000e-06	-2.969225e-06	-1.071199e-09	-2.059371e+01	-7.477334e+01
1.190000e-06	-2.929709e-06	-1.065086e-09	-2.031964e+01	-7.434015e+01
1.200000e-06	-2.889996e-06	-1.056115e-09	-2.004420e+01	-7.390162e+01
1.210000e-06	-2.850126e-06	-1.049442e-09	-1.976767e+01	-7.345778e+01
1.220000e-06	-2.810187e-06	-1.046045e-09	-1.949067e+01	-7.300866e+01
1.230000e-06	-2.770106e-06	-1.036398e-09	-1.921268e+01	-7.255430e+01
1.240000e-06	-2.729852e-06	-1.028244e-09	-1.893349e+01	-7.209473e+01
1.250000e-06	-2.689404e-06	-1.023325e-09	-1.865295e+01	-7.162998e+01
1.260000e-06	-2.648747e-06	-1.019075e-09	-1.837097e+01	-7.116005e+01
1.270000e-06	-2.607861e-06	-1.010882e-09	-1.808739e+01	-7.068496e+01
1.280000e-06	-2.566571e-06	-1.005338e-09	-1.780102e+01	-7.020469e+01
1.290000e-06	-2.524846e-06	-1.000467e-09	-1.751162e+01	-6.971920e+01
1.300000e-06	-2.482773e-06	-9.905557e-10	-1.721982e+01	-6.922845e+01
1.310000e-06	-2.440508e-06	-9.773388e-10	-1.692668e+01	-6.873236e+01
1.320000e-06	-2.398101e-06	-9.686058e-10	-1.663256e+01	-6.823084e+01
1.330000e-06	-2.355456e-06	-9.596820e-10	-1.633678e+01	-6.772376e+01
1.340000e-06	-2.312646e-06	-9.533551e-10	-1.603986e+01	-6.721097e+01
1.350000e-06	-2.269563e-06	-9.499284e-10	-1.574105e+01	-6.669229e+01
1.360000e-06	-2.226185e-06	-9.442122e-10	-1.544020e+01	-6.616753e+01
1.370000e-06	-2.182668e-06	-9.327342e-10	-1.513837e+01	-6.563647e+01
1.380000e-06	-2.139072e-06	-9.223660e-10	-1.483600e+01	-6.509887e+01
1.390000e-06	-2.095386e-06	-9.108477e-10	-1.453301e+01	-6.455444e+01
1.400000e-06	-2.051600e-06	-8.962278e-10	-1.422932e+01	-6.400293e+01
1.410000e-06	-2.007751e-06	-8.841053e-10	-1.392520e+01	-6.344401e+01
1.420000e-06	-1.963783e-06	-8.792732e-10	-1.362025e+01	-6.287739e+01
1.430000e-06	-1.919698e-06	-8.759325e-10	-1.331448e+01	-6.230273e+01
1.440000e-06	-1.875522e-06	-8.730406e-10	-1.300810e+01	-6.171970e+01
1.450000e-06	-1.831215e-06	-8.666917e-10	-1.270079e+01	-6.112796e+01
1.460000e-06	-1.786759e-06	-8.550595e-10	-1.239246e+01	-6.052714e+01
1.470000e-06	-1.742112e-06	-8.385841e-10	-1.208280e+01	-5.991690e+01
1.480000e-06	-1.697402e-06	-8.222478e-10	-1.177270e+01	-5.929686e+01
1.490000e-06	-1.652678e-06	-8.091601e-10	-1.146251e+01	-5.866667e+01
1.500000e-06	-1.607834e-06	-8.000138e-10	-1.115149e+01	-5.802593e+01
1.510000e-06	-1.562841e-06	-7.931697e-10	-1.083942e+01	-5.737427e+01
1.520000e-06	-1.517711e-06	-7.875020e-10	-1.052642e+01	-5.671129e+01
1.530000e-06	-1.472496e-06	-7.787535e-10	-1.021282e+01	-5.603658e+01
1.540000e-06	-1.427124e-06	-7.640451e-10	-9.898133e+00	-5.534971e+01
1.550000e-06	-1.381670e-06	-7.477498e-10	-9.582872e+00	-5.465025e+01
1.560000e-06	-1.336142e-06	-7.315524e-10	-9.267105e+00	-5.393771e+01
1.570000e-06	-1.290495e-06	-7.169229e-10	-8.950507e+00	-5.321162e+01
1.580000e-06	-1.244795e-06	-7.033993e-10	-8.633545e+00	-5.247144e+01
1.590000e-06	-1.199049e-06	-6.954700e-10	-8.316270e+00	-5.171661e+01
1.600000e-06	-1.153264e-06	-6.898328e-10	-7.998715e+00	-5.094653e+01
1.610000e-06	-1.107367e-06	-6.808540e-10	-7.680389e+00	-5.016055e+01
1.620000e-06	-1.061380e-06	-6.668949e-10	-7.361433e+00	-4.935798e+01
1.630000e-06	-1.015345e-06	-6.545559e-10	-7.042146e+00	-4.853808e+01
1.640000e-06	-9.692830e-07	-6.427955e-10	-6.722675e+00	-4.770007e+01
1.650000e-06	-9.230809e-07	-6.291473e-10	-6.402230e+00	-4.684309e+01
1.660000e-06	-8.767079e-07	-6.136275e-10	-6.080600e+00	-4.596625e+01
1.670000e-06	-8.302887e-07	-5.979823e-10	-5.758649e+00	-4.506861e+01
1.680000e-06	-7.838226e-07	-5.807754e-10	-5.436373e+00	-4.414918e+01
1.690000e-06	-7.373116e-07	-5.635425e-10	-5.113786e+00	-4.320694e+01
1.700000e-06	-6.907393e-07	-5.476169e-10	-4.790773e+00	-4.224082e+01
1.710000e-06	-6.441021e-07	-5.329836e-10	-4.467311e+00	-4.124972e+01
1.720000e-06	-5.975304e-07	-5.182106e-10	-4.144303e+00	-4.023254e+01
1.730000e-06	-5.510013e-07	-5.040470e-10	-3.821590e+00	-3.918815e+01
1.740000e-06	-5.043198e-07	-4.882634e-10	-3.497820e+00	-3.811544e+01
1.750000e-06	-4.575772e-07	-4.713431e-10	-3.173627e+00	-3.701331e+01
1.760000e-06	-4.107806e-07	-4.517893e-10	-2.849059e+00	-3.588070e+01
1.770000e-06	-3.639034e-07	-4.315489e-10	-2.523932e+00	-3.471657e+01
1.780000e-06	-3.170003e-07	-4.127747e-10	-2.198625e+00	-3.351996e+01
1.790000e-06	-2.700601e-07	-3.957109e-10	-1.873061e+00	-3.228999e+01
1.800000e-06	-2.231187e-07	-3.812912e-10	-1.547489e+00	-3.102586e+01
1.810000e-06	-1.761843e-07	-3.655803e-10	-1.221965e+00	-2.972689e+01
1.820000e-06	-1.292520e-07	-3.467142e-10	-8.964554e-01	-2.839251e+01
1.830000e-06	-8.236973e-08	-3.274535e-10	-5.712933e-01	-2.702231e+01
1.840000e-06	-3.549398e-08	-3.102823e-10	-2.461763e-01	-2.561601e+01
1.850000e-06	1.148250e-08	-2.934366e-10	7.963937e-02	-2.417352e+01
1.860000e-06	5.852576e-08	-2.717327e-10	4.059182e-01	-2.269492e+01
1.870000e-06	1.055394e-07	-2.461537e-10	7.319914e-01	-2.118046e+01
1.880000e-06	1.524321e-07	-2.228956e-10	1.057226e+00	-1.963062e+01
1.890000e-06	1.992986e-07	-2.022235e-10	1.382279e+00	-1.804606e+01
1.900000e-06	2.461903e-07	-1.852307e-10	1.707507e+00	-1.642764e+01
1.910000e-06	2.930872e-07	-1.665414e-10	2.032770e+00	-1.477644e+01
1.920000e-06	3.399303e-07	-1.480231e-10	2.357661e+00	-1.309374e+01
1.930000e-06	3.866870e-07	-1.270465e-10	2.681953e+00	-1.138103e+01
1.940000e-06	4.334485e-07	-1.015888e-10	3.006277e+00	-9.639991e+00
1.950000e-06	4.802422e-07	-7.563871e-11	3.330825e+00	-7.872478e+00
1.960000e-06	5.270191e-07	-5.026871e-11	3.655257e+00	-6.080537e+00
1.970000e-06	5.736848e-07	-2.776059e-11	3.978916e+00	-4.266372e+00
1.980000e-06	6.203292e-07	-4.883662e-12	4.302429e+00	-2.432334e+00
1.990000e-06	6.669661e-07	1.640491e-11	4.625889e+00	-5.809065e-01
2.000000e-06	7.134832e-07	4.109564e-11	4.948519e+00	1.285319e+00
2.010000e-06	7.598825e-07	7.242056e-11	5.270331e+00	3.163657e+00
2.020000e-06	8.063017e-07	1.058040e-10	5.592282e+00	5.051353e+00
2.030000e-06	8.527470e-07	1.343824e-10	5.914414e+00	6.945603e+00
2.040000e-06	8.989972e-07	1.583395e-10	6.235192e+00	8.843577e+00
2.050000e-06	9.451410e-07	1.792557e-10	6.555232e+00	1.074244e+01
2.060000e-06	9.913624e-07	2.021177e-10	6.875811e+00	1.263938e+01
2.070000e-06	1.037489e-06	2.274848e-10	7.195734e+00	1.453162e+01
2.080000e-06	1.083432e-06	2.537208e-10	7.514377e+00	1.641644e+01
2.090000e-06	1.129250e-06	2.832735e-10	7.832160e+00	1.829121e+01
2.100000e-06	1.174972e-06	3.109869e-10	8.149274e+00	2.015339e+01
2.110000e-06	1.220622e-06	3.345829e-10	8.465893e+00	2.200057e+01
2.120000e-06	1.266224e-06	3.567730e-10	8.782172e+00	2.383044e+01
2.130000e-06	1.311767e-06	3.798050e-10	9.098045e+00	2.564086e+01
2.140000e-06	1.357228e-06	4.004806e-10	9.413354e+00	2.742983e+01
2.150000e-06	1.402565e-06	4.200173e-10	9.727797e+00	2.919552e+01
2.160000e-06	1.447772e-06	4.450846e-10	1.004134e+01	3.093626e+01
2.170000e-06	1.492945e-06	4.747143e-10	1.035464e+01	3.265057e+01
2.180000e-06	1.538026e-06	5.017762e-10	1.066732e+01	3.433711e+01
2.190000e-06	1.582999e-06	5.256887e-10	1.097923e+01	3.599474e+01
2.200000e-06	1.627851e-06	5.474973e-10	1.129031e+01	3.762248e+01
2.210000e-06	1.672579e-06	5.671690e-10	1.160054e+01	3.921954e+01
2.220000e-06	1.717188e-06	5.824768e-10	1.190994e+01	4.078526e+01
2.230000e-06	1.761637e-06	5.979808e-10	1.221822e+01	4.231915e+01
2.240000e-06	1.805954e-06	6.166812e-10	1.252559e+01	4.382086e+01
2.250000e-06	1.850097e-06	6.374118e-10	1.283175e+01	4.529018e+01
2.260000e-06	1.894061e-06	6.587724e-10	1.313668e+01	4.672702e+01
2.270000e-06	1.937958e-06	6.823342e-10	1.344113e+01	4.813142e+01
2.280000e-06	1.981823e-06	7.047598e-10	1.374537e+01	4.950349e+01
2.290000e-06	2.025668e-06	7.254737e-10	1.404946e+01	5.084347e+01
2.300000e-06	2.069493e-06	7.445049e-10	1.435342e+01	5.215165e+01
2.310000e-06	2.113265e-06	7.604698e-10	1.465701e+01	5.342840e+01
2.320000e-06	2.156952e-06	7.760745e-10	1.496001e+01	5.467415e+01
2.330000e-06	2.200540e-06	7.912659e-10	1.526233e+01	5.588937e+01
2.340000e-06	2.243979e-06	8.057415e-10	1.556361e+01	5.707458e+01
2.350000e-06	2.287252e-06	8.211762e-10	1.586374e+01	5.823030e+01
2.360000e-06	2.330413e-06	8.386769e-10	1.616309e+01	5.935712e+01
2.370000e-06	2.373393e-06	8.557075e-10	1.646118e+01	6.045560e+01
2.380000e-06	2.416116e-06	8.697498e-10	1.675750e+01	6.152634e+01
2.390000e-06	2.458525e-06	8.827238e-10	1.705164e+01	6.256994e+01
2.400000e-06	2.500590e-06	8.942613e-10	1.734339e+01	6.358699e+01
2.410000e-06	2.542337e-06	9.045705e-10	1.763293e+01	6.457810e+01
2.420000e-06	2.583732e-06	9.183929e-10	1.792004e+01	6.554385e+01
2.430000e-06	2.624764e-06	9.344638e-10	1.820462e+01	6.648485e+01
2.440000e-06	2.665439e-06	9.494535e-10	1.848674e+01	6.740169e+01
2.450000e-06	2.705836e-06	9.626171e-10	1.876692e+01	6.829495e+01
2.460000e-06	2.746071e-06	9.747347e-10	1.904597e+01	6.916521e+01
2.470000e-06	2.786218e-06	9.854222e-10	1.932443e+01	7.001306e+01
2.480000e-06	2.826228e-06	9.963152e-10	1.960192e+01	7.083908e+01
2.490000e-06	2.866081e-06	1.008280e-09	1.987833e+01	7.164384e+01
2.500000e-06	2.905759e-06	1.019936e-09	2.015353e+01	7.242792e+01
2.510000e-06	2.945299e-06	1.030843e-09	2.042777e+01	7.319190e+01
2.520000e-06	2.984825e-06	1.041477e-09	2.070191e+01	7.393636e+01
2.530000e-06	3.024262e-06	1.050952e-09	2.097543e+01	7.466186e+01
2.540000e-06	3.063413e-06	1.059665e-09	2.124697e+01	7.536898e+01
2.550000e-06	3.102214e-06	1.067098e-09	2.151608e+01	7.605829e+01
2.560000e-06	3.140773e-06	1.073890e-09	2.178352e+01	7.673035e+01
2.570000e-06	3.179089e-06	1.083177e-09	2.204927e+01	7.738572e+01
2.580000e-06	3.217207e-06	1.093430e-09	2.231364e+01	7.802494e+01
2.590000e-06	3.255127e-06	1.102159e-09	2.257664e+01	7.864854e+01
2.600000e-06	3.292796e-06	1.110606e-09	2.283791e+01	7.925704e+01
2.610000e-06	3.330324e-06	1.118998e-09	2.309819e+01	7.985094e+01
2.620000e-06	3.367709e-06	1.126330e-09	2.335748e+01	8.043071e+01
2.630000e-06	3.404798e-06	1.132590e-09	2.361472e+01	8.099679e+01
2.640000e-06	3.441585e-06	1.138427e-09	2.386986e+01	8.154960e+01
2.650000e-06	3.478079e-06	1.141840e-09	2.412298e+01	8.208953e+01
2.660000e-06	3.514366e-06	1.145112e-09	2.437465e+01	8.261694e+01
2.670000e-06	3.550481e-06	1.152698e-09	2.462514e+01	8.313213e+01
2.680000e-06	3.586379e-06	1.161097e-09	2.487412e+01	8.363538e+01
2.690000e-06	3.622155e-06	1.168264e-09	2.512225e+01	8.412694e+01
2.700000e-06	3.657848e-06	1.175214e-09	2.536981e+01	8.460701e+01
2.710000e-06	3.693402e-06	1.180288e-09	2.561640e+01	8.507574e+01
2.720000e-06	3.728771e-06	1.185041e-09	2.586171e+01	8.553327e+01
2.730000e-06	3.763914e-06	1.191594e-09	2.610545e+01	8.597971e+01
2.740000e-06	3.798717e-06	1.198094e-09	2.634683e+01	8.641511e+01
2.750000e-06	3.833004e-06	1.205456e-09	2.658464e+01	8.683951e+01
2.760000e-06	3.866786e-06	1.214563e-09	2.681894e+01	8.725296e+01
2.770000e-06	3.900136e-06	1.223245e-09	2.705025e+01	8.765544e+01
2.780000e-06	3.932999e-06	1.230391e-09	2.727817e+01	8.804697e+01
2.790000e-06	3.965448e-06	1.237575e-09	2.750324e+01	8.842754e+01
2.800000e-06	3.997623e-06	1.244050e-09	2.772639e+01	8.879716e+01
2.810000e-06	4.029576e-06	1.249385e-09	2.794801e+01	8.915583e+01
2.820000e-06	4.061340e-06	1.253726e-09	2.816831e+01	8.950359e+01
2.830000e-06	4.092994e-06	1.258806e-09	2.838786e+01	8.984050e+01
2.840000e-06	4.124511e-06	1.263673e-09	2.860645e+01	9.016664e+01
2.850000e-06	4.155749e-06	1.267233e-09	2.882311e+01	9.048212e+01
2.860000e-06	4.186696e-06	1.271864e-09	2.903775e+01	9.078711e+01
2.870000e-06	4.217350e-06	1.277414e-09	2.925036e+01	9.108181e+01
2.880000e-06	4.247616e-06	1.282109e-09	2.946027e+01	9.136648e+01
2.890000e-06	4.277561e-06	1.288193e-09	2.966796e+01	9.164140e+01
2.900000e-06	4.307248e-06	1.297294e-09	2.987386e+01	9.190694e+01
