# Temperatura_=_12.41
# Concentracion g/m^3_=_1620.0
# C_Vs_to_Am_M_A/Vsm_=_65563218390.804596
# pendiente_HvsI_1/m_=_3716.3
# ordenada_HvsI_A/m_=_1297.0
# frecuencia_Hz_=_135103.17325429188

Tiempo_(s)	Campo_(V.s)	Magnetizacion_(V.s)	Campo_(kA/m)	Magnetizacion_(A/m)
0.000000e+00	-5.511171e-06	-1.483082e-09	-3.837401e+01	-9.935961e+01
1.000000e-08	-5.511373e-06	-1.482825e-09	-3.837542e+01	-9.933402e+01
2.000000e-08	-5.511360e-06	-1.482208e-09	-3.837533e+01	-9.930985e+01
3.000000e-08	-5.511030e-06	-1.482363e-09	-3.837303e+01	-9.928708e+01
4.000000e-08	-5.510216e-06	-1.481262e-09	-3.836736e+01	-9.926562e+01
5.000000e-08	-5.508846e-06	-1.476710e-09	-3.835783e+01	-9.924527e+01
6.000000e-08	-5.506923e-06	-1.467870e-09	-3.834444e+01	-9.922579e+01
7.000000e-08	-5.504467e-06	-1.461948e-09	-3.832733e+01	-9.920681e+01
8.000000e-08	-5.501409e-06	-1.479946e-09	-3.830604e+01	-9.918793e+01
9.000000e-08	-5.497778e-06	-1.516342e-09	-3.828076e+01	-9.916862e+01
1.000000e-07	-5.493708e-06	-1.508263e-09	-3.825242e+01	-9.914831e+01
1.100000e-07	-5.489319e-06	-1.464787e-09	-3.822186e+01	-9.912635e+01
1.200000e-07	-5.484753e-06	-1.430780e-09	-3.819006e+01	-9.910203e+01
1.300000e-07	-5.479956e-06	-1.472681e-09	-3.815666e+01	-9.907459e+01
1.400000e-07	-5.474719e-06	-1.481993e-09	-3.812020e+01	-9.904325e+01
1.500000e-07	-5.469086e-06	-1.459980e-09	-3.808097e+01	-9.900717e+01
1.600000e-07	-5.463208e-06	-1.441365e-09	-3.804005e+01	-9.896551e+01
1.700000e-07	-5.456990e-06	-1.487855e-09	-3.799675e+01	-9.891746e+01
1.800000e-07	-5.450241e-06	-1.526404e-09	-3.794976e+01	-9.886218e+01
1.900000e-07	-5.443023e-06	-1.508147e-09	-3.789950e+01	-9.879890e+01
2.000000e-07	-5.435560e-06	-1.466826e-09	-3.784754e+01	-9.872687e+01
2.100000e-07	-5.427836e-06	-1.459477e-09	-3.779376e+01	-9.864542e+01
2.200000e-07	-5.419870e-06	-1.487547e-09	-3.773829e+01	-9.855396e+01
2.300000e-07	-5.411745e-06	-1.485519e-09	-3.768171e+01	-9.845197e+01
2.400000e-07	-5.403205e-06	-1.480018e-09	-3.762225e+01	-9.833904e+01
2.500000e-07	-5.393928e-06	-1.490702e-09	-3.755766e+01	-9.821487e+01
2.600000e-07	-5.383886e-06	-1.512188e-09	-3.748774e+01	-9.807930e+01
2.700000e-07	-5.373247e-06	-1.473528e-09	-3.741366e+01	-9.793227e+01
2.800000e-07	-5.362081e-06	-1.438367e-09	-3.733591e+01	-9.777387e+01
2.900000e-07	-5.350436e-06	-1.438305e-09	-3.725482e+01	-9.760430e+01
3.000000e-07	-5.338491e-06	-1.463946e-09	-3.717165e+01	-9.742391e+01
3.100000e-07	-5.326202e-06	-1.443874e-09	-3.708608e+01	-9.723319e+01
3.200000e-07	-5.313449e-06	-1.449451e-09	-3.699728e+01	-9.703273e+01
3.300000e-07	-5.300276e-06	-1.472424e-09	-3.690556e+01	-9.682325e+01
3.400000e-07	-5.286789e-06	-1.479866e-09	-3.681165e+01	-9.660557e+01
3.500000e-07	-5.272949e-06	-1.437979e-09	-3.671528e+01	-9.638061e+01
3.600000e-07	-5.258660e-06	-1.429057e-09	-3.661579e+01	-9.614935e+01
3.700000e-07	-5.244045e-06	-1.432407e-09	-3.651403e+01	-9.591287e+01
3.800000e-07	-5.228976e-06	-1.424946e-09	-3.640910e+01	-9.567225e+01
3.900000e-07	-5.213157e-06	-1.414884e-09	-3.629895e+01	-9.542863e+01
4.000000e-07	-5.196820e-06	-1.430773e-09	-3.618520e+01	-9.518314e+01
4.100000e-07	-5.180179e-06	-1.425032e-09	-3.606933e+01	-9.493692e+01
4.200000e-07	-5.163209e-06	-1.395758e-09	-3.595117e+01	-9.469104e+01
4.300000e-07	-5.145996e-06	-1.399055e-09	-3.583132e+01	-9.444656e+01
4.400000e-07	-5.128485e-06	-1.414836e-09	-3.570939e+01	-9.420445e+01
4.500000e-07	-5.110531e-06	-1.399795e-09	-3.558437e+01	-9.396560e+01
4.600000e-07	-5.092168e-06	-1.379693e-09	-3.545652e+01	-9.373079e+01
4.700000e-07	-5.073409e-06	-1.395071e-09	-3.532590e+01	-9.350070e+01
4.800000e-07	-5.054200e-06	-1.390224e-09	-3.519215e+01	-9.327587e+01
4.900000e-07	-5.034709e-06	-1.377302e-09	-3.505643e+01	-9.305672e+01
5.000000e-07	-5.015048e-06	-1.387865e-09	-3.491953e+01	-9.284351e+01
5.100000e-07	-4.995201e-06	-1.399089e-09	-3.478134e+01	-9.263638e+01
5.200000e-07	-4.975007e-06	-1.368411e-09	-3.464073e+01	-9.243531e+01
5.300000e-07	-4.954428e-06	-1.367949e-09	-3.449744e+01	-9.224012e+01
5.400000e-07	-4.933511e-06	-1.385635e-09	-3.435179e+01	-9.205053e+01
5.500000e-07	-4.912219e-06	-1.369648e-09	-3.420354e+01	-9.186609e+01
5.600000e-07	-4.890594e-06	-1.341045e-09	-3.405297e+01	-9.168624e+01
5.700000e-07	-4.868644e-06	-1.359363e-09	-3.390013e+01	-9.151034e+01
5.800000e-07	-4.846350e-06	-1.363556e-09	-3.374490e+01	-9.133760e+01
5.900000e-07	-4.823685e-06	-1.346473e-09	-3.358708e+01	-9.116719e+01
6.000000e-07	-4.800701e-06	-1.348652e-09	-3.342704e+01	-9.099821e+01
6.100000e-07	-4.777417e-06	-1.360225e-09	-3.326492e+01	-9.082970e+01
6.200000e-07	-4.753811e-06	-1.338912e-09	-3.310055e+01	-9.066070e+01
6.300000e-07	-4.730015e-06	-1.334886e-09	-3.293486e+01	-9.049023e+01
6.400000e-07	-4.706068e-06	-1.347318e-09	-3.276812e+01	-9.031731e+01
6.500000e-07	-4.681817e-06	-1.340011e-09	-3.259926e+01	-9.014102e+01
6.600000e-07	-4.657130e-06	-1.329203e-09	-3.242737e+01	-8.996046e+01
6.700000e-07	-4.631919e-06	-1.339345e-09	-3.225182e+01	-8.977482e+01
6.800000e-07	-4.606188e-06	-1.333945e-09	-3.207266e+01	-8.958334e+01
6.900000e-07	-4.579922e-06	-1.321902e-09	-3.188977e+01	-8.938539e+01
7.000000e-07	-4.553099e-06	-1.329305e-09	-3.170300e+01	-8.918040e+01
7.100000e-07	-4.525841e-06	-1.326081e-09	-3.151320e+01	-8.896794e+01
7.200000e-07	-4.498288e-06	-1.306141e-09	-3.132136e+01	-8.874769e+01
7.300000e-07	-4.470571e-06	-1.304697e-09	-3.112836e+01	-8.851943e+01
7.400000e-07	-4.442705e-06	-1.311013e-09	-3.093434e+01	-8.828308e+01
7.500000e-07	-4.414620e-06	-1.301316e-09	-3.073878e+01	-8.803866e+01
7.600000e-07	-4.386288e-06	-1.299614e-09	-3.054151e+01	-8.778632e+01
7.700000e-07	-4.357623e-06	-1.299738e-09	-3.034192e+01	-8.752628e+01
7.800000e-07	-4.328568e-06	-1.286920e-09	-3.013961e+01	-8.725888e+01
7.900000e-07	-4.299238e-06	-1.277198e-09	-2.993538e+01	-8.698455e+01
8.000000e-07	-4.269674e-06	-1.281676e-09	-2.972953e+01	-8.670376e+01
8.100000e-07	-4.239795e-06	-1.272083e-09	-2.952149e+01	-8.641705e+01
8.200000e-07	-4.209672e-06	-1.264317e-09	-2.931174e+01	-8.612501e+01
8.300000e-07	-4.179300e-06	-1.269268e-09	-2.910026e+01	-8.582825e+01
8.400000e-07	-4.148629e-06	-1.269037e-09	-2.888670e+01	-8.552736e+01
8.500000e-07	-4.117719e-06	-1.255004e-09	-2.867147e+01	-8.522297e+01
8.600000e-07	-4.086493e-06	-1.252853e-09	-2.845405e+01	-8.491565e+01
8.700000e-07	-4.054955e-06	-1.249438e-09	-2.823445e+01	-8.460595e+01
8.800000e-07	-4.023291e-06	-1.239441e-09	-2.801398e+01	-8.429436e+01
8.900000e-07	-3.991528e-06	-1.233854e-09	-2.779281e+01	-8.398131e+01
9.000000e-07	-3.959560e-06	-1.236440e-09	-2.757022e+01	-8.366718e+01
9.100000e-07	-3.927301e-06	-1.229134e-09	-2.734561e+01	-8.335223e+01
9.200000e-07	-3.894755e-06	-1.223220e-09	-2.711899e+01	-8.303667e+01
9.300000e-07	-3.861823e-06	-1.224861e-09	-2.688968e+01	-8.272060e+01
9.400000e-07	-3.828409e-06	-1.221385e-09	-2.665702e+01	-8.240404e+01
9.500000e-07	-3.794514e-06	-1.211287e-09	-2.642101e+01	-8.208691e+01
9.600000e-07	-3.760175e-06	-1.207184e-09	-2.618191e+01	-8.176907e+01
9.700000e-07	-3.725537e-06	-1.200130e-09	-2.594073e+01	-8.145026e+01
9.800000e-07	-3.690534e-06	-1.187785e-09	-2.569701e+01	-8.113017e+01
9.900000e-07	-3.655108e-06	-1.183168e-09	-2.545034e+01	-8.080843e+01
1.000000e-06	-3.619483e-06	-1.182126e-09	-2.520228e+01	-8.048460e+01
1.010000e-06	-3.583738e-06	-1.175001e-09	-2.495339e+01	-8.015819e+01
1.020000e-06	-3.547872e-06	-1.169213e-09	-2.470366e+01	-7.982872e+01
1.030000e-06	-3.511874e-06	-1.169366e-09	-2.445301e+01	-7.949564e+01
1.040000e-06	-3.475615e-06	-1.164162e-09	-2.420054e+01	-7.915842e+01
1.050000e-06	-3.439140e-06	-1.154923e-09	-2.394656e+01	-7.881655e+01
1.060000e-06	-3.402553e-06	-1.147793e-09	-2.369181e+01	-7.846952e+01
1.070000e-06	-3.365704e-06	-1.140440e-09	-2.343523e+01	-7.811686e+01
1.080000e-06	-3.328454e-06	-1.130981e-09	-2.317586e+01	-7.775814e+01
1.090000e-06	-3.290913e-06	-1.128342e-09	-2.291446e+01	-7.739300e+01
1.100000e-06	-3.253173e-06	-1.124559e-09	-2.265168e+01	-7.702111e+01
1.110000e-06	-3.215245e-06	-1.117103e-09	-2.238759e+01	-7.664222e+01
1.120000e-06	-3.177093e-06	-1.110904e-09	-2.212194e+01	-7.625617e+01
1.130000e-06	-3.138749e-06	-1.107946e-09	-2.185496e+01	-7.586285e+01
1.140000e-06	-3.100199e-06	-1.100152e-09	-2.158653e+01	-7.546223e+01
1.150000e-06	-3.061437e-06	-1.091212e-09	-2.131664e+01	-7.505435e+01
1.160000e-06	-3.022450e-06	-1.083635e-09	-2.104517e+01	-7.463932e+01
1.170000e-06	-2.983230e-06	-1.076065e-09	-2.077209e+01	-7.421731e+01
1.180000e-06	-2.943873e-06	-1.068329e-09	-2.049805e+01	-7.378856e+01
1.190000e-06	-2.904385e-06	-1.065206e-09	-2.022309e+01	-7.335334e+01
1.200000e-06	-2.864731e-06	-1.059172e-09	-1.994698e+01	-7.291196e+01
1.210000e-06	-2.824924e-06	-1.048039e-09	-1.966981e+01	-7.246478e+01
1.220000e-06	-2.784985e-06	-1.038157e-09	-1.939171e+01	-7.201213e+01
1.230000e-06	-2.744918e-06	-1.033429e-09	-1.911273e+01	-7.155439e+01
1.240000e-06	-2.704680e-06	-1.027955e-09	-1.883255e+01	-7.109191e+01
1.250000e-06	-2.664253e-06	-1.023618e-09	-1.855106e+01	-7.062502e+01
1.260000e-06	-2.623696e-06	-1.021070e-09	-1.826867e+01	-7.015402e+01
1.270000e-06	-2.582954e-06	-1.014059e-09	-1.798498e+01	-6.967918e+01
1.280000e-06	-2.541907e-06	-1.003220e-09	-1.769917e+01	-6.920071e+01
1.290000e-06	-2.500479e-06	-9.939181e-10	-1.741071e+01	-6.871875e+01
1.300000e-06	-2.458764e-06	-9.849385e-10	-1.712025e+01	-6.823340e+01
1.310000e-06	-2.416836e-06	-9.749557e-10	-1.682831e+01	-6.774468e+01
1.320000e-06	-2.374589e-06	-9.681694e-10	-1.653415e+01	-6.725252e+01
1.330000e-06	-2.332007e-06	-9.624331e-10	-1.623765e+01	-6.675680e+01
1.340000e-06	-2.289070e-06	-9.550855e-10	-1.593868e+01	-6.625730e+01
1.350000e-06	-2.245872e-06	-9.463804e-10	-1.563790e+01	-6.575376e+01
1.360000e-06	-2.202533e-06	-9.377556e-10	-1.533613e+01	-6.524583e+01
1.370000e-06	-2.159083e-06	-9.298080e-10	-1.503359e+01	-6.473308e+01
1.380000e-06	-2.115516e-06	-9.228120e-10	-1.473023e+01	-6.421505e+01
1.390000e-06	-2.071798e-06	-9.158394e-10	-1.442582e+01	-6.369121e+01
1.400000e-06	-2.028016e-06	-9.088592e-10	-1.412098e+01	-6.316101e+01
1.410000e-06	-1.984208e-06	-9.004456e-10	-1.381594e+01	-6.262384e+01
1.420000e-06	-1.940327e-06	-8.927985e-10	-1.351040e+01	-6.207909e+01
1.430000e-06	-1.896378e-06	-8.843313e-10	-1.320438e+01	-6.152611e+01
1.440000e-06	-1.852353e-06	-8.753819e-10	-1.289784e+01	-6.096428e+01
1.450000e-06	-1.808250e-06	-8.648780e-10	-1.259076e+01	-6.039294e+01
1.460000e-06	-1.764029e-06	-8.530341e-10	-1.228284e+01	-5.981149e+01
1.470000e-06	-1.719575e-06	-8.392528e-10	-1.197332e+01	-5.921931e+01
1.480000e-06	-1.674991e-06	-8.273511e-10	-1.166288e+01	-5.861582e+01
1.490000e-06	-1.630333e-06	-8.163747e-10	-1.135193e+01	-5.800048e+01
1.500000e-06	-1.585490e-06	-8.057858e-10	-1.103969e+01	-5.737276e+01
1.510000e-06	-1.540522e-06	-7.959220e-10	-1.072658e+01	-5.673219e+01
1.520000e-06	-1.495484e-06	-7.873154e-10	-1.041298e+01	-5.607831e+01
1.530000e-06	-1.450259e-06	-7.788316e-10	-1.009808e+01	-5.541070e+01
1.540000e-06	-1.404907e-06	-7.669226e-10	-9.782298e+00	-5.472897e+01
1.550000e-06	-1.359534e-06	-7.534236e-10	-9.466372e+00	-5.403277e+01
1.560000e-06	-1.314097e-06	-7.412362e-10	-9.149994e+00	-5.332173e+01
1.570000e-06	-1.268571e-06	-7.302884e-10	-8.832996e+00	-5.259552e+01
1.580000e-06	-1.222944e-06	-7.197036e-10	-8.515298e+00	-5.185380e+01
1.590000e-06	-1.177252e-06	-7.105384e-10	-8.197148e+00	-5.109622e+01
1.600000e-06	-1.131528e-06	-7.009750e-10	-7.878772e+00	-5.032241e+01
1.610000e-06	-1.085693e-06	-6.891664e-10	-7.559630e+00	-4.953199e+01
1.620000e-06	-1.039790e-06	-6.767957e-10	-7.240006e+00	-4.872450e+01
1.630000e-06	-9.938269e-07	-6.636463e-10	-6.919968e+00	-4.789949e+01
1.640000e-06	-9.477908e-07	-6.488055e-10	-6.599421e+00	-4.705641e+01
1.650000e-06	-9.017196e-07	-6.343650e-10	-6.278629e+00	-4.619467e+01
1.660000e-06	-8.555474e-07	-6.198923e-10	-5.957135e+00	-4.531360e+01
1.670000e-06	-8.092948e-07	-6.053306e-10	-5.635080e+00	-4.441247e+01
1.680000e-06	-7.629305e-07	-5.910719e-10	-5.312247e+00	-4.349048e+01
1.690000e-06	-7.165510e-07	-5.762224e-10	-4.989309e+00	-4.254674e+01
1.700000e-06	-6.702280e-07	-5.607195e-10	-4.666765e+00	-4.158031e+01
1.710000e-06	-6.238643e-07	-5.468915e-10	-4.343936e+00	-4.059016e+01
1.720000e-06	-5.773936e-07	-5.323328e-10	-4.020363e+00	-3.957523e+01
1.730000e-06	-5.308431e-07	-5.173095e-10	-3.696234e+00	-3.853439e+01
1.740000e-06	-4.843358e-07	-5.023126e-10	-3.372406e+00	-3.746649e+01
1.750000e-06	-4.377880e-07	-4.841398e-10	-3.048296e+00	-3.637034e+01
1.760000e-06	-3.911129e-07	-4.616722e-10	-2.723300e+00	-3.524475e+01
1.770000e-06	-3.444009e-07	-4.405928e-10	-2.398046e+00	-3.408856e+01
1.780000e-06	-2.977178e-07	-4.218989e-10	-2.072995e+00	-3.290062e+01
1.790000e-06	-2.510343e-07	-4.052523e-10	-1.747939e+00	-3.167983e+01
1.800000e-06	-2.043249e-07	-3.899117e-10	-1.422705e+00	-3.042518e+01
1.810000e-06	-1.575729e-07	-3.719107e-10	-1.097173e+00	-2.913573e+01
1.820000e-06	-1.108360e-07	-3.519792e-10	-7.717454e-01	-2.781068e+01
1.830000e-06	-6.411458e-08	-3.324184e-10	-4.464267e-01	-2.644935e+01
1.840000e-06	-1.733157e-08	-3.135731e-10	-1.206789e-01	-2.505123e+01
1.850000e-06	2.943982e-08	-2.935449e-10	2.049880e-01	-2.361596e+01
1.860000e-06	7.618901e-08	-2.722841e-10	5.305003e-01	-2.214341e+01
1.870000e-06	1.229888e-07	-2.508158e-10	8.563649e-01	-2.063361e+01
1.880000e-06	1.698437e-07	-2.299211e-10	1.182613e+00	-1.908686e+01
1.890000e-06	2.167428e-07	-2.098328e-10	1.509169e+00	-1.750364e+01
1.900000e-06	2.635771e-07	-1.895296e-10	1.835274e+00	-1.588472e+01
1.910000e-06	3.101771e-07	-1.674279e-10	2.159748e+00	-1.423107e+01
1.920000e-06	3.566499e-07	-1.453348e-10	2.483336e+00	-1.254391e+01
1.930000e-06	4.031835e-07	-1.209301e-10	2.807347e+00	-1.082470e+01
1.940000e-06	4.497658e-07	-9.344902e-11	3.131697e+00	-9.075155e+00
1.950000e-06	4.963529e-07	-6.623731e-11	3.456081e+00	-7.297182e+00
1.960000e-06	5.429100e-07	-4.147230e-11	3.780255e+00	-5.492915e+00
1.970000e-06	5.893879e-07	-1.851409e-11	4.103879e+00	-3.664682e+00
1.980000e-06	6.357877e-07	3.024778e-12	4.426958e+00	-1.814989e+00
1.990000e-06	6.821048e-07	2.539349e-11	4.749462e+00	5.350122e-02
2.000000e-06	7.284143e-07	5.179509e-11	5.071913e+00	1.937992e+00
2.010000e-06	7.747244e-07	8.291332e-11	5.394368e+00	3.835574e+00
2.020000e-06	8.209351e-07	1.134882e-10	5.716130e+00	5.743257e+00
2.030000e-06	8.670778e-07	1.409231e-10	6.037420e+00	7.657993e+00
2.040000e-06	9.132326e-07	1.655703e-10	6.358794e+00	9.576701e+00
2.050000e-06	9.593593e-07	1.884751e-10	6.679972e+00	1.149630e+01
2.060000e-06	1.005379e-06	2.133643e-10	7.000402e+00	1.341374e+01
2.070000e-06	1.051314e-06	2.409570e-10	7.320247e+00	1.532601e+01
2.080000e-06	1.097145e-06	2.705834e-10	7.639365e+00	1.723018e+01
2.090000e-06	1.142895e-06	3.010763e-10	7.957923e+00	1.912344e+01
2.100000e-06	1.188610e-06	3.322474e-10	8.276229e+00	2.100306e+01
2.110000e-06	1.234261e-06	3.610350e-10	8.594099e+00	2.286650e+01
2.120000e-06	1.279818e-06	3.853966e-10	8.911312e+00	2.471134e+01
2.130000e-06	1.325227e-06	4.060162e-10	9.227488e+00	2.653536e+01
2.140000e-06	1.370563e-06	4.258761e-10	9.543162e+00	2.833652e+01
2.150000e-06	1.415842e-06	4.485484e-10	9.858435e+00	3.011296e+01
2.160000e-06	1.461046e-06	4.752380e-10	1.017319e+01	3.186304e+01
2.170000e-06	1.506162e-06	5.019676e-10	1.048733e+01	3.358532e+01
2.180000e-06	1.551114e-06	5.258209e-10	1.080033e+01	3.527855e+01
2.190000e-06	1.595926e-06	5.480155e-10	1.111235e+01	3.694170e+01
2.200000e-06	1.640588e-06	5.694007e-10	1.142334e+01	3.857392e+01
2.210000e-06	1.685074e-06	5.888160e-10	1.173309e+01	4.017457e+01
2.220000e-06	1.729415e-06	6.069131e-10	1.204183e+01	4.174317e+01
2.230000e-06	1.773639e-06	6.250434e-10	1.234976e+01	4.327942e+01
2.240000e-06	1.817722e-06	6.445830e-10	1.265671e+01	4.478317e+01
2.250000e-06	1.861704e-06	6.654372e-10	1.296296e+01	4.625441e+01
2.260000e-06	1.905670e-06	6.872719e-10	1.326909e+01	4.769327e+01
2.270000e-06	1.949591e-06	7.092734e-10	1.357490e+01	4.909998e+01
2.280000e-06	1.993426e-06	7.285435e-10	1.388013e+01	5.047486e+01
2.290000e-06	2.037182e-06	7.452718e-10	1.418480e+01	5.181832e+01
2.300000e-06	2.080875e-06	7.612554e-10	1.448903e+01	5.313083e+01
2.310000e-06	2.124510e-06	7.766025e-10	1.479286e+01	5.441291e+01
2.320000e-06	2.168006e-06	7.923042e-10	1.509572e+01	5.566511e+01
2.330000e-06	2.211313e-06	8.092187e-10	1.539726e+01	5.688800e+01
2.340000e-06	2.254512e-06	8.260179e-10	1.569806e+01	5.808218e+01
2.350000e-06	2.297641e-06	8.427122e-10	1.599836e+01	5.924823e+01
2.360000e-06	2.340506e-06	8.585827e-10	1.629683e+01	6.038672e+01
2.370000e-06	2.382965e-06	8.716219e-10	1.659247e+01	6.149822e+01
2.380000e-06	2.425144e-06	8.835129e-10	1.688616e+01	6.258326e+01
2.390000e-06	2.466971e-06	8.976381e-10	1.717740e+01	6.364237e+01
2.400000e-06	2.508415e-06	9.139124e-10	1.746597e+01	6.467601e+01
2.410000e-06	2.549594e-06	9.315443e-10	1.775270e+01	6.568464e+01
2.420000e-06	2.590544e-06	9.487693e-10	1.803783e+01	6.666870e+01
2.430000e-06	2.631307e-06	9.647595e-10	1.832166e+01	6.762856e+01
2.440000e-06	2.671869e-06	9.786218e-10	1.860409e+01	6.856460e+01
2.450000e-06	2.712210e-06	9.897921e-10	1.888499e+01	6.947715e+01
2.460000e-06	2.752306e-06	9.990879e-10	1.916417e+01	7.036655e+01
2.470000e-06	2.792243e-06	1.008857e-09	1.944225e+01	7.123309e+01
2.480000e-06	2.832115e-06	1.021050e-09	1.971988e+01	7.207707e+01
2.490000e-06	2.871891e-06	1.035371e-09	1.999683e+01	7.289878e+01
2.500000e-06	2.911463e-06	1.049498e-09	2.027237e+01	7.369849e+01
2.510000e-06	2.950914e-06	1.060963e-09	2.054707e+01	7.447651e+01
2.520000e-06	2.990249e-06	1.070504e-09	2.082096e+01	7.523312e+01
2.530000e-06	3.029352e-06	1.078932e-09	2.109323e+01	7.596863e+01
2.540000e-06	3.068239e-06	1.087250e-09	2.136399e+01	7.668335e+01
2.550000e-06	3.106901e-06	1.096298e-09	2.163320e+01	7.737763e+01
2.560000e-06	3.145349e-06	1.106387e-09	2.190091e+01	7.805181e+01
2.570000e-06	3.183571e-06	1.117359e-09	2.216705e+01	7.870627e+01
2.580000e-06	3.221568e-06	1.127698e-09	2.243162e+01	7.934140e+01
2.590000e-06	3.259389e-06	1.136644e-09	2.269496e+01	7.995763e+01
2.600000e-06	3.296987e-06	1.144014e-09	2.295676e+01	8.055539e+01
2.610000e-06	3.334363e-06	1.150181e-09	2.321701e+01	8.113512e+01
2.620000e-06	3.371543e-06	1.156500e-09	2.347589e+01	8.169732e+01
2.630000e-06	3.408432e-06	1.162573e-09	2.373274e+01	8.224246e+01
2.640000e-06	3.445000e-06	1.169842e-09	2.398737e+01	8.277105e+01
2.650000e-06	3.481326e-06	1.179039e-09	2.424030e+01	8.328360e+01
2.660000e-06	3.517469e-06	1.188342e-09	2.449196e+01	8.378064e+01
2.670000e-06	3.553438e-06	1.196278e-09	2.474241e+01	8.426268e+01
2.680000e-06	3.589270e-06	1.202362e-09	2.499191e+01	8.473025e+01
2.690000e-06	3.624969e-06	1.209073e-09	2.524048e+01	8.518388e+01
2.700000e-06	3.660544e-06	1.215878e-09	2.548819e+01	8.562408e+01
2.710000e-06	3.695973e-06	1.220259e-09	2.573488e+01	8.605138e+01
2.720000e-06	3.731141e-06	1.224015e-09	2.597975e+01	8.646627e+01
2.730000e-06	3.765923e-06	1.229774e-09	2.622194e+01	8.686925e+01
2.740000e-06	3.800265e-06	1.236168e-09	2.646106e+01	8.726080e+01
2.750000e-06	3.834076e-06	1.243996e-09	2.669648e+01	8.764138e+01
2.760000e-06	3.867337e-06	1.253226e-09	2.692807e+01	8.801145e+01
2.770000e-06	3.900168e-06	1.259552e-09	2.715668e+01	8.837144e+01
2.780000e-06	3.932699e-06	1.264581e-09	2.738319e+01	8.872178e+01
2.790000e-06	3.964960e-06	1.269866e-09	2.760782e+01	8.906286e+01
2.800000e-06	3.996948e-06	1.272917e-09	2.783055e+01	8.939508e+01
2.810000e-06	4.028762e-06	1.273850e-09	2.805207e+01	8.971880e+01
2.820000e-06	4.060469e-06	1.276036e-09	2.827285e+01	9.003440e+01
2.830000e-06	4.092069e-06	1.281288e-09	2.849287e+01	9.034220e+01
2.840000e-06	4.123433e-06	1.288690e-09	2.871126e+01	9.064255e+01
2.850000e-06	4.154398e-06	1.298515e-09	2.892687e+01	9.093576e+01
2.860000e-06	4.184994e-06	1.307983e-09	2.913990e+01	9.122213e+01
2.870000e-06	4.215310e-06	1.315486e-09	2.935100e+01	9.150197e+01
2.880000e-06	4.245332e-06	1.321082e-09	2.956004e+01	9.177554e+01
2.890000e-06	4.275072e-06	1.324676e-09	2.976712e+01	9.204313e+01
2.900000e-06	4.304498e-06	1.327957e-09	2.997201e+01	9.230498e+01
