# Temperatura_=_9.84
# Concentracion g/m^3_=_1620.0
# C_Vs_to_Am_M_A/Vsm_=_65563218390.804596
# pendiente_HvsI_1/m_=_3716.3
# ordenada_HvsI_A/m_=_1297.0
# frecuencia_Hz_=_135102.21724423542

Tiempo_(s)	Campo_(V.s)	Magnetizacion_(V.s)	Campo_(kA/m)	Magnetizacion_(A/m)
0.000000e+00	-5.534557e-06	-1.355793e-09	-3.837622e+01	-9.118798e+01
1.000000e-08	-5.534708e-06	-1.352035e-09	-3.837727e+01	-9.115378e+01
2.000000e-08	-5.534625e-06	-1.346661e-09	-3.837669e+01	-9.112152e+01
3.000000e-08	-5.534159e-06	-1.345605e-09	-3.837347e+01	-9.109160e+01
4.000000e-08	-5.533171e-06	-1.344955e-09	-3.836662e+01	-9.106440e+01
5.000000e-08	-5.531616e-06	-1.341491e-09	-3.835583e+01	-9.104023e+01
6.000000e-08	-5.529486e-06	-1.336154e-09	-3.834106e+01	-9.101929e+01
7.000000e-08	-5.526816e-06	-1.351233e-09	-3.832255e+01	-9.100171e+01
8.000000e-08	-5.523658e-06	-1.372184e-09	-3.830065e+01	-9.098751e+01
9.000000e-08	-5.519997e-06	-1.335676e-09	-3.827527e+01	-9.097660e+01
1.000000e-07	-5.515851e-06	-1.280683e-09	-3.824652e+01	-9.096879e+01
1.100000e-07	-5.511465e-06	-1.349497e-09	-3.821611e+01	-9.096375e+01
1.200000e-07	-5.506916e-06	-1.368742e-09	-3.818457e+01	-9.096105e+01
1.300000e-07	-5.502004e-06	-1.339570e-09	-3.815051e+01	-9.096014e+01
1.400000e-07	-5.496714e-06	-1.278394e-09	-3.811383e+01	-9.096038e+01
1.500000e-07	-5.491059e-06	-1.335914e-09	-3.807461e+01	-9.096100e+01
1.600000e-07	-5.485017e-06	-1.396450e-09	-3.803272e+01	-9.096116e+01
1.700000e-07	-5.478569e-06	-1.322290e-09	-3.798801e+01	-9.095993e+01
1.800000e-07	-5.471741e-06	-1.294168e-09	-3.794066e+01	-9.095633e+01
1.900000e-07	-5.464551e-06	-1.349675e-09	-3.789081e+01	-9.094932e+01
2.000000e-07	-5.456993e-06	-1.422949e-09	-3.783840e+01	-9.093783e+01
2.100000e-07	-5.449166e-06	-1.363566e-09	-3.778413e+01	-9.092079e+01
2.200000e-07	-5.441156e-06	-1.327217e-09	-3.772859e+01	-9.089714e+01
2.300000e-07	-5.432878e-06	-1.335357e-09	-3.767119e+01	-9.086583e+01
2.400000e-07	-5.424082e-06	-1.381860e-09	-3.761020e+01	-9.082588e+01
2.500000e-07	-5.414538e-06	-1.367884e-09	-3.754402e+01	-9.077638e+01
2.600000e-07	-5.404344e-06	-1.367216e-09	-3.747334e+01	-9.071649e+01
2.700000e-07	-5.393598e-06	-1.361559e-09	-3.739882e+01	-9.064549e+01
2.800000e-07	-5.382340e-06	-1.366013e-09	-3.732076e+01	-9.056279e+01
2.900000e-07	-5.370719e-06	-1.342060e-09	-3.724018e+01	-9.046790e+01
3.000000e-07	-5.358784e-06	-1.328444e-09	-3.715743e+01	-9.036053e+01
3.100000e-07	-5.346410e-06	-1.333222e-09	-3.707162e+01	-9.024049e+01
3.200000e-07	-5.333613e-06	-1.371687e-09	-3.698289e+01	-9.010778e+01
3.300000e-07	-5.320479e-06	-1.373347e-09	-3.689182e+01	-8.996256e+01
3.400000e-07	-5.306931e-06	-1.332858e-09	-3.679788e+01	-8.980516e+01
3.500000e-07	-5.292885e-06	-1.340982e-09	-3.670049e+01	-8.963604e+01
3.600000e-07	-5.278407e-06	-1.373019e-09	-3.660010e+01	-8.945585e+01
3.700000e-07	-5.263507e-06	-1.324303e-09	-3.649679e+01	-8.926534e+01
3.800000e-07	-5.248029e-06	-1.285208e-09	-3.638946e+01	-8.906543e+01
3.900000e-07	-5.232092e-06	-1.356689e-09	-3.627896e+01	-8.885713e+01
4.000000e-07	-5.215766e-06	-1.354600e-09	-3.616575e+01	-8.864155e+01
4.100000e-07	-5.199053e-06	-1.278583e-09	-3.604986e+01	-8.841987e+01
4.200000e-07	-5.182100e-06	-1.312120e-09	-3.593232e+01	-8.819334e+01
4.300000e-07	-5.164771e-06	-1.379321e-09	-3.581216e+01	-8.796323e+01
4.400000e-07	-5.146965e-06	-1.278539e-09	-3.568869e+01	-8.773083e+01
4.500000e-07	-5.128742e-06	-1.251586e-09	-3.556233e+01	-8.749741e+01
4.600000e-07	-5.110180e-06	-1.347933e-09	-3.543362e+01	-8.726420e+01
4.700000e-07	-5.091309e-06	-1.321486e-09	-3.530278e+01	-8.703237e+01
4.800000e-07	-5.072038e-06	-1.228579e-09	-3.516915e+01	-8.680304e+01
4.900000e-07	-5.052475e-06	-1.317128e-09	-3.503350e+01	-8.657718e+01
5.000000e-07	-5.032750e-06	-1.344936e-09	-3.489673e+01	-8.635568e+01
5.100000e-07	-5.012820e-06	-1.246217e-09	-3.475854e+01	-8.613930e+01
5.200000e-07	-4.992589e-06	-1.266914e-09	-3.461825e+01	-8.592864e+01
5.300000e-07	-4.971935e-06	-1.343081e-09	-3.447504e+01	-8.572416e+01
5.400000e-07	-4.950827e-06	-1.248755e-09	-3.432869e+01	-8.552614e+01
5.500000e-07	-4.929387e-06	-1.224436e-09	-3.418002e+01	-8.533472e+01
5.600000e-07	-4.907678e-06	-1.317253e-09	-3.402949e+01	-8.514988e+01
5.700000e-07	-4.885670e-06	-1.283363e-09	-3.387689e+01	-8.497142e+01
5.800000e-07	-4.863359e-06	-1.211682e-09	-3.372218e+01	-8.479902e+01
5.900000e-07	-4.840675e-06	-1.284972e-09	-3.356490e+01	-8.463218e+01
6.000000e-07	-4.817565e-06	-1.296700e-09	-3.340466e+01	-8.447030e+01
6.100000e-07	-4.794170e-06	-1.221594e-09	-3.324243e+01	-8.431265e+01
6.200000e-07	-4.770580e-06	-1.247872e-09	-3.307886e+01	-8.415840e+01
6.300000e-07	-4.746753e-06	-1.285394e-09	-3.291364e+01	-8.400665e+01
6.400000e-07	-4.722649e-06	-1.231865e-09	-3.274651e+01	-8.385643e+01
6.500000e-07	-4.698229e-06	-1.227502e-09	-3.257719e+01	-8.370673e+01
6.600000e-07	-4.673358e-06	-1.269493e-09	-3.240473e+01	-8.355653e+01
6.700000e-07	-4.647977e-06	-1.238685e-09	-3.222874e+01	-8.340479e+01
6.800000e-07	-4.622069e-06	-1.218947e-09	-3.204910e+01	-8.325051e+01
6.900000e-07	-4.595515e-06	-1.248140e-09	-3.186497e+01	-8.309272e+01
7.000000e-07	-4.568441e-06	-1.240205e-09	-3.167725e+01	-8.293052e+01
7.100000e-07	-4.541027e-06	-1.206736e-09	-3.148716e+01	-8.276306e+01
7.200000e-07	-4.513360e-06	-1.217945e-09	-3.129532e+01	-8.258960e+01
7.300000e-07	-4.485545e-06	-1.215136e-09	-3.110245e+01	-8.240949e+01
7.400000e-07	-4.457581e-06	-1.195274e-09	-3.090855e+01	-8.222219e+01
7.500000e-07	-4.429339e-06	-1.196221e-09	-3.071272e+01	-8.202727e+01
7.600000e-07	-4.400779e-06	-1.207985e-09	-3.051469e+01	-8.182444e+01
7.700000e-07	-4.371929e-06	-1.191859e-09	-3.031464e+01	-8.161350e+01
7.800000e-07	-4.342727e-06	-1.188676e-09	-3.011216e+01	-8.139438e+01
7.900000e-07	-4.313264e-06	-1.191522e-09	-2.990787e+01	-8.116713e+01
8.000000e-07	-4.283594e-06	-1.181051e-09	-2.970214e+01	-8.093191e+01
8.100000e-07	-4.253648e-06	-1.166771e-09	-2.949449e+01	-8.068896e+01
8.200000e-07	-4.223396e-06	-1.173794e-09	-2.928472e+01	-8.043861e+01
8.300000e-07	-4.192809e-06	-1.166642e-09	-2.907264e+01	-8.018127e+01
8.400000e-07	-4.161939e-06	-1.155907e-09	-2.885859e+01	-7.991742e+01
8.500000e-07	-4.130874e-06	-1.159260e-09	-2.864318e+01	-7.964757e+01
8.600000e-07	-4.099579e-06	-1.161619e-09	-2.842619e+01	-7.937225e+01
8.700000e-07	-4.067985e-06	-1.145274e-09	-2.820712e+01	-7.909202e+01
8.800000e-07	-4.036181e-06	-1.139999e-09	-2.798659e+01	-7.880743e+01
8.900000e-07	-4.004202e-06	-1.139128e-09	-2.776486e+01	-7.851902e+01
9.000000e-07	-3.971973e-06	-1.124123e-09	-2.754138e+01	-7.822729e+01
9.100000e-07	-3.939491e-06	-1.114983e-09	-2.731615e+01	-7.793270e+01
9.200000e-07	-3.906657e-06	-1.119854e-09	-2.708848e+01	-7.763566e+01
9.300000e-07	-3.873329e-06	-1.113795e-09	-2.685739e+01	-7.733651e+01
9.400000e-07	-3.839568e-06	-1.104130e-09	-2.662329e+01	-7.703551e+01
9.500000e-07	-3.805344e-06	-1.109223e-09	-2.638598e+01	-7.673287e+01
9.600000e-07	-3.770683e-06	-1.104850e-09	-2.614565e+01	-7.642869e+01
9.700000e-07	-3.735684e-06	-1.087218e-09	-2.590297e+01	-7.612301e+01
9.800000e-07	-3.700365e-06	-1.079896e-09	-2.565807e+01	-7.581579e+01
9.900000e-07	-3.664828e-06	-1.081971e-09	-2.541166e+01	-7.550691e+01
1.000000e-06	-3.629130e-06	-1.071661e-09	-2.516413e+01	-7.519618e+01
1.010000e-06	-3.593265e-06	-1.067204e-09	-2.491544e+01	-7.488335e+01
1.020000e-06	-3.557193e-06	-1.069978e-09	-2.466532e+01	-7.456812e+01
1.030000e-06	-3.520955e-06	-1.065509e-09	-2.441405e+01	-7.425014e+01
1.040000e-06	-3.484519e-06	-1.054137e-09	-2.416141e+01	-7.392904e+01
1.050000e-06	-3.447822e-06	-1.053547e-09	-2.390695e+01	-7.360442e+01
1.060000e-06	-3.410953e-06	-1.047809e-09	-2.365130e+01	-7.327588e+01
1.070000e-06	-3.373734e-06	-1.037922e-09	-2.339323e+01	-7.294301e+01
1.080000e-06	-3.336203e-06	-1.033891e-09	-2.313299e+01	-7.260543e+01
1.090000e-06	-3.298496e-06	-1.035497e-09	-2.287154e+01	-7.226277e+01
1.100000e-06	-3.260505e-06	-1.027535e-09	-2.260811e+01	-7.191471e+01
1.110000e-06	-3.222252e-06	-1.021615e-09	-2.234287e+01	-7.156097e+01
1.120000e-06	-3.183743e-06	-1.019301e-09	-2.207584e+01	-7.120133e+01
1.130000e-06	-3.145009e-06	-1.012703e-09	-2.180727e+01	-7.083560e+01
1.140000e-06	-3.106135e-06	-1.001152e-09	-2.153772e+01	-7.046369e+01
1.150000e-06	-3.067168e-06	-9.957105e-10	-2.126752e+01	-7.008555e+01
1.160000e-06	-3.028031e-06	-9.902424e-10	-2.099615e+01	-6.970119e+01
1.170000e-06	-2.988676e-06	-9.812707e-10	-2.072327e+01	-6.931068e+01
1.180000e-06	-2.949141e-06	-9.755528e-10	-2.044914e+01	-6.891418e+01
1.190000e-06	-2.909492e-06	-9.732828e-10	-2.017421e+01	-6.851185e+01
1.200000e-06	-2.869718e-06	-9.672835e-10	-1.989842e+01	-6.810395e+01
1.210000e-06	-2.829759e-06	-9.609705e-10	-1.962135e+01	-6.769072e+01
1.220000e-06	-2.789682e-06	-9.572588e-10	-1.934346e+01	-6.727249e+01
1.230000e-06	-2.749496e-06	-9.492946e-10	-1.906481e+01	-6.684955e+01
1.240000e-06	-2.709146e-06	-9.407752e-10	-1.878503e+01	-6.642223e+01
1.250000e-06	-2.668632e-06	-9.375096e-10	-1.850410e+01	-6.599085e+01
1.260000e-06	-2.627850e-06	-9.352365e-10	-1.822132e+01	-6.555570e+01
1.270000e-06	-2.586663e-06	-9.281196e-10	-1.793574e+01	-6.511707e+01
1.280000e-06	-2.545127e-06	-9.216512e-10	-1.764773e+01	-6.467519e+01
1.290000e-06	-2.503236e-06	-9.149930e-10	-1.735726e+01	-6.423025e+01
1.300000e-06	-2.461034e-06	-9.035998e-10	-1.706463e+01	-6.378239e+01
1.310000e-06	-2.418695e-06	-8.909328e-10	-1.677106e+01	-6.333169e+01
1.320000e-06	-2.376142e-06	-8.840637e-10	-1.647600e+01	-6.287815e+01
1.330000e-06	-2.333251e-06	-8.779999e-10	-1.617860e+01	-6.242172e+01
1.340000e-06	-2.290066e-06	-8.733691e-10	-1.587916e+01	-6.196225e+01
1.350000e-06	-2.246680e-06	-8.692143e-10	-1.557832e+01	-6.149955e+01
1.360000e-06	-2.203169e-06	-8.633292e-10	-1.527662e+01	-6.103332e+01
1.370000e-06	-2.159576e-06	-8.544731e-10	-1.497435e+01	-6.056323e+01
1.380000e-06	-2.115861e-06	-8.469002e-10	-1.467123e+01	-6.008885e+01
1.390000e-06	-2.072054e-06	-8.385189e-10	-1.436748e+01	-5.960970e+01
1.400000e-06	-2.028197e-06	-8.305078e-10	-1.406337e+01	-5.912527e+01
1.410000e-06	-1.984280e-06	-8.236982e-10	-1.375886e+01	-5.863497e+01
1.420000e-06	-1.940237e-06	-8.188043e-10	-1.345346e+01	-5.813820e+01
1.430000e-06	-1.895950e-06	-8.111255e-10	-1.314638e+01	-5.763432e+01
1.440000e-06	-1.851570e-06	-8.017482e-10	-1.283865e+01	-5.712268e+01
1.450000e-06	-1.807203e-06	-7.914950e-10	-1.253102e+01	-5.660260e+01
1.460000e-06	-1.762788e-06	-7.802953e-10	-1.222305e+01	-5.607342e+01
1.470000e-06	-1.718265e-06	-7.678706e-10	-1.191433e+01	-5.553448e+01
1.480000e-06	-1.673559e-06	-7.587079e-10	-1.160434e+01	-5.498515e+01
1.490000e-06	-1.628672e-06	-7.503400e-10	-1.129310e+01	-5.442479e+01
1.500000e-06	-1.583605e-06	-7.394069e-10	-1.098060e+01	-5.385282e+01
1.510000e-06	-1.538405e-06	-7.293141e-10	-1.066719e+01	-5.326866e+01
1.520000e-06	-1.493099e-06	-7.211081e-10	-1.035304e+01	-5.267177e+01
1.530000e-06	-1.447677e-06	-7.131347e-10	-1.003809e+01	-5.206166e+01
1.540000e-06	-1.402259e-06	-7.024014e-10	-9.723162e+00	-5.143784e+01
1.550000e-06	-1.356807e-06	-6.941311e-10	-9.408001e+00	-5.079986e+01
1.560000e-06	-1.311187e-06	-6.874971e-10	-9.091678e+00	-5.014731e+01
1.570000e-06	-1.265518e-06	-6.782482e-10	-8.775012e+00	-4.947977e+01
1.580000e-06	-1.219806e-06	-6.685358e-10	-8.458052e+00	-4.879684e+01
1.590000e-06	-1.173969e-06	-6.598091e-10	-8.140215e+00	-4.809813e+01
1.600000e-06	-1.127949e-06	-6.501930e-10	-7.821119e+00	-4.738324e+01
1.610000e-06	-1.081840e-06	-6.388837e-10	-7.501399e+00	-4.665174e+01
1.620000e-06	-1.035693e-06	-6.272542e-10	-7.181425e+00	-4.590320e+01
1.630000e-06	-9.894634e-07	-6.129421e-10	-6.860869e+00	-4.513714e+01
1.640000e-06	-9.432154e-07	-5.982130e-10	-6.540189e+00	-4.435306e+01
1.650000e-06	-8.969218e-07	-5.855714e-10	-6.219192e+00	-4.355038e+01
1.660000e-06	-8.505566e-07	-5.728784e-10	-5.897699e+00	-4.272850e+01
1.670000e-06	-8.040428e-07	-5.601255e-10	-5.575176e+00	-4.188673e+01
1.680000e-06	-7.574395e-07	-5.477185e-10	-5.252032e+00	-4.102434e+01
1.690000e-06	-7.108556e-07	-5.342757e-10	-4.929023e+00	-4.014052e+01
1.700000e-06	-6.641959e-07	-5.188067e-10	-4.605487e+00	-3.923442e+01
1.710000e-06	-6.174835e-07	-5.068657e-10	-4.281587e+00	-3.830511e+01
1.720000e-06	-5.708161e-07	-4.951855e-10	-3.957999e+00	-3.735162e+01
1.730000e-06	-5.240942e-07	-4.796986e-10	-3.634032e+00	-3.637292e+01
1.740000e-06	-4.772755e-07	-4.620541e-10	-3.309395e+00	-3.536794e+01
1.750000e-06	-4.304244e-07	-4.449109e-10	-2.984532e+00	-3.433562e+01
1.760000e-06	-3.834931e-07	-4.270046e-10	-2.659114e+00	-3.327485e+01
1.770000e-06	-3.365749e-07	-4.103292e-10	-2.333787e+00	-3.218455e+01
1.780000e-06	-2.896988e-07	-3.952790e-10	-2.008751e+00	-3.106365e+01
1.790000e-06	-2.427864e-07	-3.808574e-10	-1.683464e+00	-2.991113e+01
1.800000e-06	-1.958871e-07	-3.644782e-10	-1.358267e+00	-2.872604e+01
1.810000e-06	-1.489788e-07	-3.461428e-10	-1.033009e+00	-2.750749e+01
1.820000e-06	-1.020515e-07	-3.279202e-10	-7.076181e-01	-2.625471e+01
1.830000e-06	-5.510846e-08	-3.091373e-10	-3.821182e-01	-2.496705e+01
1.840000e-06	-8.184896e-09	-2.901280e-10	-5.675349e-02	-2.364401e+01
1.850000e-06	3.871888e-08	-2.715739e-10	2.684740e-01	-2.228524e+01
1.860000e-06	8.565606e-08	-2.528098e-10	5.939330e-01	-2.089056e+01
1.870000e-06	1.325478e-07	-2.335442e-10	9.190769e-01	-1.946002e+01
1.880000e-06	1.794610e-07	-2.143188e-10	1.244370e+00	-1.799383e+01
1.890000e-06	2.263772e-07	-1.946232e-10	1.569683e+00	-1.649246e+01
1.900000e-06	2.731967e-07	-1.723914e-10	1.894326e+00	-1.495658e+01
1.910000e-06	3.200430e-07	-1.507875e-10	2.219156e+00	-1.338709e+01
1.920000e-06	3.669573e-07	-1.301285e-10	2.544456e+00	-1.178513e+01
1.930000e-06	4.138216e-07	-1.066026e-10	2.869409e+00	-1.015208e+01
1.940000e-06	4.605684e-07	-8.070656e-11	3.193548e+00	-8.489520e+00
1.950000e-06	5.073239e-07	-5.470504e-11	3.517748e+00	-6.799266e+00
1.960000e-06	5.541478e-07	-3.220934e-11	3.842422e+00	-5.083336e+00
1.970000e-06	6.008452e-07	-1.026454e-11	4.166218e+00	-3.343936e+00
1.980000e-06	6.473695e-07	1.040580e-11	4.488814e+00	-1.583452e+00
1.990000e-06	6.939030e-07	3.262733e-11	4.811474e+00	1.955789e-01
2.000000e-06	7.404781e-07	6.022445e-11	5.134422e+00	1.990484e+00
2.010000e-06	7.869476e-07	8.932203e-11	5.456639e+00	3.798480e+00
2.020000e-06	8.333164e-07	1.166344e-10	5.778157e+00	5.616701e+00
2.030000e-06	8.797078e-07	1.415400e-10	6.099832e+00	7.442219e+00
2.040000e-06	9.260489e-07	1.630703e-10	6.421157e+00	9.272076e+00
2.050000e-06	9.722373e-07	1.849619e-10	6.741424e+00	1.110331e+01
2.060000e-06	1.018326e-06	2.082169e-10	7.061002e+00	1.293297e+01
2.070000e-06	1.064376e-06	2.319242e-10	7.380304e+00	1.475816e+01
2.080000e-06	1.110336e-06	2.600622e-10	7.698991e+00	1.657607e+01
2.090000e-06	1.156218e-06	2.908266e-10	8.017132e+00	1.838394e+01
2.100000e-06	1.202019e-06	3.194589e-10	8.334715e+00	2.017918e+01
2.110000e-06	1.247723e-06	3.446743e-10	8.651620e+00	2.195930e+01
2.120000e-06	1.293374e-06	3.678361e-10	8.968162e+00	2.372196e+01
2.130000e-06	1.338933e-06	3.893963e-10	9.284069e+00	2.546501e+01
2.140000e-06	1.384406e-06	4.105136e-10	9.599376e+00	2.718645e+01
2.150000e-06	1.429842e-06	4.325033e-10	9.914422e+00	2.888449e+01
2.160000e-06	1.475223e-06	4.574661e-10	1.022909e+01	3.055751e+01
2.170000e-06	1.520503e-06	4.821115e-10	1.054306e+01	3.220409e+01
2.180000e-06	1.565636e-06	5.027294e-10	1.085601e+01	3.382301e+01
2.190000e-06	1.610602e-06	5.228858e-10	1.116780e+01	3.541323e+01
2.200000e-06	1.655471e-06	5.424684e-10	1.147892e+01	3.697390e+01
2.210000e-06	1.700225e-06	5.605170e-10	1.178924e+01	3.850435e+01
2.220000e-06	1.744832e-06	5.789759e-10	1.209854e+01	4.000407e+01
2.230000e-06	1.789247e-06	6.003521e-10	1.240651e+01	4.147272e+01
2.240000e-06	1.833484e-06	6.200998e-10	1.271325e+01	4.291009e+01
2.250000e-06	1.877608e-06	6.383716e-10	1.301920e+01	4.431609e+01
2.260000e-06	1.921596e-06	6.588307e-10	1.332421e+01	4.569078e+01
2.270000e-06	1.965500e-06	6.787799e-10	1.362864e+01	4.703428e+01
2.280000e-06	2.009391e-06	6.981848e-10	1.393298e+01	4.834683e+01
2.290000e-06	2.053254e-06	7.174048e-10	1.423712e+01	4.962871e+01
2.300000e-06	2.097046e-06	7.353401e-10	1.454077e+01	5.088027e+01
2.310000e-06	2.140805e-06	7.504270e-10	1.484419e+01	5.210191e+01
2.320000e-06	2.184471e-06	7.634877e-10	1.514696e+01	5.329404e+01
2.330000e-06	2.227974e-06	7.766369e-10	1.544861e+01	5.445710e+01
2.340000e-06	2.271334e-06	7.909018e-10	1.574927e+01	5.559154e+01
2.350000e-06	2.314534e-06	8.072284e-10	1.604881e+01	5.669779e+01
2.360000e-06	2.357489e-06	8.242631e-10	1.634666e+01	5.777630e+01
2.370000e-06	2.400223e-06	8.390639e-10	1.664298e+01	5.882749e+01
2.380000e-06	2.442715e-06	8.538074e-10	1.693761e+01	5.985176e+01
2.390000e-06	2.484852e-06	8.680716e-10	1.722979e+01	6.084951e+01
2.400000e-06	2.526631e-06	8.812154e-10	1.751948e+01	6.182109e+01
2.410000e-06	2.568082e-06	8.937615e-10	1.780689e+01	6.276685e+01
2.420000e-06	2.609232e-06	9.063595e-10	1.809223e+01	6.368712e+01
2.430000e-06	2.650135e-06	9.200240e-10	1.837585e+01	6.458221e+01
2.440000e-06	2.690765e-06	9.350030e-10	1.865757e+01	6.545242e+01
2.450000e-06	2.731179e-06	9.471286e-10	1.893780e+01	6.629805e+01
2.460000e-06	2.771429e-06	9.575394e-10	1.921689e+01	6.711936e+01
2.470000e-06	2.811481e-06	9.678123e-10	1.949461e+01	6.791667e+01
2.480000e-06	2.851392e-06	9.782888e-10	1.977135e+01	6.869025e+01
2.490000e-06	2.891170e-06	9.898714e-10	2.004717e+01	6.944042e+01
2.500000e-06	2.930836e-06	1.002732e-09	2.032221e+01	7.016750e+01
2.510000e-06	2.970413e-06	1.013295e-09	2.059663e+01	7.087182e+01
2.520000e-06	3.009829e-06	1.021616e-09	2.086994e+01	7.155374e+01
2.530000e-06	3.049040e-06	1.030426e-09	2.114183e+01	7.221365e+01
2.540000e-06	3.088006e-06	1.039266e-09	2.141201e+01	7.285196e+01
2.550000e-06	3.126777e-06	1.048863e-09	2.168085e+01	7.346912e+01
2.560000e-06	3.165284e-06	1.058896e-09	2.194785e+01	7.406560e+01
2.570000e-06	3.203484e-06	1.069306e-09	2.221273e+01	7.464189e+01
2.580000e-06	3.241520e-06	1.078885e-09	2.247647e+01	7.519852e+01
2.590000e-06	3.279390e-06	1.086596e-09	2.273906e+01	7.573603e+01
2.600000e-06	3.317089e-06	1.093357e-09	2.300046e+01	7.625500e+01
2.610000e-06	3.354580e-06	1.099918e-09	2.326042e+01	7.675603e+01
2.620000e-06	3.391813e-06	1.107102e-09	2.351859e+01	7.723971e+01
2.630000e-06	3.428797e-06	1.115022e-09	2.377503e+01	7.770666e+01
2.640000e-06	3.465446e-06	1.122325e-09	2.402915e+01	7.815752e+01
2.650000e-06	3.501791e-06	1.128438e-09	2.428117e+01	7.859290e+01
2.660000e-06	3.537969e-06	1.133669e-09	2.453203e+01	7.901344e+01
2.670000e-06	3.574023e-06	1.138192e-09	2.478202e+01	7.941976e+01
2.680000e-06	3.609955e-06	1.140487e-09	2.503117e+01	7.981248e+01
2.690000e-06	3.645698e-06	1.144673e-09	2.527901e+01	8.019219e+01
2.700000e-06	3.681290e-06	1.151060e-09	2.552580e+01	8.055948e+01
2.710000e-06	3.716670e-06	1.157818e-09	2.577113e+01	8.091493e+01
2.720000e-06	3.751816e-06	1.165273e-09	2.601483e+01	8.125909e+01
2.730000e-06	3.786767e-06	1.173110e-09	2.625717e+01	8.159248e+01
2.740000e-06	3.821211e-06	1.179396e-09	2.649600e+01	8.191561e+01
2.750000e-06	3.855037e-06	1.184508e-09	2.673055e+01	8.222898e+01
2.760000e-06	3.888446e-06	1.188996e-09	2.696221e+01	8.253304e+01
2.770000e-06	3.921445e-06	1.192132e-09	2.719102e+01	8.282824e+01
2.780000e-06	3.954005e-06	1.195087e-09	2.741679e+01	8.311500e+01
2.790000e-06	3.986257e-06	1.198612e-09	2.764042e+01	8.339373e+01
2.800000e-06	4.018309e-06	1.203221e-09	2.786267e+01	8.366482e+01
2.810000e-06	4.050198e-06	1.208073e-09	2.808379e+01	8.392864e+01
2.820000e-06	4.081957e-06	1.214856e-09	2.830400e+01	8.418554e+01
2.830000e-06	4.113592e-06	1.222172e-09	2.852336e+01	8.443587e+01
2.840000e-06	4.145006e-06	1.227337e-09	2.874118e+01	8.467997e+01
2.850000e-06	4.176138e-06	1.232912e-09	2.895705e+01	8.491815e+01
2.860000e-06	4.206976e-06	1.238593e-09	2.917087e+01	8.515072e+01
2.870000e-06	4.237466e-06	1.242747e-09	2.938229e+01	8.537799e+01
2.880000e-06	4.267623e-06	1.246779e-09	2.959140e+01	8.560026e+01
2.890000e-06	4.297468e-06	1.252354e-09	2.979834e+01	8.581779e+01
2.900000e-06	4.327062e-06	1.258979e-09	3.000354e+01	8.603087e+01
