# Temperatura_=_-17.32
# Concentracion g/m^3_=_1620.0
# C_Vs_to_Am_M_A/Vsm_=_65563218390.804596
# pendiente_HvsI_1/m_=_3716.3
# ordenada_HvsI_A/m_=_1297.0
# frecuencia_Hz_=_135111.2613205979

Tiempo_(s)	Campo_(V.s)	Magnetizacion_(V.s)	Campo_(kA/m)	Magnetizacion_(A/m)
0.000000e+00	-5.510652e-06	-8.256201e-10	-3.836584e+01	-5.468006e+01
1.000000e-08	-5.510791e-06	-8.274536e-10	-3.836681e+01	-5.469515e+01
2.000000e-08	-5.510717e-06	-8.270144e-10	-3.836629e+01	-5.471389e+01
3.000000e-08	-5.510323e-06	-8.253524e-10	-3.836355e+01	-5.473663e+01
4.000000e-08	-5.509501e-06	-8.221735e-10	-3.835783e+01	-5.476367e+01
5.000000e-08	-5.508177e-06	-8.170507e-10	-3.834861e+01	-5.479521e+01
6.000000e-08	-5.506268e-06	-8.102671e-10	-3.833532e+01	-5.483139e+01
7.000000e-08	-5.503599e-06	-8.107609e-10	-3.831674e+01	-5.487225e+01
8.000000e-08	-5.500319e-06	-8.153994e-10	-3.829390e+01	-5.491771e+01
9.000000e-08	-5.496621e-06	-8.030203e-10	-3.826815e+01	-5.496759e+01
1.000000e-07	-5.492498e-06	-7.861050e-10	-3.823945e+01	-5.502160e+01
1.100000e-07	-5.488081e-06	-8.198824e-10	-3.820870e+01	-5.507935e+01
1.200000e-07	-5.483444e-06	-8.241894e-10	-3.817642e+01	-5.514033e+01
1.300000e-07	-5.478555e-06	-8.072327e-10	-3.814237e+01	-5.520393e+01
1.400000e-07	-5.473303e-06	-7.973998e-10	-3.810581e+01	-5.526944e+01
1.500000e-07	-5.467679e-06	-8.140628e-10	-3.806665e+01	-5.533607e+01
1.600000e-07	-5.461727e-06	-8.386117e-10	-3.802522e+01	-5.540295e+01
1.700000e-07	-5.455364e-06	-8.064156e-10	-3.798092e+01	-5.546917e+01
1.800000e-07	-5.448450e-06	-8.116718e-10	-3.793278e+01	-5.553375e+01
1.900000e-07	-5.441121e-06	-8.469909e-10	-3.788176e+01	-5.559571e+01
2.000000e-07	-5.433546e-06	-8.612653e-10	-3.782901e+01	-5.565406e+01
2.100000e-07	-5.425738e-06	-8.312037e-10	-3.777466e+01	-5.570780e+01
2.200000e-07	-5.417702e-06	-8.173348e-10	-3.771871e+01	-5.575601e+01
2.300000e-07	-5.409402e-06	-8.519073e-10	-3.766093e+01	-5.579778e+01
2.400000e-07	-5.400703e-06	-8.775928e-10	-3.760036e+01	-5.583230e+01
2.500000e-07	-5.391386e-06	-8.796243e-10	-3.753549e+01	-5.585884e+01
2.600000e-07	-5.381404e-06	-8.682916e-10	-3.746600e+01	-5.587679e+01
2.700000e-07	-5.370777e-06	-8.577630e-10	-3.739201e+01	-5.588565e+01
2.800000e-07	-5.359612e-06	-8.534643e-10	-3.731428e+01	-5.588507e+01
2.900000e-07	-5.348010e-06	-8.620344e-10	-3.723351e+01	-5.587485e+01
3.000000e-07	-5.336046e-06	-8.626825e-10	-3.715021e+01	-5.585491e+01
3.100000e-07	-5.323756e-06	-8.650470e-10	-3.706465e+01	-5.582537e+01
3.200000e-07	-5.311007e-06	-8.933030e-10	-3.697589e+01	-5.578650e+01
3.300000e-07	-5.297848e-06	-9.082006e-10	-3.688427e+01	-5.573870e+01
3.400000e-07	-5.284342e-06	-8.805739e-10	-3.679024e+01	-5.568256e+01
3.500000e-07	-5.270416e-06	-8.669589e-10	-3.669329e+01	-5.561879e+01
3.600000e-07	-5.256160e-06	-8.844851e-10	-3.659404e+01	-5.554824e+01
3.700000e-07	-5.241580e-06	-8.638829e-10	-3.649253e+01	-5.547188e+01
3.800000e-07	-5.226310e-06	-8.425379e-10	-3.638622e+01	-5.539077e+01
3.900000e-07	-5.210223e-06	-8.756380e-10	-3.627422e+01	-5.530608e+01
4.000000e-07	-5.193598e-06	-8.810308e-10	-3.615847e+01	-5.521900e+01
4.100000e-07	-5.176655e-06	-8.385469e-10	-3.604051e+01	-5.513079e+01
4.200000e-07	-5.159500e-06	-8.542011e-10	-3.592108e+01	-5.504271e+01
4.300000e-07	-5.142115e-06	-8.918507e-10	-3.580004e+01	-5.495602e+01
4.400000e-07	-5.124468e-06	-8.500217e-10	-3.567718e+01	-5.487194e+01
4.500000e-07	-5.106472e-06	-8.286815e-10	-3.555189e+01	-5.479164e+01
4.600000e-07	-5.088005e-06	-8.757890e-10	-3.542332e+01	-5.471622e+01
4.700000e-07	-5.069118e-06	-8.545662e-10	-3.529182e+01	-5.464667e+01
4.800000e-07	-5.049896e-06	-8.032602e-10	-3.515800e+01	-5.458386e+01
4.900000e-07	-5.030343e-06	-8.454844e-10	-3.502187e+01	-5.452855e+01
5.000000e-07	-5.010542e-06	-8.723081e-10	-3.488401e+01	-5.448134e+01
5.100000e-07	-4.990538e-06	-8.223347e-10	-3.474474e+01	-5.444267e+01
5.200000e-07	-4.970264e-06	-8.340903e-10	-3.460359e+01	-5.441283e+01
5.300000e-07	-4.949646e-06	-8.766285e-10	-3.446005e+01	-5.439194e+01
5.400000e-07	-4.928705e-06	-8.340258e-10	-3.431425e+01	-5.437994e+01
5.500000e-07	-4.907426e-06	-8.097088e-10	-3.416610e+01	-5.437663e+01
5.600000e-07	-4.885761e-06	-8.515856e-10	-3.401527e+01	-5.438165e+01
5.700000e-07	-4.863833e-06	-8.350840e-10	-3.386261e+01	-5.439447e+01
5.800000e-07	-4.841554e-06	-8.005797e-10	-3.370749e+01	-5.441446e+01
5.900000e-07	-4.818825e-06	-8.403523e-10	-3.354926e+01	-5.444085e+01
6.000000e-07	-4.795708e-06	-8.568356e-10	-3.338831e+01	-5.447278e+01
6.100000e-07	-4.772309e-06	-8.222819e-10	-3.322541e+01	-5.450930e+01
6.200000e-07	-4.748734e-06	-8.380222e-10	-3.306127e+01	-5.454941e+01
6.300000e-07	-4.724938e-06	-8.629005e-10	-3.289560e+01	-5.459207e+01
6.400000e-07	-4.700884e-06	-8.393930e-10	-3.272814e+01	-5.463623e+01
6.500000e-07	-4.676588e-06	-8.336182e-10	-3.255898e+01	-5.468083e+01
6.600000e-07	-4.651925e-06	-8.540262e-10	-3.238728e+01	-5.472487e+01
6.700000e-07	-4.626813e-06	-8.412737e-10	-3.221244e+01	-5.476737e+01
6.800000e-07	-4.601092e-06	-8.301400e-10	-3.203337e+01	-5.480744e+01
6.900000e-07	-4.574675e-06	-8.494279e-10	-3.184945e+01	-5.484427e+01
7.000000e-07	-4.547773e-06	-8.513490e-10	-3.166216e+01	-5.487716e+01
7.100000e-07	-4.520541e-06	-8.368510e-10	-3.147256e+01	-5.490549e+01
7.200000e-07	-4.493045e-06	-8.388351e-10	-3.128113e+01	-5.492882e+01
7.300000e-07	-4.465281e-06	-8.396143e-10	-3.108784e+01	-5.494679e+01
7.400000e-07	-4.437315e-06	-8.287164e-10	-3.089314e+01	-5.495919e+01
7.500000e-07	-4.409193e-06	-8.288717e-10	-3.069734e+01	-5.496597e+01
7.600000e-07	-4.380916e-06	-8.326537e-10	-3.050048e+01	-5.496716e+01
7.700000e-07	-4.352390e-06	-8.233277e-10	-3.030188e+01	-5.496295e+01
7.800000e-07	-4.323487e-06	-8.147658e-10	-3.010065e+01	-5.495364e+01
7.900000e-07	-4.294209e-06	-8.157679e-10	-2.989681e+01	-5.493960e+01
8.000000e-07	-4.264592e-06	-8.122865e-10	-2.969062e+01	-5.492134e+01
8.100000e-07	-4.234669e-06	-8.087956e-10	-2.948229e+01	-5.489940e+01
8.200000e-07	-4.204435e-06	-8.169749e-10	-2.927180e+01	-5.487439e+01
8.300000e-07	-4.173933e-06	-8.235880e-10	-2.905944e+01	-5.484695e+01
8.400000e-07	-4.143181e-06	-8.198296e-10	-2.884533e+01	-5.481775e+01
8.500000e-07	-4.112158e-06	-8.205594e-10	-2.862935e+01	-5.478744e+01
8.600000e-07	-4.080871e-06	-8.213389e-10	-2.841152e+01	-5.475666e+01
8.700000e-07	-4.049338e-06	-8.134615e-10	-2.819199e+01	-5.472601e+01
8.800000e-07	-4.017642e-06	-8.103652e-10	-2.797132e+01	-5.469602e+01
8.900000e-07	-3.985811e-06	-8.149175e-10	-2.774971e+01	-5.466718e+01
9.000000e-07	-3.953789e-06	-8.137134e-10	-2.752676e+01	-5.463985e+01
9.100000e-07	-3.921519e-06	-8.147803e-10	-2.730210e+01	-5.461434e+01
9.200000e-07	-3.888883e-06	-8.234744e-10	-2.707489e+01	-5.459083e+01
9.300000e-07	-3.855835e-06	-8.254365e-10	-2.684480e+01	-5.456940e+01
9.400000e-07	-3.822465e-06	-8.214739e-10	-2.661247e+01	-5.455002e+01
9.500000e-07	-3.788633e-06	-8.238944e-10	-2.637693e+01	-5.453256e+01
9.600000e-07	-3.754227e-06	-8.220201e-10	-2.613739e+01	-5.451677e+01
9.700000e-07	-3.719408e-06	-8.108443e-10	-2.589498e+01	-5.450230e+01
9.800000e-07	-3.684281e-06	-8.062193e-10	-2.565042e+01	-5.448873e+01
9.900000e-07	-3.648880e-06	-8.096934e-10	-2.540395e+01	-5.447554e+01
1.000000e-06	-3.613234e-06	-8.097754e-10	-2.515578e+01	-5.446216e+01
1.010000e-06	-3.577407e-06	-8.120657e-10	-2.490635e+01	-5.444796e+01
1.020000e-06	-3.541449e-06	-8.213183e-10	-2.465601e+01	-5.443229e+01
1.030000e-06	-3.505377e-06	-8.259177e-10	-2.440487e+01	-5.441446e+01
1.040000e-06	-3.469141e-06	-8.244583e-10	-2.415259e+01	-5.439380e+01
1.050000e-06	-3.432623e-06	-8.228138e-10	-2.389834e+01	-5.436966e+01
1.060000e-06	-3.395792e-06	-8.169249e-10	-2.364192e+01	-5.434142e+01
1.070000e-06	-3.358694e-06	-8.080389e-10	-2.338364e+01	-5.430852e+01
1.080000e-06	-3.321310e-06	-8.079936e-10	-2.312337e+01	-5.427045e+01
1.090000e-06	-3.283690e-06	-8.147478e-10	-2.286145e+01	-5.422680e+01
1.100000e-06	-3.245892e-06	-8.164437e-10	-2.259830e+01	-5.417725e+01
1.110000e-06	-3.207903e-06	-8.162842e-10	-2.233382e+01	-5.412156e+01
1.120000e-06	-3.169783e-06	-8.195997e-10	-2.206842e+01	-5.405961e+01
1.130000e-06	-3.131484e-06	-8.170667e-10	-2.180178e+01	-5.399140e+01
1.140000e-06	-3.092973e-06	-8.101717e-10	-2.153366e+01	-5.391701e+01
1.150000e-06	-3.054197e-06	-8.074967e-10	-2.126370e+01	-5.383667e+01
1.160000e-06	-3.015140e-06	-8.059099e-10	-2.099177e+01	-5.375066e+01
1.170000e-06	-2.975914e-06	-8.009831e-10	-2.071868e+01	-5.365939e+01
1.180000e-06	-2.936544e-06	-7.989003e-10	-2.044458e+01	-5.356334e+01
1.190000e-06	-2.896946e-06	-7.989041e-10	-2.016890e+01	-5.346307e+01
1.200000e-06	-2.857127e-06	-7.956250e-10	-1.989167e+01	-5.335918e+01
1.210000e-06	-2.817234e-06	-7.935565e-10	-1.961393e+01	-5.325231e+01
1.220000e-06	-2.777269e-06	-7.945774e-10	-1.933569e+01	-5.314313e+01
1.230000e-06	-2.737187e-06	-7.949321e-10	-1.905663e+01	-5.303233e+01
1.240000e-06	-2.696958e-06	-7.936859e-10	-1.877656e+01	-5.292054e+01
1.250000e-06	-2.656564e-06	-7.933045e-10	-1.849533e+01	-5.280839e+01
1.260000e-06	-2.615931e-06	-7.927901e-10	-1.821243e+01	-5.269646e+01
1.270000e-06	-2.575132e-06	-7.871748e-10	-1.792839e+01	-5.258524e+01
1.280000e-06	-2.534162e-06	-7.802690e-10	-1.764315e+01	-5.247516e+01
1.290000e-06	-2.492825e-06	-7.770660e-10	-1.735536e+01	-5.236654e+01
1.300000e-06	-2.451171e-06	-7.735336e-10	-1.706536e+01	-5.225960e+01
1.310000e-06	-2.409232e-06	-7.713516e-10	-1.677337e+01	-5.215442e+01
1.320000e-06	-2.366926e-06	-7.749640e-10	-1.647883e+01	-5.205100e+01
1.330000e-06	-2.324362e-06	-7.785178e-10	-1.618249e+01	-5.194918e+01
1.340000e-06	-2.281613e-06	-7.780453e-10	-1.588487e+01	-5.184868e+01
1.350000e-06	-2.238627e-06	-7.754500e-10	-1.558560e+01	-5.174911e+01
1.360000e-06	-2.195346e-06	-7.684059e-10	-1.528427e+01	-5.164994e+01
1.370000e-06	-2.151795e-06	-7.581024e-10	-1.498106e+01	-5.155053e+01
1.380000e-06	-2.108162e-06	-7.504402e-10	-1.467729e+01	-5.145016e+01
1.390000e-06	-2.064464e-06	-7.476121e-10	-1.437305e+01	-5.134801e+01
1.400000e-06	-2.020615e-06	-7.460726e-10	-1.406777e+01	-5.124316e+01
1.410000e-06	-1.976685e-06	-7.454987e-10	-1.376193e+01	-5.113468e+01
1.420000e-06	-1.932725e-06	-7.479307e-10	-1.345587e+01	-5.102155e+01
1.430000e-06	-1.888714e-06	-7.485723e-10	-1.314946e+01	-5.090276e+01
1.440000e-06	-1.844604e-06	-7.458241e-10	-1.284236e+01	-5.077727e+01
1.450000e-06	-1.800362e-06	-7.411089e-10	-1.253434e+01	-5.064406e+01
1.460000e-06	-1.756066e-06	-7.338921e-10	-1.222595e+01	-5.050214e+01
1.470000e-06	-1.711695e-06	-7.242301e-10	-1.191703e+01	-5.035056e+01
1.480000e-06	-1.667173e-06	-7.171041e-10	-1.160706e+01	-5.018842e+01
1.490000e-06	-1.622575e-06	-7.134898e-10	-1.129657e+01	-5.001490e+01
1.500000e-06	-1.577872e-06	-7.114765e-10	-1.098534e+01	-4.982926e+01
1.510000e-06	-1.533030e-06	-7.117971e-10	-1.067314e+01	-4.963085e+01
1.520000e-06	-1.488024e-06	-7.140729e-10	-1.035981e+01	-4.941909e+01
1.530000e-06	-1.442808e-06	-7.163213e-10	-1.004501e+01	-4.919352e+01
1.540000e-06	-1.397463e-06	-7.143992e-10	-9.729313e+00	-4.895377e+01
1.550000e-06	-1.352070e-06	-7.071059e-10	-9.413278e+00	-4.869956e+01
1.560000e-06	-1.306600e-06	-6.956959e-10	-9.096710e+00	-4.843069e+01
1.570000e-06	-1.261013e-06	-6.847044e-10	-8.779327e+00	-4.814706e+01
1.580000e-06	-1.215316e-06	-6.786077e-10	-8.461179e+00	-4.784859e+01
1.590000e-06	-1.169579e-06	-6.789252e-10	-8.142751e+00	-4.753531e+01
1.600000e-06	-1.123851e-06	-6.818843e-10	-7.824391e+00	-4.720726e+01
1.610000e-06	-1.078014e-06	-6.818545e-10	-7.505265e+00	-4.686449e+01
1.620000e-06	-1.032092e-06	-6.773961e-10	-7.185549e+00	-4.650708e+01
1.630000e-06	-9.861588e-07	-6.705398e-10	-6.865760e+00	-4.613510e+01
1.640000e-06	-9.401391e-07	-6.631705e-10	-6.545365e+00	-4.574857e+01
1.650000e-06	-8.940085e-07	-6.560843e-10	-6.224197e+00	-4.534748e+01
1.660000e-06	-8.478622e-07	-6.489675e-10	-5.902921e+00	-4.493175e+01
1.670000e-06	-8.016500e-07	-6.418777e-10	-5.581186e+00	-4.450124e+01
1.680000e-06	-7.552696e-07	-6.332855e-10	-5.258280e+00	-4.405570e+01
1.690000e-06	-7.087756e-07	-6.240117e-10	-4.934583e+00	-4.359479e+01
1.700000e-06	-6.622610e-07	-6.158817e-10	-4.610743e+00	-4.311806e+01
1.710000e-06	-6.158485e-07	-6.089090e-10	-4.287613e+00	-4.262494e+01
1.720000e-06	-5.694202e-07	-6.039134e-10	-3.964374e+00	-4.211474e+01
1.730000e-06	-5.229675e-07	-5.981069e-10	-3.640965e+00	-4.158667e+01
1.740000e-06	-4.765293e-07	-5.896210e-10	-3.317656e+00	-4.103980e+01
1.750000e-06	-4.299551e-07	-5.776871e-10	-2.993401e+00	-4.047311e+01
1.760000e-06	-3.833253e-07	-5.637565e-10	-2.668758e+00	-3.988549e+01
1.770000e-06	-3.367051e-07	-5.517726e-10	-2.344183e+00	-3.927572e+01
1.780000e-06	-2.900828e-07	-5.417022e-10	-2.019592e+00	-3.864254e+01
1.790000e-06	-2.434187e-07	-5.330149e-10	-1.694711e+00	-3.798460e+01
1.800000e-06	-1.967323e-07	-5.249559e-10	-1.369675e+00	-3.730057e+01
1.810000e-06	-1.500453e-07	-5.151708e-10	-1.044634e+00	-3.658906e+01
1.820000e-06	-1.033046e-07	-5.047129e-10	-7.192193e-01	-3.584874e+01
1.830000e-06	-5.653847e-08	-4.937581e-10	-3.936278e-01	-3.507827e+01
1.840000e-06	-9.728995e-09	-4.827014e-10	-6.773447e-02	-3.427642e+01
1.850000e-06	3.707331e-08	-4.694415e-10	2.581089e-01	-3.344202e+01
1.860000e-06	8.381481e-08	-4.548341e-10	5.835291e-01	-3.257402e+01
1.870000e-06	1.305496e-07	-4.389513e-10	9.089026e-01	-3.167151e+01
1.880000e-06	1.773032e-07	-4.222600e-10	1.234407e+00	-3.073372e+01
1.890000e-06	2.240882e-07	-4.076615e-10	1.560129e+00	-2.976008e+01
1.900000e-06	2.708772e-07	-3.927488e-10	1.885880e+00	-2.875019e+01
1.910000e-06	3.176240e-07	-3.782546e-10	2.211337e+00	-2.770389e+01
1.920000e-06	3.642862e-07	-3.656539e-10	2.536206e+00	-2.662121e+01
1.930000e-06	4.109360e-07	-3.514704e-10	2.860987e+00	-2.550242e+01
1.940000e-06	4.575654e-07	-3.348838e-10	3.185627e+00	-2.434804e+01
1.950000e-06	5.041194e-07	-3.186240e-10	3.509741e+00	-2.315880e+01
1.960000e-06	5.505862e-07	-3.035250e-10	3.833249e+00	-2.193570e+01
1.970000e-06	5.969980e-07	-2.868215e-10	4.156374e+00	-2.067993e+01
1.980000e-06	6.434009e-07	-2.687032e-10	4.479437e+00	-1.939295e+01
1.990000e-06	6.897454e-07	-2.502197e-10	4.802092e+00	-1.807640e+01
2.000000e-06	7.361088e-07	-2.270472e-10	5.124880e+00	-1.673213e+01
2.010000e-06	7.824510e-07	-2.007835e-10	5.447520e+00	-1.536217e+01
2.020000e-06	8.286091e-07	-1.769159e-10	5.768879e+00	-1.396871e+01
2.030000e-06	8.746835e-07	-1.572034e-10	6.089654e+00	-1.255409e+01
2.040000e-06	9.207071e-07	-1.419025e-10	6.410076e+00	-1.112077e+01
2.050000e-06	9.666745e-07	-1.269673e-10	6.730107e+00	-9.671313e+00
2.060000e-06	1.012652e-06	-1.078048e-10	7.050207e+00	-8.208339e+00
2.070000e-06	1.058526e-06	-8.476173e-11	7.369586e+00	-6.734530e+00
2.080000e-06	1.104269e-06	-5.859349e-11	7.688057e+00	-5.252591e+00
2.090000e-06	1.150016e-06	-3.207864e-11	8.006556e+00	-3.765228e+00
2.100000e-06	1.195745e-06	-8.774733e-12	8.324924e+00	-2.275126e+00
2.110000e-06	1.241372e-06	9.728046e-12	8.642587e+00	-7.849302e-01
2.120000e-06	1.286882e-06	2.543170e-11	8.959433e+00	7.027794e-01
2.130000e-06	1.332250e-06	3.978958e-11	9.275290e+00	2.185501e+00
2.140000e-06	1.377518e-06	5.505184e-11	9.590448e+00	3.660829e+00
2.150000e-06	1.422733e-06	7.514199e-11	9.905242e+00	5.126470e+00
2.160000e-06	1.467855e-06	1.006986e-10	1.021939e+01	6.580248e+00
2.170000e-06	1.512837e-06	1.274117e-10	1.053256e+01	8.020122e+00
2.180000e-06	1.557713e-06	1.508921e-10	1.084499e+01	9.444186e+00
2.190000e-06	1.602486e-06	1.716820e-10	1.115671e+01	1.085068e+01
2.200000e-06	1.647125e-06	1.888271e-10	1.146749e+01	1.223798e+01
2.210000e-06	1.691566e-06	2.008402e-10	1.177689e+01	1.360463e+01
2.220000e-06	1.735858e-06	2.128966e-10	1.208526e+01	1.494929e+01
2.230000e-06	1.780079e-06	2.288518e-10	1.239313e+01	1.627078e+01
2.240000e-06	1.824216e-06	2.475167e-10	1.270041e+01	1.756804e+01
2.250000e-06	1.868295e-06	2.672790e-10	1.300730e+01	1.884016e+01
2.260000e-06	1.912266e-06	2.891596e-10	1.331343e+01	2.008636e+01
2.270000e-06	1.956147e-06	3.099702e-10	1.361894e+01	2.130593e+01
2.280000e-06	2.000033e-06	3.265417e-10	1.392447e+01	2.249833e+01
2.290000e-06	2.043896e-06	3.424359e-10	1.422985e+01	2.366308e+01
2.300000e-06	2.087704e-06	3.576526e-10	1.453485e+01	2.479981e+01
2.310000e-06	2.131432e-06	3.715460e-10	1.483929e+01	2.590821e+01
2.320000e-06	2.175074e-06	3.854223e-10	1.514313e+01	2.698809e+01
2.330000e-06	2.218554e-06	3.983040e-10	1.544584e+01	2.803929e+01
2.340000e-06	2.261794e-06	4.104316e-10	1.574689e+01	2.906174e+01
2.350000e-06	2.304821e-06	4.241335e-10	1.604645e+01	3.005541e+01
2.360000e-06	2.347631e-06	4.381333e-10	1.634449e+01	3.102033e+01
2.370000e-06	2.390164e-06	4.484474e-10	1.664062e+01	3.195657e+01
2.380000e-06	2.432301e-06	4.593230e-10	1.693398e+01	3.286427e+01
2.390000e-06	2.474048e-06	4.729146e-10	1.722463e+01	3.374359e+01
2.400000e-06	2.515500e-06	4.862425e-10	1.751322e+01	3.459474e+01
2.410000e-06	2.556706e-06	4.991695e-10	1.780010e+01	3.541797e+01
2.420000e-06	2.597572e-06	5.100262e-10	1.808462e+01	3.621355e+01
2.430000e-06	2.638179e-06	5.198557e-10	1.836733e+01	3.698183e+01
2.440000e-06	2.678659e-06	5.280262e-10	1.864915e+01	3.772316e+01
2.450000e-06	2.718912e-06	5.353428e-10	1.892940e+01	3.843795e+01
2.460000e-06	2.758987e-06	5.438852e-10	1.920841e+01	3.912664e+01
2.470000e-06	2.798961e-06	5.550944e-10	1.948671e+01	3.978971e+01
2.480000e-06	2.838843e-06	5.687652e-10	1.976437e+01	4.042768e+01
2.490000e-06	2.878618e-06	5.821318e-10	2.004129e+01	4.104110e+01
2.500000e-06	2.918261e-06	5.938982e-10	2.031729e+01	4.163057e+01
2.510000e-06	2.957758e-06	6.025635e-10	2.059228e+01	4.219670e+01
2.520000e-06	2.997028e-06	6.090532e-10	2.086568e+01	4.274016e+01
2.530000e-06	3.036078e-06	6.146300e-10	2.113755e+01	4.326164e+01
2.540000e-06	3.074930e-06	6.185268e-10	2.140804e+01	4.376184e+01
2.550000e-06	3.113480e-06	6.225484e-10	2.167643e+01	4.424150e+01
2.560000e-06	3.151754e-06	6.286537e-10	2.194290e+01	4.470136e+01
2.570000e-06	3.189896e-06	6.366605e-10	2.220845e+01	4.514219e+01
2.580000e-06	3.227858e-06	6.449582e-10	2.247275e+01	4.556475e+01
2.590000e-06	3.265501e-06	6.527245e-10	2.273482e+01	4.596982e+01
2.600000e-06	3.302943e-06	6.602343e-10	2.299550e+01	4.635816e+01
2.610000e-06	3.340263e-06	6.651331e-10	2.325532e+01	4.673051e+01
2.620000e-06	3.377327e-06	6.670912e-10	2.351337e+01	4.708763e+01
2.630000e-06	3.414103e-06	6.685887e-10	2.376940e+01	4.743022e+01
2.640000e-06	3.450620e-06	6.704151e-10	2.402364e+01	4.775899e+01
2.650000e-06	3.486909e-06	6.740384e-10	2.427629e+01	4.807458e+01
2.660000e-06	3.523015e-06	6.799469e-10	2.452766e+01	4.837764e+01
2.670000e-06	3.558963e-06	6.865852e-10	2.477794e+01	4.866874e+01
2.680000e-06	3.594801e-06	6.937464e-10	2.502745e+01	4.894846e+01
2.690000e-06	3.630541e-06	7.008179e-10	2.527628e+01	4.921729e+01
2.700000e-06	3.666181e-06	7.045319e-10	2.552440e+01	4.947572e+01
2.710000e-06	3.701607e-06	7.057495e-10	2.577105e+01	4.972417e+01
2.720000e-06	3.736652e-06	7.092685e-10	2.601503e+01	4.996304e+01
2.730000e-06	3.771205e-06	7.127217e-10	2.625560e+01	5.019269e+01
2.740000e-06	3.805290e-06	7.154895e-10	2.649290e+01	5.041343e+01
2.750000e-06	3.838983e-06	7.182222e-10	2.672748e+01	5.062557e+01
2.760000e-06	3.872214e-06	7.210339e-10	2.695883e+01	5.082937e+01
2.770000e-06	3.904980e-06	7.236668e-10	2.718696e+01	5.102505e+01
2.780000e-06	3.937349e-06	7.295719e-10	2.741231e+01	5.121286e+01
2.790000e-06	3.969445e-06	7.379963e-10	2.763577e+01	5.139299e+01
2.800000e-06	4.001444e-06	7.446961e-10	2.785854e+01	5.156565e+01
2.810000e-06	4.033363e-06	7.487229e-10	2.808077e+01	5.173102e+01
2.820000e-06	4.065138e-06	7.496731e-10	2.830199e+01	5.188929e+01
2.830000e-06	4.096686e-06	7.510924e-10	2.852163e+01	5.204067e+01
2.840000e-06	4.127962e-06	7.504467e-10	2.873938e+01	5.218535e+01
2.850000e-06	4.158959e-06	7.504035e-10	2.895519e+01	5.232354e+01
2.860000e-06	4.189635e-06	7.546614e-10	2.916876e+01	5.245546e+01
2.870000e-06	4.219900e-06	7.598700e-10	2.937947e+01	5.258134e+01
2.880000e-06	4.249820e-06	7.667078e-10	2.958777e+01	5.270141e+01
2.890000e-06	4.279500e-06	7.727708e-10	2.979441e+01	5.281593e+01
2.900000e-06	4.308949e-06	7.776420e-10	2.999944e+01	5.292515e+01
