# Temperatura_=_-9.7
# Concentracion g/m^3_=_1620.0
# C_Vs_to_Am_M_A/Vsm_=_65563218390.804596
# pendiente_HvsI_1/m_=_3716.3
# ordenada_HvsI_A/m_=_1297.0
# frecuencia_Hz_=_135110.41648414894

Tiempo_(s)	Campo_(V.s)	Magnetizacion_(V.s)	Campo_(kA/m)	Magnetizacion_(A/m)
0.000000e+00	-5.518254e-06	-9.910879e-10	-3.837620e+01	-6.551597e+01
1.000000e-08	-5.518314e-06	-9.905508e-10	-3.837662e+01	-6.550791e+01
2.000000e-08	-5.518138e-06	-9.894845e-10	-3.837540e+01	-6.549866e+01
3.000000e-08	-5.517577e-06	-9.881570e-10	-3.837150e+01	-6.548797e+01
4.000000e-08	-5.516489e-06	-9.855443e-10	-3.836393e+01	-6.547559e+01
5.000000e-08	-5.514886e-06	-9.782604e-10	-3.835278e+01	-6.546126e+01
6.000000e-08	-5.512726e-06	-9.682013e-10	-3.833776e+01	-6.544475e+01
7.000000e-08	-5.510037e-06	-9.729843e-10	-3.831906e+01	-6.542584e+01
8.000000e-08	-5.506883e-06	-9.907673e-10	-3.829712e+01	-6.540429e+01
9.000000e-08	-5.503152e-06	-9.961242e-10	-3.827117e+01	-6.537989e+01
1.000000e-07	-5.498930e-06	-9.804032e-10	-3.824182e+01	-6.535245e+01
1.100000e-07	-5.494463e-06	-9.997231e-10	-3.821075e+01	-6.532175e+01
1.200000e-07	-5.489824e-06	-9.587163e-10	-3.817849e+01	-6.528760e+01
1.300000e-07	-5.484890e-06	-9.648706e-10	-3.814418e+01	-6.524983e+01
1.400000e-07	-5.479469e-06	-9.415237e-10	-3.810648e+01	-6.520826e+01
1.500000e-07	-5.473705e-06	-9.780393e-10	-3.806639e+01	-6.516273e+01
1.600000e-07	-5.467688e-06	-9.794475e-10	-3.802455e+01	-6.511307e+01
1.700000e-07	-5.461221e-06	-9.719586e-10	-3.797957e+01	-6.505915e+01
1.800000e-07	-5.454234e-06	-9.850381e-10	-3.793098e+01	-6.500083e+01
1.900000e-07	-5.446864e-06	-1.015636e-09	-3.787973e+01	-6.493801e+01
2.000000e-07	-5.439212e-06	-9.964334e-10	-3.782652e+01	-6.487058e+01
2.100000e-07	-5.431292e-06	-9.608856e-10	-3.777143e+01	-6.479848e+01
2.200000e-07	-5.423180e-06	-9.683206e-10	-3.771502e+01	-6.472165e+01
2.300000e-07	-5.414887e-06	-9.935218e-10	-3.765735e+01	-6.464006e+01
2.400000e-07	-5.406144e-06	-9.930721e-10	-3.759654e+01	-6.455373e+01
2.500000e-07	-5.396672e-06	-9.629819e-10	-3.753067e+01	-6.446268e+01
2.600000e-07	-5.386428e-06	-9.780254e-10	-3.745943e+01	-6.436700e+01
2.700000e-07	-5.375593e-06	-9.584535e-10	-3.738408e+01	-6.426679e+01
2.800000e-07	-5.364253e-06	-9.492855e-10	-3.730522e+01	-6.416221e+01
2.900000e-07	-5.352494e-06	-9.307681e-10	-3.722344e+01	-6.405345e+01
3.000000e-07	-5.340477e-06	-9.484118e-10	-3.713987e+01	-6.394076e+01
3.100000e-07	-5.328069e-06	-9.362473e-10	-3.705358e+01	-6.382440e+01
3.200000e-07	-5.315146e-06	-9.703423e-10	-3.696370e+01	-6.370473e+01
3.300000e-07	-5.301794e-06	-9.614267e-10	-3.687085e+01	-6.358210e+01
3.400000e-07	-5.288107e-06	-9.594347e-10	-3.677567e+01	-6.345692e+01
3.500000e-07	-5.274002e-06	-9.377766e-10	-3.667757e+01	-6.332966e+01
3.600000e-07	-5.259507e-06	-9.587817e-10	-3.657677e+01	-6.320081e+01
3.700000e-07	-5.244508e-06	-9.219595e-10	-3.647246e+01	-6.307087e+01
3.800000e-07	-5.229017e-06	-9.308085e-10	-3.636473e+01	-6.294040e+01
3.900000e-07	-5.213083e-06	-9.563902e-10	-3.625392e+01	-6.280996e+01
4.000000e-07	-5.196671e-06	-9.568323e-10	-3.613978e+01	-6.268012e+01
4.100000e-07	-5.179881e-06	-9.193223e-10	-3.602302e+01	-6.255147e+01
4.200000e-07	-5.162690e-06	-9.423968e-10	-3.590346e+01	-6.242458e+01
4.300000e-07	-5.145157e-06	-9.597260e-10	-3.578154e+01	-6.230001e+01
4.400000e-07	-5.127414e-06	-9.197515e-10	-3.565814e+01	-6.217832e+01
4.500000e-07	-5.109302e-06	-9.252153e-10	-3.553218e+01	-6.206000e+01
4.600000e-07	-5.090741e-06	-9.533247e-10	-3.540310e+01	-6.194554e+01
4.700000e-07	-5.071836e-06	-9.230967e-10	-3.527163e+01	-6.183536e+01
4.800000e-07	-5.052520e-06	-8.959876e-10	-3.513730e+01	-6.172982e+01
4.900000e-07	-5.032857e-06	-9.468411e-10	-3.500055e+01	-6.162924e+01
5.000000e-07	-5.013017e-06	-9.425600e-10	-3.486258e+01	-6.153384e+01
5.100000e-07	-4.992975e-06	-9.118819e-10	-3.472320e+01	-6.144381e+01
5.200000e-07	-4.972625e-06	-9.301508e-10	-3.458168e+01	-6.135921e+01
5.300000e-07	-4.951943e-06	-9.537404e-10	-3.443784e+01	-6.128004e+01
5.400000e-07	-4.930951e-06	-9.066557e-10	-3.429186e+01	-6.120623e+01
5.500000e-07	-4.909596e-06	-9.123991e-10	-3.414334e+01	-6.113762e+01
5.600000e-07	-4.887853e-06	-9.302166e-10	-3.399213e+01	-6.107394e+01
5.700000e-07	-4.865774e-06	-9.051246e-10	-3.383859e+01	-6.101488e+01
5.800000e-07	-4.843268e-06	-8.859057e-10	-3.368207e+01	-6.096004e+01
5.900000e-07	-4.820421e-06	-9.274146e-10	-3.352319e+01	-6.090893e+01
6.000000e-07	-4.797313e-06	-9.164664e-10	-3.336249e+01	-6.086104e+01
6.100000e-07	-4.773855e-06	-8.913034e-10	-3.319935e+01	-6.081578e+01
6.200000e-07	-4.750185e-06	-8.984852e-10	-3.303474e+01	-6.077251e+01
6.300000e-07	-4.726408e-06	-9.082988e-10	-3.286938e+01	-6.073058e+01
6.400000e-07	-4.702365e-06	-8.831211e-10	-3.270217e+01	-6.068930e+01
6.500000e-07	-4.677960e-06	-8.926213e-10	-3.253245e+01	-6.064799e+01
6.600000e-07	-4.653058e-06	-9.070087e-10	-3.235928e+01	-6.060595e+01
6.700000e-07	-4.627558e-06	-8.981314e-10	-3.218193e+01	-6.056250e+01
6.800000e-07	-4.601519e-06	-8.911844e-10	-3.200085e+01	-6.051700e+01
6.900000e-07	-4.574983e-06	-9.057741e-10	-3.181631e+01	-6.046884e+01
7.000000e-07	-4.548033e-06	-8.977892e-10	-3.162889e+01	-6.041744e+01
7.100000e-07	-4.520689e-06	-8.828775e-10	-3.143873e+01	-6.036231e+01
7.200000e-07	-4.493017e-06	-8.841629e-10	-3.124628e+01	-6.030300e+01
7.300000e-07	-4.465212e-06	-8.859627e-10	-3.105292e+01	-6.023914e+01
7.400000e-07	-4.437311e-06	-8.801427e-10	-3.085888e+01	-6.017045e+01
7.500000e-07	-4.409223e-06	-8.850824e-10	-3.066355e+01	-6.009672e+01
7.600000e-07	-4.380913e-06	-8.939322e-10	-3.046666e+01	-6.001783e+01
7.700000e-07	-4.352262e-06	-8.819444e-10	-3.026742e+01	-5.993376e+01
7.800000e-07	-4.323193e-06	-8.740726e-10	-3.006526e+01	-5.984455e+01
7.900000e-07	-4.293788e-06	-8.742811e-10	-2.986076e+01	-5.975033e+01
8.000000e-07	-4.264092e-06	-8.720337e-10	-2.965425e+01	-5.965133e+01
8.100000e-07	-4.234071e-06	-8.627034e-10	-2.944547e+01	-5.954782e+01
8.200000e-07	-4.203749e-06	-8.715807e-10	-2.923460e+01	-5.944017e+01
8.300000e-07	-4.173206e-06	-8.741478e-10	-2.902219e+01	-5.932876e+01
8.400000e-07	-4.142422e-06	-8.718701e-10	-2.880810e+01	-5.921407e+01
8.500000e-07	-4.111402e-06	-8.684130e-10	-2.859238e+01	-5.909656e+01
8.600000e-07	-4.080168e-06	-8.670132e-10	-2.837516e+01	-5.897676e+01
8.700000e-07	-4.048680e-06	-8.514849e-10	-2.815618e+01	-5.885518e+01
8.800000e-07	-4.016927e-06	-8.494616e-10	-2.793536e+01	-5.873236e+01
8.900000e-07	-3.985000e-06	-8.509799e-10	-2.771333e+01	-5.860879e+01
9.000000e-07	-3.952913e-06	-8.519672e-10	-2.749018e+01	-5.848496e+01
9.100000e-07	-3.920563e-06	-8.494364e-10	-2.726520e+01	-5.836134e+01
9.200000e-07	-3.887904e-06	-8.551125e-10	-2.703808e+01	-5.823833e+01
9.300000e-07	-3.854863e-06	-8.477366e-10	-2.680830e+01	-5.811628e+01
9.400000e-07	-3.821329e-06	-8.417084e-10	-2.657509e+01	-5.799550e+01
9.500000e-07	-3.787264e-06	-8.414023e-10	-2.633819e+01	-5.787622e+01
9.600000e-07	-3.752705e-06	-8.405608e-10	-2.609785e+01	-5.775859e+01
9.700000e-07	-3.717773e-06	-8.313088e-10	-2.585492e+01	-5.764270e+01
9.800000e-07	-3.682551e-06	-8.299427e-10	-2.560997e+01	-5.752857e+01
9.900000e-07	-3.647057e-06	-8.318438e-10	-2.536313e+01	-5.741614e+01
1.000000e-06	-3.611358e-06	-8.295723e-10	-2.511486e+01	-5.730526e+01
1.010000e-06	-3.575535e-06	-8.289244e-10	-2.486574e+01	-5.719575e+01
1.020000e-06	-3.539599e-06	-8.318241e-10	-2.461582e+01	-5.708732e+01
1.030000e-06	-3.503471e-06	-8.317023e-10	-2.436457e+01	-5.697966e+01
1.040000e-06	-3.467105e-06	-8.288269e-10	-2.411167e+01	-5.687240e+01
1.050000e-06	-3.430498e-06	-8.295496e-10	-2.385709e+01	-5.676513e+01
1.060000e-06	-3.393643e-06	-8.247259e-10	-2.360078e+01	-5.665739e+01
1.070000e-06	-3.356525e-06	-8.194360e-10	-2.334265e+01	-5.654872e+01
1.080000e-06	-3.319181e-06	-8.174526e-10	-2.308295e+01	-5.643865e+01
1.090000e-06	-3.281601e-06	-8.201838e-10	-2.282160e+01	-5.632670e+01
1.100000e-06	-3.243782e-06	-8.159631e-10	-2.255859e+01	-5.621240e+01
1.110000e-06	-3.205789e-06	-8.133792e-10	-2.229437e+01	-5.609530e+01
1.120000e-06	-3.167541e-06	-8.108638e-10	-2.202838e+01	-5.597497e+01
1.130000e-06	-3.128981e-06	-8.070018e-10	-2.176022e+01	-5.585102e+01
1.140000e-06	-3.090229e-06	-8.013985e-10	-2.149072e+01	-5.572310e+01
1.150000e-06	-3.051312e-06	-8.015476e-10	-2.122008e+01	-5.559092e+01
1.160000e-06	-3.012211e-06	-7.982161e-10	-2.094815e+01	-5.545421e+01
1.170000e-06	-2.972989e-06	-7.954184e-10	-2.067539e+01	-5.531278e+01
1.180000e-06	-2.933576e-06	-7.932880e-10	-2.040129e+01	-5.516650e+01
1.190000e-06	-2.893922e-06	-7.926877e-10	-2.012552e+01	-5.501526e+01
1.200000e-06	-2.854139e-06	-7.846693e-10	-1.984885e+01	-5.485903e+01
1.210000e-06	-2.814281e-06	-7.782501e-10	-1.957166e+01	-5.469784e+01
1.220000e-06	-2.774301e-06	-7.744188e-10	-1.929362e+01	-5.453173e+01
1.230000e-06	-2.734187e-06	-7.745222e-10	-1.901466e+01	-5.436080e+01
1.240000e-06	-2.693884e-06	-7.739260e-10	-1.873437e+01	-5.418519e+01
1.250000e-06	-2.653339e-06	-7.767649e-10	-1.845241e+01	-5.400504e+01
1.260000e-06	-2.612554e-06	-7.766486e-10	-1.816877e+01	-5.382054e+01
1.270000e-06	-2.571474e-06	-7.715341e-10	-1.788308e+01	-5.363186e+01
1.280000e-06	-2.530117e-06	-7.657623e-10	-1.759547e+01	-5.343919e+01
1.290000e-06	-2.488530e-06	-7.603978e-10	-1.730626e+01	-5.324268e+01
1.300000e-06	-2.446628e-06	-7.545428e-10	-1.701486e+01	-5.304249e+01
1.310000e-06	-2.404304e-06	-7.495565e-10	-1.672052e+01	-5.283875e+01
1.320000e-06	-2.361773e-06	-7.500311e-10	-1.642474e+01	-5.263155e+01
1.330000e-06	-2.319167e-06	-7.488927e-10	-1.612844e+01	-5.242093e+01
1.340000e-06	-2.276312e-06	-7.456933e-10	-1.583041e+01	-5.220690e+01
1.350000e-06	-2.233112e-06	-7.414130e-10	-1.552998e+01	-5.198941e+01
1.360000e-06	-2.189624e-06	-7.357276e-10	-1.522754e+01	-5.176836e+01
1.370000e-06	-2.146017e-06	-7.283080e-10	-1.492429e+01	-5.154358e+01
1.380000e-06	-2.102341e-06	-7.227107e-10	-1.462054e+01	-5.131486e+01
1.390000e-06	-2.058578e-06	-7.180392e-10	-1.431620e+01	-5.108192e+01
1.400000e-06	-2.014733e-06	-7.158624e-10	-1.401128e+01	-5.084444e+01
1.410000e-06	-1.970808e-06	-7.121751e-10	-1.370581e+01	-5.060202e+01
1.420000e-06	-1.926850e-06	-7.081353e-10	-1.340011e+01	-5.035424e+01
1.430000e-06	-1.882831e-06	-7.017565e-10	-1.309398e+01	-5.010061e+01
1.440000e-06	-1.838726e-06	-6.960120e-10	-1.278726e+01	-4.984063e+01
1.450000e-06	-1.794541e-06	-6.905725e-10	-1.247998e+01	-4.957374e+01
1.460000e-06	-1.750219e-06	-6.862924e-10	-1.217174e+01	-4.929937e+01
1.470000e-06	-1.705672e-06	-6.796224e-10	-1.186194e+01	-4.901694e+01
1.480000e-06	-1.660924e-06	-6.749107e-10	-1.155075e+01	-4.872583e+01
1.490000e-06	-1.616152e-06	-6.697289e-10	-1.123939e+01	-4.842544e+01
1.500000e-06	-1.571351e-06	-6.646426e-10	-1.092782e+01	-4.811516e+01
1.510000e-06	-1.526365e-06	-6.594669e-10	-1.061497e+01	-4.779439e+01
1.520000e-06	-1.481219e-06	-6.535993e-10	-1.030100e+01	-4.746253e+01
1.530000e-06	-1.435983e-06	-6.466630e-10	-9.986415e+00	-4.711902e+01
1.540000e-06	-1.390662e-06	-6.411292e-10	-9.671233e+00	-4.676329e+01
1.550000e-06	-1.345276e-06	-6.370091e-10	-9.355602e+00	-4.639480e+01
1.560000e-06	-1.299804e-06	-6.310322e-10	-9.039373e+00	-4.601304e+01
1.570000e-06	-1.254288e-06	-6.234453e-10	-8.722831e+00	-4.561751e+01
1.580000e-06	-1.208696e-06	-6.148664e-10	-8.405768e+00	-4.520773e+01
1.590000e-06	-1.162960e-06	-6.097687e-10	-8.087703e+00	-4.478323e+01
1.600000e-06	-1.117124e-06	-6.057096e-10	-7.768939e+00	-4.434356e+01
1.610000e-06	-1.071206e-06	-5.999977e-10	-7.449610e+00	-4.388828e+01
1.620000e-06	-1.025228e-06	-5.928202e-10	-7.129859e+00	-4.341694e+01
1.630000e-06	-9.791406e-07	-5.856662e-10	-6.809346e+00	-4.292909e+01
1.640000e-06	-9.329093e-07	-5.785390e-10	-6.487834e+00	-4.242428e+01
1.650000e-06	-8.866619e-07	-5.709408e-10	-6.166211e+00	-4.190202e+01
1.660000e-06	-8.404112e-07	-5.611182e-10	-5.844565e+00	-4.136183e+01
1.670000e-06	-7.941092e-07	-5.507801e-10	-5.522562e+00	-4.080316e+01
1.680000e-06	-7.477778e-07	-5.404252e-10	-5.200354e+00	-4.022547e+01
1.690000e-06	-7.013438e-07	-5.321105e-10	-4.877433e+00	-3.962816e+01
1.700000e-06	-6.548349e-07	-5.228678e-10	-4.553991e+00	-3.901059e+01
1.710000e-06	-6.083437e-07	-5.120139e-10	-4.230672e+00	-3.837207e+01
1.720000e-06	-5.617936e-07	-5.029205e-10	-3.906944e+00	-3.771188e+01
1.730000e-06	-5.150731e-07	-4.934642e-10	-3.582030e+00	-3.702927e+01
1.740000e-06	-4.683076e-07	-4.835255e-10	-3.256803e+00	-3.632341e+01
1.750000e-06	-4.216739e-07	-4.728972e-10	-2.932494e+00	-3.559348e+01
1.760000e-06	-3.750355e-07	-4.608876e-10	-2.608151e+00	-3.483860e+01
1.770000e-06	-3.282787e-07	-4.500593e-10	-2.282985e+00	-3.405788e+01
1.780000e-06	-2.814864e-07	-4.382122e-10	-1.957572e+00	-3.325043e+01
1.790000e-06	-2.346790e-07	-4.274244e-10	-1.632054e+00	-3.241534e+01
1.800000e-06	-1.878539e-07	-4.136821e-10	-1.306413e+00	-3.155172e+01
1.810000e-06	-1.410571e-07	-3.983206e-10	-9.809689e-01	-3.065873e+01
1.820000e-06	-9.429916e-08	-3.853005e-10	-6.557951e-01	-2.973553e+01
1.830000e-06	-4.753071e-08	-3.737501e-10	-3.305480e-01	-2.878137e+01
1.840000e-06	-7.382095e-10	-3.609813e-10	-5.133812e-03	-2.779556e+01
1.850000e-06	4.604420e-08	-3.460197e-10	3.202103e-01	-2.677751e+01
1.860000e-06	9.284978e-08	-3.304925e-10	6.457155e-01	-2.572671e+01
1.870000e-06	1.396044e-07	-3.124472e-10	9.708661e-01	-2.464281e+01
1.880000e-06	1.862727e-07	-2.954197e-10	1.295417e+00	-2.352556e+01
1.890000e-06	2.329371e-07	-2.818703e-10	1.619940e+00	-2.237488e+01
1.900000e-06	2.795790e-07	-2.679303e-10	1.944307e+00	-2.119085e+01
1.910000e-06	3.261761e-07	-2.503708e-10	2.268362e+00	-1.997373e+01
1.920000e-06	3.728027e-07	-2.327791e-10	2.592623e+00	-1.872394e+01
1.930000e-06	4.194832e-07	-2.149161e-10	2.917259e+00	-1.744210e+01
1.940000e-06	4.661490e-07	-1.942652e-10	3.241791e+00	-1.612903e+01
1.950000e-06	5.127336e-07	-1.734133e-10	3.565760e+00	-1.478574e+01
1.960000e-06	5.592815e-07	-1.557061e-10	3.889473e+00	-1.341343e+01
1.970000e-06	6.058525e-07	-1.411495e-10	4.213347e+00	-1.201348e+01
1.980000e-06	6.523389e-07	-1.271048e-10	4.536633e+00	-1.058747e+01
1.990000e-06	6.987590e-07	-1.082743e-10	4.859457e+00	-9.137159e+00
2.000000e-06	7.451294e-07	-8.191061e-11	5.181935e+00	-7.664448e+00
2.010000e-06	7.913899e-07	-5.118795e-11	5.503650e+00	-6.171406e+00
2.020000e-06	8.375968e-07	-2.387685e-11	5.824992e+00	-4.660233e+00
2.030000e-06	8.838333e-07	-9.286608e-13	6.146540e+00	-3.133244e+00
2.040000e-06	9.299792e-07	1.675066e-11	6.467457e+00	-1.592858e+00
2.050000e-06	9.760026e-07	3.194977e-11	6.787523e+00	-4.156980e-02
2.060000e-06	1.022013e-06	4.798518e-11	7.107497e+00	1.518066e+00
2.070000e-06	1.067980e-06	6.892927e-11	7.427174e+00	3.083460e+00
2.080000e-06	1.113864e-06	9.490826e-11	7.746269e+00	4.652007e+00
2.090000e-06	1.159664e-06	1.219645e-10	8.064781e+00	6.221110e+00
2.100000e-06	1.205411e-06	1.474647e-10	8.382922e+00	7.788198e+00
2.110000e-06	1.251080e-06	1.701507e-10	8.700522e+00	9.350754e+00
2.120000e-06	1.296597e-06	1.908987e-10	9.017069e+00	1.090632e+01
2.130000e-06	1.341943e-06	2.081332e-10	9.332423e+00	1.245255e+01
2.140000e-06	1.387200e-06	2.227938e-10	9.647161e+00	1.398716e+01
2.150000e-06	1.432377e-06	2.411531e-10	9.961335e+00	1.550802e+01
2.160000e-06	1.477467e-06	2.657713e-10	1.027491e+01	1.701311e+01
2.170000e-06	1.522508e-06	2.917837e-10	1.058814e+01	1.850056e+01
2.180000e-06	1.567467e-06	3.164627e-10	1.090081e+01	1.996865e+01
2.190000e-06	1.612235e-06	3.399246e-10	1.121214e+01	2.141581e+01
2.200000e-06	1.656835e-06	3.592338e-10	1.152231e+01	2.284061e+01
2.210000e-06	1.701349e-06	3.732106e-10	1.183188e+01	2.424182e+01
2.220000e-06	1.745740e-06	3.870480e-10	1.214059e+01	2.561833e+01
2.230000e-06	1.790011e-06	4.041507e-10	1.244847e+01	2.696920e+01
2.240000e-06	1.834179e-06	4.217671e-10	1.275563e+01	2.829364e+01
2.250000e-06	1.878269e-06	4.397652e-10	1.306225e+01	2.959100e+01
2.260000e-06	1.922285e-06	4.610660e-10	1.336836e+01	3.086076e+01
2.270000e-06	1.966250e-06	4.824233e-10	1.367411e+01	3.210253e+01
2.280000e-06	2.010153e-06	5.004980e-10	1.397943e+01	3.331603e+01
2.290000e-06	2.053931e-06	5.166191e-10	1.428388e+01	3.450109e+01
2.300000e-06	2.097651e-06	5.307689e-10	1.458793e+01	3.565762e+01
2.310000e-06	2.141365e-06	5.441088e-10	1.489193e+01	3.678563e+01
2.320000e-06	2.184973e-06	5.574705e-10	1.519520e+01	3.788517e+01
2.330000e-06	2.228393e-06	5.694750e-10	1.549716e+01	3.895636e+01
2.340000e-06	2.271590e-06	5.827005e-10	1.579757e+01	3.999939e+01
2.350000e-06	2.314647e-06	5.990255e-10	1.609700e+01	4.101444e+01
2.360000e-06	2.357492e-06	6.171430e-10	1.639497e+01	4.200175e+01
2.370000e-06	2.399975e-06	6.311031e-10	1.669041e+01	4.296158e+01
2.380000e-06	2.442136e-06	6.434471e-10	1.698361e+01	4.389419e+01
2.390000e-06	2.483937e-06	6.529207e-10	1.727432e+01	4.479985e+01
2.400000e-06	2.525351e-06	6.612327e-10	1.756233e+01	4.567883e+01
2.410000e-06	2.566407e-06	6.715018e-10	1.784785e+01	4.653141e+01
2.420000e-06	2.607262e-06	6.859235e-10	1.813197e+01	4.735787e+01
2.430000e-06	2.648034e-06	7.028604e-10	1.841552e+01	4.815848e+01
2.440000e-06	2.688567e-06	7.159670e-10	1.869740e+01	4.893352e+01
2.450000e-06	2.728839e-06	7.231942e-10	1.897746e+01	4.968325e+01
2.460000e-06	2.768950e-06	7.284492e-10	1.925641e+01	5.040796e+01
2.470000e-06	2.808936e-06	7.346018e-10	1.953449e+01	5.110792e+01
2.480000e-06	2.848798e-06	7.411323e-10	1.981171e+01	5.178344e+01
2.490000e-06	2.888534e-06	7.511271e-10	2.008805e+01	5.243482e+01
2.500000e-06	2.928150e-06	7.649677e-10	2.036356e+01	5.306238e+01
2.510000e-06	2.967616e-06	7.777981e-10	2.063802e+01	5.366647e+01
2.520000e-06	3.006914e-06	7.879833e-10	2.091131e+01	5.424745e+01
2.530000e-06	3.045967e-06	7.962358e-10	2.118291e+01	5.480574e+01
2.540000e-06	3.084840e-06	8.018195e-10	2.145324e+01	5.534175e+01
2.550000e-06	3.123466e-06	8.059051e-10	2.172186e+01	5.585595e+01
2.560000e-06	3.161824e-06	8.114048e-10	2.198862e+01	5.634884e+01
2.570000e-06	3.200002e-06	8.188377e-10	2.225413e+01	5.682094e+01
2.580000e-06	3.237950e-06	8.262500e-10	2.251803e+01	5.727281e+01
2.590000e-06	3.275661e-06	8.341309e-10	2.278029e+01	5.770506e+01
2.600000e-06	3.313173e-06	8.403857e-10	2.304117e+01	5.811831e+01
2.610000e-06	3.350462e-06	8.468959e-10	2.330049e+01	5.851321e+01
2.620000e-06	3.387508e-06	8.523807e-10	2.355812e+01	5.889044e+01
2.630000e-06	3.424313e-06	8.555006e-10	2.381408e+01	5.925069e+01
2.640000e-06	3.460877e-06	8.572378e-10	2.406836e+01	5.959467e+01
2.650000e-06	3.497270e-06	8.597606e-10	2.432145e+01	5.992310e+01
2.660000e-06	3.533430e-06	8.628736e-10	2.457292e+01	6.023669e+01
2.670000e-06	3.569328e-06	8.661100e-10	2.482257e+01	6.053616e+01
2.680000e-06	3.605117e-06	8.697036e-10	2.507146e+01	6.082223e+01
2.690000e-06	3.640859e-06	8.752808e-10	2.532003e+01	6.109557e+01
2.700000e-06	3.676415e-06	8.818547e-10	2.556730e+01	6.135685e+01
2.710000e-06	3.711719e-06	8.855310e-10	2.581282e+01	6.160673e+01
2.720000e-06	3.746752e-06	8.873424e-10	2.605645e+01	6.184580e+01
2.730000e-06	3.781403e-06	8.881817e-10	2.629743e+01	6.207465e+01
2.740000e-06	3.815571e-06	8.907398e-10	2.653504e+01	6.229383e+01
2.750000e-06	3.849218e-06	8.957903e-10	2.676904e+01	6.250382e+01
2.760000e-06	3.882356e-06	8.991312e-10	2.699950e+01	6.270508e+01
2.770000e-06	3.915129e-06	9.026274e-10	2.722741e+01	6.289803e+01
2.780000e-06	3.947609e-06	9.081332e-10	2.745329e+01	6.308305e+01
2.790000e-06	3.979782e-06	9.133378e-10	2.767704e+01	6.326047e+01
2.800000e-06	4.011736e-06	9.178496e-10	2.789926e+01	6.343057e+01
2.810000e-06	4.043559e-06	9.207028e-10	2.812057e+01	6.359362e+01
2.820000e-06	4.075229e-06	9.234201e-10	2.834081e+01	6.374985e+01
2.830000e-06	4.106709e-06	9.251288e-10	2.855974e+01	6.389944e+01
2.840000e-06	4.137954e-06	9.240740e-10	2.877703e+01	6.404258e+01
2.850000e-06	4.168849e-06	9.249195e-10	2.899188e+01	6.417941e+01
2.860000e-06	4.199358e-06	9.285312e-10	2.920406e+01	6.431008e+01
2.870000e-06	4.229553e-06	9.315065e-10	2.941405e+01	6.443471e+01
2.880000e-06	4.259476e-06	9.341540e-10	2.962214e+01	6.455343e+01
2.890000e-06	4.289094e-06	9.385757e-10	2.982812e+01	6.466636e+01
2.900000e-06	4.318490e-06	9.444969e-10	3.003256e+01	6.477365e+01
