# Temperatura_=_7.22
# Concentracion g/m^3_=_1620.0
# C_Vs_to_Am_M_A/Vsm_=_65563218390.804596
# pendiente_HvsI_1/m_=_3716.3
# ordenada_HvsI_A/m_=_1297.0
# frecuencia_Hz_=_135103.2256997025

Tiempo_(s)	Campo_(V.s)	Magnetizacion_(V.s)	Campo_(kA/m)	Magnetizacion_(A/m)
0.000000e+00	-5.538579e-06	-1.320464e-09	-3.835955e+01	-8.985025e+01
1.000000e-08	-5.538652e-06	-1.318942e-09	-3.836006e+01	-8.980107e+01
2.000000e-08	-5.538434e-06	-1.317897e-09	-3.835854e+01	-8.975261e+01
3.000000e-08	-5.537784e-06	-1.318443e-09	-3.835405e+01	-8.970545e+01
4.000000e-08	-5.536597e-06	-1.317932e-09	-3.834582e+01	-8.966015e+01
5.000000e-08	-5.534753e-06	-1.320088e-09	-3.833305e+01	-8.961720e+01
6.000000e-08	-5.532366e-06	-1.324049e-09	-3.831652e+01	-8.957707e+01
7.000000e-08	-5.529481e-06	-1.299175e-09	-3.829654e+01	-8.954011e+01
8.000000e-08	-5.526116e-06	-1.247276e-09	-3.827323e+01	-8.950661e+01
9.000000e-08	-5.522338e-06	-1.278613e-09	-3.824707e+01	-8.947677e+01
1.000000e-07	-5.518167e-06	-1.389380e-09	-3.821818e+01	-8.945066e+01
1.100000e-07	-5.513640e-06	-1.392914e-09	-3.818682e+01	-8.942825e+01
1.200000e-07	-5.508882e-06	-1.239802e-09	-3.815387e+01	-8.940937e+01
1.300000e-07	-5.504033e-06	-1.205296e-09	-3.812029e+01	-8.939376e+01
1.400000e-07	-5.498827e-06	-1.338528e-09	-3.808424e+01	-8.938102e+01
1.500000e-07	-5.493079e-06	-1.395224e-09	-3.804443e+01	-8.937062e+01
1.600000e-07	-5.486954e-06	-1.279536e-09	-3.800200e+01	-8.936194e+01
1.700000e-07	-5.480491e-06	-1.216315e-09	-3.795724e+01	-8.935424e+01
1.800000e-07	-5.473587e-06	-1.349589e-09	-3.790942e+01	-8.934671e+01
1.900000e-07	-5.466218e-06	-1.403508e-09	-3.785839e+01	-8.933842e+01
2.000000e-07	-5.458586e-06	-1.311455e-09	-3.780553e+01	-8.932842e+01
2.100000e-07	-5.450728e-06	-1.245220e-09	-3.775111e+01	-8.931567e+01
2.200000e-07	-5.442534e-06	-1.326758e-09	-3.769435e+01	-8.929915e+01
2.300000e-07	-5.433930e-06	-1.375255e-09	-3.763477e+01	-8.927778e+01
2.400000e-07	-5.424928e-06	-1.332791e-09	-3.757242e+01	-8.925053e+01
2.500000e-07	-5.415400e-06	-1.300517e-09	-3.750643e+01	-8.921637e+01
2.600000e-07	-5.405012e-06	-1.336157e-09	-3.743448e+01	-8.917436e+01
2.700000e-07	-5.393945e-06	-1.344039e-09	-3.735783e+01	-8.912359e+01
2.800000e-07	-5.382581e-06	-1.311416e-09	-3.727913e+01	-8.906328e+01
2.900000e-07	-5.370837e-06	-1.301144e-09	-3.719779e+01	-8.899271e+01
3.000000e-07	-5.358710e-06	-1.325658e-09	-3.711380e+01	-8.891131e+01
3.100000e-07	-5.346309e-06	-1.350585e-09	-3.702791e+01	-8.881865e+01
3.200000e-07	-5.333461e-06	-1.341209e-09	-3.693893e+01	-8.871443e+01
3.300000e-07	-5.320099e-06	-1.325562e-09	-3.684638e+01	-8.859849e+01
3.400000e-07	-5.306365e-06	-1.333916e-09	-3.675127e+01	-8.847085e+01
3.500000e-07	-5.292252e-06	-1.347361e-09	-3.665352e+01	-8.833166e+01
3.600000e-07	-5.277625e-06	-1.305220e-09	-3.655221e+01	-8.818125e+01
3.700000e-07	-5.262436e-06	-1.296165e-09	-3.644701e+01	-8.802009e+01
3.800000e-07	-5.246809e-06	-1.339575e-09	-3.633878e+01	-8.784877e+01
3.900000e-07	-5.230719e-06	-1.324320e-09	-3.622735e+01	-8.766805e+01
4.000000e-07	-5.214111e-06	-1.262392e-09	-3.611232e+01	-8.747877e+01
4.100000e-07	-5.197219e-06	-1.319727e-09	-3.599533e+01	-8.728189e+01
4.200000e-07	-5.180045e-06	-1.361518e-09	-3.587638e+01	-8.707846e+01
4.300000e-07	-5.162421e-06	-1.268514e-09	-3.575433e+01	-8.686958e+01
4.400000e-07	-5.144450e-06	-1.245112e-09	-3.562986e+01	-8.665639e+01
4.500000e-07	-5.126249e-06	-1.352020e-09	-3.550380e+01	-8.644006e+01
4.600000e-07	-5.107710e-06	-1.309875e-09	-3.537540e+01	-8.622177e+01
4.700000e-07	-5.088731e-06	-1.210645e-09	-3.524396e+01	-8.600265e+01
4.800000e-07	-5.069387e-06	-1.287434e-09	-3.510998e+01	-8.578382e+01
4.900000e-07	-5.049826e-06	-1.342550e-09	-3.497451e+01	-8.556630e+01
5.000000e-07	-5.030051e-06	-1.242982e-09	-3.483754e+01	-8.535106e+01
5.100000e-07	-5.010031e-06	-1.255163e-09	-3.469889e+01	-8.513895e+01
5.200000e-07	-4.989695e-06	-1.331717e-09	-3.455805e+01	-8.493071e+01
5.300000e-07	-4.968926e-06	-1.255064e-09	-3.441420e+01	-8.472695e+01
5.400000e-07	-4.947730e-06	-1.212568e-09	-3.426740e+01	-8.452814e+01
5.500000e-07	-4.926137e-06	-1.305107e-09	-3.411785e+01	-8.433462e+01
5.600000e-07	-4.904234e-06	-1.280704e-09	-3.396615e+01	-8.414656e+01
5.700000e-07	-4.882112e-06	-1.197099e-09	-3.381294e+01	-8.396400e+01
5.800000e-07	-4.859722e-06	-1.260932e-09	-3.365786e+01	-8.378681e+01
5.900000e-07	-4.836906e-06	-1.297346e-09	-3.349984e+01	-8.361474e+01
6.000000e-07	-4.813709e-06	-1.217897e-09	-3.333918e+01	-8.344739e+01
6.100000e-07	-4.790251e-06	-1.223283e-09	-3.317672e+01	-8.328423e+01
6.200000e-07	-4.766587e-06	-1.276069e-09	-3.301283e+01	-8.312462e+01
6.300000e-07	-4.742720e-06	-1.230880e-09	-3.284752e+01	-8.296784e+01
6.400000e-07	-4.718584e-06	-1.210298e-09	-3.268036e+01	-8.281306e+01
6.500000e-07	-4.694015e-06	-1.252901e-09	-3.251020e+01	-8.265941e+01
6.600000e-07	-4.668872e-06	-1.241295e-09	-3.233606e+01	-8.250595e+01
6.700000e-07	-4.643149e-06	-1.211219e-09	-3.215791e+01	-8.235174e+01
6.800000e-07	-4.616893e-06	-1.240022e-09	-3.197606e+01	-8.219580e+01
6.900000e-07	-4.590188e-06	-1.244580e-09	-3.179110e+01	-8.203719e+01
7.000000e-07	-4.563096e-06	-1.215172e-09	-3.160347e+01	-8.187499e+01
7.100000e-07	-4.535720e-06	-1.212586e-09	-3.141386e+01	-8.170833e+01
7.200000e-07	-4.508146e-06	-1.217304e-09	-3.122289e+01	-8.153639e+01
7.300000e-07	-4.480405e-06	-1.199332e-09	-3.103076e+01	-8.135844e+01
7.400000e-07	-4.452428e-06	-1.200249e-09	-3.083699e+01	-8.117383e+01
7.500000e-07	-4.424209e-06	-1.210377e-09	-3.064156e+01	-8.098202e+01
7.600000e-07	-4.395722e-06	-1.205776e-09	-3.044426e+01	-8.078257e+01
7.700000e-07	-4.366886e-06	-1.196995e-09	-3.024454e+01	-8.057515e+01
7.800000e-07	-4.337696e-06	-1.193343e-09	-3.004237e+01	-8.035954e+01
7.900000e-07	-4.308186e-06	-1.182020e-09	-2.983799e+01	-8.013565e+01
8.000000e-07	-4.278439e-06	-1.174682e-09	-2.963197e+01	-7.990349e+01
8.100000e-07	-4.248444e-06	-1.173046e-09	-2.942423e+01	-7.966318e+01
8.200000e-07	-4.218141e-06	-1.169234e-09	-2.921435e+01	-7.941494e+01
8.300000e-07	-4.187443e-06	-1.166216e-09	-2.900174e+01	-7.915909e+01
8.400000e-07	-4.156396e-06	-1.171948e-09	-2.878672e+01	-7.889602e+01
8.500000e-07	-4.125139e-06	-1.170604e-09	-2.857023e+01	-7.862620e+01
8.600000e-07	-4.093707e-06	-1.158304e-09	-2.835253e+01	-7.835015e+01
8.700000e-07	-4.062057e-06	-1.151111e-09	-2.813333e+01	-7.806846e+01
8.800000e-07	-4.030152e-06	-1.147875e-09	-2.791236e+01	-7.778170e+01
8.900000e-07	-3.998001e-06	-1.138453e-09	-2.768969e+01	-7.749051e+01
9.000000e-07	-3.965612e-06	-1.131808e-09	-2.746536e+01	-7.719549e+01
9.100000e-07	-3.932931e-06	-1.135241e-09	-2.723902e+01	-7.689727e+01
9.200000e-07	-3.899841e-06	-1.131164e-09	-2.700984e+01	-7.659641e+01
9.300000e-07	-3.866278e-06	-1.123890e-09	-2.677739e+01	-7.629347e+01
9.400000e-07	-3.832266e-06	-1.123662e-09	-2.654183e+01	-7.598895e+01
9.500000e-07	-3.797873e-06	-1.120176e-09	-2.630363e+01	-7.568331e+01
9.600000e-07	-3.763131e-06	-1.105093e-09	-2.606300e+01	-7.537692e+01
9.700000e-07	-3.728019e-06	-1.095312e-09	-2.581983e+01	-7.507011e+01
9.800000e-07	-3.692615e-06	-1.090154e-09	-2.557462e+01	-7.476312e+01
9.900000e-07	-3.657057e-06	-1.081512e-09	-2.532835e+01	-7.445613e+01
1.000000e-06	-3.621400e-06	-1.074957e-09	-2.508140e+01	-7.414924e+01
1.010000e-06	-3.585607e-06	-1.077915e-09	-2.483349e+01	-7.384248e+01
1.020000e-06	-3.549668e-06	-1.076091e-09	-2.458459e+01	-7.353581e+01
1.030000e-06	-3.513546e-06	-1.069675e-09	-2.433441e+01	-7.322913e+01
1.040000e-06	-3.477153e-06	-1.066003e-09	-2.408235e+01	-7.292226e+01
1.050000e-06	-3.440434e-06	-1.058725e-09	-2.382805e+01	-7.261500e+01
1.060000e-06	-3.403408e-06	-1.043384e-09	-2.357161e+01	-7.230707e+01
1.070000e-06	-3.366144e-06	-1.035852e-09	-2.331352e+01	-7.199817e+01
1.080000e-06	-3.328693e-06	-1.037010e-09	-2.305414e+01	-7.168797e+01
1.090000e-06	-3.290947e-06	-1.034947e-09	-2.279272e+01	-7.137612e+01
1.100000e-06	-3.252862e-06	-1.028592e-09	-2.252894e+01	-7.106225e+01
1.110000e-06	-3.214606e-06	-1.026208e-09	-2.226398e+01	-7.074599e+01
1.120000e-06	-3.176163e-06	-1.022187e-09	-2.199773e+01	-7.042696e+01
1.130000e-06	-3.137467e-06	-1.013188e-09	-2.172973e+01	-7.010481e+01
1.140000e-06	-3.098594e-06	-1.006171e-09	-2.146050e+01	-6.977919e+01
1.150000e-06	-3.059537e-06	-1.001771e-09	-2.118999e+01	-6.944978e+01
1.160000e-06	-3.020269e-06	-9.943190e-10	-2.091803e+01	-6.911627e+01
1.170000e-06	-2.980876e-06	-9.874923e-10	-2.064520e+01	-6.877840e+01
1.180000e-06	-2.941444e-06	-9.854127e-10	-2.037210e+01	-6.843593e+01
1.190000e-06	-2.901870e-06	-9.803116e-10	-2.009801e+01	-6.808863e+01
1.200000e-06	-2.862044e-06	-9.720753e-10	-1.982218e+01	-6.773632e+01
1.210000e-06	-2.822016e-06	-9.648061e-10	-1.954495e+01	-6.737886e+01
1.220000e-06	-2.781822e-06	-9.573565e-10	-1.926657e+01	-6.701612e+01
1.230000e-06	-2.741410e-06	-9.502323e-10	-1.898669e+01	-6.664799e+01
1.240000e-06	-2.700713e-06	-9.482116e-10	-1.870482e+01	-6.627439e+01
1.250000e-06	-2.659770e-06	-9.500909e-10	-1.842125e+01	-6.589526e+01
1.260000e-06	-2.618709e-06	-9.482980e-10	-1.813688e+01	-6.551056e+01
1.270000e-06	-2.577400e-06	-9.412460e-10	-1.785077e+01	-6.512022e+01
1.280000e-06	-2.535634e-06	-9.346169e-10	-1.756151e+01	-6.472423e+01
1.290000e-06	-2.493606e-06	-9.251970e-10	-1.727042e+01	-6.432253e+01
1.300000e-06	-2.451283e-06	-9.139916e-10	-1.697730e+01	-6.391509e+01
1.310000e-06	-2.408584e-06	-9.078826e-10	-1.668157e+01	-6.350185e+01
1.320000e-06	-2.365658e-06	-9.053682e-10	-1.638427e+01	-6.308276e+01
1.330000e-06	-2.322595e-06	-8.982762e-10	-1.608602e+01	-6.265773e+01
1.340000e-06	-2.279415e-06	-8.898668e-10	-1.578696e+01	-6.222667e+01
1.350000e-06	-2.236044e-06	-8.835054e-10	-1.548658e+01	-6.178947e+01
1.360000e-06	-2.192522e-06	-8.764236e-10	-1.518515e+01	-6.134600e+01
1.370000e-06	-2.148916e-06	-8.682334e-10	-1.488314e+01	-6.089610e+01
1.380000e-06	-2.105256e-06	-8.598332e-10	-1.458076e+01	-6.043962e+01
1.390000e-06	-2.061543e-06	-8.502890e-10	-1.427801e+01	-5.997634e+01
1.400000e-06	-2.017745e-06	-8.425971e-10	-1.397466e+01	-5.950608e+01
1.410000e-06	-1.973834e-06	-8.365810e-10	-1.367055e+01	-5.902860e+01
1.420000e-06	-1.929807e-06	-8.317890e-10	-1.336562e+01	-5.854366e+01
1.430000e-06	-1.885697e-06	-8.261105e-10	-1.306012e+01	-5.805101e+01
1.440000e-06	-1.841459e-06	-8.195847e-10	-1.275373e+01	-5.755037e+01
1.450000e-06	-1.797093e-06	-8.116347e-10	-1.244646e+01	-5.704146e+01
1.460000e-06	-1.752610e-06	-8.003888e-10	-1.213837e+01	-5.652400e+01
1.470000e-06	-1.707948e-06	-7.868189e-10	-1.182905e+01	-5.599766e+01
1.480000e-06	-1.663109e-06	-7.766121e-10	-1.151850e+01	-5.546215e+01
1.490000e-06	-1.618171e-06	-7.668734e-10	-1.120726e+01	-5.491713e+01
1.500000e-06	-1.573141e-06	-7.559316e-10	-1.089539e+01	-5.436225e+01
1.510000e-06	-1.527947e-06	-7.499069e-10	-1.058238e+01	-5.379718e+01
1.520000e-06	-1.482661e-06	-7.457168e-10	-1.026874e+01	-5.322152e+01
1.530000e-06	-1.437308e-06	-7.381411e-10	-9.954628e+00	-5.263490e+01
1.540000e-06	-1.391836e-06	-7.273364e-10	-9.639692e+00	-5.203689e+01
1.550000e-06	-1.346287e-06	-7.172852e-10	-9.324223e+00	-5.142705e+01
1.560000e-06	-1.300666e-06	-7.058404e-10	-9.008259e+00	-5.080490e+01
1.570000e-06	-1.254920e-06	-6.939354e-10	-8.691429e+00	-5.016995e+01
1.580000e-06	-1.209127e-06	-6.840038e-10	-8.374271e+00	-4.952162e+01
1.590000e-06	-1.163244e-06	-6.778017e-10	-8.056490e+00	-4.885933e+01
1.600000e-06	-1.117255e-06	-6.696158e-10	-7.737976e+00	-4.818244e+01
1.610000e-06	-1.071199e-06	-6.585623e-10	-7.418996e+00	-4.749024e+01
1.620000e-06	-1.025099e-06	-6.485439e-10	-7.099714e+00	-4.678199e+01
1.630000e-06	-9.789511e-07	-6.384125e-10	-6.780101e+00	-4.605689e+01
1.640000e-06	-9.326467e-07	-6.268384e-10	-6.459402e+00	-4.531406e+01
1.650000e-06	-8.862940e-07	-6.136416e-10	-6.138369e+00	-4.455260e+01
1.660000e-06	-8.398345e-07	-5.999646e-10	-5.816595e+00	-4.377151e+01
1.670000e-06	-7.932603e-07	-5.865307e-10	-5.494028e+00	-4.296979e+01
1.680000e-06	-7.466908e-07	-5.727366e-10	-5.171493e+00	-4.214635e+01
1.690000e-06	-7.001284e-07	-5.587086e-10	-4.849008e+00	-4.130009e+01
1.700000e-06	-6.535240e-07	-5.454870e-10	-4.526231e+00	-4.042984e+01
1.710000e-06	-6.067862e-07	-5.334520e-10	-4.202530e+00	-3.953446e+01
1.720000e-06	-5.600130e-07	-5.216293e-10	-3.878584e+00	-3.861275e+01
1.730000e-06	-5.132073e-07	-5.081198e-10	-3.554414e+00	-3.766353e+01
1.740000e-06	-4.663717e-07	-4.926271e-10	-3.230036e+00	-3.668563e+01
1.750000e-06	-4.195454e-07	-4.757227e-10	-2.905722e+00	-3.567791e+01
1.760000e-06	-3.726436e-07	-4.576113e-10	-2.580886e+00	-3.463928e+01
1.770000e-06	-3.257360e-07	-4.409324e-10	-2.256010e+00	-3.356870e+01
1.780000e-06	-2.788725e-07	-4.258144e-10	-1.931438e+00	-3.246521e+01
1.790000e-06	-2.319600e-07	-4.102508e-10	-1.606528e+00	-3.132795e+01
1.800000e-06	-1.849667e-07	-3.938543e-10	-1.281058e+00	-3.015615e+01
1.810000e-06	-1.379061e-07	-3.755809e-10	-9.551213e-01	-2.894918e+01
1.820000e-06	-9.086342e-08	-3.561071e-10	-6.293094e-01	-2.770657e+01
1.830000e-06	-4.381459e-08	-3.373556e-10	-3.034547e-01	-2.642796e+01
1.840000e-06	3.254589e-09	-3.206611e-10	2.254090e-02	-2.511321e+01
1.850000e-06	5.029935e-08	-3.030447e-10	3.483674e-01	-2.376232e+01
1.860000e-06	9.731277e-08	-2.833693e-10	6.739769e-01	-2.237549e+01
1.870000e-06	1.443351e-07	-2.623847e-10	9.996479e-01	-2.095314e+01
1.880000e-06	1.913818e-07	-2.407106e-10	1.325488e+00	-1.949585e+01
1.890000e-06	2.383858e-07	-2.209728e-10	1.651032e+00	-1.800443e+01
1.900000e-06	2.853810e-07	-2.016590e-10	1.976516e+00	-1.647989e+01
1.910000e-06	3.323973e-07	-1.814689e-10	2.302145e+00	-1.492345e+01
1.920000e-06	3.793746e-07	-1.613729e-10	2.627504e+00	-1.333651e+01
1.930000e-06	4.263039e-07	-1.398596e-10	2.952531e+00	-1.172066e+01
1.940000e-06	4.732091e-07	-1.160300e-10	3.277391e+00	-1.007770e+01
1.950000e-06	5.200723e-07	-9.091687e-11	3.601960e+00	-8.409555e+00
1.960000e-06	5.668911e-07	-6.889919e-11	3.926222e+00	-6.718332e+00
1.970000e-06	6.136479e-07	-4.703183e-11	4.250053e+00	-5.006266e+00
1.980000e-06	6.602895e-07	-2.486427e-11	4.573088e+00	-3.275713e+00
1.990000e-06	7.068183e-07	-1.092427e-12	4.895341e+00	-1.529130e+00
2.000000e-06	7.532887e-07	2.665681e-11	5.217190e+00	2.309443e-01
2.010000e-06	7.997129e-07	5.604191e-11	5.538718e+00	2.001912e+00
2.020000e-06	8.461511e-07	8.158495e-11	5.860344e+00	3.781135e+00
2.030000e-06	8.925514e-07	1.032176e-10	6.181706e+00	5.565960e+00
2.040000e-06	9.388725e-07	1.237559e-10	6.502521e+00	7.353734e+00
2.050000e-06	9.851541e-07	1.458591e-10	6.823062e+00	9.141830e+00
2.060000e-06	1.031337e-06	1.709273e-10	7.142922e+00	1.092766e+01
2.070000e-06	1.077397e-06	1.962244e-10	7.461927e+00	1.270871e+01
2.080000e-06	1.123371e-06	2.238756e-10	7.780339e+00	1.448253e+01
2.090000e-06	1.169222e-06	2.524393e-10	8.097897e+00	1.624676e+01
2.100000e-06	1.214919e-06	2.795071e-10	8.414385e+00	1.799917e+01
2.110000e-06	1.260578e-06	3.037599e-10	8.730614e+00	1.973764e+01
2.120000e-06	1.306214e-06	3.249163e-10	9.046684e+00	2.146017e+01
2.130000e-06	1.351789e-06	3.444310e-10	9.362330e+00	2.316490e+01
2.140000e-06	1.397327e-06	3.656650e-10	9.677725e+00	2.485012e+01
2.150000e-06	1.442765e-06	3.891523e-10	9.992420e+00	2.651427e+01
2.160000e-06	1.488078e-06	4.135246e-10	1.030626e+01	2.815591e+01
2.170000e-06	1.533290e-06	4.379262e-10	1.061939e+01	2.977379e+01
2.180000e-06	1.578402e-06	4.616439e-10	1.093183e+01	3.136677e+01
2.190000e-06	1.623341e-06	4.836605e-10	1.124307e+01	3.293386e+01
2.200000e-06	1.668071e-06	5.039021e-10	1.155287e+01	3.447422e+01
2.210000e-06	1.712712e-06	5.211684e-10	1.186204e+01	3.598712e+01
2.220000e-06	1.757257e-06	5.369069e-10	1.217056e+01	3.747196e+01
2.230000e-06	1.801629e-06	5.538245e-10	1.247787e+01	3.892827e+01
2.240000e-06	1.845836e-06	5.722826e-10	1.278404e+01	4.035567e+01
2.250000e-06	1.889944e-06	5.922341e-10	1.308953e+01	4.175388e+01
2.260000e-06	1.933989e-06	6.164821e-10	1.339458e+01	4.312270e+01
2.270000e-06	1.977905e-06	6.407165e-10	1.369874e+01	4.446203e+01
2.280000e-06	2.021680e-06	6.611495e-10	1.400192e+01	4.577184e+01
2.290000e-06	2.065399e-06	6.775536e-10	1.430471e+01	4.705214e+01
2.300000e-06	2.109080e-06	6.901157e-10	1.460724e+01	4.830301e+01
2.310000e-06	2.152697e-06	7.021618e-10	1.490933e+01	4.952458e+01
2.320000e-06	2.196267e-06	7.160705e-10	1.521109e+01	5.071703e+01
2.330000e-06	2.239744e-06	7.314410e-10	1.551220e+01	5.188057e+01
2.340000e-06	2.283144e-06	7.475472e-10	1.581279e+01	5.301544e+01
2.350000e-06	2.326480e-06	7.640207e-10	1.611293e+01	5.412190e+01
2.360000e-06	2.369635e-06	7.796586e-10	1.641182e+01	5.520027e+01
2.370000e-06	2.412525e-06	7.942421e-10	1.670886e+01	5.625087e+01
2.380000e-06	2.455193e-06	8.076794e-10	1.700438e+01	5.727403e+01
2.390000e-06	2.497536e-06	8.197172e-10	1.729764e+01	5.827014e+01
2.400000e-06	2.539466e-06	8.325523e-10	1.758805e+01	5.923958e+01
2.410000e-06	2.581162e-06	8.479210e-10	1.787683e+01	6.018277e+01
2.420000e-06	2.622532e-06	8.624050e-10	1.816335e+01	6.110012e+01
2.430000e-06	2.663533e-06	8.759694e-10	1.844732e+01	6.199210e+01
2.440000e-06	2.704345e-06	8.886830e-10	1.872998e+01	6.285918e+01
2.450000e-06	2.744872e-06	8.983371e-10	1.901066e+01	6.370183e+01
2.460000e-06	2.785065e-06	9.064444e-10	1.928904e+01	6.452058e+01
2.470000e-06	2.825031e-06	9.152733e-10	1.956583e+01	6.531595e+01
2.480000e-06	2.864802e-06	9.242236e-10	1.984128e+01	6.608847e+01
2.490000e-06	2.904458e-06	9.345103e-10	2.011594e+01	6.683871e+01
2.500000e-06	2.944017e-06	9.465041e-10	2.038992e+01	6.756723e+01
2.510000e-06	2.983485e-06	9.593779e-10	2.066327e+01	6.827460e+01
2.520000e-06	3.022845e-06	9.699187e-10	2.093587e+01	6.896141e+01
2.530000e-06	3.062032e-06	9.780092e-10	2.120728e+01	6.962822e+01
2.540000e-06	3.101060e-06	9.843219e-10	2.147758e+01	7.027563e+01
2.550000e-06	3.139819e-06	9.894218e-10	2.174602e+01	7.090420e+01
2.560000e-06	3.178279e-06	9.963815e-10	2.201239e+01	7.151449e+01
2.570000e-06	3.216466e-06	1.005988e-09	2.227687e+01	7.210704e+01
2.580000e-06	3.254477e-06	1.016418e-09	2.254012e+01	7.268238e+01
2.590000e-06	3.292332e-06	1.027078e-09	2.280231e+01	7.324101e+01
2.600000e-06	3.329980e-06	1.037830e-09	2.306305e+01	7.378341e+01
2.610000e-06	3.367440e-06	1.045716e-09	2.332250e+01	7.431003e+01
2.620000e-06	3.404597e-06	1.049732e-09	2.357984e+01	7.482127e+01
2.630000e-06	3.441503e-06	1.054408e-09	2.383545e+01	7.531753e+01
2.640000e-06	3.478210e-06	1.060677e-09	2.408967e+01	7.579914e+01
2.650000e-06	3.514599e-06	1.068380e-09	2.434170e+01	7.626643e+01
2.660000e-06	3.550692e-06	1.076807e-09	2.459168e+01	7.671969e+01
2.670000e-06	3.586615e-06	1.083991e-09	2.484048e+01	7.715917e+01
2.680000e-06	3.622407e-06	1.090709e-09	2.508837e+01	7.758509e+01
2.690000e-06	3.658078e-06	1.097779e-09	2.533542e+01	7.799766e+01
2.700000e-06	3.693626e-06	1.103573e-09	2.558162e+01	7.839708e+01
2.710000e-06	3.729022e-06	1.107951e-09	2.582677e+01	7.878352e+01
2.720000e-06	3.764167e-06	1.114222e-09	2.607018e+01	7.915714e+01
2.730000e-06	3.799015e-06	1.120690e-09	2.631154e+01	7.951812e+01
2.740000e-06	3.833542e-06	1.126428e-09	2.655067e+01	7.986662e+01
2.750000e-06	3.867608e-06	1.132098e-09	2.678660e+01	8.020284e+01
2.760000e-06	3.901123e-06	1.137976e-09	2.701873e+01	8.052698e+01
2.770000e-06	3.934134e-06	1.143707e-09	2.724736e+01	8.083927e+01
2.780000e-06	3.966727e-06	1.149555e-09	2.747309e+01	8.113998e+01
2.790000e-06	3.998967e-06	1.155659e-09	2.769638e+01	8.142939e+01
2.800000e-06	4.030897e-06	1.160442e-09	2.791752e+01	8.170785e+01
2.810000e-06	4.062603e-06	1.163397e-09	2.813711e+01	8.197572e+01
2.820000e-06	4.094177e-06	1.168285e-09	2.835579e+01	8.223345e+01
2.830000e-06	4.125580e-06	1.174718e-09	2.857329e+01	8.248148e+01
2.840000e-06	4.156850e-06	1.179525e-09	2.878986e+01	8.272035e+01
2.850000e-06	4.187868e-06	1.183642e-09	2.900469e+01	8.295060e+01
2.860000e-06	4.218511e-06	1.189316e-09	2.921691e+01	8.317284e+01
2.870000e-06	4.248839e-06	1.196109e-09	2.942696e+01	8.338769e+01
2.880000e-06	4.278870e-06	1.203139e-09	2.963495e+01	8.359581e+01
2.890000e-06	4.308660e-06	1.209431e-09	2.984128e+01	8.379790e+01
2.900000e-06	4.338201e-06	1.213451e-09	3.004587e+01	8.399464e+01
