# Temperatura_=_-6.1
# Concentracion g/m^3_=_1620.0
# C_Vs_to_Am_M_A/Vsm_=_65563218390.804596
# pendiente_HvsI_1/m_=_3716.3
# ordenada_HvsI_A/m_=_1297.0
# frecuencia_Hz_=_135107.78778075855

Tiempo_(s)	Campo_(V.s)	Magnetizacion_(V.s)	Campo_(kA/m)	Magnetizacion_(A/m)
0.000000e+00	-5.521007e-06	-1.074808e-09	-3.837230e+01	-7.343750e+01
1.000000e-08	-5.521089e-06	-1.073035e-09	-3.837287e+01	-7.340767e+01
2.000000e-08	-5.520873e-06	-1.072907e-09	-3.837136e+01	-7.337766e+01
3.000000e-08	-5.520215e-06	-1.073594e-09	-3.836679e+01	-7.334757e+01
4.000000e-08	-5.519067e-06	-1.070595e-09	-3.835881e+01	-7.331744e+01
5.000000e-08	-5.517343e-06	-1.065061e-09	-3.834683e+01	-7.328732e+01
6.000000e-08	-5.514970e-06	-1.068453e-09	-3.833034e+01	-7.325721e+01
7.000000e-08	-5.512082e-06	-1.077550e-09	-3.831026e+01	-7.322709e+01
8.000000e-08	-5.508721e-06	-1.070594e-09	-3.828690e+01	-7.319691e+01
9.000000e-08	-5.504908e-06	-1.042387e-09	-3.826040e+01	-7.316657e+01
1.000000e-07	-5.500748e-06	-1.051505e-09	-3.823149e+01	-7.313592e+01
1.100000e-07	-5.496285e-06	-1.079792e-09	-3.820047e+01	-7.310479e+01
1.200000e-07	-5.491574e-06	-1.092166e-09	-3.816773e+01	-7.307295e+01
1.300000e-07	-5.486613e-06	-1.051113e-09	-3.813325e+01	-7.304014e+01
1.400000e-07	-5.481246e-06	-1.043941e-09	-3.809595e+01	-7.300605e+01
1.500000e-07	-5.475479e-06	-1.071533e-09	-3.805586e+01	-7.297035e+01
1.600000e-07	-5.469390e-06	-1.085019e-09	-3.801355e+01	-7.293267e+01
1.700000e-07	-5.462817e-06	-1.059786e-09	-3.796786e+01	-7.289263e+01
1.800000e-07	-5.455758e-06	-1.066103e-09	-3.791880e+01	-7.284982e+01
1.900000e-07	-5.448358e-06	-1.094568e-09	-3.786737e+01	-7.280383e+01
2.000000e-07	-5.440771e-06	-1.095422e-09	-3.781464e+01	-7.275427e+01
2.100000e-07	-5.432978e-06	-1.071778e-09	-3.776047e+01	-7.270073e+01
2.200000e-07	-5.424861e-06	-1.064419e-09	-3.770406e+01	-7.264286e+01
2.300000e-07	-5.416302e-06	-1.078230e-09	-3.764457e+01	-7.258030e+01
2.400000e-07	-5.407186e-06	-1.087521e-09	-3.758121e+01	-7.251277e+01
2.500000e-07	-5.397440e-06	-1.108088e-09	-3.751348e+01	-7.244001e+01
2.600000e-07	-5.387118e-06	-1.091518e-09	-3.744174e+01	-7.236184e+01
2.700000e-07	-5.376407e-06	-1.071431e-09	-3.736729e+01	-7.227813e+01
2.800000e-07	-5.365180e-06	-1.061203e-09	-3.728926e+01	-7.218883e+01
2.900000e-07	-5.353453e-06	-1.073602e-09	-3.720775e+01	-7.209396e+01
3.000000e-07	-5.341379e-06	-1.060172e-09	-3.712384e+01	-7.199361e+01
3.100000e-07	-5.328902e-06	-1.067984e-09	-3.703712e+01	-7.188798e+01
3.200000e-07	-5.315958e-06	-1.089019e-09	-3.694716e+01	-7.177730e+01
3.300000e-07	-5.302604e-06	-1.093759e-09	-3.685434e+01	-7.166192e+01
3.400000e-07	-5.288880e-06	-1.063313e-09	-3.675896e+01	-7.154223e+01
3.500000e-07	-5.274713e-06	-1.066773e-09	-3.666049e+01	-7.141871e+01
3.600000e-07	-5.260119e-06	-1.070700e-09	-3.655906e+01	-7.129189e+01
3.700000e-07	-5.245139e-06	-1.055113e-09	-3.645495e+01	-7.116233e+01
3.800000e-07	-5.229637e-06	-1.054189e-09	-3.634720e+01	-7.103067e+01
3.900000e-07	-5.213661e-06	-1.072449e-09	-3.623617e+01	-7.089754e+01
4.000000e-07	-5.197307e-06	-1.057112e-09	-3.612250e+01	-7.076361e+01
4.100000e-07	-5.180552e-06	-1.036924e-09	-3.600605e+01	-7.062955e+01
4.200000e-07	-5.163463e-06	-1.062302e-09	-3.588728e+01	-7.049600e+01
4.300000e-07	-5.146082e-06	-1.068811e-09	-3.576648e+01	-7.036360e+01
4.400000e-07	-5.128388e-06	-1.037181e-09	-3.564350e+01	-7.023296e+01
4.500000e-07	-5.110226e-06	-1.037595e-09	-3.551727e+01	-7.010462e+01
4.600000e-07	-5.091552e-06	-1.059357e-09	-3.538748e+01	-6.997908e+01
4.700000e-07	-5.072483e-06	-1.030149e-09	-3.525495e+01	-6.985676e+01
4.800000e-07	-5.053144e-06	-1.011389e-09	-3.512054e+01	-6.973803e+01
4.900000e-07	-5.033582e-06	-1.039577e-09	-3.498458e+01	-6.962315e+01
5.000000e-07	-5.013829e-06	-1.046102e-09	-3.484729e+01	-6.951229e+01
5.100000e-07	-4.993844e-06	-1.020433e-09	-3.470839e+01	-6.940556e+01
5.200000e-07	-4.973503e-06	-1.037738e-09	-3.456701e+01	-6.930295e+01
5.300000e-07	-4.952781e-06	-1.050776e-09	-3.442299e+01	-6.920436e+01
5.400000e-07	-4.931680e-06	-1.019995e-09	-3.427634e+01	-6.910962e+01
5.500000e-07	-4.910239e-06	-1.005927e-09	-3.412732e+01	-6.901845e+01
5.600000e-07	-4.888497e-06	-1.029387e-09	-3.397620e+01	-6.893052e+01
5.700000e-07	-4.866427e-06	-1.020325e-09	-3.382281e+01	-6.884541e+01
5.800000e-07	-4.844009e-06	-1.008319e-09	-3.366700e+01	-6.876266e+01
5.900000e-07	-4.821230e-06	-1.029227e-09	-3.350868e+01	-6.868173e+01
6.000000e-07	-4.798159e-06	-1.034582e-09	-3.334833e+01	-6.860208e+01
6.100000e-07	-4.774772e-06	-1.006353e-09	-3.318579e+01	-6.852312e+01
6.200000e-07	-4.751102e-06	-1.005740e-09	-3.302128e+01	-6.844426e+01
6.300000e-07	-4.727217e-06	-1.015463e-09	-3.285527e+01	-6.836491e+01
6.400000e-07	-4.703036e-06	-1.001430e-09	-3.268720e+01	-6.828450e+01
6.500000e-07	-4.678425e-06	-9.947651e-10	-3.251615e+01	-6.820248e+01
6.600000e-07	-4.653389e-06	-1.011205e-09	-3.234215e+01	-6.811834e+01
6.700000e-07	-4.627958e-06	-1.006874e-09	-3.216539e+01	-6.803162e+01
6.800000e-07	-4.601960e-06	-9.942238e-10	-3.198470e+01	-6.794193e+01
6.900000e-07	-4.575361e-06	-1.001705e-09	-3.179984e+01	-6.784893e+01
7.000000e-07	-4.548310e-06	-1.001369e-09	-3.161182e+01	-6.775235e+01
7.100000e-07	-4.520924e-06	-9.824832e-10	-3.142148e+01	-6.765201e+01
7.200000e-07	-4.493288e-06	-9.817823e-10	-3.122941e+01	-6.754781e+01
7.300000e-07	-4.465533e-06	-9.920597e-10	-3.103651e+01	-6.743970e+01
7.400000e-07	-4.437617e-06	-9.853387e-10	-3.084248e+01	-6.732774e+01
7.500000e-07	-4.409514e-06	-9.832072e-10	-3.064716e+01	-6.721203e+01
7.600000e-07	-4.381164e-06	-9.899317e-10	-3.045012e+01	-6.709277e+01
7.700000e-07	-4.352384e-06	-9.839551e-10	-3.025009e+01	-6.697018e+01
7.800000e-07	-4.323170e-06	-9.719587e-10	-3.004705e+01	-6.684455e+01
7.900000e-07	-4.293651e-06	-9.732394e-10	-2.984189e+01	-6.671623e+01
8.000000e-07	-4.263904e-06	-9.688676e-10	-2.963513e+01	-6.658555e+01
8.100000e-07	-4.233919e-06	-9.604453e-10	-2.942673e+01	-6.645289e+01
8.200000e-07	-4.203724e-06	-9.648526e-10	-2.921687e+01	-6.631864e+01
8.300000e-07	-4.173248e-06	-9.721487e-10	-2.900505e+01	-6.618315e+01
8.400000e-07	-4.142443e-06	-9.657023e-10	-2.879095e+01	-6.604679e+01
8.500000e-07	-4.111404e-06	-9.647607e-10	-2.857522e+01	-6.590986e+01
8.600000e-07	-4.080146e-06	-9.662379e-10	-2.835798e+01	-6.577266e+01
8.700000e-07	-4.048645e-06	-9.581593e-10	-2.813904e+01	-6.563540e+01
8.800000e-07	-4.016909e-06	-9.490536e-10	-2.791846e+01	-6.549826e+01
8.900000e-07	-3.984961e-06	-9.493053e-10	-2.769641e+01	-6.536135e+01
9.000000e-07	-3.952752e-06	-9.457596e-10	-2.747255e+01	-6.522470e+01
9.100000e-07	-3.920188e-06	-9.442362e-10	-2.724623e+01	-6.508828e+01
9.200000e-07	-3.887306e-06	-9.494242e-10	-2.701769e+01	-6.495199e+01
9.300000e-07	-3.853944e-06	-9.501868e-10	-2.678581e+01	-6.481565e+01
9.400000e-07	-3.820059e-06	-9.422131e-10	-2.655031e+01	-6.467900e+01
9.500000e-07	-3.785850e-06	-9.382924e-10	-2.631255e+01	-6.454176e+01
9.600000e-07	-3.751219e-06	-9.325800e-10	-2.607185e+01	-6.440354e+01
9.700000e-07	-3.716111e-06	-9.207187e-10	-2.582784e+01	-6.426393e+01
9.800000e-07	-3.680745e-06	-9.161273e-10	-2.558204e+01	-6.412249e+01
9.900000e-07	-3.645244e-06	-9.189860e-10	-2.533530e+01	-6.397873e+01
1.000000e-06	-3.609604e-06	-9.171504e-10	-2.508759e+01	-6.383216e+01
1.010000e-06	-3.573854e-06	-9.148573e-10	-2.483913e+01	-6.368226e+01
1.020000e-06	-3.537963e-06	-9.183063e-10	-2.458967e+01	-6.352854e+01
1.030000e-06	-3.501838e-06	-9.178325e-10	-2.433860e+01	-6.337051e+01
1.040000e-06	-3.465467e-06	-9.117522e-10	-2.408581e+01	-6.320774e+01
1.050000e-06	-3.428893e-06	-9.066259e-10	-2.383161e+01	-6.303980e+01
1.060000e-06	-3.392044e-06	-9.026793e-10	-2.357550e+01	-6.286635e+01
1.070000e-06	-3.354838e-06	-8.973639e-10	-2.331692e+01	-6.268707e+01
1.080000e-06	-3.317362e-06	-8.972100e-10	-2.305645e+01	-6.250173e+01
1.090000e-06	-3.279660e-06	-8.988960e-10	-2.279441e+01	-6.231017e+01
1.100000e-06	-3.241729e-06	-8.946499e-10	-2.253078e+01	-6.211230e+01
1.110000e-06	-3.203640e-06	-8.881250e-10	-2.226605e+01	-6.190811e+01
1.120000e-06	-3.165337e-06	-8.868067e-10	-2.199984e+01	-6.169765e+01
1.130000e-06	-3.126812e-06	-8.842420e-10	-2.173207e+01	-6.148107e+01
1.140000e-06	-3.088159e-06	-8.806355e-10	-2.146343e+01	-6.125857e+01
1.150000e-06	-3.049231e-06	-8.792486e-10	-2.119287e+01	-6.103043e+01
1.160000e-06	-3.010007e-06	-8.768795e-10	-2.092026e+01	-6.079697e+01
1.170000e-06	-2.970682e-06	-8.704846e-10	-2.064693e+01	-6.055856e+01
1.180000e-06	-2.931184e-06	-8.667205e-10	-2.037241e+01	-6.031562e+01
1.190000e-06	-2.891486e-06	-8.631429e-10	-2.009651e+01	-6.006860e+01
1.200000e-06	-2.851631e-06	-8.562909e-10	-1.981950e+01	-5.981793e+01
1.210000e-06	-2.811729e-06	-8.488503e-10	-1.954218e+01	-5.956409e+01
1.220000e-06	-2.771742e-06	-8.441588e-10	-1.926426e+01	-5.930751e+01
1.230000e-06	-2.731492e-06	-8.403851e-10	-1.898451e+01	-5.904862e+01
1.240000e-06	-2.691098e-06	-8.360769e-10	-1.870377e+01	-5.878781e+01
1.250000e-06	-2.650588e-06	-8.357291e-10	-1.842221e+01	-5.852542e+01
1.260000e-06	-2.609807e-06	-8.347604e-10	-1.813877e+01	-5.826175e+01
1.270000e-06	-2.568677e-06	-8.287513e-10	-1.785291e+01	-5.799702e+01
1.280000e-06	-2.527238e-06	-8.237213e-10	-1.756490e+01	-5.773140e+01
1.290000e-06	-2.485505e-06	-8.194445e-10	-1.727485e+01	-5.746496e+01
1.300000e-06	-2.443343e-06	-8.128858e-10	-1.698181e+01	-5.719771e+01
1.310000e-06	-2.400858e-06	-8.057858e-10	-1.668653e+01	-5.692958e+01
1.320000e-06	-2.358207e-06	-8.035471e-10	-1.639009e+01	-5.666041e+01
1.330000e-06	-2.315280e-06	-8.025033e-10	-1.609174e+01	-5.638996e+01
1.340000e-06	-2.272173e-06	-8.015568e-10	-1.579213e+01	-5.611793e+01
1.350000e-06	-2.228936e-06	-8.021410e-10	-1.549163e+01	-5.584394e+01
1.360000e-06	-2.185541e-06	-7.991564e-10	-1.519002e+01	-5.556754e+01
1.370000e-06	-2.142015e-06	-7.909911e-10	-1.488751e+01	-5.528824e+01
1.380000e-06	-2.098344e-06	-7.821590e-10	-1.458398e+01	-5.500550e+01
1.390000e-06	-2.054524e-06	-7.769819e-10	-1.427943e+01	-5.471875e+01
1.400000e-06	-2.010642e-06	-7.717239e-10	-1.397444e+01	-5.442736e+01
1.410000e-06	-1.966763e-06	-7.688424e-10	-1.366947e+01	-5.413074e+01
1.420000e-06	-1.922818e-06	-7.694079e-10	-1.336403e+01	-5.382824e+01
1.430000e-06	-1.878853e-06	-7.663022e-10	-1.305847e+01	-5.351925e+01
1.440000e-06	-1.834827e-06	-7.587867e-10	-1.275248e+01	-5.320316e+01
1.450000e-06	-1.790617e-06	-7.497529e-10	-1.244521e+01	-5.287937e+01
1.460000e-06	-1.746247e-06	-7.410024e-10	-1.213683e+01	-5.254732e+01
1.470000e-06	-1.701791e-06	-7.321871e-10	-1.182785e+01	-5.220649e+01
1.480000e-06	-1.657190e-06	-7.267098e-10	-1.151786e+01	-5.185637e+01
1.490000e-06	-1.612368e-06	-7.253197e-10	-1.120634e+01	-5.149650e+01
1.500000e-06	-1.567400e-06	-7.235233e-10	-1.089380e+01	-5.112647e+01
1.510000e-06	-1.522269e-06	-7.210437e-10	-1.058013e+01	-5.074588e+01
1.520000e-06	-1.476999e-06	-7.167593e-10	-1.026549e+01	-5.035438e+01
1.530000e-06	-1.431739e-06	-7.098834e-10	-9.950922e+00	-4.995163e+01
1.540000e-06	-1.386446e-06	-6.986257e-10	-9.636122e+00	-4.953733e+01
1.550000e-06	-1.341056e-06	-6.883221e-10	-9.320652e+00	-4.911118e+01
1.560000e-06	-1.295526e-06	-6.801629e-10	-9.004213e+00	-4.867288e+01
1.570000e-06	-1.249855e-06	-6.724545e-10	-8.686786e+00	-4.822211e+01
1.580000e-06	-1.204122e-06	-6.653580e-10	-8.368932e+00	-4.775856e+01
1.590000e-06	-1.158284e-06	-6.606758e-10	-8.050348e+00	-4.728186e+01
1.600000e-06	-1.112385e-06	-6.553752e-10	-7.731334e+00	-4.679162e+01
1.610000e-06	-1.066419e-06	-6.475307e-10	-7.411863e+00	-4.628739e+01
1.620000e-06	-1.020304e-06	-6.402032e-10	-7.091354e+00	-4.576865e+01
1.630000e-06	-9.741746e-07	-6.329820e-10	-6.770743e+00	-4.523483e+01
1.640000e-06	-9.279932e-07	-6.253996e-10	-6.449771e+00	-4.468525e+01
1.650000e-06	-8.817313e-07	-6.170139e-10	-6.128240e+00	-4.411920e+01
1.660000e-06	-8.354957e-07	-6.063701e-10	-5.806891e+00	-4.353582e+01
1.670000e-06	-7.891958e-07	-5.949767e-10	-5.485096e+00	-4.293422e+01
1.680000e-06	-7.427616e-07	-5.826939e-10	-5.162368e+00	-4.231339e+01
1.690000e-06	-6.963248e-07	-5.688718e-10	-4.839621e+00	-4.167226e+01
1.700000e-06	-6.499309e-07	-5.549652e-10	-4.517173e+00	-4.100965e+01
1.710000e-06	-6.034788e-07	-5.441841e-10	-4.194320e+00	-4.032436e+01
1.720000e-06	-5.568841e-07	-5.355187e-10	-3.870476e+00	-3.961509e+01
1.730000e-06	-5.102179e-07	-5.251774e-10	-3.546135e+00	-3.888052e+01
1.740000e-06	-4.635953e-07	-5.138799e-10	-3.222097e+00	-3.811931e+01
1.750000e-06	-4.169790e-07	-5.006524e-10	-2.898102e+00	-3.733009e+01
1.760000e-06	-3.702780e-07	-4.866140e-10	-2.573519e+00	-3.651150e+01
1.770000e-06	-3.234707e-07	-4.726962e-10	-2.248197e+00	-3.566222e+01
1.780000e-06	-2.766340e-07	-4.590211e-10	-1.922672e+00	-3.478099e+01
1.790000e-06	-2.297524e-07	-4.462792e-10	-1.596833e+00	-3.386660e+01
1.800000e-06	-1.828800e-07	-4.339498e-10	-1.271059e+00	-3.291793e+01
1.810000e-06	-1.360195e-07	-4.204826e-10	-9.453671e-01	-3.193401e+01
1.820000e-06	-8.908636e-08	-4.059895e-10	-6.191711e-01	-3.091396e+01
1.830000e-06	-4.214698e-08	-3.910973e-10	-2.929314e-01	-2.985710e+01
1.840000e-06	4.757789e-09	-3.768904e-10	3.306775e-02	-2.876289e+01
1.850000e-06	5.161445e-08	-3.609519e-10	3.587325e-01	-2.763098e+01
1.860000e-06	9.840250e-08	-3.438023e-10	6.839205e-01	-2.646125e+01
1.870000e-06	1.451629e-07	-3.261236e-10	1.008916e+00	-2.525377e+01
1.880000e-06	1.919753e-07	-3.093523e-10	1.334273e+00	-2.400884e+01
1.890000e-06	2.388647e-07	-2.912405e-10	1.660166e+00	-2.272699e+01
1.900000e-06	2.857091e-07	-2.712670e-10	1.985745e+00	-2.140896e+01
1.910000e-06	3.324751e-07	-2.524359e-10	2.310780e+00	-2.005576e+01
1.920000e-06	3.792099e-07	-2.355584e-10	2.635598e+00	-1.866857e+01
1.930000e-06	4.259188e-07	-2.177637e-10	2.960236e+00	-1.724884e+01
1.940000e-06	4.726542e-07	-1.968185e-10	3.285058e+00	-1.579820e+01
1.950000e-06	5.193027e-07	-1.762227e-10	3.609276e+00	-1.431847e+01
1.960000e-06	5.657925e-07	-1.569743e-10	3.932391e+00	-1.281166e+01
1.970000e-06	6.122799e-07	-1.379306e-10	4.255489e+00	-1.127994e+01
1.980000e-06	6.587939e-07	-1.189844e-10	4.578772e+00	-9.725622e+00
1.990000e-06	7.051909e-07	-9.972499e-11	4.901243e+00	-8.151126e+00
2.000000e-06	7.515149e-07	-7.648956e-11	5.223205e+00	-6.558979e+00
2.010000e-06	7.978481e-07	-4.830845e-11	5.545231e+00	-4.951779e+00
2.020000e-06	8.441152e-07	-2.132611e-11	5.866799e+00	-3.332173e+00
2.030000e-06	8.903098e-07	1.428242e-12	6.187862e+00	-1.702833e+00
2.040000e-06	9.363947e-07	2.236316e-11	6.508163e+00	-6.643183e-02
2.050000e-06	9.823746e-07	4.289456e-11	6.827734e+00	1.574375e+00
2.060000e-06	1.028304e-06	6.336546e-11	7.146956e+00	3.216978e+00
2.070000e-06	1.074227e-06	8.432463e-11	7.466132e+00	4.858825e+00
2.080000e-06	1.120109e-06	1.076638e-10	7.785022e+00	6.497448e+00
2.090000e-06	1.165920e-06	1.321466e-10	8.103419e+00	8.130474e+00
2.100000e-06	1.211628e-06	1.567080e-10	8.421099e+00	9.755637e+00
2.110000e-06	1.257212e-06	1.806965e-10	8.737921e+00	1.137080e+01
2.120000e-06	1.302740e-06	2.027575e-10	9.054350e+00	1.297394e+01
2.130000e-06	1.348159e-06	2.212311e-10	9.370022e+00	1.456320e+01
2.140000e-06	1.393450e-06	2.384348e-10	9.684802e+00	1.613684e+01
2.150000e-06	1.438626e-06	2.581134e-10	9.998789e+00	1.769326e+01
2.160000e-06	1.483745e-06	2.798236e-10	1.031238e+01	1.923103e+01
2.170000e-06	1.528784e-06	3.018916e-10	1.062541e+01	2.074883e+01
2.180000e-06	1.573706e-06	3.241188e-10	1.093763e+01	2.224550e+01
2.190000e-06	1.618513e-06	3.454411e-10	1.124905e+01	2.372001e+01
2.200000e-06	1.663148e-06	3.657799e-10	1.155927e+01	2.517142e+01
2.210000e-06	1.707664e-06	3.848924e-10	1.186867e+01	2.659894e+01
2.220000e-06	1.752106e-06	4.015639e-10	1.217755e+01	2.800188e+01
2.230000e-06	1.796418e-06	4.170028e-10	1.248553e+01	2.937964e+01
2.240000e-06	1.840580e-06	4.319144e-10	1.279247e+01	3.073171e+01
2.250000e-06	1.884656e-06	4.480048e-10	1.309880e+01	3.205765e+01
2.260000e-06	1.928667e-06	4.672735e-10	1.340469e+01	3.335710e+01
2.270000e-06	1.972561e-06	4.870650e-10	1.370976e+01	3.462975e+01
2.280000e-06	2.016402e-06	5.076656e-10	1.401446e+01	3.587535e+01
2.290000e-06	2.060195e-06	5.282306e-10	1.431884e+01	3.709370e+01
2.300000e-06	2.103908e-06	5.452251e-10	1.462265e+01	3.828462e+01
2.310000e-06	2.147537e-06	5.586275e-10	1.492589e+01	3.944799e+01
2.320000e-06	2.191085e-06	5.711583e-10	1.522856e+01	4.058371e+01
2.330000e-06	2.234570e-06	5.834674e-10	1.553078e+01	4.169171e+01
2.340000e-06	2.277855e-06	5.960236e-10	1.583163e+01	4.277195e+01
2.350000e-06	2.320908e-06	6.103681e-10	1.613086e+01	4.382441e+01
2.360000e-06	2.363763e-06	6.257686e-10	1.642871e+01	4.484913e+01
2.370000e-06	2.406348e-06	6.417873e-10	1.672468e+01	4.584616e+01
2.380000e-06	2.448588e-06	6.574253e-10	1.701826e+01	4.681558e+01
2.390000e-06	2.490436e-06	6.712093e-10	1.730912e+01	4.775753e+01
2.400000e-06	2.532038e-06	6.838538e-10	1.759826e+01	4.867217e+01
2.410000e-06	2.573398e-06	6.957229e-10	1.788572e+01	4.955971e+01
2.420000e-06	2.614439e-06	7.062304e-10	1.817096e+01	5.042043e+01
2.430000e-06	2.655248e-06	7.169354e-10	1.845460e+01	5.125463e+01
2.440000e-06	2.695859e-06	7.278879e-10	1.873686e+01	5.206268e+01
2.450000e-06	2.736196e-06	7.391864e-10	1.901721e+01	5.284500e+01
2.460000e-06	2.776281e-06	7.503047e-10	1.929580e+01	5.360206e+01
2.470000e-06	2.816221e-06	7.614810e-10	1.957340e+01	5.433440e+01
2.480000e-06	2.856040e-06	7.729135e-10	1.985015e+01	5.504259e+01
2.490000e-06	2.895721e-06	7.835658e-10	2.012594e+01	5.572726e+01
2.500000e-06	2.935229e-06	7.941180e-10	2.040053e+01	5.638908e+01
2.510000e-06	2.974629e-06	8.036729e-10	2.067437e+01	5.702879e+01
2.520000e-06	3.013915e-06	8.112589e-10	2.094742e+01	5.764712e+01
2.530000e-06	3.052955e-06	8.197649e-10	2.121875e+01	5.824485e+01
2.540000e-06	3.091689e-06	8.287486e-10	2.148796e+01	5.882278e+01
2.550000e-06	3.130167e-06	8.361680e-10	2.175540e+01	5.938171e+01
2.560000e-06	3.168455e-06	8.435575e-10	2.202151e+01	5.992246e+01
2.570000e-06	3.206567e-06	8.502951e-10	2.228640e+01	6.044583e+01
2.580000e-06	3.244469e-06	8.557110e-10	2.254982e+01	6.095259e+01
2.590000e-06	3.282233e-06	8.623991e-10	2.281229e+01	6.144350e+01
2.600000e-06	3.319784e-06	8.713869e-10	2.307328e+01	6.191929e+01
2.610000e-06	3.357072e-06	8.807567e-10	2.333244e+01	6.238063e+01
2.620000e-06	3.394139e-06	8.863677e-10	2.359006e+01	6.282815e+01
2.630000e-06	3.430924e-06	8.893047e-10	2.384573e+01	6.326241e+01
2.640000e-06	3.467436e-06	8.920173e-10	2.409950e+01	6.368393e+01
2.650000e-06	3.503734e-06	8.981064e-10	2.435177e+01	6.409315e+01
2.660000e-06	3.539847e-06	9.069827e-10	2.460277e+01	6.449043e+01
2.670000e-06	3.575762e-06	9.135685e-10	2.485239e+01	6.487608e+01
2.680000e-06	3.611506e-06	9.181996e-10	2.510082e+01	6.525035e+01
2.690000e-06	3.647147e-06	9.215232e-10	2.534853e+01	6.561341e+01
2.700000e-06	3.682665e-06	9.250695e-10	2.559539e+01	6.596537e+01
2.710000e-06	3.717992e-06	9.288154e-10	2.584092e+01	6.630628e+01
2.720000e-06	3.753068e-06	9.349017e-10	2.608470e+01	6.663618e+01
2.730000e-06	3.787778e-06	9.423065e-10	2.632594e+01	6.695502e+01
2.740000e-06	3.821977e-06	9.472454e-10	2.656364e+01	6.726276e+01
2.750000e-06	3.855613e-06	9.524865e-10	2.679741e+01	6.755932e+01
2.760000e-06	3.888745e-06	9.577466e-10	2.702769e+01	6.784462e+01
2.770000e-06	3.921480e-06	9.607839e-10	2.725521e+01	6.811858e+01
2.780000e-06	3.953878e-06	9.626865e-10	2.748038e+01	6.838113e+01
2.790000e-06	3.985999e-06	9.666900e-10	2.770363e+01	6.863222e+01
2.800000e-06	4.017915e-06	9.698788e-10	2.792546e+01	6.887186e+01
2.810000e-06	4.049654e-06	9.728570e-10	2.814605e+01	6.910006e+01
2.820000e-06	4.081238e-06	9.772937e-10	2.836556e+01	6.931692e+01
2.830000e-06	4.112657e-06	9.828218e-10	2.858393e+01	6.952259e+01
2.840000e-06	4.143845e-06	9.878530e-10	2.880070e+01	6.971725e+01
2.850000e-06	4.174713e-06	9.926867e-10	2.901523e+01	6.990120e+01
2.860000e-06	4.205296e-06	9.956548e-10	2.922779e+01	7.007476e+01
2.870000e-06	4.235549e-06	9.942301e-10	2.943806e+01	7.023836e+01
2.880000e-06	4.265458e-06	9.939521e-10	2.964594e+01	7.039248e+01
2.890000e-06	4.295082e-06	9.973911e-10	2.985183e+01	7.053765e+01
2.900000e-06	4.324407e-06	1.004518e-09	3.005564e+01	7.067448e+01
