# Temperatura_=_6.72
# Concentracion g/m^3_=_1620.0
# C_Vs_to_Am_M_A/Vsm_=_65563218390.804596
# pendiente_HvsI_1/m_=_3716.3
# ordenada_HvsI_A/m_=_1297.0
# frecuencia_Hz_=_135105.24865348372

Tiempo_(s)	Campo_(V.s)	Magnetizacion_(V.s)	Campo_(kA/m)	Magnetizacion_(A/m)
0.000000e+00	-5.514603e-06	-1.294856e-09	-3.836492e+01	-8.603861e+01
1.000000e-08	-5.514909e-06	-1.293868e-09	-3.836704e+01	-8.602585e+01
2.000000e-08	-5.514922e-06	-1.293968e-09	-3.836713e+01	-8.601047e+01
3.000000e-08	-5.514526e-06	-1.295154e-09	-3.836438e+01	-8.599230e+01
4.000000e-08	-5.513616e-06	-1.294520e-09	-3.835805e+01	-8.597117e+01
5.000000e-08	-5.512148e-06	-1.287812e-09	-3.834783e+01	-8.594695e+01
6.000000e-08	-5.510038e-06	-1.274264e-09	-3.833315e+01	-8.591954e+01
7.000000e-08	-5.507273e-06	-1.263223e-09	-3.831392e+01	-8.588887e+01
8.000000e-08	-5.504036e-06	-1.273720e-09	-3.829140e+01	-8.585485e+01
9.000000e-08	-5.500375e-06	-1.316254e-09	-3.826593e+01	-8.581746e+01
1.000000e-07	-5.496246e-06	-1.351134e-09	-3.823721e+01	-8.577666e+01
1.100000e-07	-5.491747e-06	-1.317197e-09	-3.820590e+01	-8.573241e+01
1.200000e-07	-5.487141e-06	-1.238405e-09	-3.817386e+01	-8.568471e+01
1.300000e-07	-5.482437e-06	-1.230603e-09	-3.814114e+01	-8.563353e+01
1.400000e-07	-5.477354e-06	-1.300161e-09	-3.810577e+01	-8.557886e+01
1.500000e-07	-5.471775e-06	-1.309632e-09	-3.806697e+01	-8.552066e+01
1.600000e-07	-5.465814e-06	-1.276322e-09	-3.802550e+01	-8.545891e+01
1.700000e-07	-5.459452e-06	-1.265507e-09	-3.798123e+01	-8.539355e+01
1.800000e-07	-5.452613e-06	-1.322442e-09	-3.793365e+01	-8.532455e+01
1.900000e-07	-5.445400e-06	-1.323021e-09	-3.788347e+01	-8.525183e+01
2.000000e-07	-5.438005e-06	-1.261884e-09	-3.783203e+01	-8.517532e+01
2.100000e-07	-5.430344e-06	-1.245360e-09	-3.777873e+01	-8.509493e+01
2.200000e-07	-5.422332e-06	-1.294245e-09	-3.772299e+01	-8.501059e+01
2.300000e-07	-5.414119e-06	-1.330317e-09	-3.766585e+01	-8.492219e+01
2.400000e-07	-5.405434e-06	-1.301906e-09	-3.760543e+01	-8.482964e+01
2.500000e-07	-5.395934e-06	-1.277750e-09	-3.753934e+01	-8.473285e+01
2.600000e-07	-5.385693e-06	-1.273220e-09	-3.746809e+01	-8.463174e+01
2.700000e-07	-5.374958e-06	-1.271346e-09	-3.739341e+01	-8.452623e+01
2.800000e-07	-5.363796e-06	-1.251074e-09	-3.731575e+01	-8.441627e+01
2.900000e-07	-5.352208e-06	-1.246942e-09	-3.723514e+01	-8.430183e+01
3.000000e-07	-5.340306e-06	-1.250925e-09	-3.715233e+01	-8.418290e+01
3.100000e-07	-5.328060e-06	-1.269722e-09	-3.706714e+01	-8.405950e+01
3.200000e-07	-5.315348e-06	-1.269861e-09	-3.697870e+01	-8.393169e+01
3.300000e-07	-5.302175e-06	-1.259175e-09	-3.688706e+01	-8.379955e+01
3.400000e-07	-5.288670e-06	-1.247671e-09	-3.679311e+01	-8.366322e+01
3.500000e-07	-5.274767e-06	-1.256893e-09	-3.669638e+01	-8.352287e+01
3.600000e-07	-5.260302e-06	-1.247105e-09	-3.659575e+01	-8.337871e+01
3.700000e-07	-5.245368e-06	-1.233631e-09	-3.649186e+01	-8.323098e+01
3.800000e-07	-5.229966e-06	-1.241488e-09	-3.638471e+01	-8.307998e+01
3.900000e-07	-5.213954e-06	-1.251690e-09	-3.627331e+01	-8.292602e+01
4.000000e-07	-5.197426e-06	-1.227697e-09	-3.615833e+01	-8.276946e+01
4.100000e-07	-5.180650e-06	-1.227364e-09	-3.604161e+01	-8.261067e+01
4.200000e-07	-5.163679e-06	-1.251527e-09	-3.592355e+01	-8.245007e+01
4.300000e-07	-5.146364e-06	-1.235417e-09	-3.580309e+01	-8.228805e+01
4.400000e-07	-5.128688e-06	-1.213034e-09	-3.568011e+01	-8.212505e+01
4.500000e-07	-5.110571e-06	-1.241990e-09	-3.555408e+01	-8.196149e+01
4.600000e-07	-5.091964e-06	-1.246376e-09	-3.542463e+01	-8.179778e+01
4.700000e-07	-5.073044e-06	-1.192379e-09	-3.529300e+01	-8.163432e+01
4.800000e-07	-5.053973e-06	-1.198681e-09	-3.516033e+01	-8.147150e+01
4.900000e-07	-5.034627e-06	-1.239612e-09	-3.502574e+01	-8.130964e+01
5.000000e-07	-5.015015e-06	-1.216701e-09	-3.488930e+01	-8.114907e+01
5.100000e-07	-4.995236e-06	-1.190804e-09	-3.475170e+01	-8.099005e+01
5.200000e-07	-4.975145e-06	-1.227107e-09	-3.461192e+01	-8.083279e+01
5.300000e-07	-4.954617e-06	-1.223239e-09	-3.446911e+01	-8.067745e+01
5.400000e-07	-4.933671e-06	-1.189723e-09	-3.432339e+01	-8.052413e+01
5.500000e-07	-4.912346e-06	-1.205390e-09	-3.417504e+01	-8.037287e+01
5.600000e-07	-4.890666e-06	-1.215110e-09	-3.402421e+01	-8.022365e+01
5.700000e-07	-4.868694e-06	-1.172636e-09	-3.387135e+01	-8.007640e+01
5.800000e-07	-4.846415e-06	-1.177872e-09	-3.371636e+01	-7.993095e+01
5.900000e-07	-4.823722e-06	-1.209066e-09	-3.355848e+01	-7.978712e+01
6.000000e-07	-4.800665e-06	-1.187069e-09	-3.339807e+01	-7.964464e+01
6.100000e-07	-4.777410e-06	-1.164258e-09	-3.323629e+01	-7.950322e+01
6.200000e-07	-4.753972e-06	-1.187677e-09	-3.307323e+01	-7.936249e+01
6.300000e-07	-4.730293e-06	-1.180778e-09	-3.290850e+01	-7.922209e+01
6.400000e-07	-4.706336e-06	-1.159311e-09	-3.274183e+01	-7.908159e+01
6.500000e-07	-4.681993e-06	-1.173975e-09	-3.257247e+01	-7.894056e+01
6.600000e-07	-4.657081e-06	-1.183158e-09	-3.239916e+01	-7.879856e+01
6.700000e-07	-4.631611e-06	-1.162851e-09	-3.222197e+01	-7.865514e+01
6.800000e-07	-4.605725e-06	-1.163643e-09	-3.204188e+01	-7.850987e+01
6.900000e-07	-4.579305e-06	-1.173877e-09	-3.185807e+01	-7.836230e+01
7.000000e-07	-4.552342e-06	-1.159986e-09	-3.167050e+01	-7.821205e+01
7.100000e-07	-4.525085e-06	-1.147474e-09	-3.148087e+01	-7.805873e+01
7.200000e-07	-4.497662e-06	-1.151515e-09	-3.129009e+01	-7.790200e+01
7.300000e-07	-4.470102e-06	-1.148350e-09	-3.109836e+01	-7.774157e+01
7.400000e-07	-4.442345e-06	-1.141857e-09	-3.090525e+01	-7.757718e+01
7.500000e-07	-4.414297e-06	-1.145335e-09	-3.071012e+01	-7.740864e+01
7.600000e-07	-4.385960e-06	-1.140894e-09	-3.051298e+01	-7.723579e+01
7.700000e-07	-4.357321e-06	-1.127665e-09	-3.031374e+01	-7.705854e+01
7.800000e-07	-4.328336e-06	-1.119465e-09	-3.011209e+01	-7.687682e+01
7.900000e-07	-4.299039e-06	-1.117279e-09	-2.990827e+01	-7.669065e+01
8.000000e-07	-4.269456e-06	-1.111950e-09	-2.970247e+01	-7.650007e+01
8.100000e-07	-4.239564e-06	-1.110069e-09	-2.949451e+01	-7.630516e+01
8.200000e-07	-4.209383e-06	-1.110141e-09	-2.928454e+01	-7.610604e+01
8.300000e-07	-4.178830e-06	-1.109622e-09	-2.907198e+01	-7.590287e+01
8.400000e-07	-4.147972e-06	-1.106863e-09	-2.885731e+01	-7.569581e+01
8.500000e-07	-4.116933e-06	-1.106877e-09	-2.864137e+01	-7.548506e+01
8.600000e-07	-4.085700e-06	-1.100287e-09	-2.842408e+01	-7.527082e+01
8.700000e-07	-4.054296e-06	-1.091934e-09	-2.820561e+01	-7.505327e+01
8.800000e-07	-4.022705e-06	-1.088295e-09	-2.798583e+01	-7.483260e+01
8.900000e-07	-3.990901e-06	-1.086261e-09	-2.776457e+01	-7.460900e+01
9.000000e-07	-3.958851e-06	-1.080553e-09	-2.754160e+01	-7.438260e+01
9.100000e-07	-3.926539e-06	-1.077205e-09	-2.731681e+01	-7.415353e+01
9.200000e-07	-3.893836e-06	-1.074034e-09	-2.708929e+01	-7.392188e+01
9.300000e-07	-3.860687e-06	-1.068929e-09	-2.685868e+01	-7.368771e+01
9.400000e-07	-3.827055e-06	-1.065862e-09	-2.662469e+01	-7.345102e+01
9.500000e-07	-3.792913e-06	-1.065624e-09	-2.638717e+01	-7.321180e+01
9.600000e-07	-3.758440e-06	-1.057989e-09	-2.614735e+01	-7.296997e+01
9.700000e-07	-3.723599e-06	-1.047640e-09	-2.590496e+01	-7.272543e+01
9.800000e-07	-3.688370e-06	-1.041229e-09	-2.565987e+01	-7.247802e+01
9.900000e-07	-3.652930e-06	-1.033525e-09	-2.541332e+01	-7.222758e+01
1.000000e-06	-3.617373e-06	-1.025235e-09	-2.516594e+01	-7.197388e+01
1.010000e-06	-3.581688e-06	-1.023935e-09	-2.491769e+01	-7.171669e+01
1.020000e-06	-3.545842e-06	-1.024860e-09	-2.466831e+01	-7.145576e+01
1.030000e-06	-3.509850e-06	-1.022130e-09	-2.441791e+01	-7.119083e+01
1.040000e-06	-3.473695e-06	-1.020193e-09	-2.416638e+01	-7.092162e+01
1.050000e-06	-3.437347e-06	-1.016991e-09	-2.391352e+01	-7.064786e+01
1.060000e-06	-3.400705e-06	-1.006489e-09	-2.365859e+01	-7.036931e+01
1.070000e-06	-3.363741e-06	-9.964026e-10	-2.340144e+01	-7.008573e+01
1.080000e-06	-3.326474e-06	-9.939797e-10	-2.314217e+01	-6.979692e+01
1.090000e-06	-3.288914e-06	-9.905792e-10	-2.288087e+01	-6.950269e+01
1.100000e-06	-3.251172e-06	-9.838912e-10	-2.261830e+01	-6.920291e+01
1.110000e-06	-3.213262e-06	-9.808257e-10	-2.235456e+01	-6.889749e+01
1.120000e-06	-3.175104e-06	-9.816219e-10	-2.208910e+01	-6.858637e+01
1.130000e-06	-3.136653e-06	-9.763693e-10	-2.182159e+01	-6.826956e+01
1.140000e-06	-3.097956e-06	-9.710230e-10	-2.155238e+01	-6.794712e+01
1.150000e-06	-3.059114e-06	-9.674920e-10	-2.128216e+01	-6.761913e+01
1.160000e-06	-3.020128e-06	-9.596501e-10	-2.101094e+01	-6.728575e+01
1.170000e-06	-2.980976e-06	-9.490351e-10	-2.073855e+01	-6.694717e+01
1.180000e-06	-2.941636e-06	-9.424284e-10	-2.046487e+01	-6.660361e+01
1.190000e-06	-2.902104e-06	-9.362381e-10	-2.018984e+01	-6.625535e+01
1.200000e-06	-2.862454e-06	-9.283541e-10	-1.991400e+01	-6.590268e+01
1.210000e-06	-2.822696e-06	-9.230246e-10	-1.963740e+01	-6.554589e+01
1.220000e-06	-2.782758e-06	-9.201751e-10	-1.935956e+01	-6.518532e+01
1.230000e-06	-2.742648e-06	-9.154607e-10	-1.908052e+01	-6.482127e+01
1.240000e-06	-2.702444e-06	-9.100583e-10	-1.880081e+01	-6.445407e+01
1.250000e-06	-2.662032e-06	-9.070943e-10	-1.851967e+01	-6.408401e+01
1.260000e-06	-2.621375e-06	-9.033000e-10	-1.823682e+01	-6.371135e+01
1.270000e-06	-2.580461e-06	-8.964764e-10	-1.795218e+01	-6.333631e+01
1.280000e-06	-2.539218e-06	-8.919933e-10	-1.766525e+01	-6.295908e+01
1.290000e-06	-2.497585e-06	-8.870085e-10	-1.737562e+01	-6.257979e+01
1.300000e-06	-2.455552e-06	-8.778449e-10	-1.708320e+01	-6.219850e+01
1.310000e-06	-2.413256e-06	-8.697375e-10	-1.678894e+01	-6.181522e+01
1.320000e-06	-2.370744e-06	-8.657765e-10	-1.649319e+01	-6.142988e+01
1.330000e-06	-2.327968e-06	-8.617843e-10	-1.619560e+01	-6.104233e+01
1.340000e-06	-2.285031e-06	-8.559773e-10	-1.589689e+01	-6.065236e+01
1.350000e-06	-2.241946e-06	-8.516238e-10	-1.559714e+01	-6.025969e+01
1.360000e-06	-2.198611e-06	-8.442368e-10	-1.529567e+01	-5.986395e+01
1.370000e-06	-2.155154e-06	-8.340605e-10	-1.499333e+01	-5.946472e+01
1.380000e-06	-2.111659e-06	-8.245409e-10	-1.469074e+01	-5.906149e+01
1.390000e-06	-2.068059e-06	-8.149288e-10	-1.438742e+01	-5.865371e+01
1.400000e-06	-2.024347e-06	-8.070044e-10	-1.408332e+01	-5.824079e+01
1.410000e-06	-1.980587e-06	-8.032974e-10	-1.377888e+01	-5.782206e+01
1.420000e-06	-1.936762e-06	-8.009940e-10	-1.347399e+01	-5.739685e+01
1.430000e-06	-1.892870e-06	-7.970993e-10	-1.316863e+01	-5.696445e+01
1.440000e-06	-1.848887e-06	-7.908693e-10	-1.286265e+01	-5.652412e+01
1.450000e-06	-1.804720e-06	-7.816765e-10	-1.255538e+01	-5.607514e+01
1.460000e-06	-1.760375e-06	-7.695093e-10	-1.224687e+01	-5.561676e+01
1.470000e-06	-1.715944e-06	-7.558637e-10	-1.193777e+01	-5.514825e+01
1.480000e-06	-1.671361e-06	-7.446214e-10	-1.162760e+01	-5.466891e+01
1.490000e-06	-1.626560e-06	-7.365137e-10	-1.131592e+01	-5.417805e+01
1.500000e-06	-1.581627e-06	-7.299252e-10	-1.100333e+01	-5.367500e+01
1.510000e-06	-1.536538e-06	-7.238877e-10	-1.068965e+01	-5.315913e+01
1.520000e-06	-1.491351e-06	-7.168231e-10	-1.037528e+01	-5.262986e+01
1.530000e-06	-1.446097e-06	-7.077886e-10	-1.006045e+01	-5.208662e+01
1.540000e-06	-1.400771e-06	-6.984411e-10	-9.745118e+00	-5.152888e+01
1.550000e-06	-1.355322e-06	-6.908954e-10	-9.428932e+00	-5.095616e+01
1.560000e-06	-1.309758e-06	-6.834356e-10	-9.111943e+00	-5.036800e+01
1.570000e-06	-1.264178e-06	-6.751543e-10	-8.794842e+00	-4.976395e+01
1.580000e-06	-1.218555e-06	-6.660127e-10	-8.477447e+00	-4.914360e+01
1.590000e-06	-1.172962e-06	-6.589225e-10	-8.160261e+00	-4.850654e+01
1.600000e-06	-1.127278e-06	-6.508815e-10	-7.842435e+00	-4.785238e+01
1.610000e-06	-1.081441e-06	-6.402449e-10	-7.523553e+00	-4.718070e+01
1.620000e-06	-1.035558e-06	-6.298999e-10	-7.204346e+00	-4.649109e+01
1.630000e-06	-9.896656e-07	-6.206006e-10	-6.885072e+00	-4.578310e+01
1.640000e-06	-9.436000e-07	-6.135894e-10	-6.564595e+00	-4.505627e+01
1.650000e-06	-8.974031e-07	-6.051314e-10	-6.243205e+00	-4.431009e+01
1.660000e-06	-8.511875e-07	-5.927697e-10	-5.921684e+00	-4.354400e+01
1.670000e-06	-8.048824e-07	-5.784512e-10	-5.599541e+00	-4.275741e+01
1.680000e-06	-7.585382e-07	-5.624349e-10	-5.277126e+00	-4.194965e+01
1.690000e-06	-7.121288e-07	-5.459523e-10	-4.954257e+00	-4.112001e+01
1.700000e-06	-6.657084e-07	-5.305365e-10	-4.631312e+00	-4.026773e+01
1.710000e-06	-6.192677e-07	-5.168945e-10	-4.308225e+00	-3.939198e+01
1.720000e-06	-5.727569e-07	-5.062567e-10	-3.984651e+00	-3.849187e+01
1.730000e-06	-5.261674e-07	-4.965424e-10	-3.660530e+00	-3.756650e+01
1.740000e-06	-4.795512e-07	-4.849387e-10	-3.336222e+00	-3.661489e+01
1.750000e-06	-4.329630e-07	-4.694877e-10	-3.012109e+00	-3.563605e+01
1.760000e-06	-3.863026e-07	-4.514069e-10	-2.687495e+00	-3.462899e+01
1.770000e-06	-3.395738e-07	-4.339504e-10	-2.362404e+00	-3.359269e+01
1.780000e-06	-2.928264e-07	-4.180864e-10	-2.037184e+00	-3.252617e+01
1.790000e-06	-2.460998e-07	-4.041460e-10	-1.712108e+00	-3.142846e+01
1.800000e-06	-1.993961e-07	-3.904040e-10	-1.387192e+00	-3.029865e+01
1.810000e-06	-1.526386e-07	-3.741634e-10	-1.061902e+00	-2.913591e+01
1.820000e-06	-1.058414e-07	-3.579395e-10	-7.363353e-01	-2.793948e+01
1.830000e-06	-5.893451e-08	-3.426020e-10	-4.100055e-01	-2.670873e+01
1.840000e-06	-1.203673e-08	-3.270185e-10	-8.373912e-02	-2.544314e+01
1.850000e-06	3.473501e-08	-3.092940e-10	2.416503e-01	-2.414234e+01
1.860000e-06	8.145671e-08	-2.903213e-10	5.666917e-01	-2.280613e+01
1.870000e-06	1.281991e-07	-2.699766e-10	8.918768e-01	-2.143450e+01
1.880000e-06	1.749736e-07	-2.475403e-10	1.217286e+00	-2.002761e+01
1.890000e-06	2.216720e-07	-2.267320e-10	1.542165e+00	-1.858585e+01
1.900000e-06	2.683347e-07	-2.071894e-10	1.866796e+00	-1.710981e+01
1.910000e-06	3.149829e-07	-1.882072e-10	2.191326e+00	-1.560030e+01
1.920000e-06	3.616053e-07	-1.700764e-10	2.515676e+00	-1.405838e+01
1.930000e-06	4.082325e-07	-1.510686e-10	2.840060e+00	-1.248531e+01
1.940000e-06	4.548655e-07	-1.299680e-10	3.164485e+00	-1.088258e+01
1.950000e-06	5.015054e-07	-1.070402e-10	3.488957e+00	-9.251891e+00
1.960000e-06	5.480638e-07	-8.520754e-11	3.812862e+00	-7.595164e+00
1.970000e-06	5.945811e-07	-6.324920e-11	4.136482e+00	-5.914503e+00
1.980000e-06	6.410665e-07	-4.092343e-11	4.459879e+00	-4.212196e+00
1.990000e-06	6.874570e-07	-1.861904e-11	4.782616e+00	-2.490688e+00
2.000000e-06	7.337655e-07	6.627479e-12	5.104783e+00	-7.525687e-01
2.010000e-06	7.799661e-07	3.534719e-11	5.426199e+00	9.994586e-01
2.020000e-06	8.261390e-07	6.332137e-11	5.747422e+00	2.762595e+00
2.030000e-06	8.723406e-07	8.753968e-11	6.068846e+00	4.533976e+00
2.040000e-06	9.184770e-07	1.094415e-10	6.389815e+00	6.310693e+00
2.050000e-06	9.644679e-07	1.323418e-10	6.709772e+00	8.089825e+00
2.060000e-06	1.010362e-06	1.564876e-10	7.029057e+00	9.868463e+00
2.070000e-06	1.056195e-06	1.803608e-10	7.347917e+00	1.164374e+01
2.080000e-06	1.101981e-06	2.049977e-10	7.666444e+00	1.341284e+01
2.090000e-06	1.147725e-06	2.309898e-10	7.984686e+00	1.517306e+01
2.100000e-06	1.193428e-06	2.570230e-10	8.302642e+00	1.692177e+01
2.110000e-06	1.239087e-06	2.812569e-10	8.620285e+00	1.865652e+01
2.120000e-06	1.284617e-06	3.031733e-10	8.937037e+00	2.037496e+01
2.130000e-06	1.330028e-06	3.231402e-10	9.252961e+00	2.207494e+01
2.140000e-06	1.375348e-06	3.427375e-10	9.568249e+00	2.375446e+01
2.150000e-06	1.420575e-06	3.634916e-10	9.882897e+00	2.541171e+01
2.160000e-06	1.465795e-06	3.872354e-10	1.019749e+01	2.704510e+01
2.170000e-06	1.510959e-06	4.112865e-10	1.051169e+01	2.865319e+01
2.180000e-06	1.555949e-06	4.344363e-10	1.082469e+01	3.023477e+01
2.190000e-06	1.600776e-06	4.567598e-10	1.113654e+01	3.178881e+01
2.200000e-06	1.645384e-06	4.784504e-10	1.144688e+01	3.331446e+01
2.210000e-06	1.689842e-06	4.985554e-10	1.175617e+01	3.481107e+01
2.220000e-06	1.734227e-06	5.162776e-10	1.206496e+01	3.627813e+01
2.230000e-06	1.778519e-06	5.345131e-10	1.237310e+01	3.771531e+01
2.240000e-06	1.822689e-06	5.533688e-10	1.268039e+01	3.912242e+01
2.250000e-06	1.866637e-06	5.719285e-10	1.298614e+01	4.049939e+01
2.260000e-06	1.910497e-06	5.913320e-10	1.329126e+01	4.184627e+01
2.270000e-06	1.954305e-06	6.100053e-10	1.359603e+01	4.316320e+01
2.280000e-06	1.998034e-06	6.283939e-10	1.390026e+01	4.445042e+01
2.290000e-06	2.041685e-06	6.468985e-10	1.420393e+01	4.570820e+01
2.300000e-06	2.085239e-06	6.654656e-10	1.450694e+01	4.693689e+01
2.310000e-06	2.128774e-06	6.824938e-10	1.480981e+01	4.813686e+01
2.320000e-06	2.172247e-06	6.987789e-10	1.511225e+01	4.930849e+01
2.330000e-06	2.215603e-06	7.139451e-10	1.541388e+01	5.045219e+01
2.340000e-06	2.258879e-06	7.269536e-10	1.571495e+01	5.156836e+01
2.350000e-06	2.302027e-06	7.396776e-10	1.601513e+01	5.265738e+01
2.360000e-06	2.344961e-06	7.519690e-10	1.631382e+01	5.371961e+01
2.370000e-06	2.387577e-06	7.643611e-10	1.661029e+01	5.475541e+01
2.380000e-06	2.429891e-06	7.784491e-10	1.690467e+01	5.576508e+01
2.390000e-06	2.471954e-06	7.934218e-10	1.719730e+01	5.674893e+01
2.400000e-06	2.513657e-06	8.088198e-10	1.748743e+01	5.770722e+01
2.410000e-06	2.555054e-06	8.239541e-10	1.777543e+01	5.864020e+01
2.420000e-06	2.596156e-06	8.360183e-10	1.806138e+01	5.954807e+01
2.430000e-06	2.637010e-06	8.452900e-10	1.834559e+01	6.043105e+01
2.440000e-06	2.677670e-06	8.532509e-10	1.862846e+01	6.128934e+01
2.450000e-06	2.718078e-06	8.623816e-10	1.890958e+01	6.212312e+01
2.460000e-06	2.758210e-06	8.728369e-10	1.918878e+01	6.293260e+01
2.470000e-06	2.798118e-06	8.848908e-10	1.946642e+01	6.371799e+01
2.480000e-06	2.837865e-06	8.980537e-10	1.974294e+01	6.447951e+01
2.490000e-06	2.877484e-06	9.116769e-10	2.001856e+01	6.521741e+01
2.500000e-06	2.917006e-06	9.236976e-10	2.029352e+01	6.593200e+01
2.510000e-06	2.956399e-06	9.336482e-10	2.056757e+01	6.662359e+01
2.520000e-06	2.995662e-06	9.406383e-10	2.084073e+01	6.729254e+01
2.530000e-06	3.034756e-06	9.451255e-10	2.111270e+01	6.793927e+01
2.540000e-06	3.073653e-06	9.499327e-10	2.138330e+01	6.856425e+01
2.550000e-06	3.112236e-06	9.567157e-10	2.165173e+01	6.916797e+01
2.560000e-06	3.150535e-06	9.661836e-10	2.191817e+01	6.975101e+01
2.570000e-06	3.188649e-06	9.765585e-10	2.218333e+01	7.031395e+01
2.580000e-06	3.226589e-06	9.858140e-10	2.244727e+01	7.085745e+01
2.590000e-06	3.264329e-06	9.945448e-10	2.270983e+01	7.138220e+01
2.600000e-06	3.301787e-06	1.003519e-09	2.297042e+01	7.188890e+01
2.610000e-06	3.339092e-06	1.012443e-09	2.322996e+01	7.237830e+01
2.620000e-06	3.376264e-06	1.019737e-09	2.348856e+01	7.285115e+01
2.630000e-06	3.413206e-06	1.026164e-09	2.374557e+01	7.330823e+01
2.640000e-06	3.449808e-06	1.032971e-09	2.400020e+01	7.375031e+01
2.650000e-06	3.486058e-06	1.038950e-09	2.425240e+01	7.417814e+01
2.660000e-06	3.522098e-06	1.045237e-09	2.450312e+01	7.459247e+01
2.670000e-06	3.557962e-06	1.051980e-09	2.475263e+01	7.499402e+01
2.680000e-06	3.593649e-06	1.057964e-09	2.500090e+01	7.538348e+01
2.690000e-06	3.629223e-06	1.063484e-09	2.524839e+01	7.576148e+01
2.700000e-06	3.664729e-06	1.069867e-09	2.549540e+01	7.612864e+01
2.710000e-06	3.700104e-06	1.077124e-09	2.574151e+01	7.648549e+01
2.720000e-06	3.735294e-06	1.084529e-09	2.598632e+01	7.683253e+01
2.730000e-06	3.770155e-06	1.091152e-09	2.622885e+01	7.717019e+01
2.740000e-06	3.804617e-06	1.097253e-09	2.646860e+01	7.749885e+01
2.750000e-06	3.838682e-06	1.103396e-09	2.670558e+01	7.781883e+01
2.760000e-06	3.872180e-06	1.108881e-09	2.693863e+01	7.813038e+01
2.770000e-06	3.905148e-06	1.113033e-09	2.716799e+01	7.843370e+01
2.780000e-06	3.937717e-06	1.117544e-09	2.739457e+01	7.872896e+01
2.790000e-06	3.969918e-06	1.123107e-09	2.761859e+01	7.901626e+01
2.800000e-06	4.001853e-06	1.130378e-09	2.784076e+01	7.929567e+01
2.810000e-06	4.033621e-06	1.138795e-09	2.806177e+01	7.956724e+01
2.820000e-06	4.065259e-06	1.146372e-09	2.828188e+01	7.983098e+01
2.830000e-06	4.096722e-06	1.151647e-09	2.850076e+01	8.008690e+01
2.840000e-06	4.127942e-06	1.154153e-09	2.871796e+01	8.033498e+01
2.850000e-06	4.158866e-06	1.155219e-09	2.893310e+01	8.057524e+01
2.860000e-06	4.189460e-06	1.156974e-09	2.914594e+01	8.080767e+01
2.870000e-06	4.219776e-06	1.160368e-09	2.935684e+01	8.103230e+01
2.880000e-06	4.249775e-06	1.166360e-09	2.956555e+01	8.124919e+01
2.890000e-06	4.279424e-06	1.174663e-09	2.977181e+01	8.145840e+01
2.900000e-06	4.308750e-06	1.183655e-09	2.997583e+01	8.166006e+01
