# Temperatura_=_-6.63
# Concentracion g/m^3_=_1620.0
# C_Vs_to_Am_M_A/Vsm_=_65563218390.804596
# pendiente_HvsI_1/m_=_3716.3
# ordenada_HvsI_A/m_=_1297.0
# frecuencia_Hz_=_135107.46924438974

Tiempo_(s)	Campo_(V.s)	Magnetizacion_(V.s)	Campo_(kA/m)	Magnetizacion_(A/m)
0.000000e+00	-5.522948e-06	-1.100114e-09	-3.836503e+01	-7.289748e+01
1.000000e-08	-5.523221e-06	-1.096876e-09	-3.836693e+01	-7.287719e+01
2.000000e-08	-5.523286e-06	-1.092004e-09	-3.836738e+01	-7.285808e+01
3.000000e-08	-5.523069e-06	-1.086689e-09	-3.836588e+01	-7.284000e+01
4.000000e-08	-5.522449e-06	-1.082853e-09	-3.836156e+01	-7.282276e+01
5.000000e-08	-5.521179e-06	-1.079289e-09	-3.835274e+01	-7.280613e+01
6.000000e-08	-5.519164e-06	-1.070557e-09	-3.833875e+01	-7.278982e+01
7.000000e-08	-5.516495e-06	-1.057571e-09	-3.832021e+01	-7.277352e+01
8.000000e-08	-5.513360e-06	-1.060910e-09	-3.829843e+01	-7.275687e+01
9.000000e-08	-5.509833e-06	-1.098053e-09	-3.827393e+01	-7.273946e+01
1.000000e-07	-5.505811e-06	-1.142291e-09	-3.824599e+01	-7.272086e+01
1.100000e-07	-5.501378e-06	-1.127828e-09	-3.821520e+01	-7.270059e+01
1.200000e-07	-5.496771e-06	-1.051227e-09	-3.818319e+01	-7.267815e+01
1.300000e-07	-5.492018e-06	-9.893356e-10	-3.815018e+01	-7.265303e+01
1.400000e-07	-5.486955e-06	-1.074924e-09	-3.811501e+01	-7.262467e+01
1.500000e-07	-5.481430e-06	-1.098681e-09	-3.807663e+01	-7.259254e+01
1.600000e-07	-5.475521e-06	-1.073057e-09	-3.803558e+01	-7.255609e+01
1.700000e-07	-5.469361e-06	-1.025634e-09	-3.799279e+01	-7.251477e+01
1.800000e-07	-5.462793e-06	-1.102542e-09	-3.794717e+01	-7.246807e+01
1.900000e-07	-5.455660e-06	-1.164404e-09	-3.789762e+01	-7.241549e+01
2.000000e-07	-5.448209e-06	-1.108957e-09	-3.784586e+01	-7.235657e+01
2.100000e-07	-5.440570e-06	-1.038042e-09	-3.779280e+01	-7.229091e+01
2.200000e-07	-5.432620e-06	-1.050756e-09	-3.773757e+01	-7.221813e+01
2.300000e-07	-5.424385e-06	-1.126260e-09	-3.768037e+01	-7.213795e+01
2.400000e-07	-5.415868e-06	-1.114476e-09	-3.762120e+01	-7.205014e+01
2.500000e-07	-5.406851e-06	-1.089996e-09	-3.755857e+01	-7.195454e+01
2.600000e-07	-5.397024e-06	-1.074198e-09	-3.749030e+01	-7.185110e+01
2.700000e-07	-5.386392e-06	-1.097158e-09	-3.741645e+01	-7.173982e+01
2.800000e-07	-5.375198e-06	-1.051778e-09	-3.733869e+01	-7.162082e+01
2.900000e-07	-5.363582e-06	-1.044907e-09	-3.725800e+01	-7.149428e+01
3.000000e-07	-5.351603e-06	-1.050186e-09	-3.717479e+01	-7.136050e+01
3.100000e-07	-5.339288e-06	-1.073930e-09	-3.708924e+01	-7.121984e+01
3.200000e-07	-5.326596e-06	-1.054146e-09	-3.700108e+01	-7.107276e+01
3.300000e-07	-5.313500e-06	-1.066859e-09	-3.691011e+01	-7.091979e+01
3.400000e-07	-5.300020e-06	-1.065317e-09	-3.681647e+01	-7.076154e+01
3.500000e-07	-5.286154e-06	-1.067763e-09	-3.672015e+01	-7.059869e+01
3.600000e-07	-5.271811e-06	-1.044880e-09	-3.662052e+01	-7.043194e+01
3.700000e-07	-5.257066e-06	-1.038672e-09	-3.651809e+01	-7.026208e+01
3.800000e-07	-5.241969e-06	-1.036339e-09	-3.641322e+01	-7.008990e+01
3.900000e-07	-5.226306e-06	-1.051745e-09	-3.630441e+01	-6.991624e+01
4.000000e-07	-5.210086e-06	-1.041960e-09	-3.619174e+01	-6.974191e+01
4.100000e-07	-5.193457e-06	-1.037230e-09	-3.607623e+01	-6.956775e+01
4.200000e-07	-5.176458e-06	-1.055169e-09	-3.595815e+01	-6.939456e+01
4.300000e-07	-5.159142e-06	-1.046053e-09	-3.583786e+01	-6.922313e+01
4.400000e-07	-5.141572e-06	-1.020158e-09	-3.571581e+01	-6.905419e+01
4.500000e-07	-5.123749e-06	-1.029765e-09	-3.559200e+01	-6.888843e+01
4.600000e-07	-5.105517e-06	-1.057725e-09	-3.546536e+01	-6.872646e+01
4.700000e-07	-5.086732e-06	-1.010793e-09	-3.533486e+01	-6.856882e+01
4.800000e-07	-5.067458e-06	-9.976541e-10	-3.520098e+01	-6.841599e+01
4.900000e-07	-5.047949e-06	-1.038283e-09	-3.506546e+01	-6.826833e+01
5.000000e-07	-5.028300e-06	-1.048656e-09	-3.492897e+01	-6.812612e+01
5.100000e-07	-5.008460e-06	-1.004973e-09	-3.479115e+01	-6.798955e+01
5.200000e-07	-4.988415e-06	-1.029490e-09	-3.465191e+01	-6.785871e+01
5.300000e-07	-4.967972e-06	-1.037454e-09	-3.450990e+01	-6.773358e+01
5.400000e-07	-4.947046e-06	-1.008377e-09	-3.436454e+01	-6.761404e+01
5.500000e-07	-4.925782e-06	-1.008126e-09	-3.421683e+01	-6.749991e+01
5.600000e-07	-4.904174e-06	-1.037165e-09	-3.406674e+01	-6.739090e+01
5.700000e-07	-4.882262e-06	-9.929332e-10	-3.391452e+01	-6.728662e+01
5.800000e-07	-4.860083e-06	-9.844304e-10	-3.376045e+01	-6.718665e+01
5.900000e-07	-4.837550e-06	-1.023540e-09	-3.360393e+01	-6.709047e+01
6.000000e-07	-4.814662e-06	-1.018695e-09	-3.344494e+01	-6.699754e+01
6.100000e-07	-4.791435e-06	-9.837984e-10	-3.328359e+01	-6.690726e+01
6.200000e-07	-4.767929e-06	-1.011293e-09	-3.312031e+01	-6.681900e+01
6.300000e-07	-4.744212e-06	-1.012787e-09	-3.295556e+01	-6.673212e+01
6.400000e-07	-4.720241e-06	-9.807510e-10	-3.278904e+01	-6.664597e+01
6.500000e-07	-4.695993e-06	-9.857511e-10	-3.262061e+01	-6.655992e+01
6.600000e-07	-4.671401e-06	-1.000913e-09	-3.244978e+01	-6.647333e+01
6.700000e-07	-4.646336e-06	-9.797447e-10	-3.227567e+01	-6.638562e+01
6.800000e-07	-4.620802e-06	-9.822171e-10	-3.209830e+01	-6.629623e+01
6.900000e-07	-4.594664e-06	-1.001622e-09	-3.191673e+01	-6.620465e+01
7.000000e-07	-4.567910e-06	-9.904349e-10	-3.173089e+01	-6.611042e+01
7.100000e-07	-4.540764e-06	-9.809423e-10	-3.154231e+01	-6.601316e+01
7.200000e-07	-4.513292e-06	-9.833687e-10	-3.135148e+01	-6.591253e+01
7.300000e-07	-4.485599e-06	-9.710091e-10	-3.115911e+01	-6.580828e+01
7.400000e-07	-4.457787e-06	-9.601802e-10	-3.096591e+01	-6.570022e+01
7.500000e-07	-4.429795e-06	-9.745227e-10	-3.077147e+01	-6.558822e+01
7.600000e-07	-4.401492e-06	-9.732310e-10	-3.057486e+01	-6.547223e+01
7.700000e-07	-4.372852e-06	-9.640413e-10	-3.037592e+01	-6.535227e+01
7.800000e-07	-4.343906e-06	-9.597496e-10	-3.017485e+01	-6.522842e+01
7.900000e-07	-4.314657e-06	-9.590550e-10	-2.997167e+01	-6.510080e+01
8.000000e-07	-4.285127e-06	-9.485057e-10	-2.976653e+01	-6.496960e+01
8.100000e-07	-4.255292e-06	-9.504178e-10	-2.955929e+01	-6.483504e+01
8.200000e-07	-4.225127e-06	-9.474190e-10	-2.934975e+01	-6.469736e+01
8.300000e-07	-4.194635e-06	-9.438392e-10	-2.913794e+01	-6.455686e+01
8.400000e-07	-4.163817e-06	-9.402658e-10	-2.892386e+01	-6.441383e+01
8.500000e-07	-4.132737e-06	-9.440854e-10	-2.870796e+01	-6.426857e+01
8.600000e-07	-4.101523e-06	-9.365129e-10	-2.849114e+01	-6.412138e+01
8.700000e-07	-4.070100e-06	-9.327215e-10	-2.827286e+01	-6.397256e+01
8.800000e-07	-4.038440e-06	-9.308789e-10	-2.805293e+01	-6.382237e+01
8.900000e-07	-4.006645e-06	-9.293524e-10	-2.783207e+01	-6.367108e+01
9.000000e-07	-3.974672e-06	-9.225894e-10	-2.760997e+01	-6.351888e+01
9.100000e-07	-3.942478e-06	-9.251060e-10	-2.738633e+01	-6.336598e+01
9.200000e-07	-3.909978e-06	-9.246866e-10	-2.716057e+01	-6.321249e+01
9.300000e-07	-3.877048e-06	-9.202784e-10	-2.693183e+01	-6.305853e+01
9.400000e-07	-3.843610e-06	-9.175900e-10	-2.669955e+01	-6.290414e+01
9.500000e-07	-3.809688e-06	-9.182803e-10	-2.646391e+01	-6.274932e+01
9.600000e-07	-3.775349e-06	-9.116173e-10	-2.622538e+01	-6.259403e+01
9.700000e-07	-3.740519e-06	-9.016597e-10	-2.598343e+01	-6.243819e+01
9.800000e-07	-3.705342e-06	-8.958444e-10	-2.573907e+01	-6.228167e+01
9.900000e-07	-3.669973e-06	-8.908247e-10	-2.549338e+01	-6.212429e+01
1.000000e-06	-3.634380e-06	-8.892068e-10	-2.524613e+01	-6.196587e+01
1.010000e-06	-3.598663e-06	-8.927911e-10	-2.499803e+01	-6.180618e+01
1.020000e-06	-3.562856e-06	-8.955763e-10	-2.474930e+01	-6.164496e+01
1.030000e-06	-3.526945e-06	-8.912409e-10	-2.449984e+01	-6.148195e+01
1.040000e-06	-3.490816e-06	-8.877064e-10	-2.424887e+01	-6.131688e+01
1.050000e-06	-3.454372e-06	-8.846176e-10	-2.399572e+01	-6.114946e+01
1.060000e-06	-3.417644e-06	-8.790502e-10	-2.374059e+01	-6.097942e+01
1.070000e-06	-3.380671e-06	-8.720215e-10	-2.348375e+01	-6.080649e+01
1.080000e-06	-3.343445e-06	-8.750145e-10	-2.322517e+01	-6.063042e+01
1.090000e-06	-3.305933e-06	-8.774844e-10	-2.296459e+01	-6.045098e+01
1.100000e-06	-3.268157e-06	-8.781421e-10	-2.270218e+01	-6.026796e+01
1.110000e-06	-3.230148e-06	-8.754398e-10	-2.243815e+01	-6.008117e+01
1.120000e-06	-3.191989e-06	-8.734011e-10	-2.217308e+01	-5.989046e+01
1.130000e-06	-3.153706e-06	-8.658171e-10	-2.190715e+01	-5.969571e+01
1.140000e-06	-3.115233e-06	-8.586166e-10	-2.163990e+01	-5.949683e+01
1.150000e-06	-3.076503e-06	-8.523004e-10	-2.137086e+01	-5.929376e+01
1.160000e-06	-3.037471e-06	-8.492804e-10	-2.109972e+01	-5.908649e+01
1.170000e-06	-2.998268e-06	-8.455801e-10	-2.082740e+01	-5.887500e+01
1.180000e-06	-2.958926e-06	-8.453111e-10	-2.055411e+01	-5.865934e+01
1.190000e-06	-2.919383e-06	-8.440091e-10	-2.027943e+01	-5.843956e+01
1.200000e-06	-2.879705e-06	-8.407990e-10	-2.000381e+01	-5.821573e+01
1.210000e-06	-2.839880e-06	-8.348192e-10	-1.972716e+01	-5.798793e+01
1.220000e-06	-2.799931e-06	-8.287395e-10	-1.944965e+01	-5.775628e+01
1.230000e-06	-2.759850e-06	-8.226239e-10	-1.917124e+01	-5.752087e+01
1.240000e-06	-2.719647e-06	-8.193329e-10	-1.889196e+01	-5.728181e+01
1.250000e-06	-2.679292e-06	-8.195692e-10	-1.861164e+01	-5.703919e+01
1.260000e-06	-2.638671e-06	-8.203452e-10	-1.832947e+01	-5.679311e+01
1.270000e-06	-2.597752e-06	-8.183983e-10	-1.804522e+01	-5.654365e+01
1.280000e-06	-2.556481e-06	-8.146173e-10	-1.775854e+01	-5.629085e+01
1.290000e-06	-2.514905e-06	-8.109456e-10	-1.746973e+01	-5.603477e+01
1.300000e-06	-2.473045e-06	-8.048221e-10	-1.717895e+01	-5.577539e+01
1.310000e-06	-2.430888e-06	-7.975737e-10	-1.688611e+01	-5.551272e+01
1.320000e-06	-2.388454e-06	-7.924083e-10	-1.659134e+01	-5.524670e+01
1.330000e-06	-2.345708e-06	-7.903350e-10	-1.629441e+01	-5.497726e+01
1.340000e-06	-2.302739e-06	-7.883597e-10	-1.599592e+01	-5.470429e+01
1.350000e-06	-2.259566e-06	-7.863612e-10	-1.569603e+01	-5.442764e+01
1.360000e-06	-2.216185e-06	-7.814355e-10	-1.539468e+01	-5.414716e+01
1.370000e-06	-2.172673e-06	-7.735483e-10	-1.509242e+01	-5.386264e+01
1.380000e-06	-2.129065e-06	-7.646477e-10	-1.478950e+01	-5.357386e+01
1.390000e-06	-2.085382e-06	-7.583330e-10	-1.448606e+01	-5.328056e+01
1.400000e-06	-2.041620e-06	-7.522220e-10	-1.418206e+01	-5.298248e+01
1.410000e-06	-1.997765e-06	-7.474125e-10	-1.387743e+01	-5.267931e+01
1.420000e-06	-1.953795e-06	-7.444875e-10	-1.357199e+01	-5.237075e+01
1.430000e-06	-1.909773e-06	-7.423390e-10	-1.326619e+01	-5.205647e+01
1.440000e-06	-1.865709e-06	-7.369951e-10	-1.296011e+01	-5.173613e+01
1.450000e-06	-1.821522e-06	-7.298828e-10	-1.265316e+01	-5.140936e+01
1.460000e-06	-1.777222e-06	-7.196121e-10	-1.234543e+01	-5.107580e+01
1.470000e-06	-1.732782e-06	-7.078773e-10	-1.203673e+01	-5.073508e+01
1.480000e-06	-1.688214e-06	-6.987929e-10	-1.172714e+01	-5.038681e+01
1.490000e-06	-1.643528e-06	-6.947374e-10	-1.141673e+01	-5.003059e+01
1.500000e-06	-1.598707e-06	-6.910643e-10	-1.110538e+01	-4.966602e+01
1.510000e-06	-1.553789e-06	-6.866666e-10	-1.079336e+01	-4.929267e+01
1.520000e-06	-1.508726e-06	-6.817782e-10	-1.048033e+01	-4.891013e+01
1.530000e-06	-1.463533e-06	-6.768087e-10	-1.016640e+01	-4.851792e+01
1.540000e-06	-1.418257e-06	-6.695878e-10	-9.851890e+00	-4.811559e+01
1.550000e-06	-1.372832e-06	-6.607474e-10	-9.536349e+00	-4.770264e+01
1.560000e-06	-1.327274e-06	-6.517089e-10	-9.219878e+00	-4.727856e+01
1.570000e-06	-1.281644e-06	-6.453794e-10	-8.902910e+00	-4.684280e+01
1.580000e-06	-1.235895e-06	-6.413089e-10	-8.585120e+00	-4.639478e+01
1.590000e-06	-1.190116e-06	-6.379150e-10	-8.267111e+00	-4.593388e+01
1.600000e-06	-1.144379e-06	-6.345297e-10	-7.949405e+00	-4.545944e+01
1.610000e-06	-1.098574e-06	-6.290301e-10	-7.631222e+00	-4.497077e+01
1.620000e-06	-1.052652e-06	-6.206353e-10	-7.312224e+00	-4.446711e+01
1.630000e-06	-1.006537e-06	-6.108907e-10	-6.991888e+00	-4.394769e+01
1.640000e-06	-9.602533e-07	-6.014770e-10	-6.670378e+00	-4.341167e+01
1.650000e-06	-9.139656e-07	-5.911381e-10	-6.348841e+00	-4.285815e+01
1.660000e-06	-8.676853e-07	-5.804401e-10	-6.027356e+00	-4.228623e+01
1.670000e-06	-8.213749e-07	-5.691385e-10	-5.705662e+00	-4.169493e+01
1.680000e-06	-7.750402e-07	-5.580265e-10	-5.383799e+00	-4.108325e+01
1.690000e-06	-7.285754e-07	-5.458013e-10	-5.061033e+00	-4.045015e+01
1.700000e-06	-6.820096e-07	-5.343883e-10	-4.737564e+00	-3.979457e+01
1.710000e-06	-6.355315e-07	-5.225291e-10	-4.414705e+00	-3.911544e+01
1.720000e-06	-5.890875e-07	-5.124409e-10	-4.092083e+00	-3.841167e+01
1.730000e-06	-5.424999e-07	-5.024488e-10	-3.768463e+00	-3.768216e+01
1.740000e-06	-4.958529e-07	-4.907517e-10	-3.444431e+00	-3.692586e+01
1.750000e-06	-4.491707e-07	-4.764036e-10	-3.120154e+00	-3.614170e+01
1.760000e-06	-4.023972e-07	-4.604239e-10	-2.795243e+00	-3.532867e+01
1.770000e-06	-3.555890e-07	-4.442335e-10	-2.470091e+00	-3.448580e+01
1.780000e-06	-3.087709e-07	-4.301984e-10	-2.144870e+00	-3.361220e+01
1.790000e-06	-2.619721e-07	-4.192381e-10	-1.819783e+00	-3.270703e+01
1.800000e-06	-2.151756e-07	-4.091198e-10	-1.494712e+00	-3.176955e+01
1.810000e-06	-1.683766e-07	-3.967361e-10	-1.169624e+00	-3.079912e+01
1.820000e-06	-1.215646e-07	-3.822243e-10	-8.444455e-01	-2.979521e+01
1.830000e-06	-7.481968e-08	-3.673534e-10	-5.197332e-01	-2.875742e+01
1.840000e-06	-2.808645e-08	-3.529766e-10	-1.951019e-01	-2.768547e+01
1.850000e-06	1.873054e-08	-3.388036e-10	1.301113e-01	-2.657925e+01
1.860000e-06	6.551365e-08	-3.233468e-10	4.550891e-01	-2.543877e+01
1.870000e-06	1.123402e-07	-3.073237e-10	7.803689e-01	-2.426421e+01
1.880000e-06	1.591856e-07	-2.906289e-10	1.105779e+00	-2.305592e+01
1.890000e-06	2.059846e-07	-2.744812e-10	1.430867e+00	-2.181440e+01
1.900000e-06	2.528104e-07	-2.588954e-10	1.756142e+00	-2.054032e+01
1.910000e-06	2.996317e-07	-2.420856e-10	2.081385e+00	-1.923452e+01
1.920000e-06	3.464080e-07	-2.252473e-10	2.406315e+00	-1.789800e+01
1.930000e-06	3.931457e-07	-2.086549e-10	2.730977e+00	-1.653191e+01
1.940000e-06	4.398432e-07	-1.897300e-10	3.055361e+00	-1.513755e+01
1.950000e-06	4.865149e-07	-1.694916e-10	3.379564e+00	-1.371638e+01
1.960000e-06	5.331285e-07	-1.502623e-10	3.703365e+00	-1.226998e+01
1.970000e-06	5.796659e-07	-1.315868e-10	4.026636e+00	-1.080006e+01
1.980000e-06	6.262217e-07	-1.114545e-10	4.350034e+00	-9.308431e+00
1.990000e-06	6.727304e-07	-9.205594e-11	4.673107e+00	-7.797014e+00
2.000000e-06	7.190569e-07	-7.091885e-11	4.994913e+00	-6.267809e+00
2.010000e-06	7.653020e-07	-4.523888e-11	5.316153e+00	-4.722886e+00
2.020000e-06	8.115692e-07	-1.848750e-11	5.637547e+00	-3.164374e+00
2.030000e-06	8.577370e-07	4.579365e-12	5.958251e+00	-1.594439e+00
2.040000e-06	9.038172e-07	2.349100e-11	6.278346e+00	-1.527343e-02
2.050000e-06	9.498471e-07	4.226132e-11	6.598091e+00	1.570919e+00
2.060000e-06	9.958829e-07	6.340695e-11	6.917878e+00	3.161939e+00
2.070000e-06	1.041974e-06	8.470089e-11	7.238047e+00	4.755604e+00
2.080000e-06	1.088012e-06	1.070401e-10	7.557849e+00	6.349761e+00
2.090000e-06	1.133896e-06	1.337727e-10	7.876585e+00	7.942301e+00
2.100000e-06	1.179677e-06	1.615410e-10	8.194601e+00	9.531166e+00
2.110000e-06	1.225422e-06	1.850573e-10	8.512365e+00	1.111436e+01
2.120000e-06	1.271080e-06	2.051092e-10	8.829527e+00	1.268997e+01
2.130000e-06	1.316651e-06	2.224940e-10	9.146087e+00	1.425614e+01
2.140000e-06	1.362070e-06	2.382324e-10	9.461591e+00	1.581112e+01
2.150000e-06	1.407427e-06	2.562251e-10	9.776662e+00	1.735324e+01
2.160000e-06	1.452775e-06	2.799142e-10	1.009167e+01	1.888092e+01
2.170000e-06	1.497911e-06	3.066272e-10	1.040521e+01	2.039268e+01
2.180000e-06	1.542955e-06	3.313398e-10	1.071810e+01	2.188715e+01
2.190000e-06	1.587877e-06	3.535041e-10	1.103015e+01	2.336303e+01
2.200000e-06	1.632597e-06	3.730627e-10	1.134080e+01	2.481914e+01
2.210000e-06	1.677243e-06	3.884301e-10	1.165093e+01	2.625439e+01
2.220000e-06	1.721754e-06	4.019063e-10	1.196013e+01	2.766778e+01
2.230000e-06	1.766108e-06	4.172252e-10	1.226823e+01	2.905839e+01
2.240000e-06	1.810334e-06	4.338667e-10	1.257544e+01	3.042542e+01
2.250000e-06	1.854427e-06	4.520186e-10	1.288173e+01	3.176811e+01
2.260000e-06	1.898370e-06	4.734450e-10	1.318699e+01	3.308581e+01
2.270000e-06	1.942279e-06	4.975575e-10	1.349199e+01	3.437795e+01
2.280000e-06	1.986170e-06	5.187433e-10	1.379689e+01	3.564402e+01
2.290000e-06	2.029952e-06	5.348921e-10	1.410102e+01	3.688357e+01
2.300000e-06	2.073643e-06	5.481746e-10	1.440451e+01	3.809625e+01
2.310000e-06	2.117308e-06	5.600295e-10	1.470783e+01	3.928173e+01
2.320000e-06	2.160945e-06	5.725509e-10	1.501096e+01	4.043977e+01
2.330000e-06	2.204466e-06	5.862853e-10	1.531327e+01	4.157019e+01
2.340000e-06	2.247821e-06	6.012898e-10	1.561444e+01	4.267284e+01
2.350000e-06	2.291091e-06	6.193605e-10	1.591501e+01	4.374764e+01
2.360000e-06	2.334177e-06	6.385990e-10	1.621431e+01	4.479455e+01
2.370000e-06	2.376956e-06	6.535490e-10	1.651147e+01	4.581360e+01
2.380000e-06	2.419501e-06	6.641814e-10	1.680701e+01	4.680486e+01
2.390000e-06	2.461748e-06	6.756939e-10	1.710047e+01	4.776842e+01
2.400000e-06	2.503560e-06	6.868277e-10	1.739092e+01	4.870446e+01
2.410000e-06	2.545030e-06	6.964684e-10	1.767899e+01	4.961317e+01
2.420000e-06	2.586254e-06	7.073871e-10	1.796536e+01	5.049480e+01
2.430000e-06	2.627124e-06	7.202338e-10	1.824926e+01	5.134964e+01
2.440000e-06	2.667649e-06	7.323073e-10	1.853076e+01	5.217802e+01
2.450000e-06	2.708047e-06	7.428804e-10	1.881139e+01	5.298030e+01
2.460000e-06	2.748251e-06	7.529310e-10	1.909066e+01	5.375690e+01
2.470000e-06	2.788194e-06	7.624173e-10	1.936813e+01	5.450824e+01
2.480000e-06	2.828031e-06	7.720572e-10	1.964486e+01	5.523482e+01
2.490000e-06	2.867817e-06	7.827683e-10	1.992122e+01	5.593711e+01
2.500000e-06	2.907520e-06	7.932907e-10	2.019702e+01	5.661567e+01
2.510000e-06	2.947104e-06	8.024961e-10	2.047199e+01	5.727104e+01
2.520000e-06	2.986500e-06	8.106628e-10	2.074565e+01	5.790380e+01
2.530000e-06	3.025629e-06	8.171245e-10	2.101746e+01	5.851454e+01
2.540000e-06	3.064576e-06	8.240195e-10	2.128801e+01	5.910385e+01
2.550000e-06	3.103323e-06	8.322390e-10	2.155716e+01	5.967236e+01
2.560000e-06	3.141789e-06	8.395839e-10	2.182437e+01	6.022068e+01
2.570000e-06	3.180012e-06	8.462635e-10	2.208988e+01	6.074943e+01
2.580000e-06	3.218049e-06	8.555136e-10	2.235411e+01	6.125922e+01
2.590000e-06	3.255930e-06	8.651646e-10	2.261724e+01	6.175066e+01
2.600000e-06	3.293622e-06	8.722265e-10	2.287907e+01	6.222435e+01
2.610000e-06	3.331145e-06	8.777479e-10	2.313973e+01	6.268087e+01
2.620000e-06	3.368474e-06	8.810879e-10	2.339903e+01	6.312080e+01
2.630000e-06	3.405555e-06	8.833808e-10	2.365661e+01	6.354468e+01
2.640000e-06	3.442349e-06	8.883148e-10	2.391220e+01	6.395305e+01
2.650000e-06	3.478841e-06	8.948110e-10	2.416569e+01	6.434643e+01
2.660000e-06	3.515071e-06	9.012372e-10	2.441736e+01	6.472530e+01
2.670000e-06	3.551061e-06	9.074388e-10	2.466736e+01	6.509014e+01
2.680000e-06	3.586873e-06	9.130816e-10	2.491613e+01	6.544140e+01
2.690000e-06	3.622575e-06	9.177713e-10	2.516414e+01	6.577951e+01
2.700000e-06	3.658146e-06	9.215173e-10	2.541123e+01	6.610489e+01
2.710000e-06	3.693582e-06	9.251057e-10	2.565739e+01	6.641794e+01
2.720000e-06	3.728884e-06	9.300540e-10	2.590261e+01	6.671904e+01
2.730000e-06	3.763847e-06	9.363596e-10	2.614548e+01	6.700858e+01
2.740000e-06	3.798379e-06	9.420878e-10	2.638535e+01	6.728692e+01
2.750000e-06	3.832503e-06	9.465405e-10	2.662239e+01	6.755442e+01
2.760000e-06	3.866133e-06	9.506698e-10	2.685601e+01	6.781146e+01
2.770000e-06	3.899307e-06	9.558285e-10	2.708645e+01	6.805838e+01
2.780000e-06	3.932066e-06	9.614165e-10	2.731400e+01	6.829556e+01
2.790000e-06	3.964443e-06	9.666842e-10	2.753891e+01	6.852337e+01
2.800000e-06	3.996536e-06	9.711714e-10	2.776185e+01	6.874219e+01
2.810000e-06	4.028443e-06	9.743896e-10	2.798349e+01	6.895241e+01
2.820000e-06	4.060184e-06	9.772466e-10	2.820398e+01	6.915443e+01
2.830000e-06	4.091772e-06	9.816536e-10	2.842340e+01	6.934865e+01
2.840000e-06	4.123181e-06	9.863969e-10	2.864159e+01	6.953551e+01
2.850000e-06	4.154331e-06	9.909769e-10	2.885797e+01	6.971542e+01
2.860000e-06	4.185194e-06	9.963793e-10	2.907235e+01	6.988882e+01
2.870000e-06	4.215753e-06	1.002206e-09	2.928463e+01	7.005616e+01
2.880000e-06	4.245999e-06	1.007511e-09	2.949473e+01	7.021789e+01
2.890000e-06	4.275903e-06	1.012597e-09	2.970246e+01	7.037444e+01
2.900000e-06	4.305530e-06	1.017530e-09	2.990827e+01	7.052626e+01
