# Temperatura_=_-1.59
# Concentracion g/m^3_=_1620.0
# C_Vs_to_Am_M_A/Vsm_=_65563218390.804596
# pendiente_HvsI_1/m_=_3716.3
# ordenada_HvsI_A/m_=_1297.0
# frecuencia_Hz_=_135105.85595873412

Tiempo_(s)	Campo_(V.s)	Magnetizacion_(V.s)	Campo_(kA/m)	Magnetizacion_(A/m)
0.000000e+00	-5.536492e-06	-1.149274e-09	-3.836277e+01	-7.694968e+01
1.000000e-08	-5.536738e-06	-1.147085e-09	-3.836448e+01	-7.689011e+01
2.000000e-08	-5.536770e-06	-1.143971e-09	-3.836470e+01	-7.683042e+01
3.000000e-08	-5.536517e-06	-1.139493e-09	-3.836295e+01	-7.677125e+01
4.000000e-08	-5.535881e-06	-1.135754e-09	-3.835855e+01	-7.671326e+01
5.000000e-08	-5.534767e-06	-1.133417e-09	-3.835082e+01	-7.665713e+01
6.000000e-08	-5.533054e-06	-1.127943e-09	-3.833896e+01	-7.660351e+01
7.000000e-08	-5.530649e-06	-1.118513e-09	-3.832229e+01	-7.655305e+01
8.000000e-08	-5.527619e-06	-1.120637e-09	-3.830130e+01	-7.650633e+01
9.000000e-08	-5.524169e-06	-1.149561e-09	-3.827739e+01	-7.646390e+01
1.000000e-07	-5.520337e-06	-1.177898e-09	-3.825084e+01	-7.642623e+01
1.100000e-07	-5.516094e-06	-1.166371e-09	-3.822144e+01	-7.639370e+01
1.200000e-07	-5.511630e-06	-1.114198e-09	-3.819051e+01	-7.636660e+01
1.300000e-07	-5.506979e-06	-1.083630e-09	-3.815828e+01	-7.634513e+01
1.400000e-07	-5.501907e-06	-1.122027e-09	-3.812313e+01	-7.632935e+01
1.500000e-07	-5.496357e-06	-1.156388e-09	-3.808468e+01	-7.631922e+01
1.600000e-07	-5.490502e-06	-1.140244e-09	-3.804411e+01	-7.631455e+01
1.700000e-07	-5.484318e-06	-1.116639e-09	-3.800126e+01	-7.631506e+01
1.800000e-07	-5.477673e-06	-1.137614e-09	-3.795521e+01	-7.632031e+01
1.900000e-07	-5.470574e-06	-1.190059e-09	-3.790603e+01	-7.632978e+01
2.000000e-07	-5.463195e-06	-1.164905e-09	-3.785489e+01	-7.634281e+01
2.100000e-07	-5.455630e-06	-1.118287e-09	-3.780248e+01	-7.635865e+01
2.200000e-07	-5.447795e-06	-1.121747e-09	-3.774819e+01	-7.637646e+01
2.300000e-07	-5.439639e-06	-1.180684e-09	-3.769168e+01	-7.639531e+01
2.400000e-07	-5.431100e-06	-1.196507e-09	-3.763251e+01	-7.641423e+01
2.500000e-07	-5.422054e-06	-1.177005e-09	-3.756983e+01	-7.643221e+01
2.600000e-07	-5.412307e-06	-1.173562e-09	-3.750229e+01	-7.644819e+01
2.700000e-07	-5.401827e-06	-1.181164e-09	-3.742967e+01	-7.646113e+01
2.800000e-07	-5.390797e-06	-1.167239e-09	-3.735325e+01	-7.647001e+01
2.900000e-07	-5.379383e-06	-1.155647e-09	-3.727415e+01	-7.647381e+01
3.000000e-07	-5.367570e-06	-1.170423e-09	-3.719230e+01	-7.647161e+01
3.100000e-07	-5.355368e-06	-1.179257e-09	-3.710775e+01	-7.646252e+01
3.200000e-07	-5.342739e-06	-1.178254e-09	-3.702025e+01	-7.644578e+01
3.300000e-07	-5.329721e-06	-1.176760e-09	-3.693004e+01	-7.642071e+01
3.400000e-07	-5.316384e-06	-1.184779e-09	-3.683763e+01	-7.638674e+01
3.500000e-07	-5.302632e-06	-1.176435e-09	-3.674234e+01	-7.634344e+01
3.600000e-07	-5.288463e-06	-1.170351e-09	-3.664417e+01	-7.629053e+01
3.700000e-07	-5.273878e-06	-1.162847e-09	-3.654310e+01	-7.622785e+01
3.800000e-07	-5.258792e-06	-1.161549e-09	-3.643857e+01	-7.615538e+01
3.900000e-07	-5.243129e-06	-1.156983e-09	-3.633005e+01	-7.607326e+01
4.000000e-07	-5.226883e-06	-1.158478e-09	-3.621747e+01	-7.598175e+01
4.100000e-07	-5.210297e-06	-1.158498e-09	-3.610255e+01	-7.588127e+01
4.200000e-07	-5.193458e-06	-1.164443e-09	-3.598587e+01	-7.577234e+01
4.300000e-07	-5.176239e-06	-1.156336e-09	-3.586656e+01	-7.565559e+01
4.400000e-07	-5.158782e-06	-1.140417e-09	-3.574560e+01	-7.553176e+01
4.500000e-07	-5.140996e-06	-1.138486e-09	-3.562236e+01	-7.540167e+01
4.600000e-07	-5.122645e-06	-1.149495e-09	-3.549520e+01	-7.526619e+01
4.700000e-07	-5.103793e-06	-1.130299e-09	-3.536457e+01	-7.512627e+01
4.800000e-07	-5.084533e-06	-1.112850e-09	-3.523112e+01	-7.498284e+01
4.900000e-07	-5.065013e-06	-1.134115e-09	-3.509586e+01	-7.483687e+01
5.000000e-07	-5.045348e-06	-1.148604e-09	-3.495960e+01	-7.468931e+01
5.100000e-07	-5.025530e-06	-1.125606e-09	-3.482228e+01	-7.454107e+01
5.200000e-07	-5.005508e-06	-1.122749e-09	-3.468355e+01	-7.439302e+01
5.300000e-07	-4.985139e-06	-1.136451e-09	-3.454241e+01	-7.424595e+01
5.400000e-07	-4.964377e-06	-1.122259e-09	-3.439855e+01	-7.410059e+01
5.500000e-07	-4.943232e-06	-1.107603e-09	-3.425204e+01	-7.395756e+01
5.600000e-07	-4.921732e-06	-1.118054e-09	-3.410306e+01	-7.381739e+01
5.700000e-07	-4.899891e-06	-1.108780e-09	-3.395172e+01	-7.368046e+01
5.800000e-07	-4.877723e-06	-1.088964e-09	-3.379812e+01	-7.354708e+01
5.900000e-07	-4.855240e-06	-1.103852e-09	-3.364233e+01	-7.341741e+01
6.000000e-07	-4.832344e-06	-1.115564e-09	-3.348368e+01	-7.329149e+01
6.100000e-07	-4.809060e-06	-1.095854e-09	-3.332235e+01	-7.316926e+01
6.200000e-07	-4.785519e-06	-1.089013e-09	-3.315923e+01	-7.305053e+01
6.300000e-07	-4.761786e-06	-1.100685e-09	-3.299478e+01	-7.293501e+01
6.400000e-07	-4.737836e-06	-1.090848e-09	-3.282883e+01	-7.282231e+01
6.500000e-07	-4.713548e-06	-1.081487e-09	-3.266054e+01	-7.271197e+01
6.600000e-07	-4.688847e-06	-1.093781e-09	-3.248938e+01	-7.260345e+01
6.700000e-07	-4.663649e-06	-1.099691e-09	-3.231478e+01	-7.249617e+01
6.800000e-07	-4.637856e-06	-1.086137e-09	-3.213606e+01	-7.238948e+01
6.900000e-07	-4.611482e-06	-1.086716e-09	-3.195331e+01	-7.228275e+01
7.000000e-07	-4.584536e-06	-1.090458e-09	-3.176660e+01	-7.217531e+01
7.100000e-07	-4.557186e-06	-1.076633e-09	-3.157709e+01	-7.206651e+01
7.200000e-07	-4.529672e-06	-1.064008e-09	-3.138645e+01	-7.195574e+01
7.300000e-07	-4.501994e-06	-1.073243e-09	-3.119466e+01	-7.184241e+01
7.400000e-07	-4.474147e-06	-1.075703e-09	-3.100171e+01	-7.172600e+01
7.500000e-07	-4.446106e-06	-1.069723e-09	-3.080741e+01	-7.160604e+01
7.600000e-07	-4.417758e-06	-1.073016e-09	-3.061099e+01	-7.148213e+01
7.700000e-07	-4.389079e-06	-1.074625e-09	-3.041226e+01	-7.135397e+01
7.800000e-07	-4.360058e-06	-1.058741e-09	-3.021118e+01	-7.122133e+01
7.900000e-07	-4.330730e-06	-1.050479e-09	-3.000796e+01	-7.108408e+01
8.000000e-07	-4.301155e-06	-1.054489e-09	-2.980303e+01	-7.094217e+01
8.100000e-07	-4.271350e-06	-1.050539e-09	-2.959651e+01	-7.079562e+01
8.200000e-07	-4.241240e-06	-1.043270e-09	-2.938788e+01	-7.064457e+01
8.300000e-07	-4.210828e-06	-1.048433e-09	-2.917715e+01	-7.048921e+01
8.400000e-07	-4.180142e-06	-1.051163e-09	-2.896452e+01	-7.032979e+01
8.500000e-07	-4.149145e-06	-1.047212e-09	-2.874974e+01	-7.016665e+01
8.600000e-07	-4.117894e-06	-1.046683e-09	-2.853320e+01	-7.000013e+01
8.700000e-07	-4.086461e-06	-1.044256e-09	-2.831540e+01	-6.983064e+01
8.800000e-07	-4.054866e-06	-1.035921e-09	-2.809648e+01	-6.965860e+01
8.900000e-07	-4.023091e-06	-1.032082e-09	-2.787631e+01	-6.948443e+01
9.000000e-07	-3.991078e-06	-1.032572e-09	-2.765448e+01	-6.930854e+01
9.100000e-07	-3.958784e-06	-1.028138e-09	-2.743072e+01	-6.913132e+01
9.200000e-07	-3.926189e-06	-1.026427e-09	-2.720487e+01	-6.895315e+01
9.300000e-07	-3.893131e-06	-1.028937e-09	-2.697580e+01	-6.877433e+01
9.400000e-07	-3.859490e-06	-1.027270e-09	-2.674270e+01	-6.859513e+01
9.500000e-07	-3.825336e-06	-1.021254e-09	-2.650604e+01	-6.841575e+01
9.600000e-07	-3.790742e-06	-1.017233e-09	-2.626634e+01	-6.823631e+01
9.700000e-07	-3.755750e-06	-1.010315e-09	-2.602388e+01	-6.805686e+01
9.800000e-07	-3.720465e-06	-1.002549e-09	-2.577939e+01	-6.787738e+01
9.900000e-07	-3.684983e-06	-9.983912e-10	-2.553353e+01	-6.769775e+01
1.000000e-06	-3.649378e-06	-9.950645e-10	-2.528682e+01	-6.751778e+01
1.010000e-06	-3.613645e-06	-9.885178e-10	-2.503922e+01	-6.733722e+01
1.020000e-06	-3.577723e-06	-9.869644e-10	-2.479031e+01	-6.715572e+01
1.030000e-06	-3.541692e-06	-9.878765e-10	-2.454066e+01	-6.697288e+01
1.040000e-06	-3.505560e-06	-9.860722e-10	-2.429029e+01	-6.678825e+01
1.050000e-06	-3.469184e-06	-9.820552e-10	-2.403824e+01	-6.660132e+01
1.060000e-06	-3.432484e-06	-9.780939e-10	-2.378394e+01	-6.641155e+01
1.070000e-06	-3.395419e-06	-9.712032e-10	-2.352712e+01	-6.621838e+01
1.080000e-06	-3.358033e-06	-9.648066e-10	-2.326807e+01	-6.602124e+01
1.090000e-06	-3.320432e-06	-9.640395e-10	-2.300753e+01	-6.581955e+01
1.100000e-06	-3.282649e-06	-9.624471e-10	-2.274573e+01	-6.561275e+01
1.110000e-06	-3.244691e-06	-9.547073e-10	-2.248271e+01	-6.540030e+01
1.120000e-06	-3.206470e-06	-9.483810e-10	-2.221788e+01	-6.518171e+01
1.130000e-06	-3.167922e-06	-9.434302e-10	-2.195077e+01	-6.495652e+01
1.140000e-06	-3.129269e-06	-9.376429e-10	-2.168294e+01	-6.472433e+01
1.150000e-06	-3.090414e-06	-9.330836e-10	-2.141372e+01	-6.448481e+01
1.160000e-06	-3.051197e-06	-9.295824e-10	-2.114198e+01	-6.423769e+01
1.170000e-06	-3.011867e-06	-9.227196e-10	-2.086946e+01	-6.398277e+01
1.180000e-06	-2.972452e-06	-9.154366e-10	-2.059635e+01	-6.371995e+01
1.190000e-06	-2.932891e-06	-9.123643e-10	-2.032223e+01	-6.344917e+01
1.200000e-06	-2.893234e-06	-9.071327e-10	-2.004744e+01	-6.317046e+01
1.210000e-06	-2.853453e-06	-8.983341e-10	-1.977180e+01	-6.288393e+01
1.220000e-06	-2.813547e-06	-8.916041e-10	-1.949528e+01	-6.258975e+01
1.230000e-06	-2.773514e-06	-8.881788e-10	-1.921789e+01	-6.228814e+01
1.240000e-06	-2.733262e-06	-8.842852e-10	-1.893898e+01	-6.197939e+01
1.250000e-06	-2.692708e-06	-8.816016e-10	-1.865798e+01	-6.166381e+01
1.260000e-06	-2.651910e-06	-8.812136e-10	-1.837529e+01	-6.134178e+01
1.270000e-06	-2.610822e-06	-8.770866e-10	-1.809059e+01	-6.101367e+01
1.280000e-06	-2.569377e-06	-8.682571e-10	-1.780341e+01	-6.067988e+01
1.290000e-06	-2.527717e-06	-8.604004e-10	-1.751475e+01	-6.034081e+01
1.300000e-06	-2.485879e-06	-8.522327e-10	-1.722485e+01	-5.999684e+01
1.310000e-06	-2.443647e-06	-8.435403e-10	-1.693222e+01	-5.964835e+01
1.320000e-06	-2.401069e-06	-8.378781e-10	-1.663719e+01	-5.929569e+01
1.330000e-06	-2.358310e-06	-8.354610e-10	-1.634091e+01	-5.893916e+01
1.340000e-06	-2.315306e-06	-8.317121e-10	-1.604293e+01	-5.857903e+01
1.350000e-06	-2.272042e-06	-8.280398e-10	-1.574316e+01	-5.821550e+01
1.360000e-06	-2.228540e-06	-8.236497e-10	-1.544172e+01	-5.784875e+01
1.370000e-06	-2.184923e-06	-8.157436e-10	-1.513950e+01	-5.747885e+01
1.380000e-06	-2.141265e-06	-8.068376e-10	-1.483699e+01	-5.710587e+01
1.390000e-06	-2.097579e-06	-8.002751e-10	-1.453429e+01	-5.672975e+01
1.400000e-06	-2.053877e-06	-7.935960e-10	-1.423147e+01	-5.635043e+01
1.410000e-06	-2.010070e-06	-7.878089e-10	-1.392793e+01	-5.596774e+01
1.420000e-06	-1.966159e-06	-7.850550e-10	-1.362367e+01	-5.558149e+01
1.430000e-06	-1.922177e-06	-7.829433e-10	-1.331891e+01	-5.519141e+01
1.440000e-06	-1.878024e-06	-7.776206e-10	-1.301297e+01	-5.479718e+01
1.450000e-06	-1.833739e-06	-7.715495e-10	-1.270612e+01	-5.439846e+01
1.460000e-06	-1.789371e-06	-7.654909e-10	-1.239869e+01	-5.399484e+01
1.470000e-06	-1.744861e-06	-7.573216e-10	-1.209028e+01	-5.358590e+01
1.480000e-06	-1.700192e-06	-7.486899e-10	-1.178076e+01	-5.317117e+01
1.490000e-06	-1.655398e-06	-7.417951e-10	-1.147038e+01	-5.275017e+01
1.500000e-06	-1.610443e-06	-7.351682e-10	-1.115888e+01	-5.232241e+01
1.510000e-06	-1.565293e-06	-7.275226e-10	-1.084603e+01	-5.188736e+01
1.520000e-06	-1.520029e-06	-7.218258e-10	-1.053240e+01	-5.144449e+01
1.530000e-06	-1.474666e-06	-7.178139e-10	-1.021807e+01	-5.099327e+01
1.540000e-06	-1.429227e-06	-7.117559e-10	-9.903223e+00	-5.053315e+01
1.550000e-06	-1.383726e-06	-7.036449e-10	-9.587946e+00	-5.006356e+01
1.560000e-06	-1.338161e-06	-6.956938e-10	-9.272217e+00	-4.958396e+01
1.570000e-06	-1.292523e-06	-6.856072e-10	-8.955992e+00	-4.909376e+01
1.580000e-06	-1.246740e-06	-6.757142e-10	-8.638756e+00	-4.859236e+01
1.590000e-06	-1.200862e-06	-6.694402e-10	-8.320864e+00	-4.807917e+01
1.600000e-06	-1.154942e-06	-6.656144e-10	-8.002679e+00	-4.755354e+01
1.610000e-06	-1.108970e-06	-6.608046e-10	-7.684141e+00	-4.701483e+01
1.620000e-06	-1.063003e-06	-6.549768e-10	-7.365628e+00	-4.646233e+01
1.630000e-06	-1.016963e-06	-6.476279e-10	-7.046617e+00	-4.589533e+01
1.640000e-06	-9.707410e-07	-6.390074e-10	-6.726339e+00	-4.531305e+01
1.650000e-06	-9.244402e-07	-6.287840e-10	-6.405517e+00	-4.471466e+01
1.660000e-06	-8.780473e-07	-6.171508e-10	-6.084057e+00	-4.409931e+01
1.670000e-06	-8.315041e-07	-6.049265e-10	-5.761556e+00	-4.346606e+01
1.680000e-06	-7.849567e-07	-5.918054e-10	-5.439025e+00	-4.281394e+01
1.690000e-06	-7.384610e-07	-5.779721e-10	-5.116853e+00	-4.214191e+01
1.700000e-06	-6.920008e-07	-5.643915e-10	-4.794926e+00	-4.144888e+01
1.710000e-06	-6.454802e-07	-5.511243e-10	-4.472582e+00	-4.073371e+01
1.720000e-06	-5.988064e-07	-5.389145e-10	-4.149176e+00	-3.999521e+01
1.730000e-06	-5.520423e-07	-5.285191e-10	-3.825144e+00	-3.923215e+01
1.740000e-06	-5.052616e-07	-5.174539e-10	-3.500996e+00	-3.844327e+01
1.750000e-06	-4.584696e-07	-5.038504e-10	-3.176771e+00	-3.762730e+01
1.760000e-06	-4.116133e-07	-4.871604e-10	-2.852100e+00	-3.678296e+01
1.770000e-06	-3.647329e-07	-4.701604e-10	-2.527263e+00	-3.590896e+01
1.780000e-06	-3.178932e-07	-4.553958e-10	-2.202707e+00	-3.500406e+01
1.790000e-06	-2.710544e-07	-4.410179e-10	-1.878157e+00	-3.406704e+01
1.800000e-06	-2.241538e-07	-4.271290e-10	-1.553179e+00	-3.309675e+01
1.810000e-06	-1.772114e-07	-4.125697e-10	-1.227911e+00	-3.209212e+01
1.820000e-06	-1.302708e-07	-3.971741e-10	-9.026566e-01	-3.105218e+01
1.830000e-06	-8.336084e-08	-3.832409e-10	-5.776136e-01	-2.997606e+01
1.840000e-06	-3.637968e-08	-3.680939e-10	-2.520776e-01	-2.886306e+01
1.850000e-06	1.063779e-08	-3.508594e-10	7.371010e-02	-2.771259e+01
1.860000e-06	5.754640e-08	-3.326360e-10	3.987434e-01	-2.652428e+01
1.870000e-06	1.044657e-07	-3.138629e-10	7.238506e-01	-2.529792e+01
1.880000e-06	1.514126e-07	-2.941419e-10	1.049149e+00	-2.403352e+01
1.890000e-06	1.983290e-07	-2.759414e-10	1.374237e+00	-2.273127e+01
1.900000e-06	2.452166e-07	-2.599546e-10	1.699125e+00	-2.139164e+01
1.910000e-06	2.920532e-07	-2.426182e-10	2.023659e+00	-2.001527e+01
1.920000e-06	3.388240e-07	-2.239458e-10	2.347737e+00	-1.860309e+01
1.930000e-06	3.855941e-07	-2.046733e-10	2.671811e+00	-1.715622e+01
1.940000e-06	4.324225e-07	-1.839084e-10	2.996289e+00	-1.567604e+01
1.950000e-06	4.792435e-07	-1.626183e-10	3.320715e+00	-1.416414e+01
1.960000e-06	5.259730e-07	-1.424670e-10	3.644507e+00	-1.262235e+01
1.970000e-06	5.726498e-07	-1.239825e-10	3.967934e+00	-1.105269e+01
1.980000e-06	6.192649e-07	-1.050718e-10	4.290934e+00	-9.457377e+00
1.990000e-06	6.657602e-07	-8.458369e-11	4.613104e+00	-7.838794e+00
2.000000e-06	7.122287e-07	-5.999364e-11	4.935088e+00	-6.199489e+00
2.010000e-06	7.586860e-07	-3.177134e-11	5.256993e+00	-4.542141e+00
2.020000e-06	8.051061e-07	-3.123989e-12	5.578642e+00	-2.869537e+00
2.030000e-06	8.514980e-07	2.096753e-11	5.900095e+00	-1.184547e+00
2.040000e-06	8.978158e-07	3.998829e-11	6.221034e+00	5.098988e-01
2.050000e-06	9.440758e-07	5.722120e-11	6.541574e+00	2.210838e+00
2.060000e-06	9.902471e-07	7.653236e-11	6.861498e+00	3.915305e+00
2.070000e-06	1.036322e-06	9.912310e-11	7.180756e+00	5.620352e+00
2.080000e-06	1.082332e-06	1.224368e-10	7.499565e+00	7.323079e+00
2.090000e-06	1.128339e-06	1.485469e-10	7.818347e+00	9.020657e+00
2.100000e-06	1.174276e-06	1.757544e-10	8.136648e+00	1.071035e+01
2.110000e-06	1.220086e-06	2.001483e-10	8.454067e+00	1.238953e+01
2.120000e-06	1.265831e-06	2.211540e-10	8.771041e+00	1.405571e+01
2.130000e-06	1.311439e-06	2.403064e-10	9.087062e+00	1.570655e+01
2.140000e-06	1.356918e-06	2.577164e-10	9.402191e+00	1.733987e+01
2.150000e-06	1.402296e-06	2.756115e-10	9.716618e+00	1.895366e+01
2.160000e-06	1.447641e-06	2.966589e-10	1.003081e+01	2.054610e+01
2.170000e-06	1.492920e-06	3.200712e-10	1.034456e+01	2.211555e+01
2.180000e-06	1.538076e-06	3.432119e-10	1.065745e+01	2.366055e+01
2.190000e-06	1.583156e-06	3.655352e-10	1.096981e+01	2.517984e+01
2.200000e-06	1.628085e-06	3.871417e-10	1.128113e+01	2.667235e+01
2.210000e-06	1.672848e-06	4.060395e-10	1.159129e+01	2.813717e+01
2.220000e-06	1.717537e-06	4.212272e-10	1.190095e+01	2.957359e+01
2.230000e-06	1.762119e-06	4.369724e-10	1.220986e+01	3.098104e+01
2.240000e-06	1.806474e-06	4.544907e-10	1.251720e+01	3.235910e+01
2.250000e-06	1.850696e-06	4.706836e-10	1.282361e+01	3.370751e+01
2.260000e-06	1.894859e-06	4.872458e-10	1.312963e+01	3.502612e+01
2.270000e-06	1.938924e-06	5.069022e-10	1.343496e+01	3.631490e+01
2.280000e-06	1.982911e-06	5.282040e-10	1.373974e+01	3.757392e+01
2.290000e-06	2.026839e-06	5.489509e-10	1.404412e+01	3.880331e+01
2.300000e-06	2.070671e-06	5.680548e-10	1.434784e+01	4.000332e+01
2.310000e-06	2.114364e-06	5.846048e-10	1.465059e+01	4.117420e+01
2.320000e-06	2.157968e-06	5.986205e-10	1.495273e+01	4.231630e+01
2.330000e-06	2.201560e-06	6.114262e-10	1.525478e+01	4.342997e+01
2.340000e-06	2.245085e-06	6.245904e-10	1.555637e+01	4.451559e+01
2.350000e-06	2.288457e-06	6.404011e-10	1.585689e+01	4.557356e+01
2.360000e-06	2.331586e-06	6.577888e-10	1.615574e+01	4.660429e+01
2.370000e-06	2.374448e-06	6.725438e-10	1.645273e+01	4.760820e+01
2.380000e-06	2.417175e-06	6.847155e-10	1.674879e+01	4.858570e+01
2.390000e-06	2.459655e-06	6.975087e-10	1.704314e+01	4.953720e+01
2.400000e-06	2.501836e-06	7.110802e-10	1.733542e+01	5.046311e+01
2.410000e-06	2.543679e-06	7.247965e-10	1.762535e+01	5.136382e+01
2.420000e-06	2.585150e-06	7.393159e-10	1.791271e+01	5.223973e+01
2.430000e-06	2.626336e-06	7.539495e-10	1.819808e+01	5.309125e+01
2.440000e-06	2.667188e-06	7.666109e-10	1.848115e+01	5.391876e+01
2.450000e-06	2.707727e-06	7.765018e-10	1.876205e+01	5.472267e+01
2.460000e-06	2.748065e-06	7.850944e-10	1.904156e+01	5.550338e+01
2.470000e-06	2.788240e-06	7.941560e-10	1.931993e+01	5.626132e+01
2.480000e-06	2.828248e-06	8.048446e-10	1.959715e+01	5.699690e+01
2.490000e-06	2.868150e-06	8.169807e-10	1.987363e+01	5.771059e+01
2.500000e-06	2.907929e-06	8.304718e-10	2.014926e+01	5.840284e+01
2.510000e-06	2.947615e-06	8.433414e-10	2.042425e+01	5.907414e+01
2.520000e-06	2.987169e-06	8.539862e-10	2.069832e+01	5.972499e+01
2.530000e-06	3.026458e-06	8.613580e-10	2.097056e+01	6.035591e+01
2.540000e-06	3.065472e-06	8.659321e-10	2.124089e+01	6.096745e+01
2.550000e-06	3.104287e-06	8.702407e-10	2.150984e+01	6.156017e+01
2.560000e-06	3.142939e-06	8.777397e-10	2.177767e+01	6.213464e+01
2.570000e-06	3.181406e-06	8.870150e-10	2.204421e+01	6.269145e+01
2.580000e-06	3.219599e-06	8.963280e-10	2.230885e+01	6.323118e+01
2.590000e-06	3.257558e-06	9.059857e-10	2.257187e+01	6.375443e+01
2.600000e-06	3.295401e-06	9.142546e-10	2.283408e+01	6.426179e+01
2.610000e-06	3.333093e-06	9.205860e-10	2.309526e+01	6.475382e+01
2.620000e-06	3.370536e-06	9.249359e-10	2.335470e+01	6.523110e+01
2.630000e-06	3.407649e-06	9.290262e-10	2.361186e+01	6.569414e+01
2.640000e-06	3.444398e-06	9.342294e-10	2.386650e+01	6.614347e+01
2.650000e-06	3.480869e-06	9.414208e-10	2.411921e+01	6.657955e+01
2.660000e-06	3.517199e-06	9.482986e-10	2.437094e+01	6.700282e+01
2.670000e-06	3.553337e-06	9.545561e-10	2.462134e+01	6.741367e+01
2.680000e-06	3.589278e-06	9.604128e-10	2.487038e+01	6.781245e+01
2.690000e-06	3.625101e-06	9.656478e-10	2.511860e+01	6.819945e+01
2.700000e-06	3.660774e-06	9.709616e-10	2.536578e+01	6.857493e+01
2.710000e-06	3.696283e-06	9.767071e-10	2.561183e+01	6.893909e+01
2.720000e-06	3.731608e-06	9.837589e-10	2.585660e+01	6.929208e+01
2.730000e-06	3.766683e-06	9.907388e-10	2.609964e+01	6.963403e+01
2.740000e-06	3.801484e-06	9.950146e-10	2.634077e+01	6.996499e+01
2.750000e-06	3.835853e-06	9.977546e-10	2.657892e+01	7.028503e+01
2.760000e-06	3.869773e-06	1.001165e-09	2.681395e+01	7.059415e+01
2.770000e-06	3.903263e-06	1.004699e-09	2.704601e+01	7.089235e+01
2.780000e-06	3.936171e-06	1.008089e-09	2.727403e+01	7.117960e+01
2.790000e-06	3.968648e-06	1.013112e-09	2.749907e+01	7.145590e+01
2.800000e-06	4.000872e-06	1.018878e-09	2.772235e+01	7.172123e+01
2.810000e-06	4.032877e-06	1.022171e-09	2.794411e+01	7.197557e+01
2.820000e-06	4.064763e-06	1.024157e-09	2.816505e+01	7.221897e+01
2.830000e-06	4.096490e-06	1.026984e-09	2.838489e+01	7.245146e+01
2.840000e-06	4.127945e-06	1.030994e-09	2.860285e+01	7.267314e+01
2.850000e-06	4.159186e-06	1.034792e-09	2.881932e+01	7.288414e+01
2.860000e-06	4.190245e-06	1.038491e-09	2.903453e+01	7.308465e+01
2.870000e-06	4.220980e-06	1.043940e-09	2.924749e+01	7.327490e+01
2.880000e-06	4.251321e-06	1.050214e-09	2.945773e+01	7.345520e+01
2.890000e-06	4.281287e-06	1.055230e-09	2.966536e+01	7.362589e+01
2.900000e-06	4.310942e-06	1.060563e-09	2.987084e+01	7.378740e+01
