# Temperatura_=_-2.67
# Concentracion g/m^3_=_1620.0
# C_Vs_to_Am_M_A/Vsm_=_65563218390.804596
# pendiente_HvsI_1/m_=_3716.3
# ordenada_HvsI_A/m_=_1297.0
# frecuencia_Hz_=_135105.1175195894

Tiempo_(s)	Campo_(V.s)	Magnetizacion_(V.s)	Campo_(kA/m)	Magnetizacion_(A/m)
0.000000e+00	-5.524645e-06	-1.100500e-09	-3.836870e+01	-7.390624e+01
1.000000e-08	-5.524990e-06	-1.098318e-09	-3.837110e+01	-7.387655e+01
2.000000e-08	-5.525097e-06	-1.094461e-09	-3.837184e+01	-7.384931e+01
3.000000e-08	-5.524869e-06	-1.090472e-09	-3.837026e+01	-7.382503e+01
4.000000e-08	-5.524212e-06	-1.087810e-09	-3.836570e+01	-7.380420e+01
5.000000e-08	-5.522913e-06	-1.083509e-09	-3.835668e+01	-7.378729e+01
6.000000e-08	-5.520870e-06	-1.075690e-09	-3.834249e+01	-7.377473e+01
7.000000e-08	-5.518308e-06	-1.063380e-09	-3.832470e+01	-7.376688e+01
8.000000e-08	-5.515297e-06	-1.067457e-09	-3.830378e+01	-7.376404e+01
9.000000e-08	-5.511816e-06	-1.109438e-09	-3.827961e+01	-7.376642e+01
1.000000e-07	-5.507863e-06	-1.136218e-09	-3.825215e+01	-7.377415e+01
1.100000e-07	-5.503519e-06	-1.097356e-09	-3.822198e+01	-7.378723e+01
1.200000e-07	-5.499012e-06	-1.053804e-09	-3.819069e+01	-7.380557e+01
1.300000e-07	-5.494371e-06	-1.031770e-09	-3.815845e+01	-7.382895e+01
1.400000e-07	-5.489319e-06	-1.072702e-09	-3.812337e+01	-7.385703e+01
1.500000e-07	-5.483794e-06	-1.076541e-09	-3.808499e+01	-7.388937e+01
1.600000e-07	-5.477963e-06	-1.057063e-09	-3.804450e+01	-7.392540e+01
1.700000e-07	-5.471808e-06	-1.062201e-09	-3.800175e+01	-7.396443e+01
1.800000e-07	-5.465225e-06	-1.087469e-09	-3.795603e+01	-7.400568e+01
1.900000e-07	-5.458193e-06	-1.138331e-09	-3.790720e+01	-7.404829e+01
2.000000e-07	-5.450792e-06	-1.115858e-09	-3.785580e+01	-7.409129e+01
2.100000e-07	-5.443113e-06	-1.081132e-09	-3.780246e+01	-7.413366e+01
2.200000e-07	-5.435232e-06	-1.058893e-09	-3.774773e+01	-7.417434e+01
2.300000e-07	-5.427158e-06	-1.095411e-09	-3.769165e+01	-7.421223e+01
2.400000e-07	-5.418694e-06	-1.105055e-09	-3.763287e+01	-7.424623e+01
2.500000e-07	-5.409564e-06	-1.114179e-09	-3.756946e+01	-7.427524e+01
2.600000e-07	-5.399683e-06	-1.110889e-09	-3.750085e+01	-7.429818e+01
2.700000e-07	-5.389202e-06	-1.117558e-09	-3.742805e+01	-7.431406e+01
2.800000e-07	-5.378159e-06	-1.093337e-09	-3.735136e+01	-7.432191e+01
2.900000e-07	-5.366674e-06	-1.084531e-09	-3.727159e+01	-7.432088e+01
3.000000e-07	-5.354919e-06	-1.101541e-09	-3.718995e+01	-7.431021e+01
3.100000e-07	-5.342808e-06	-1.108977e-09	-3.710585e+01	-7.428927e+01
3.200000e-07	-5.330222e-06	-1.096149e-09	-3.701844e+01	-7.425756e+01
3.300000e-07	-5.317186e-06	-1.096742e-09	-3.692790e+01	-7.421470e+01
3.400000e-07	-5.303836e-06	-1.117169e-09	-3.683518e+01	-7.416051e+01
3.500000e-07	-5.290168e-06	-1.109007e-09	-3.674026e+01	-7.409491e+01
3.600000e-07	-5.276057e-06	-1.105277e-09	-3.664226e+01	-7.401800e+01
3.700000e-07	-5.261493e-06	-1.104837e-09	-3.654111e+01	-7.393005e+01
3.800000e-07	-5.246507e-06	-1.100116e-09	-3.643703e+01	-7.383146e+01
3.900000e-07	-5.230854e-06	-1.082113e-09	-3.632832e+01	-7.372277e+01
4.000000e-07	-5.214535e-06	-1.098705e-09	-3.621499e+01	-7.360467e+01
4.100000e-07	-5.197921e-06	-1.102142e-09	-3.609960e+01	-7.347794e+01
4.200000e-07	-5.181038e-06	-1.089236e-09	-3.598235e+01	-7.334350e+01
4.300000e-07	-5.163808e-06	-1.083326e-09	-3.586269e+01	-7.320231e+01
4.400000e-07	-5.146283e-06	-1.104073e-09	-3.574098e+01	-7.305544e+01
4.500000e-07	-5.128378e-06	-1.086014e-09	-3.561663e+01	-7.290397e+01
4.600000e-07	-5.110025e-06	-1.073906e-09	-3.548916e+01	-7.274903e+01
4.700000e-07	-5.091248e-06	-1.078746e-09	-3.535876e+01	-7.259174e+01
4.800000e-07	-5.072059e-06	-1.074631e-09	-3.522549e+01	-7.243321e+01
4.900000e-07	-5.052601e-06	-1.056658e-09	-3.509035e+01	-7.227448e+01
5.000000e-07	-5.033006e-06	-1.081705e-09	-3.495427e+01	-7.211658e+01
5.100000e-07	-5.013236e-06	-1.089952e-09	-3.481697e+01	-7.196042e+01
5.200000e-07	-4.993166e-06	-1.065150e-09	-3.467758e+01	-7.180684e+01
5.300000e-07	-4.972779e-06	-1.061255e-09	-3.453599e+01	-7.165655e+01
5.400000e-07	-4.952027e-06	-1.083957e-09	-3.439187e+01	-7.151017e+01
5.500000e-07	-4.930844e-06	-1.068759e-09	-3.424475e+01	-7.136817e+01
5.600000e-07	-4.909319e-06	-1.055052e-09	-3.409526e+01	-7.123088e+01
5.700000e-07	-4.887531e-06	-1.067836e-09	-3.394394e+01	-7.109850e+01
5.800000e-07	-4.865452e-06	-1.064509e-09	-3.379060e+01	-7.097110e+01
5.900000e-07	-4.842910e-06	-1.050217e-09	-3.363405e+01	-7.084861e+01
6.000000e-07	-4.819947e-06	-1.062471e-09	-3.347457e+01	-7.073081e+01
6.100000e-07	-4.796764e-06	-1.066404e-09	-3.331356e+01	-7.061738e+01
6.200000e-07	-4.773271e-06	-1.046005e-09	-3.315040e+01	-7.050788e+01
6.300000e-07	-4.749524e-06	-1.046113e-09	-3.298549e+01	-7.040179e+01
6.400000e-07	-4.725699e-06	-1.053720e-09	-3.282002e+01	-7.029848e+01
6.500000e-07	-4.701637e-06	-1.044127e-09	-3.265291e+01	-7.019727e+01
6.600000e-07	-4.677101e-06	-1.037548e-09	-3.248251e+01	-7.009743e+01
6.700000e-07	-4.651971e-06	-1.053012e-09	-3.230798e+01	-6.999820e+01
6.800000e-07	-4.626283e-06	-1.052332e-09	-3.212958e+01	-6.989880e+01
6.900000e-07	-4.599980e-06	-1.044065e-09	-3.194690e+01	-6.979847e+01
7.000000e-07	-4.573147e-06	-1.044860e-09	-3.176054e+01	-6.969645e+01
7.100000e-07	-4.545981e-06	-1.045762e-09	-3.157187e+01	-6.959205e+01
7.200000e-07	-4.518510e-06	-1.025667e-09	-3.138109e+01	-6.948461e+01
7.300000e-07	-4.490827e-06	-1.019529e-09	-3.118883e+01	-6.937354e+01
7.400000e-07	-4.463027e-06	-1.024666e-09	-3.099576e+01	-6.925834e+01
7.500000e-07	-4.435121e-06	-1.026223e-09	-3.080195e+01	-6.913860e+01
7.600000e-07	-4.407015e-06	-1.024151e-09	-3.060676e+01	-6.901398e+01
7.700000e-07	-4.378585e-06	-1.032791e-09	-3.040931e+01	-6.888427e+01
7.800000e-07	-4.349726e-06	-1.027621e-09	-3.020888e+01	-6.874934e+01
7.900000e-07	-4.320428e-06	-1.016912e-09	-3.000540e+01	-6.860915e+01
8.000000e-07	-4.290890e-06	-1.014106e-09	-2.980027e+01	-6.846377e+01
8.100000e-07	-4.261126e-06	-1.013843e-09	-2.959356e+01	-6.831336e+01
8.200000e-07	-4.231051e-06	-1.002683e-09	-2.938468e+01	-6.815815e+01
8.300000e-07	-4.200724e-06	-1.000266e-09	-2.917407e+01	-6.799843e+01
8.400000e-07	-4.170119e-06	-1.003906e-09	-2.896151e+01	-6.783457e+01
8.500000e-07	-4.139165e-06	-1.001467e-09	-2.874654e+01	-6.766698e+01
8.600000e-07	-4.107919e-06	-1.000610e-09	-2.852953e+01	-6.749608e+01
8.700000e-07	-4.076505e-06	-1.005342e-09	-2.831136e+01	-6.732233e+01
8.800000e-07	-4.044979e-06	-1.000289e-09	-2.809241e+01	-6.714619e+01
8.900000e-07	-4.013306e-06	-9.923384e-10	-2.787245e+01	-6.696809e+01
9.000000e-07	-3.981437e-06	-9.913128e-10	-2.765111e+01	-6.678845e+01
9.100000e-07	-3.949311e-06	-9.858264e-10	-2.742800e+01	-6.660766e+01
9.200000e-07	-3.916755e-06	-9.779306e-10	-2.720190e+01	-6.642603e+01
9.300000e-07	-3.883712e-06	-9.763449e-10	-2.697241e+01	-6.624384e+01
9.400000e-07	-3.850243e-06	-9.775539e-10	-2.673997e+01	-6.606129e+01
9.500000e-07	-3.816239e-06	-9.716379e-10	-2.650381e+01	-6.587851e+01
9.600000e-07	-3.781736e-06	-9.684454e-10	-2.626419e+01	-6.569554e+01
9.700000e-07	-3.746919e-06	-9.660080e-10	-2.602238e+01	-6.551237e+01
9.800000e-07	-3.711806e-06	-9.602172e-10	-2.577852e+01	-6.532889e+01
9.900000e-07	-3.676412e-06	-9.528550e-10	-2.553271e+01	-6.514492e+01
1.000000e-06	-3.640833e-06	-9.522882e-10	-2.528562e+01	-6.496022e+01
1.010000e-06	-3.605147e-06	-9.486081e-10	-2.503777e+01	-6.477446e+01
1.020000e-06	-3.569347e-06	-9.458931e-10	-2.478915e+01	-6.458729e+01
1.030000e-06	-3.533432e-06	-9.466661e-10	-2.453972e+01	-6.439830e+01
1.040000e-06	-3.497393e-06	-9.470704e-10	-2.428943e+01	-6.420704e+01
1.050000e-06	-3.461136e-06	-9.415994e-10	-2.403762e+01	-6.401306e+01
1.060000e-06	-3.424544e-06	-9.387418e-10	-2.378349e+01	-6.381589e+01
1.070000e-06	-3.387563e-06	-9.366159e-10	-2.352665e+01	-6.361505e+01
1.080000e-06	-3.350246e-06	-9.333176e-10	-2.326749e+01	-6.341011e+01
1.090000e-06	-3.312713e-06	-9.316004e-10	-2.300682e+01	-6.320064e+01
1.100000e-06	-3.275000e-06	-9.318196e-10	-2.274490e+01	-6.298627e+01
1.110000e-06	-3.237099e-06	-9.253220e-10	-2.248168e+01	-6.276668e+01
1.120000e-06	-3.199027e-06	-9.185641e-10	-2.221727e+01	-6.254160e+01
1.130000e-06	-3.160744e-06	-9.176592e-10	-2.195139e+01	-6.231083e+01
1.140000e-06	-3.122198e-06	-9.172355e-10	-2.168369e+01	-6.207425e+01
1.150000e-06	-3.083380e-06	-9.141883e-10	-2.141410e+01	-6.183180e+01
1.160000e-06	-3.044326e-06	-9.129190e-10	-2.114287e+01	-6.158352e+01
1.170000e-06	-3.005158e-06	-9.093192e-10	-2.087085e+01	-6.132949e+01
1.180000e-06	-2.965896e-06	-9.022088e-10	-2.059817e+01	-6.106989e+01
1.190000e-06	-2.926434e-06	-8.976141e-10	-2.032411e+01	-6.080495e+01
1.200000e-06	-2.886766e-06	-8.953842e-10	-2.004862e+01	-6.053497e+01
1.210000e-06	-2.846960e-06	-8.915558e-10	-1.977216e+01	-6.026029e+01
1.220000e-06	-2.807036e-06	-8.855466e-10	-1.949489e+01	-5.998129e+01
1.230000e-06	-2.766984e-06	-8.838713e-10	-1.921673e+01	-5.969838e+01
1.240000e-06	-2.726798e-06	-8.837237e-10	-1.893763e+01	-5.941198e+01
1.250000e-06	-2.686512e-06	-8.804681e-10	-1.865785e+01	-5.912253e+01
1.260000e-06	-2.645980e-06	-8.767773e-10	-1.837635e+01	-5.883043e+01
1.270000e-06	-2.605064e-06	-8.731841e-10	-1.809219e+01	-5.853607e+01
1.280000e-06	-2.563827e-06	-8.668729e-10	-1.780580e+01	-5.823980e+01
1.290000e-06	-2.522294e-06	-8.618402e-10	-1.751735e+01	-5.794191e+01
1.300000e-06	-2.480445e-06	-8.583195e-10	-1.722671e+01	-5.764266e+01
1.310000e-06	-2.438430e-06	-8.527594e-10	-1.693492e+01	-5.734219e+01
1.320000e-06	-2.396132e-06	-8.449649e-10	-1.664115e+01	-5.704061e+01
1.330000e-06	-2.353379e-06	-8.400535e-10	-1.634424e+01	-5.673790e+01
1.340000e-06	-2.310321e-06	-8.348813e-10	-1.604520e+01	-5.643398e+01
1.350000e-06	-2.267012e-06	-8.289758e-10	-1.574441e+01	-5.612867e+01
1.360000e-06	-2.223524e-06	-8.237532e-10	-1.544239e+01	-5.582169e+01
1.370000e-06	-2.179976e-06	-8.191609e-10	-1.513995e+01	-5.551267e+01
1.380000e-06	-2.136363e-06	-8.124292e-10	-1.483706e+01	-5.520117e+01
1.390000e-06	-2.092625e-06	-8.064086e-10	-1.453330e+01	-5.488665e+01
1.400000e-06	-2.048809e-06	-8.022946e-10	-1.422899e+01	-5.456851e+01
1.410000e-06	-2.004948e-06	-7.949638e-10	-1.392438e+01	-5.424606e+01
1.420000e-06	-1.961060e-06	-7.843503e-10	-1.361958e+01	-5.391859e+01
1.430000e-06	-1.917126e-06	-7.747313e-10	-1.331446e+01	-5.358531e+01
1.440000e-06	-1.873103e-06	-7.686717e-10	-1.300871e+01	-5.324545e+01
1.450000e-06	-1.828913e-06	-7.654227e-10	-1.270182e+01	-5.289816e+01
1.460000e-06	-1.784569e-06	-7.605852e-10	-1.239385e+01	-5.254263e+01
1.470000e-06	-1.740079e-06	-7.530654e-10	-1.208486e+01	-5.217804e+01
1.480000e-06	-1.695441e-06	-7.444949e-10	-1.177485e+01	-5.180358e+01
1.490000e-06	-1.650704e-06	-7.379399e-10	-1.146415e+01	-5.141847e+01
1.500000e-06	-1.605856e-06	-7.308004e-10	-1.115268e+01	-5.102198e+01
1.510000e-06	-1.560849e-06	-7.225267e-10	-1.084011e+01	-5.061341e+01
1.520000e-06	-1.515699e-06	-7.140151e-10	-1.052654e+01	-5.019211e+01
1.530000e-06	-1.470449e-06	-7.051614e-10	-1.021228e+01	-4.975749e+01
1.540000e-06	-1.425074e-06	-6.976581e-10	-9.897147e+00	-4.930900e+01
1.550000e-06	-1.379600e-06	-6.905230e-10	-9.581333e+00	-4.884618e+01
1.560000e-06	-1.334047e-06	-6.823783e-10	-9.264971e+00	-4.836859e+01
1.570000e-06	-1.288384e-06	-6.738045e-10	-8.947836e+00	-4.787585e+01
1.580000e-06	-1.242646e-06	-6.639805e-10	-8.630186e+00	-4.736763e+01
1.590000e-06	-1.196875e-06	-6.541895e-10	-8.312309e+00	-4.684363e+01
1.600000e-06	-1.151073e-06	-6.482960e-10	-7.994208e+00	-4.630358e+01
1.610000e-06	-1.105214e-06	-6.411163e-10	-7.675723e+00	-4.574723e+01
1.620000e-06	-1.059180e-06	-6.307201e-10	-7.356011e+00	-4.517433e+01
1.630000e-06	-1.013038e-06	-6.206655e-10	-7.035558e+00	-4.458463e+01
1.640000e-06	-9.668914e-07	-6.112598e-10	-6.715069e+00	-4.397786e+01
1.650000e-06	-9.207444e-07	-6.025698e-10	-6.394577e+00	-4.335372e+01
1.660000e-06	-8.745330e-07	-5.938191e-10	-6.073639e+00	-4.271188e+01
1.670000e-06	-8.281845e-07	-5.833475e-10	-5.751748e+00	-4.205196e+01
1.680000e-06	-7.818313e-07	-5.729263e-10	-5.429825e+00	-4.137350e+01
1.690000e-06	-7.355039e-07	-5.612504e-10	-5.108081e+00	-4.067601e+01
1.700000e-06	-6.891002e-07	-5.483949e-10	-4.785807e+00	-3.995889e+01
1.710000e-06	-6.426051e-07	-5.354632e-10	-4.462897e+00	-3.922151e+01
1.720000e-06	-5.960394e-07	-5.235834e-10	-4.139499e+00	-3.846313e+01
1.730000e-06	-5.493722e-07	-5.128243e-10	-3.815395e+00	-3.768294e+01
1.740000e-06	-5.026524e-07	-5.017957e-10	-3.490925e+00	-3.688009e+01
1.750000e-06	-4.559770e-07	-4.894898e-10	-3.166764e+00	-3.605363e+01
1.760000e-06	-4.093211e-07	-4.764380e-10	-2.842738e+00	-3.520258e+01
1.770000e-06	-3.625937e-07	-4.637975e-10	-2.518216e+00	-3.432591e+01
1.780000e-06	-3.157907e-07	-4.526192e-10	-2.193169e+00	-3.342257e+01
1.790000e-06	-2.689505e-07	-4.419081e-10	-1.867863e+00	-3.249150e+01
1.800000e-06	-2.221175e-07	-4.300355e-10	-1.542608e+00	-3.153162e+01
1.810000e-06	-1.752744e-07	-4.164262e-10	-1.217282e+00	-3.054190e+01
1.820000e-06	-1.283691e-07	-4.014761e-10	-8.915246e-01	-2.952137e+01
1.830000e-06	-8.151000e-08	-3.853267e-10	-5.660876e-01	-2.846909e+01
1.840000e-06	-3.469387e-08	-3.673481e-10	-2.409492e-01	-2.738423e+01
1.850000e-06	1.214059e-08	-3.490404e-10	8.431651e-02	-2.626608e+01
1.860000e-06	5.894822e-08	-3.310424e-10	4.093959e-01	-2.511402e+01
1.870000e-06	1.057467e-07	-3.140445e-10	7.344118e-01	-2.392764e+01
1.880000e-06	1.525642e-07	-2.975608e-10	1.059560e+00	-2.270663e+01
1.890000e-06	1.994521e-07	-2.809625e-10	1.385197e+00	-2.145093e+01
1.900000e-06	2.463611e-07	-2.638982e-10	1.710980e+00	-2.016063e+01
1.910000e-06	2.931140e-07	-2.458865e-10	2.035679e+00	-1.883605e+01
1.920000e-06	3.397594e-07	-2.281752e-10	2.359632e+00	-1.747772e+01
1.930000e-06	3.864820e-07	-2.101407e-10	2.684121e+00	-1.608642e+01
1.940000e-06	4.332521e-07	-1.888226e-10	3.008939e+00	-1.466311e+01
1.950000e-06	4.799002e-07	-1.659235e-10	3.332911e+00	-1.320902e+01
1.960000e-06	5.265087e-07	-1.448640e-10	3.656607e+00	-1.172557e+01
1.970000e-06	5.731571e-07	-1.273855e-10	3.980581e+00	-1.021443e+01
1.980000e-06	6.196958e-07	-1.117333e-10	4.303792e+00	-8.677432e+00
1.990000e-06	6.660970e-07	-9.457363e-11	4.626049e+00	-7.116629e+00
2.000000e-06	7.124764e-07	-7.204810e-11	4.948155e+00	-5.534237e+00
2.010000e-06	7.589131e-07	-4.453473e-11	5.270658e+00	-3.932627e+00
2.020000e-06	8.052573e-07	-1.593872e-11	5.592518e+00	-2.314308e+00
2.030000e-06	8.515056e-07	9.329125e-12	5.913713e+00	-6.818973e-01
2.040000e-06	8.977485e-07	3.052054e-11	6.234871e+00	9.618979e-01
2.050000e-06	9.439062e-07	5.001334e-11	6.555436e+00	2.614309e+00
2.060000e-06	9.899844e-07	7.012459e-11	6.875449e+00	4.272529e+00
2.070000e-06	1.035994e-06	9.111054e-11	7.194988e+00	5.933742e+00
2.080000e-06	1.081964e-06	1.127430e-10	7.514247e+00	7.595144e+00
2.090000e-06	1.127885e-06	1.370337e-10	7.833170e+00	9.253972e+00
2.100000e-06	1.173741e-06	1.623265e-10	8.151638e+00	1.090752e+01
2.110000e-06	1.219493e-06	1.862582e-10	8.469390e+00	1.255318e+01
2.120000e-06	1.265054e-06	2.081308e-10	8.785810e+00	1.418843e+01
2.130000e-06	1.310550e-06	2.282490e-10	9.101779e+00	1.581089e+01
2.140000e-06	1.356028e-06	2.473240e-10	9.417625e+00	1.741829e+01
2.150000e-06	1.401393e-06	2.681230e-10	9.732687e+00	1.900854e+01
2.160000e-06	1.446708e-06	2.929650e-10	1.004740e+01	2.057969e+01
2.170000e-06	1.491862e-06	3.186220e-10	1.036100e+01	2.212998e+01
2.180000e-06	1.536845e-06	3.414672e-10	1.067340e+01	2.365781e+01
2.190000e-06	1.581785e-06	3.628822e-10	1.098551e+01	2.516175e+01
2.200000e-06	1.626587e-06	3.837108e-10	1.129666e+01	2.664056e+01
2.210000e-06	1.671264e-06	4.038201e-10	1.160694e+01	2.809317e+01
2.220000e-06	1.715853e-06	4.208141e-10	1.191661e+01	2.951867e+01
2.230000e-06	1.760305e-06	4.358334e-10	1.222533e+01	3.091631e+01
2.240000e-06	1.804634e-06	4.515158e-10	1.253320e+01	3.228551e+01
2.250000e-06	1.848794e-06	4.673654e-10	1.283989e+01	3.362581e+01
2.260000e-06	1.892772e-06	4.863034e-10	1.314532e+01	3.493690e+01
2.270000e-06	1.936671e-06	5.089186e-10	1.345019e+01	3.621857e+01
2.280000e-06	1.980538e-06	5.299150e-10	1.375485e+01	3.747073e+01
2.290000e-06	2.024360e-06	5.466881e-10	1.405920e+01	3.869337e+01
2.300000e-06	2.068089e-06	5.605350e-10	1.436290e+01	3.988657e+01
2.310000e-06	2.111734e-06	5.713712e-10	1.466601e+01	4.105046e+01
2.320000e-06	2.155318e-06	5.823336e-10	1.496870e+01	4.218526e+01
2.330000e-06	2.198862e-06	5.966287e-10	1.527112e+01	4.329119e+01
2.340000e-06	2.242355e-06	6.141275e-10	1.557317e+01	4.436853e+01
2.350000e-06	2.285747e-06	6.338691e-10	1.587453e+01	4.541759e+01
2.360000e-06	2.328955e-06	6.519623e-10	1.617461e+01	4.643868e+01
2.370000e-06	2.371831e-06	6.647269e-10	1.647239e+01	4.743212e+01
2.380000e-06	2.414433e-06	6.732442e-10	1.676826e+01	4.839825e+01
2.390000e-06	2.456726e-06	6.804187e-10	1.706198e+01	4.933741e+01
2.400000e-06	2.498591e-06	6.877733e-10	1.735274e+01	5.024993e+01
2.410000e-06	2.540108e-06	6.983635e-10	1.764107e+01	5.113614e+01
2.420000e-06	2.581359e-06	7.132586e-10	1.792756e+01	5.199638e+01
2.430000e-06	2.622333e-06	7.297879e-10	1.821212e+01	5.283097e+01
2.440000e-06	2.663064e-06	7.457657e-10	1.849500e+01	5.364025e+01
2.450000e-06	2.703560e-06	7.581961e-10	1.877625e+01	5.442455e+01
2.460000e-06	2.743786e-06	7.663255e-10	1.905561e+01	5.518421e+01
2.470000e-06	2.783825e-06	7.721325e-10	1.933369e+01	5.591958e+01
2.480000e-06	2.823766e-06	7.779692e-10	1.961108e+01	5.663102e+01
2.490000e-06	2.863649e-06	7.852326e-10	1.988807e+01	5.731891e+01
2.500000e-06	2.903378e-06	7.963474e-10	2.016398e+01	5.798363e+01
2.510000e-06	2.942913e-06	8.092278e-10	2.043855e+01	5.862560e+01
2.520000e-06	2.982307e-06	8.198926e-10	2.071215e+01	5.924525e+01
2.530000e-06	3.021573e-06	8.296685e-10	2.098485e+01	5.984303e+01
2.540000e-06	3.060627e-06	8.381217e-10	2.125608e+01	6.041943e+01
2.550000e-06	3.099445e-06	8.432741e-10	2.152567e+01	6.097493e+01
2.560000e-06	3.138067e-06	8.458090e-10	2.179390e+01	6.151006e+01
2.570000e-06	3.176449e-06	8.489249e-10	2.206046e+01	6.202536e+01
2.580000e-06	3.214544e-06	8.529403e-10	2.232503e+01	6.252139e+01
2.590000e-06	3.252441e-06	8.583035e-10	2.258823e+01	6.299872e+01
2.600000e-06	3.290146e-06	8.674396e-10	2.285009e+01	6.345794e+01
2.610000e-06	3.327622e-06	8.769314e-10	2.311036e+01	6.389963e+01
2.620000e-06	3.364839e-06	8.837530e-10	2.336883e+01	6.432440e+01
2.630000e-06	3.401809e-06	8.884501e-10	2.362559e+01	6.473284e+01
2.640000e-06	3.438569e-06	8.920031e-10	2.388089e+01	6.512554e+01
2.650000e-06	3.475083e-06	8.959087e-10	2.413448e+01	6.550308e+01
2.660000e-06	3.511360e-06	9.011713e-10	2.438642e+01	6.586604e+01
2.670000e-06	3.547384e-06	9.082925e-10	2.463661e+01	6.621498e+01
2.680000e-06	3.583280e-06	9.143696e-10	2.488591e+01	6.655043e+01
2.690000e-06	3.619123e-06	9.186718e-10	2.513484e+01	6.687291e+01
2.700000e-06	3.654787e-06	9.226887e-10	2.538252e+01	6.718293e+01
2.710000e-06	3.690234e-06	9.266665e-10	2.562871e+01	6.748096e+01
2.720000e-06	3.725505e-06	9.312778e-10	2.587366e+01	6.776745e+01
2.730000e-06	3.760561e-06	9.375964e-10	2.611713e+01	6.804284e+01
2.740000e-06	3.795317e-06	9.448034e-10	2.635850e+01	6.830755e+01
2.750000e-06	3.829632e-06	9.515047e-10	2.659682e+01	6.856196e+01
2.760000e-06	3.863355e-06	9.572640e-10	2.683103e+01	6.880647e+01
2.770000e-06	3.896470e-06	9.617537e-10	2.706102e+01	6.904144e+01
2.780000e-06	3.929163e-06	9.639852e-10	2.728807e+01	6.926724e+01
2.790000e-06	3.961618e-06	9.663319e-10	2.751347e+01	6.948421e+01
2.800000e-06	3.993814e-06	9.703495e-10	2.773707e+01	6.969271e+01
2.810000e-06	4.025765e-06	9.746112e-10	2.795897e+01	6.989310e+01
2.820000e-06	4.057572e-06	9.787759e-10	2.817987e+01	7.008573e+01
2.830000e-06	4.089192e-06	9.842726e-10	2.839948e+01	7.027098e+01
2.840000e-06	4.120587e-06	9.904600e-10	2.861751e+01	7.044922e+01
2.850000e-06	4.151750e-06	9.944884e-10	2.883394e+01	7.062085e+01
2.860000e-06	4.182545e-06	9.983220e-10	2.904781e+01	7.078626e+01
2.870000e-06	4.212971e-06	1.002405e-09	2.925912e+01	7.094586e+01
2.880000e-06	4.243169e-06	1.005301e-09	2.946884e+01	7.110010e+01
2.890000e-06	4.273070e-06	1.008255e-09	2.967651e+01	7.124941e+01
2.900000e-06	4.302630e-06	1.011593e-09	2.988180e+01	7.139422e+01
