# Temperatura_=_-6.3
# Concentracion g/m^3_=_1620.0
# C_Vs_to_Am_M_A/Vsm_=_65563218390.804596
# pendiente_HvsI_1/m_=_3716.3
# ordenada_HvsI_A/m_=_1297.0
# frecuencia_Hz_=_135105.32235541198

Tiempo_(s)	Campo_(V.s)	Magnetizacion_(V.s)	Campo_(kA/m)	Magnetizacion_(A/m)
0.000000e+00	-5.515951e-06	-1.103338e-09	-3.836227e+01	-7.361980e+01
1.000000e-08	-5.516075e-06	-1.101005e-09	-3.836312e+01	-7.362967e+01
2.000000e-08	-5.515977e-06	-1.098196e-09	-3.836245e+01	-7.363916e+01
3.000000e-08	-5.515517e-06	-1.096858e-09	-3.835925e+01	-7.364777e+01
4.000000e-08	-5.514574e-06	-1.094979e-09	-3.835268e+01	-7.365500e+01
5.000000e-08	-5.513143e-06	-1.091462e-09	-3.834274e+01	-7.366029e+01
6.000000e-08	-5.511117e-06	-1.084583e-09	-3.832864e+01	-7.366310e+01
7.000000e-08	-5.508479e-06	-1.085328e-09	-3.831029e+01	-7.366284e+01
8.000000e-08	-5.505345e-06	-1.094837e-09	-3.828850e+01	-7.365894e+01
9.000000e-08	-5.501727e-06	-1.083108e-09	-3.826334e+01	-7.365082e+01
1.000000e-07	-5.497602e-06	-1.081444e-09	-3.823465e+01	-7.363792e+01
1.100000e-07	-5.493187e-06	-1.133930e-09	-3.820395e+01	-7.361969e+01
1.200000e-07	-5.488653e-06	-1.085956e-09	-3.817241e+01	-7.359560e+01
1.300000e-07	-5.483881e-06	-1.038456e-09	-3.813922e+01	-7.356519e+01
1.400000e-07	-5.478659e-06	-1.040099e-09	-3.810291e+01	-7.352798e+01
1.500000e-07	-5.472962e-06	-1.101146e-09	-3.806328e+01	-7.348360e+01
1.600000e-07	-5.466900e-06	-1.114607e-09	-3.802113e+01	-7.343169e+01
1.700000e-07	-5.460490e-06	-1.025668e-09	-3.797654e+01	-7.337197e+01
1.800000e-07	-5.453664e-06	-1.070420e-09	-3.792907e+01	-7.330423e+01
1.900000e-07	-5.446359e-06	-1.119000e-09	-3.787826e+01	-7.322831e+01
2.000000e-07	-5.438762e-06	-1.137210e-09	-3.782543e+01	-7.314414e+01
2.100000e-07	-5.430992e-06	-1.059906e-09	-3.777139e+01	-7.305173e+01
2.200000e-07	-5.423008e-06	-1.074876e-09	-3.771586e+01	-7.295115e+01
2.300000e-07	-5.414790e-06	-1.102271e-09	-3.765871e+01	-7.284256e+01
2.400000e-07	-5.406122e-06	-1.113221e-09	-3.759843e+01	-7.272619e+01
2.500000e-07	-5.396681e-06	-1.074650e-09	-3.753277e+01	-7.260235e+01
2.600000e-07	-5.386581e-06	-1.064371e-09	-3.746252e+01	-7.247141e+01
2.700000e-07	-5.375880e-06	-1.055346e-09	-3.738810e+01	-7.233384e+01
2.800000e-07	-5.364653e-06	-1.046984e-09	-3.731002e+01	-7.219013e+01
2.900000e-07	-5.353130e-06	-1.038537e-09	-3.722988e+01	-7.204085e+01
3.000000e-07	-5.341212e-06	-1.035948e-09	-3.714699e+01	-7.188663e+01
3.100000e-07	-5.328839e-06	-1.048870e-09	-3.706094e+01	-7.172811e+01
3.200000e-07	-5.316077e-06	-1.055984e-09	-3.697218e+01	-7.156599e+01
3.300000e-07	-5.302881e-06	-1.057629e-09	-3.688040e+01	-7.140100e+01
3.400000e-07	-5.289245e-06	-1.016851e-09	-3.678557e+01	-7.123386e+01
3.500000e-07	-5.275291e-06	-1.035062e-09	-3.668853e+01	-7.106531e+01
3.600000e-07	-5.261013e-06	-1.049318e-09	-3.658923e+01	-7.089610e+01
3.700000e-07	-5.246323e-06	-1.027888e-09	-3.648706e+01	-7.072696e+01
3.800000e-07	-5.231061e-06	-1.011557e-09	-3.638091e+01	-7.055859e+01
3.900000e-07	-5.215293e-06	-1.069084e-09	-3.627125e+01	-7.039167e+01
4.000000e-07	-5.198981e-06	-1.036380e-09	-3.615780e+01	-7.022684e+01
4.100000e-07	-5.182211e-06	-9.934738e-10	-3.604117e+01	-7.006470e+01
4.200000e-07	-5.165178e-06	-1.037334e-09	-3.592271e+01	-6.990578e+01
4.300000e-07	-5.147835e-06	-1.069289e-09	-3.580210e+01	-6.975058e+01
4.400000e-07	-5.130117e-06	-9.803951e-10	-3.567887e+01	-6.959950e+01
4.500000e-07	-5.112019e-06	-1.005709e-09	-3.555301e+01	-6.945291e+01
4.600000e-07	-5.093501e-06	-1.077234e-09	-3.542421e+01	-6.931108e+01
4.700000e-07	-5.074496e-06	-1.011936e-09	-3.529203e+01	-6.917423e+01
4.800000e-07	-5.055190e-06	-9.537874e-10	-3.515777e+01	-6.904248e+01
4.900000e-07	-5.035675e-06	-1.056275e-09	-3.502205e+01	-6.891590e+01
5.000000e-07	-5.015973e-06	-1.047475e-09	-3.488502e+01	-6.879448e+01
5.100000e-07	-4.996055e-06	-9.611637e-10	-3.474650e+01	-6.867813e+01
5.200000e-07	-4.975813e-06	-1.019348e-09	-3.460572e+01	-6.856671e+01
5.300000e-07	-4.955211e-06	-1.070471e-09	-3.446244e+01	-6.845999e+01
5.400000e-07	-4.934187e-06	-9.701423e-10	-3.431622e+01	-6.835771e+01
5.500000e-07	-4.912826e-06	-9.739356e-10	-3.416766e+01	-6.825954e+01
5.600000e-07	-4.891242e-06	-1.049441e-09	-3.401755e+01	-6.816512e+01
5.700000e-07	-4.869360e-06	-9.853326e-10	-3.386536e+01	-6.807402e+01
5.800000e-07	-4.847099e-06	-9.498623e-10	-3.371054e+01	-6.798581e+01
5.900000e-07	-4.824448e-06	-1.036718e-09	-3.355301e+01	-6.790002e+01
6.000000e-07	-4.801419e-06	-1.024244e-09	-3.339285e+01	-6.781616e+01
6.100000e-07	-4.777983e-06	-9.537662e-10	-3.322986e+01	-6.773373e+01
6.200000e-07	-4.754305e-06	-1.001606e-09	-3.306518e+01	-6.765222e+01
6.300000e-07	-4.730477e-06	-1.016353e-09	-3.289946e+01	-6.757115e+01
6.400000e-07	-4.706387e-06	-9.596105e-10	-3.273192e+01	-6.749001e+01
6.500000e-07	-4.681986e-06	-9.735409e-10	-3.256221e+01	-6.740834e+01
6.600000e-07	-4.657200e-06	-1.013177e-09	-3.238983e+01	-6.732568e+01
6.700000e-07	-4.631904e-06	-9.734280e-10	-3.221391e+01	-6.724161e+01
6.800000e-07	-4.606035e-06	-9.729926e-10	-3.203399e+01	-6.715573e+01
6.900000e-07	-4.579580e-06	-1.003518e-09	-3.185000e+01	-6.706768e+01
7.000000e-07	-4.552591e-06	-9.874079e-10	-3.166230e+01	-6.697714e+01
7.100000e-07	-4.525252e-06	-9.609435e-10	-3.147216e+01	-6.688382e+01
7.200000e-07	-4.497719e-06	-9.820795e-10	-3.128067e+01	-6.678748e+01
7.300000e-07	-4.470051e-06	-9.758463e-10	-3.108825e+01	-6.668791e+01
7.400000e-07	-4.442209e-06	-9.611291e-10	-3.089462e+01	-6.658495e+01
7.500000e-07	-4.414115e-06	-9.675755e-10	-3.069923e+01	-6.647848e+01
7.600000e-07	-4.385835e-06	-9.747932e-10	-3.050255e+01	-6.636841e+01
7.700000e-07	-4.357329e-06	-9.560122e-10	-3.030429e+01	-6.625469e+01
7.800000e-07	-4.328392e-06	-9.560248e-10	-3.010304e+01	-6.613730e+01
7.900000e-07	-4.299060e-06	-9.584661e-10	-2.989905e+01	-6.601627e+01
8.000000e-07	-4.269498e-06	-9.516134e-10	-2.969345e+01	-6.589164e+01
8.100000e-07	-4.239670e-06	-9.471231e-10	-2.948600e+01	-6.576347e+01
8.200000e-07	-4.209493e-06	-9.544335e-10	-2.927613e+01	-6.563186e+01
8.300000e-07	-4.179018e-06	-9.490848e-10	-2.906418e+01	-6.549690e+01
8.400000e-07	-4.148269e-06	-9.420433e-10	-2.885033e+01	-6.535872e+01
8.500000e-07	-4.117216e-06	-9.456834e-10	-2.863436e+01	-6.521745e+01
8.600000e-07	-4.085836e-06	-9.434419e-10	-2.841612e+01	-6.507323e+01
8.700000e-07	-4.054266e-06	-9.317600e-10	-2.819656e+01	-6.492618e+01
8.800000e-07	-4.022557e-06	-9.332518e-10	-2.797603e+01	-6.477646e+01
8.900000e-07	-3.990670e-06	-9.382895e-10	-2.775426e+01	-6.462420e+01
9.000000e-07	-3.958549e-06	-9.277231e-10	-2.753087e+01	-6.446953e+01
9.100000e-07	-3.926187e-06	-9.257385e-10	-2.730580e+01	-6.431258e+01
9.200000e-07	-3.893520e-06	-9.297264e-10	-2.707860e+01	-6.415347e+01
9.300000e-07	-3.860459e-06	-9.242784e-10	-2.684867e+01	-6.399230e+01
9.400000e-07	-3.827021e-06	-9.153157e-10	-2.661611e+01	-6.382917e+01
9.500000e-07	-3.793084e-06	-9.219005e-10	-2.638009e+01	-6.366418e+01
9.600000e-07	-3.758641e-06	-9.139559e-10	-2.614055e+01	-6.349739e+01
9.700000e-07	-3.723794e-06	-9.031074e-10	-2.589819e+01	-6.332888e+01
9.800000e-07	-3.688556e-06	-9.047417e-10	-2.565312e+01	-6.315869e+01
9.900000e-07	-3.653049e-06	-9.081642e-10	-2.540618e+01	-6.298686e+01
1.000000e-06	-3.617423e-06	-8.953541e-10	-2.515840e+01	-6.281344e+01
1.010000e-06	-3.581676e-06	-8.924666e-10	-2.490979e+01	-6.263845e+01
1.020000e-06	-3.545788e-06	-8.956351e-10	-2.466020e+01	-6.246189e+01
1.030000e-06	-3.509707e-06	-8.923873e-10	-2.440926e+01	-6.228377e+01
1.040000e-06	-3.473428e-06	-8.881297e-10	-2.415695e+01	-6.210410e+01
1.050000e-06	-3.436935e-06	-8.931844e-10	-2.390315e+01	-6.192287e+01
1.060000e-06	-3.400154e-06	-8.878880e-10	-2.364734e+01	-6.174005e+01
1.070000e-06	-3.362987e-06	-8.795084e-10	-2.338886e+01	-6.155564e+01
1.080000e-06	-3.325498e-06	-8.788740e-10	-2.312813e+01	-6.136960e+01
1.090000e-06	-3.287888e-06	-8.823664e-10	-2.286656e+01	-6.118191e+01
1.100000e-06	-3.250135e-06	-8.765450e-10	-2.260399e+01	-6.099252e+01
1.110000e-06	-3.212107e-06	-8.750679e-10	-2.233952e+01	-6.080140e+01
1.120000e-06	-3.173891e-06	-8.778426e-10	-2.207373e+01	-6.060849e+01
1.130000e-06	-3.135518e-06	-8.729921e-10	-2.180686e+01	-6.041374e+01
1.140000e-06	-3.096967e-06	-8.677434e-10	-2.153875e+01	-6.021709e+01
1.150000e-06	-3.058200e-06	-8.663624e-10	-2.126913e+01	-6.001846e+01
1.160000e-06	-3.019194e-06	-8.614963e-10	-2.099785e+01	-5.981777e+01
1.170000e-06	-2.980049e-06	-8.505338e-10	-2.072561e+01	-5.961495e+01
1.180000e-06	-2.940716e-06	-8.469294e-10	-2.045205e+01	-5.940987e+01
1.190000e-06	-2.901162e-06	-8.476145e-10	-2.017696e+01	-5.920245e+01
1.200000e-06	-2.861409e-06	-8.431004e-10	-1.990049e+01	-5.899255e+01
1.210000e-06	-2.821550e-06	-8.382133e-10	-1.962328e+01	-5.878004e+01
1.220000e-06	-2.781597e-06	-8.371895e-10	-1.934541e+01	-5.856477e+01
1.230000e-06	-2.741469e-06	-8.345029e-10	-1.906634e+01	-5.834659e+01
1.240000e-06	-2.701141e-06	-8.346136e-10	-1.878586e+01	-5.812532e+01
1.250000e-06	-2.660684e-06	-8.360914e-10	-1.850449e+01	-5.790078e+01
1.260000e-06	-2.620120e-06	-8.353449e-10	-1.822237e+01	-5.767276e+01
1.270000e-06	-2.579221e-06	-8.272704e-10	-1.793793e+01	-5.744106e+01
1.280000e-06	-2.537939e-06	-8.211065e-10	-1.765082e+01	-5.720546e+01
1.290000e-06	-2.496325e-06	-8.157704e-10	-1.736141e+01	-5.696573e+01
1.300000e-06	-2.454401e-06	-8.112566e-10	-1.706984e+01	-5.672163e+01
1.310000e-06	-2.412285e-06	-8.090227e-10	-1.677693e+01	-5.647290e+01
1.320000e-06	-2.369947e-06	-8.106927e-10	-1.648248e+01	-5.621930e+01
1.330000e-06	-2.327243e-06	-8.079216e-10	-1.618548e+01	-5.596057e+01
1.340000e-06	-2.284202e-06	-8.017956e-10	-1.588614e+01	-5.569643e+01
1.350000e-06	-2.241010e-06	-7.965566e-10	-1.558575e+01	-5.542663e+01
1.360000e-06	-2.197739e-06	-7.890328e-10	-1.528481e+01	-5.515090e+01
1.370000e-06	-2.154329e-06	-7.804099e-10	-1.498290e+01	-5.486896e+01
1.380000e-06	-2.110789e-06	-7.764592e-10	-1.468009e+01	-5.458056e+01
1.390000e-06	-2.067126e-06	-7.741505e-10	-1.437642e+01	-5.428542e+01
1.400000e-06	-2.023305e-06	-7.715619e-10	-1.407166e+01	-5.398328e+01
1.410000e-06	-1.979392e-06	-7.680355e-10	-1.376625e+01	-5.367389e+01
1.420000e-06	-1.935413e-06	-7.665632e-10	-1.346039e+01	-5.335698e+01
1.430000e-06	-1.891336e-06	-7.608446e-10	-1.315384e+01	-5.303229e+01
1.440000e-06	-1.847205e-06	-7.514672e-10	-1.284691e+01	-5.269957e+01
1.450000e-06	-1.803014e-06	-7.434946e-10	-1.253958e+01	-5.235856e+01
1.460000e-06	-1.758637e-06	-7.354764e-10	-1.223095e+01	-5.200900e+01
1.470000e-06	-1.714113e-06	-7.258899e-10	-1.192129e+01	-5.165062e+01
1.480000e-06	-1.669520e-06	-7.179072e-10	-1.161116e+01	-5.128316e+01
1.490000e-06	-1.624815e-06	-7.118191e-10	-1.130024e+01	-5.090634e+01
1.500000e-06	-1.580026e-06	-7.055137e-10	-1.098875e+01	-5.051985e+01
1.510000e-06	-1.535115e-06	-6.999985e-10	-1.067640e+01	-5.012341e+01
1.520000e-06	-1.490030e-06	-6.939965e-10	-1.036284e+01	-4.971667e+01
1.530000e-06	-1.444771e-06	-6.863530e-10	-1.004807e+01	-4.929929e+01
1.540000e-06	-1.399380e-06	-6.765531e-10	-9.732389e+00	-4.887090e+01
1.550000e-06	-1.353905e-06	-6.699502e-10	-9.416119e+00	-4.843109e+01
1.560000e-06	-1.308359e-06	-6.656841e-10	-9.099358e+00	-4.797943e+01
1.570000e-06	-1.262761e-06	-6.619290e-10	-8.782234e+00	-4.751545e+01
1.580000e-06	-1.217034e-06	-6.582431e-10	-8.464213e+00	-4.703864e+01
1.590000e-06	-1.171259e-06	-6.559649e-10	-8.145855e+00	-4.654846e+01
1.600000e-06	-1.125461e-06	-6.504895e-10	-7.827339e+00	-4.604432e+01
1.610000e-06	-1.079563e-06	-6.416545e-10	-7.508134e+00	-4.552558e+01
1.620000e-06	-1.033619e-06	-6.325868e-10	-7.188601e+00	-4.499159e+01
1.630000e-06	-9.875550e-07	-6.236620e-10	-6.868235e+00	-4.444161e+01
1.640000e-06	-9.413993e-07	-6.147527e-10	-6.547231e+00	-4.387489e+01
1.650000e-06	-8.952287e-07	-6.061318e-10	-6.226125e+00	-4.329065e+01
1.660000e-06	-8.490294e-07	-5.962788e-10	-5.904819e+00	-4.268804e+01
1.670000e-06	-8.027804e-07	-5.856376e-10	-5.583167e+00	-4.206620e+01
1.680000e-06	-7.564365e-07	-5.731670e-10	-5.260855e+00	-4.142424e+01
1.690000e-06	-7.099755e-07	-5.604126e-10	-4.937729e+00	-4.076123e+01
1.700000e-06	-6.633907e-07	-5.465765e-10	-4.613741e+00	-4.007625e+01
1.710000e-06	-6.168501e-07	-5.349455e-10	-4.290061e+00	-3.936834e+01
1.720000e-06	-5.703990e-07	-5.272390e-10	-3.967003e+00	-3.863656e+01
1.730000e-06	-5.239231e-07	-5.211461e-10	-3.643773e+00	-3.787996e+01
1.740000e-06	-4.772851e-07	-5.114237e-10	-3.319416e+00	-3.709761e+01
1.750000e-06	-4.305183e-07	-4.965680e-10	-2.994163e+00	-3.628860e+01
1.760000e-06	-3.838137e-07	-4.791768e-10	-2.669342e+00	-3.545206e+01
1.770000e-06	-3.370881e-07	-4.631508e-10	-2.344376e+00	-3.458716e+01
1.780000e-06	-2.903170e-07	-4.514299e-10	-2.019093e+00	-3.369311e+01
1.790000e-06	-2.435582e-07	-4.415115e-10	-1.693896e+00	-3.276920e+01
1.800000e-06	-1.967513e-07	-4.312792e-10	-1.368364e+00	-3.181477e+01
1.810000e-06	-1.498807e-07	-4.185010e-10	-1.042388e+00	-3.082927e+01
1.820000e-06	-1.030405e-07	-4.032072e-10	-7.166245e-01	-2.981222e+01
1.830000e-06	-5.630312e-08	-3.862308e-10	-3.915762e-01	-2.876324e+01
1.840000e-06	-9.543787e-09	-3.695719e-10	-6.637501e-02	-2.768207e+01
1.850000e-06	3.721703e-08	-3.523354e-10	2.588365e-01	-2.656856e+01
1.860000e-06	8.396176e-08	-3.354751e-10	5.839361e-01	-2.542267e+01
1.870000e-06	1.307817e-07	-3.181159e-10	9.095590e-01	-2.424450e+01
1.880000e-06	1.776598e-07	-3.019883e-10	1.235586e+00	-2.303429e+01
1.890000e-06	2.245335e-07	-2.878819e-10	1.561583e+00	-2.179240e+01
1.900000e-06	2.713809e-07	-2.734771e-10	1.887396e+00	-2.051932e+01
1.910000e-06	3.181869e-07	-2.575391e-10	2.212922e+00	-1.921571e+01
1.920000e-06	3.648950e-07	-2.411576e-10	2.537767e+00	-1.788235e+01
1.930000e-06	4.115949e-07	-2.226795e-10	2.862555e+00	-1.652015e+01
1.940000e-06	4.581816e-07	-1.999950e-10	3.186556e+00	-1.513018e+01
1.950000e-06	5.046129e-07	-1.755032e-10	3.509475e+00	-1.371363e+01
1.960000e-06	5.510473e-07	-1.551181e-10	3.832416e+00	-1.227181e+01
1.970000e-06	5.975281e-07	-1.377345e-10	4.155680e+00	-1.080617e+01
1.980000e-06	6.439548e-07	-1.214458e-10	4.478569e+00	-9.318270e+00
1.990000e-06	6.902846e-07	-1.029024e-10	4.800782e+00	-7.809766e+00
2.000000e-06	7.365879e-07	-7.999083e-11	5.122812e+00	-6.282429e+00
2.010000e-06	7.828095e-07	-5.384588e-11	5.444273e+00	-4.738114e+00
2.020000e-06	8.290375e-07	-2.768835e-11	5.765779e+00	-3.178757e+00
2.030000e-06	8.753115e-07	-5.071421e-12	6.087605e+00	-1.606363e+00
2.040000e-06	9.215083e-07	1.417144e-11	6.408894e+00	-2.299540e-02
2.050000e-06	9.675758e-07	3.274381e-11	6.729283e+00	1.569237e+00
2.060000e-06	1.013503e-06	5.295855e-11	7.048697e+00	3.168191e+00
2.070000e-06	1.059383e-06	7.478181e-11	7.367780e+00	4.771698e+00
2.080000e-06	1.105272e-06	1.002229e-10	7.686930e+00	6.377583e+00
2.090000e-06	1.151133e-06	1.275093e-10	8.005882e+00	7.983670e+00
2.100000e-06	1.196915e-06	1.542108e-10	8.324287e+00	9.587797e+00
2.110000e-06	1.242585e-06	1.785012e-10	8.641912e+00	1.118783e+01
2.120000e-06	1.288101e-06	2.000245e-10	8.958470e+00	1.278166e+01
2.130000e-06	1.333492e-06	2.189873e-10	9.274155e+00	1.436724e+01
2.140000e-06	1.378820e-06	2.377086e-10	9.589401e+00	1.594257e+01
2.150000e-06	1.424064e-06	2.585373e-10	9.904061e+00	1.750572e+01
2.160000e-06	1.469151e-06	2.808307e-10	1.021763e+01	1.905484e+01
2.170000e-06	1.514103e-06	3.035616e-10	1.053026e+01	2.058814e+01
2.180000e-06	1.558951e-06	3.263802e-10	1.084217e+01	2.210395e+01
2.190000e-06	1.603673e-06	3.481717e-10	1.115320e+01	2.360068e+01
2.200000e-06	1.648314e-06	3.689452e-10	1.146367e+01	2.507685e+01
2.210000e-06	1.692812e-06	3.852012e-10	1.177315e+01	2.653107e+01
2.220000e-06	1.737146e-06	3.987469e-10	1.208148e+01	2.796208e+01
2.230000e-06	1.781469e-06	4.135066e-10	1.238974e+01	2.936872e+01
2.240000e-06	1.825768e-06	4.294191e-10	1.269783e+01	3.074994e+01
2.250000e-06	1.869885e-06	4.472748e-10	1.300465e+01	3.210483e+01
2.260000e-06	1.913840e-06	4.706146e-10	1.331035e+01	3.343257e+01
2.270000e-06	1.957718e-06	4.962309e-10	1.361551e+01	3.473245e+01
2.280000e-06	2.001556e-06	5.185735e-10	1.392039e+01	3.600390e+01
2.290000e-06	2.045336e-06	5.352129e-10	1.422488e+01	3.724644e+01
2.300000e-06	2.089050e-06	5.482301e-10	1.452889e+01	3.845971e+01
2.310000e-06	2.132717e-06	5.583937e-10	1.483260e+01	3.964343e+01
2.320000e-06	2.176283e-06	5.657740e-10	1.513558e+01	4.079744e+01
2.330000e-06	2.219719e-06	5.760790e-10	1.543767e+01	4.192168e+01
2.340000e-06	2.262965e-06	5.912844e-10	1.573844e+01	4.301616e+01
2.350000e-06	2.305941e-06	6.116159e-10	1.603733e+01	4.408098e+01
2.360000e-06	2.348683e-06	6.311699e-10	1.633459e+01	4.511632e+01
2.370000e-06	2.391216e-06	6.472519e-10	1.663040e+01	4.612243e+01
2.380000e-06	2.433556e-06	6.601967e-10	1.692487e+01	4.709962e+01
2.390000e-06	2.475697e-06	6.697118e-10	1.721794e+01	4.804828e+01
2.400000e-06	2.517488e-06	6.781173e-10	1.750859e+01	4.896882e+01
2.410000e-06	2.558802e-06	6.885594e-10	1.779592e+01	4.986170e+01
2.420000e-06	2.599700e-06	7.010523e-10	1.808036e+01	5.072745e+01
2.430000e-06	2.640352e-06	7.160388e-10	1.836309e+01	5.156659e+01
2.440000e-06	2.680827e-06	7.314178e-10	1.864458e+01	5.237969e+01
2.450000e-06	2.721141e-06	7.456250e-10	1.892496e+01	5.316734e+01
2.460000e-06	2.761301e-06	7.583142e-10	1.920426e+01	5.393014e+01
2.470000e-06	2.801269e-06	7.681721e-10	1.948223e+01	5.466869e+01
2.480000e-06	2.841111e-06	7.752575e-10	1.975932e+01	5.538361e+01
2.490000e-06	2.880884e-06	7.826919e-10	2.003594e+01	5.607551e+01
2.500000e-06	2.920574e-06	7.926067e-10	2.031197e+01	5.674501e+01
2.510000e-06	2.960128e-06	8.025800e-10	2.058706e+01	5.739269e+01
2.520000e-06	2.999434e-06	8.116560e-10	2.086042e+01	5.801915e+01
2.530000e-06	3.038517e-06	8.216749e-10	2.113224e+01	5.862497e+01
2.540000e-06	3.077481e-06	8.323330e-10	2.140322e+01	5.921072e+01
2.550000e-06	3.116219e-06	8.413205e-10	2.167264e+01	5.977693e+01
2.560000e-06	3.154662e-06	8.478558e-10	2.194000e+01	6.032413e+01
2.570000e-06	3.192819e-06	8.527394e-10	2.220538e+01	6.085283e+01
2.580000e-06	3.230743e-06	8.578534e-10	2.246913e+01	6.136352e+01
2.590000e-06	3.268525e-06	8.626982e-10	2.273189e+01	6.185667e+01
2.600000e-06	3.306136e-06	8.698188e-10	2.299347e+01	6.233274e+01
2.610000e-06	3.343444e-06	8.811692e-10	2.325294e+01	6.279215e+01
2.620000e-06	3.380462e-06	8.920772e-10	2.351039e+01	6.323533e+01
2.630000e-06	3.417236e-06	9.006782e-10	2.376615e+01	6.366269e+01
2.640000e-06	3.453694e-06	9.051313e-10	2.401971e+01	6.407461e+01
2.650000e-06	3.489921e-06	9.060468e-10	2.427165e+01	6.447148e+01
2.660000e-06	3.526044e-06	9.071288e-10	2.452288e+01	6.485366e+01
2.670000e-06	3.562070e-06	9.091141e-10	2.477344e+01	6.522153e+01
2.680000e-06	3.597940e-06	9.128301e-10	2.502291e+01	6.557544e+01
2.690000e-06	3.633659e-06	9.196744e-10	2.527132e+01	6.591575e+01
2.700000e-06	3.669153e-06	9.292234e-10	2.551818e+01	6.624280e+01
2.710000e-06	3.704445e-06	9.373876e-10	2.576362e+01	6.655697e+01
2.720000e-06	3.739546e-06	9.442721e-10	2.600774e+01	6.685859e+01
2.730000e-06	3.774273e-06	9.487258e-10	2.624926e+01	6.714804e+01
2.740000e-06	3.808482e-06	9.521195e-10	2.648718e+01	6.742567e+01
2.750000e-06	3.842248e-06	9.556497e-10	2.672201e+01	6.769185e+01
2.760000e-06	3.875610e-06	9.595371e-10	2.695404e+01	6.794697e+01
2.770000e-06	3.908508e-06	9.644823e-10	2.718284e+01	6.819139e+01
2.780000e-06	3.941033e-06	9.698660e-10	2.740904e+01	6.842552e+01
2.790000e-06	3.973231e-06	9.752889e-10	2.763297e+01	6.864974e+01
2.800000e-06	4.005184e-06	9.803172e-10	2.785520e+01	6.886445e+01
2.810000e-06	4.036985e-06	9.842545e-10	2.807637e+01	6.907005e+01
2.820000e-06	4.068642e-06	9.893054e-10	2.829653e+01	6.926697e+01
2.830000e-06	4.100081e-06	9.941615e-10	2.851519e+01	6.945560e+01
2.840000e-06	4.131280e-06	9.972689e-10	2.873217e+01	6.963636e+01
2.850000e-06	4.162249e-06	9.992346e-10	2.894755e+01	6.980966e+01
2.860000e-06	4.192829e-06	1.001947e-09	2.916023e+01	6.997591e+01
2.870000e-06	4.223052e-06	1.005383e-09	2.937043e+01	7.013553e+01
2.880000e-06	4.253018e-06	1.010436e-09	2.957884e+01	7.028889e+01
2.890000e-06	4.282637e-06	1.017057e-09	2.978483e+01	7.043641e+01
2.900000e-06	4.311966e-06	1.021117e-09	2.998881e+01	7.057846e+01
