# Temperatura_=_10.66
# Concentracion g/m^3_=_1620.0
# C_Vs_to_Am_M_A/Vsm_=_65563218390.804596
# pendiente_HvsI_1/m_=_3716.3
# ordenada_HvsI_A/m_=_1297.0
# frecuencia_Hz_=_135103.01034176452

Tiempo_(s)	Campo_(V.s)	Magnetizacion_(V.s)	Campo_(kA/m)	Magnetizacion_(A/m)
0.000000e+00	-5.531984e-06	-1.370603e-09	-3.837330e+01	-9.301586e+01
1.000000e-08	-5.532205e-06	-1.371704e-09	-3.837484e+01	-9.301954e+01
2.000000e-08	-5.532257e-06	-1.373747e-09	-3.837520e+01	-9.302366e+01
3.000000e-08	-5.532049e-06	-1.376151e-09	-3.837375e+01	-9.302796e+01
4.000000e-08	-5.531411e-06	-1.377616e-09	-3.836933e+01	-9.303220e+01
5.000000e-08	-5.530127e-06	-1.374473e-09	-3.836042e+01	-9.303605e+01
6.000000e-08	-5.528091e-06	-1.365168e-09	-3.834630e+01	-9.303919e+01
7.000000e-08	-5.525370e-06	-1.346074e-09	-3.832742e+01	-9.304126e+01
8.000000e-08	-5.522178e-06	-1.342384e-09	-3.830528e+01	-9.304187e+01
9.000000e-08	-5.518597e-06	-1.404785e-09	-3.828045e+01	-9.304061e+01
1.000000e-07	-5.514580e-06	-1.489240e-09	-3.825258e+01	-9.303703e+01
1.100000e-07	-5.510129e-06	-1.441334e-09	-3.822171e+01	-9.303068e+01
1.200000e-07	-5.505568e-06	-1.278654e-09	-3.819007e+01	-9.302109e+01
1.300000e-07	-5.500981e-06	-1.278580e-09	-3.815825e+01	-9.300779e+01
1.400000e-07	-5.495887e-06	-1.408802e-09	-3.812291e+01	-9.299027e+01
1.500000e-07	-5.490176e-06	-1.438793e-09	-3.808330e+01	-9.296806e+01
1.600000e-07	-5.484159e-06	-1.307818e-09	-3.804156e+01	-9.294067e+01
1.700000e-07	-5.477950e-06	-1.288407e-09	-3.799849e+01	-9.290763e+01
1.800000e-07	-5.471279e-06	-1.456623e-09	-3.795222e+01	-9.286849e+01
1.900000e-07	-5.464053e-06	-1.502612e-09	-3.790209e+01	-9.282281e+01
2.000000e-07	-5.456530e-06	-1.374920e-09	-3.784991e+01	-9.277021e+01
2.100000e-07	-5.448836e-06	-1.282628e-09	-3.779654e+01	-9.271032e+01
2.200000e-07	-5.440890e-06	-1.376580e-09	-3.774142e+01	-9.264283e+01
2.300000e-07	-5.432582e-06	-1.436950e-09	-3.768379e+01	-9.256748e+01
2.400000e-07	-5.424013e-06	-1.399191e-09	-3.762435e+01	-9.248407e+01
2.500000e-07	-5.414855e-06	-1.356570e-09	-3.756083e+01	-9.239244e+01
2.600000e-07	-5.404708e-06	-1.408432e-09	-3.749044e+01	-9.229253e+01
2.700000e-07	-5.393922e-06	-1.411534e-09	-3.741562e+01	-9.218433e+01
2.800000e-07	-5.382751e-06	-1.349550e-09	-3.733813e+01	-9.206789e+01
2.900000e-07	-5.371177e-06	-1.325503e-09	-3.725785e+01	-9.194336e+01
3.000000e-07	-5.359284e-06	-1.380990e-09	-3.717535e+01	-9.181094e+01
3.100000e-07	-5.347103e-06	-1.399362e-09	-3.709085e+01	-9.167092e+01
3.200000e-07	-5.334484e-06	-1.357033e-09	-3.700332e+01	-9.152365e+01
3.300000e-07	-5.321358e-06	-1.351943e-09	-3.691227e+01	-9.136953e+01
3.400000e-07	-5.307901e-06	-1.396296e-09	-3.681892e+01	-9.120905e+01
3.500000e-07	-5.294117e-06	-1.401341e-09	-3.672331e+01	-9.104273e+01
3.600000e-07	-5.279831e-06	-1.340283e-09	-3.662421e+01	-9.087115e+01
3.700000e-07	-5.265004e-06	-1.335606e-09	-3.652137e+01	-9.069492e+01
3.800000e-07	-5.249694e-06	-1.376636e-09	-3.641516e+01	-9.051469e+01
3.900000e-07	-5.233862e-06	-1.359189e-09	-3.630535e+01	-9.033112e+01
4.000000e-07	-5.217384e-06	-1.316172e-09	-3.619104e+01	-9.014487e+01
4.100000e-07	-5.200579e-06	-1.368318e-09	-3.607447e+01	-8.995662e+01
4.200000e-07	-5.183685e-06	-1.380769e-09	-3.595728e+01	-8.976702e+01
4.300000e-07	-5.166437e-06	-1.304119e-09	-3.583764e+01	-8.957671e+01
4.400000e-07	-5.148822e-06	-1.304559e-09	-3.571546e+01	-8.938628e+01
4.500000e-07	-5.130919e-06	-1.391265e-09	-3.559127e+01	-8.919628e+01
4.600000e-07	-5.112571e-06	-1.337219e-09	-3.546400e+01	-8.900722e+01
4.700000e-07	-5.093672e-06	-1.268434e-09	-3.533290e+01	-8.881952e+01
4.800000e-07	-5.074394e-06	-1.331641e-09	-3.519917e+01	-8.863357e+01
4.900000e-07	-5.054859e-06	-1.363701e-09	-3.506367e+01	-8.844966e+01
5.000000e-07	-5.035097e-06	-1.287441e-09	-3.492659e+01	-8.826799e+01
5.100000e-07	-5.015227e-06	-1.312995e-09	-3.478875e+01	-8.808870e+01
5.200000e-07	-4.995107e-06	-1.352880e-09	-3.464919e+01	-8.791184e+01
5.300000e-07	-4.974565e-06	-1.284493e-09	-3.450670e+01	-8.773737e+01
5.400000e-07	-4.953623e-06	-1.277365e-09	-3.436143e+01	-8.756517e+01
5.500000e-07	-4.932407e-06	-1.357798e-09	-3.421426e+01	-8.739505e+01
5.600000e-07	-4.910827e-06	-1.307163e-09	-3.406457e+01	-8.722673e+01
5.700000e-07	-4.888817e-06	-1.239228e-09	-3.391190e+01	-8.705989e+01
5.800000e-07	-4.866464e-06	-1.304197e-09	-3.375684e+01	-8.689412e+01
5.900000e-07	-4.843769e-06	-1.326015e-09	-3.359941e+01	-8.672897e+01
6.000000e-07	-4.820723e-06	-1.261678e-09	-3.343955e+01	-8.656396e+01
6.100000e-07	-4.797399e-06	-1.285215e-09	-3.327776e+01	-8.639858e+01
6.200000e-07	-4.773829e-06	-1.321080e-09	-3.311427e+01	-8.623227e+01
6.300000e-07	-4.750043e-06	-1.269618e-09	-3.294927e+01	-8.606451e+01
6.400000e-07	-4.726112e-06	-1.259369e-09	-3.278327e+01	-8.589474e+01
6.500000e-07	-4.701880e-06	-1.292407e-09	-3.261518e+01	-8.572245e+01
6.600000e-07	-4.677030e-06	-1.271400e-09	-3.244281e+01	-8.554713e+01
6.700000e-07	-4.651660e-06	-1.252914e-09	-3.226683e+01	-8.536832e+01
6.800000e-07	-4.625906e-06	-1.283108e-09	-3.208818e+01	-8.518560e+01
6.900000e-07	-4.599560e-06	-1.274560e-09	-3.190543e+01	-8.499859e+01
7.000000e-07	-4.572653e-06	-1.253159e-09	-3.171879e+01	-8.480700e+01
7.100000e-07	-4.545301e-06	-1.260797e-09	-3.152906e+01	-8.461057e+01
7.200000e-07	-4.517696e-06	-1.257562e-09	-3.133757e+01	-8.440912e+01
7.300000e-07	-4.489991e-06	-1.234547e-09	-3.114539e+01	-8.420255e+01
7.400000e-07	-4.462192e-06	-1.244174e-09	-3.095255e+01	-8.399082e+01
7.500000e-07	-4.434205e-06	-1.253375e-09	-3.075842e+01	-8.377396e+01
7.600000e-07	-4.405875e-06	-1.244774e-09	-3.056191e+01	-8.355206e+01
7.700000e-07	-4.377190e-06	-1.238008e-09	-3.036293e+01	-8.332527e+01
7.800000e-07	-4.348188e-06	-1.238014e-09	-3.016176e+01	-8.309380e+01
7.900000e-07	-4.318837e-06	-1.223216e-09	-2.995816e+01	-8.285791e+01
8.000000e-07	-4.289189e-06	-1.220354e-09	-2.975250e+01	-8.261789e+01
8.100000e-07	-4.259360e-06	-1.221174e-09	-2.954559e+01	-8.237407e+01
8.200000e-07	-4.229256e-06	-1.209351e-09	-2.933677e+01	-8.212678e+01
8.300000e-07	-4.198730e-06	-1.200468e-09	-2.912502e+01	-8.187638e+01
8.400000e-07	-4.167947e-06	-1.207741e-09	-2.891149e+01	-8.162322e+01
8.500000e-07	-4.136894e-06	-1.203321e-09	-2.869609e+01	-8.136762e+01
8.600000e-07	-4.105492e-06	-1.192501e-09	-2.847826e+01	-8.110991e+01
8.700000e-07	-4.073942e-06	-1.192802e-09	-2.825941e+01	-8.085037e+01
8.800000e-07	-4.042277e-06	-1.189329e-09	-2.803976e+01	-8.058924e+01
8.900000e-07	-4.010472e-06	-1.172070e-09	-2.781914e+01	-8.032672e+01
9.000000e-07	-3.978512e-06	-1.167642e-09	-2.759745e+01	-8.006293e+01
9.100000e-07	-3.946268e-06	-1.169381e-09	-2.737378e+01	-7.979798e+01
9.200000e-07	-3.913601e-06	-1.159610e-09	-2.714719e+01	-7.953186e+01
9.300000e-07	-3.880497e-06	-1.157691e-09	-2.691756e+01	-7.926453e+01
9.400000e-07	-3.846931e-06	-1.165748e-09	-2.668472e+01	-7.899589e+01
9.500000e-07	-3.812821e-06	-1.158847e-09	-2.644811e+01	-7.872575e+01
9.600000e-07	-3.778195e-06	-1.140304e-09	-2.620792e+01	-7.845387e+01
9.700000e-07	-3.743168e-06	-1.136026e-09	-2.596496e+01	-7.817997e+01
9.800000e-07	-3.707865e-06	-1.129006e-09	-2.572007e+01	-7.790370e+01
9.900000e-07	-3.672373e-06	-1.116350e-09	-2.547388e+01	-7.762467e+01
1.000000e-06	-3.636734e-06	-1.113612e-09	-2.522667e+01	-7.734247e+01
1.010000e-06	-3.600975e-06	-1.118746e-09	-2.497861e+01	-7.705665e+01
1.020000e-06	-3.565107e-06	-1.112136e-09	-2.472981e+01	-7.676675e+01
1.030000e-06	-3.529082e-06	-1.106305e-09	-2.447992e+01	-7.647230e+01
1.040000e-06	-3.492826e-06	-1.107428e-09	-2.422843e+01	-7.617285e+01
1.050000e-06	-3.456316e-06	-1.103864e-09	-2.397517e+01	-7.586795e+01
1.060000e-06	-3.419549e-06	-1.093204e-09	-2.372013e+01	-7.555720e+01
1.070000e-06	-3.382538e-06	-1.089413e-09	-2.346340e+01	-7.524020e+01
1.080000e-06	-3.345252e-06	-1.084904e-09	-2.320476e+01	-7.491662e+01
1.090000e-06	-3.307696e-06	-1.076912e-09	-2.294425e+01	-7.458618e+01
1.100000e-06	-3.269877e-06	-1.071821e-09	-2.268191e+01	-7.424866e+01
1.110000e-06	-3.231817e-06	-1.071447e-09	-2.241790e+01	-7.390389e+01
1.120000e-06	-3.193554e-06	-1.065619e-09	-2.215249e+01	-7.355179e+01
1.130000e-06	-3.155058e-06	-1.061879e-09	-2.188545e+01	-7.319232e+01
1.140000e-06	-3.116301e-06	-1.057353e-09	-2.161662e+01	-7.282554e+01
1.150000e-06	-3.077374e-06	-1.049110e-09	-2.134660e+01	-7.245155e+01
1.160000e-06	-3.038243e-06	-1.037348e-09	-2.107516e+01	-7.207054e+01
1.170000e-06	-2.998868e-06	-1.029809e-09	-2.080203e+01	-7.168275e+01
1.180000e-06	-2.959362e-06	-1.024927e-09	-2.052799e+01	-7.128847e+01
1.190000e-06	-2.919776e-06	-1.021096e-09	-2.025339e+01	-7.088804e+01
1.200000e-06	-2.880030e-06	-1.020222e-09	-1.997769e+01	-7.048183e+01
1.210000e-06	-2.840155e-06	-1.016469e-09	-1.970110e+01	-7.007026e+01
1.220000e-06	-2.800261e-06	-1.007440e-09	-1.942436e+01	-6.965376e+01
1.230000e-06	-2.760226e-06	-9.991718e-10	-1.914666e+01	-6.923275e+01
1.240000e-06	-2.720003e-06	-9.929699e-10	-1.886765e+01	-6.880768e+01
1.250000e-06	-2.679594e-06	-9.863384e-10	-1.858734e+01	-6.837895e+01
1.260000e-06	-2.638856e-06	-9.833869e-10	-1.830476e+01	-6.794697e+01
1.270000e-06	-2.597780e-06	-9.804985e-10	-1.801983e+01	-6.751208e+01
1.280000e-06	-2.556317e-06	-9.740492e-10	-1.773222e+01	-6.707461e+01
1.290000e-06	-2.514534e-06	-9.650854e-10	-1.744238e+01	-6.663482e+01
1.300000e-06	-2.472538e-06	-9.574751e-10	-1.715107e+01	-6.619292e+01
1.310000e-06	-2.430183e-06	-9.495590e-10	-1.685727e+01	-6.574903e+01
1.320000e-06	-2.387484e-06	-9.415023e-10	-1.656109e+01	-6.530322e+01
1.330000e-06	-2.344527e-06	-9.340808e-10	-1.626311e+01	-6.485549e+01
1.340000e-06	-2.301372e-06	-9.269902e-10	-1.596376e+01	-6.440575e+01
1.350000e-06	-2.258101e-06	-9.201156e-10	-1.566360e+01	-6.395384e+01
1.360000e-06	-2.214710e-06	-9.158895e-10	-1.536262e+01	-6.349953e+01
1.370000e-06	-2.171174e-06	-9.081615e-10	-1.506062e+01	-6.304250e+01
1.380000e-06	-2.127532e-06	-8.993319e-10	-1.475790e+01	-6.258238e+01
1.390000e-06	-2.083811e-06	-8.883609e-10	-1.445462e+01	-6.211874e+01
1.400000e-06	-2.040000e-06	-8.799847e-10	-1.415072e+01	-6.165106e+01
1.410000e-06	-1.996060e-06	-8.706402e-10	-1.384592e+01	-6.117880e+01
1.420000e-06	-1.952008e-06	-8.622467e-10	-1.354035e+01	-6.070136e+01
1.430000e-06	-1.907901e-06	-8.561398e-10	-1.323440e+01	-6.021813e+01
1.440000e-06	-1.863681e-06	-8.525489e-10	-1.292766e+01	-5.972843e+01
1.450000e-06	-1.819348e-06	-8.457748e-10	-1.262014e+01	-5.923158e+01
1.460000e-06	-1.774956e-06	-8.358711e-10	-1.231221e+01	-5.872690e+01
1.470000e-06	-1.730481e-06	-8.241682e-10	-1.200370e+01	-5.821369e+01
1.480000e-06	-1.685803e-06	-8.134971e-10	-1.169379e+01	-5.769124e+01
1.490000e-06	-1.640909e-06	-8.049640e-10	-1.138237e+01	-5.715886e+01
1.500000e-06	-1.595897e-06	-7.967070e-10	-1.107014e+01	-5.661587e+01
1.510000e-06	-1.550838e-06	-7.894698e-10	-1.075758e+01	-5.606158e+01
1.520000e-06	-1.505683e-06	-7.821511e-10	-1.044436e+01	-5.549535e+01
1.530000e-06	-1.460411e-06	-7.742383e-10	-1.013033e+01	-5.491651e+01
1.540000e-06	-1.415126e-06	-7.641665e-10	-9.816199e+00	-5.432445e+01
1.550000e-06	-1.369762e-06	-7.530298e-10	-9.501527e+00	-5.371854e+01
1.560000e-06	-1.324241e-06	-7.413349e-10	-9.185766e+00	-5.309816e+01
1.570000e-06	-1.278607e-06	-7.304471e-10	-8.869221e+00	-5.246273e+01
1.580000e-06	-1.232919e-06	-7.200510e-10	-8.552301e+00	-5.181162e+01
1.590000e-06	-1.187183e-06	-7.114849e-10	-8.235047e+00	-5.114424e+01
1.600000e-06	-1.141358e-06	-7.034748e-10	-7.917175e+00	-5.045996e+01
1.610000e-06	-1.095336e-06	-6.942550e-10	-7.597935e+00	-4.975815e+01
1.620000e-06	-1.049214e-06	-6.833812e-10	-7.278008e+00	-4.903815e+01
1.630000e-06	-1.003044e-06	-6.738351e-10	-6.957742e+00	-4.829928e+01
1.640000e-06	-9.568215e-07	-6.633813e-10	-6.637113e+00	-4.754083e+01
1.650000e-06	-9.105746e-07	-6.496953e-10	-6.316315e+00	-4.676203e+01
1.660000e-06	-8.641888e-07	-6.330003e-10	-5.994555e+00	-4.596210e+01
1.670000e-06	-8.177522e-07	-6.180970e-10	-5.672441e+00	-4.514021e+01
1.680000e-06	-7.713032e-07	-6.036492e-10	-5.350242e+00	-4.429547e+01
1.690000e-06	-7.248491e-07	-5.892854e-10	-5.028008e+00	-4.342698e+01
1.700000e-06	-6.783579e-07	-5.753520e-10	-4.705515e+00	-4.253378e+01
1.710000e-06	-6.317461e-07	-5.623966e-10	-4.382187e+00	-4.161488e+01
1.720000e-06	-5.850693e-07	-5.493896e-10	-4.058407e+00	-4.066927e+01
1.730000e-06	-5.383116e-07	-5.355028e-10	-3.734066e+00	-3.969592e+01
1.740000e-06	-4.915324e-07	-5.187359e-10	-3.409577e+00	-3.869379e+01
1.750000e-06	-4.447247e-07	-4.990262e-10	-3.084889e+00	-3.766186e+01
1.760000e-06	-3.978722e-07	-4.777395e-10	-2.759891e+00	-3.659909e+01
1.770000e-06	-3.509983e-07	-4.590967e-10	-2.434744e+00	-3.550451e+01
1.780000e-06	-3.040739e-07	-4.440291e-10	-2.109247e+00	-3.437718e+01
1.790000e-06	-2.571462e-07	-4.294629e-10	-1.783727e+00	-3.321623e+01
1.800000e-06	-2.102018e-07	-4.140642e-10	-1.458091e+00	-3.202088e+01
1.810000e-06	-1.632328e-07	-3.984497e-10	-1.132285e+00	-3.079042e+01
1.820000e-06	-1.162735e-07	-3.829245e-10	-8.065456e-01	-2.952430e+01
1.830000e-06	-6.937178e-08	-3.658716e-10	-4.812061e-01	-2.822208e+01
1.840000e-06	-2.252619e-08	-3.482434e-10	-1.562558e-01	-2.688345e+01
1.850000e-06	2.430708e-08	-3.301727e-10	1.686091e-01	-2.550832e+01
1.860000e-06	7.120045e-08	-3.102806e-10	4.938909e-01	-2.409672e+01
1.870000e-06	1.181508e-07	-2.892929e-10	8.195678e-01	-2.264892e+01
1.880000e-06	1.651217e-07	-2.693076e-10	1.145387e+00	-2.116534e+01
1.890000e-06	2.120223e-07	-2.497525e-10	1.470719e+00	-1.964666e+01
1.900000e-06	2.588641e-07	-2.289635e-10	1.795643e+00	-1.809373e+01
1.910000e-06	3.057389e-07	-2.067423e-10	2.120796e+00	-1.650765e+01
1.920000e-06	3.526024e-07	-1.848789e-10	2.445871e+00	-1.488969e+01
1.930000e-06	3.994557e-07	-1.622795e-10	2.770875e+00	-1.324137e+01
1.940000e-06	4.463459e-07	-1.393514e-10	3.096135e+00	-1.156440e+01
1.950000e-06	4.932175e-07	-1.155969e-10	3.421266e+00	-9.860681e+00
1.960000e-06	5.399962e-07	-9.255476e-11	3.745752e+00	-8.132296e+00
1.970000e-06	5.866609e-07	-7.131162e-11	4.069447e+00	-6.381502e+00
1.980000e-06	6.331802e-07	-5.127187e-11	4.392134e+00	-4.610702e+00
1.990000e-06	6.796204e-07	-2.988321e-11	4.714273e+00	-2.822435e+00
2.000000e-06	7.260068e-07	-5.124353e-12	5.036037e+00	-1.019349e+00
2.010000e-06	7.723887e-07	2.337799e-11	5.357772e+00	7.958181e-01
2.020000e-06	8.187939e-07	5.376436e-11	5.679667e+00	2.620263e+00
2.030000e-06	8.651123e-07	8.210603e-11	6.000961e+00	4.451140e+00
2.040000e-06	9.112993e-07	1.061404e-10	6.321343e+00	6.285588e+00
2.050000e-06	9.574266e-07	1.286041e-10	6.641311e+00	8.120752e+00
2.060000e-06	1.003486e-06	1.530309e-10	6.960804e+00	9.953812e+00
2.070000e-06	1.049486e-06	1.786143e-10	7.279894e+00	1.178200e+01
2.080000e-06	1.095513e-06	2.051697e-10	7.599166e+00	1.360262e+01
2.090000e-06	1.141478e-06	2.342926e-10	7.918003e+00	1.541310e+01
2.100000e-06	1.187277e-06	2.634835e-10	8.235694e+00	1.721094e+01
2.110000e-06	1.232988e-06	2.899851e-10	8.552779e+00	1.899382e+01
2.120000e-06	1.278645e-06	3.132441e-10	8.869484e+00	2.075954e+01
2.130000e-06	1.324179e-06	3.328575e-10	9.185334e+00	2.250607e+01
2.140000e-06	1.369586e-06	3.511356e-10	9.500304e+00	2.423155e+01
2.150000e-06	1.414950e-06	3.717370e-10	9.814979e+00	2.593430e+01
2.160000e-06	1.460297e-06	3.971017e-10	1.012953e+01	2.761282e+01
2.170000e-06	1.505536e-06	4.254282e-10	1.044334e+01	2.926578e+01
2.180000e-06	1.550646e-06	4.513482e-10	1.075625e+01	3.089207e+01
2.190000e-06	1.595575e-06	4.728255e-10	1.106791e+01	3.249071e+01
2.200000e-06	1.640327e-06	4.917984e-10	1.137834e+01	3.406093e+01
2.210000e-06	1.684989e-06	5.084527e-10	1.168814e+01	3.560211e+01
2.220000e-06	1.729607e-06	5.252939e-10	1.199764e+01	3.711379e+01
2.230000e-06	1.774156e-06	5.449275e-10	1.230666e+01	3.859565e+01
2.240000e-06	1.818482e-06	5.652675e-10	1.261413e+01	4.004752e+01
2.250000e-06	1.862607e-06	5.843599e-10	1.292021e+01	4.146933e+01
2.260000e-06	1.906683e-06	6.046971e-10	1.322594e+01	4.286113e+01
2.270000e-06	1.950706e-06	6.257054e-10	1.353132e+01	4.422305e+01
2.280000e-06	1.994592e-06	6.454781e-10	1.383574e+01	4.555530e+01
2.290000e-06	2.038350e-06	6.634094e-10	1.413927e+01	4.685815e+01
2.300000e-06	2.082057e-06	6.801784e-10	1.444245e+01	4.813195e+01
2.310000e-06	2.125750e-06	6.976603e-10	1.474553e+01	4.937703e+01
2.320000e-06	2.169383e-06	7.155753e-10	1.504820e+01	5.059380e+01
2.330000e-06	2.212946e-06	7.316406e-10	1.535038e+01	5.178266e+01
2.340000e-06	2.256391e-06	7.458385e-10	1.565174e+01	5.294401e+01
2.350000e-06	2.299682e-06	7.605599e-10	1.595203e+01	5.407827e+01
2.360000e-06	2.342814e-06	7.752393e-10	1.625122e+01	5.518582e+01
2.370000e-06	2.385687e-06	7.898628e-10	1.654862e+01	5.626705e+01
2.380000e-06	2.428259e-06	8.054331e-10	1.684392e+01	5.732234e+01
2.390000e-06	2.470492e-06	8.202819e-10	1.713688e+01	5.835202e+01
2.400000e-06	2.512375e-06	8.340304e-10	1.742741e+01	5.935644e+01
2.410000e-06	2.554031e-06	8.481220e-10	1.771636e+01	6.033590e+01
2.420000e-06	2.595495e-06	8.615449e-10	1.800398e+01	6.129071e+01
2.430000e-06	2.636632e-06	8.738749e-10	1.828933e+01	6.222113e+01
2.440000e-06	2.677408e-06	8.867018e-10	1.857217e+01	6.312746e+01
2.450000e-06	2.717957e-06	8.984968e-10	1.885345e+01	6.400996e+01
2.460000e-06	2.758334e-06	9.079660e-10	1.913354e+01	6.486890e+01
2.470000e-06	2.798514e-06	9.183752e-10	1.941224e+01	6.570454e+01
2.480000e-06	2.838541e-06	9.309962e-10	1.968990e+01	6.651718e+01
2.490000e-06	2.878408e-06	9.430178e-10	1.996644e+01	6.730711e+01
2.500000e-06	2.918089e-06	9.540798e-10	2.024169e+01	6.807464e+01
2.510000e-06	2.957627e-06	9.655927e-10	2.051595e+01	6.882010e+01
2.520000e-06	2.997073e-06	9.755942e-10	2.078958e+01	6.954386e+01
2.530000e-06	3.036367e-06	9.840725e-10	2.106214e+01	7.024630e+01
2.540000e-06	3.075447e-06	9.929519e-10	2.133323e+01	7.092784e+01
2.550000e-06	3.114270e-06	1.000652e-09	2.160253e+01	7.158891e+01
2.560000e-06	3.152828e-06	1.006677e-09	2.186999e+01	7.222998e+01
2.570000e-06	3.191140e-06	1.013004e-09	2.213574e+01	7.285157e+01
2.580000e-06	3.229181e-06	1.020084e-09	2.239962e+01	7.345418e+01
2.590000e-06	3.266974e-06	1.026787e-09	2.266178e+01	7.403836e+01
2.600000e-06	3.304575e-06	1.032982e-09	2.292260e+01	7.460468e+01
2.610000e-06	3.342003e-06	1.040093e-09	2.318222e+01	7.515371e+01
2.620000e-06	3.379222e-06	1.047495e-09	2.344040e+01	7.568603e+01
2.630000e-06	3.416275e-06	1.053654e-09	2.369742e+01	7.620225e+01
2.640000e-06	3.453138e-06	1.060083e-09	2.395313e+01	7.670295e+01
2.650000e-06	3.489669e-06	1.067561e-09	2.420653e+01	7.718871e+01
2.660000e-06	3.525859e-06	1.074849e-09	2.445757e+01	7.766012e+01
2.670000e-06	3.561870e-06	1.081170e-09	2.470736e+01	7.811772e+01
2.680000e-06	3.597756e-06	1.087063e-09	2.495629e+01	7.856206e+01
2.690000e-06	3.633561e-06	1.093695e-09	2.520465e+01	7.899365e+01
2.700000e-06	3.669229e-06	1.100128e-09	2.545207e+01	7.941299e+01
2.710000e-06	3.704652e-06	1.105845e-09	2.569779e+01	7.982053e+01
2.720000e-06	3.739837e-06	1.112376e-09	2.594185e+01	8.021669e+01
2.730000e-06	3.774774e-06	1.120055e-09	2.618420e+01	8.060188e+01
2.740000e-06	3.809418e-06	1.128331e-09	2.642451e+01	8.097646e+01
2.750000e-06	3.843575e-06	1.137499e-09	2.666144e+01	8.134076e+01
2.760000e-06	3.877197e-06	1.145650e-09	2.689467e+01	8.169509e+01
2.770000e-06	3.910371e-06	1.150113e-09	2.712478e+01	8.203973e+01
2.780000e-06	3.943174e-06	1.153520e-09	2.735232e+01	8.237493e+01
2.790000e-06	3.975569e-06	1.158343e-09	2.757703e+01	8.270092e+01
2.800000e-06	4.007617e-06	1.164532e-09	2.779934e+01	8.301793e+01
2.810000e-06	4.039496e-06	1.170419e-09	2.802047e+01	8.332616e+01
2.820000e-06	4.071235e-06	1.175242e-09	2.824064e+01	8.362581e+01
2.830000e-06	4.102848e-06	1.181686e-09	2.845992e+01	8.391709e+01
2.840000e-06	4.134272e-06	1.188535e-09	2.867790e+01	8.420018e+01
2.850000e-06	4.165419e-06	1.193789e-09	2.889396e+01	8.447532e+01
2.860000e-06	4.196178e-06	1.197412e-09	2.910732e+01	8.474270e+01
2.870000e-06	4.226626e-06	1.200646e-09	2.931852e+01	8.500257e+01
2.880000e-06	4.256785e-06	1.204445e-09	2.952773e+01	8.525519e+01
2.890000e-06	4.286620e-06	1.209110e-09	2.973468e+01	8.550081e+01
2.900000e-06	4.316233e-06	1.215201e-09	2.994009e+01	8.573975e+01
