# Temperatura_=_-14.9
# Concentracion g/m^3_=_1620.0
# C_Vs_to_Am_M_A/Vsm_=_65563218390.804596
# pendiente_HvsI_1/m_=_3716.3
# ordenada_HvsI_A/m_=_1297.0
# frecuencia_Hz_=_135110.1036931371

Tiempo_(s)	Campo_(V.s)	Magnetizacion_(V.s)	Campo_(kA/m)	Magnetizacion_(A/m)
0.000000e+00	-5.522253e-06	-8.810765e-10	-3.836346e+01	-6.073918e+01
1.000000e-08	-5.522390e-06	-8.812724e-10	-3.836441e+01	-6.070109e+01
2.000000e-08	-5.522300e-06	-8.798363e-10	-3.836379e+01	-6.066276e+01
3.000000e-08	-5.521861e-06	-8.777067e-10	-3.836074e+01	-6.062443e+01
4.000000e-08	-5.520938e-06	-8.742225e-10	-3.835433e+01	-6.058634e+01
5.000000e-08	-5.519505e-06	-8.697443e-10	-3.834437e+01	-6.054874e+01
6.000000e-08	-5.517459e-06	-8.767489e-10	-3.833015e+01	-6.051184e+01
7.000000e-08	-5.514812e-06	-8.858939e-10	-3.831177e+01	-6.047584e+01
8.000000e-08	-5.511647e-06	-8.456133e-10	-3.828978e+01	-6.044090e+01
9.000000e-08	-5.508007e-06	-7.989502e-10	-3.826449e+01	-6.040718e+01
1.000000e-07	-5.503972e-06	-8.504314e-10	-3.823646e+01	-6.037475e+01
1.100000e-07	-5.499597e-06	-9.036395e-10	-3.820607e+01	-6.034367e+01
1.200000e-07	-5.494945e-06	-8.747650e-10	-3.817375e+01	-6.031396e+01
1.300000e-07	-5.490069e-06	-8.420304e-10	-3.813987e+01	-6.028556e+01
1.400000e-07	-5.484814e-06	-8.352867e-10	-3.810337e+01	-6.025839e+01
1.500000e-07	-5.479155e-06	-9.021458e-10	-3.806406e+01	-6.023231e+01
1.600000e-07	-5.473223e-06	-8.458797e-10	-3.802284e+01	-6.020713e+01
1.700000e-07	-5.466957e-06	-8.211962e-10	-3.797932e+01	-6.018262e+01
1.800000e-07	-5.460181e-06	-8.366421e-10	-3.793224e+01	-6.015852e+01
1.900000e-07	-5.452973e-06	-9.002989e-10	-3.788217e+01	-6.013451e+01
2.000000e-07	-5.445549e-06	-9.003952e-10	-3.783059e+01	-6.011026e+01
2.100000e-07	-5.437871e-06	-8.560702e-10	-3.777725e+01	-6.008542e+01
2.200000e-07	-5.429839e-06	-8.477382e-10	-3.772146e+01	-6.005960e+01
2.300000e-07	-5.421424e-06	-8.584240e-10	-3.766299e+01	-6.003245e+01
2.400000e-07	-5.412625e-06	-8.702719e-10	-3.760187e+01	-6.000358e+01
2.500000e-07	-5.403263e-06	-8.585417e-10	-3.753683e+01	-5.997264e+01
2.600000e-07	-5.393159e-06	-8.796291e-10	-3.746663e+01	-5.993929e+01
2.700000e-07	-5.382507e-06	-8.713727e-10	-3.739264e+01	-5.990322e+01
2.800000e-07	-5.371419e-06	-8.691021e-10	-3.731561e+01	-5.986416e+01
2.900000e-07	-5.359800e-06	-8.349621e-10	-3.723489e+01	-5.982189e+01
3.000000e-07	-5.347729e-06	-8.503515e-10	-3.715103e+01	-5.977625e+01
3.100000e-07	-5.335430e-06	-8.541541e-10	-3.706559e+01	-5.972712e+01
3.200000e-07	-5.322790e-06	-8.844132e-10	-3.697777e+01	-5.967445e+01
3.300000e-07	-5.309642e-06	-8.578792e-10	-3.688644e+01	-5.961827e+01
3.400000e-07	-5.296129e-06	-8.653829e-10	-3.679256e+01	-5.955866e+01
3.500000e-07	-5.282236e-06	-8.700096e-10	-3.669604e+01	-5.949579e+01
3.600000e-07	-5.267823e-06	-8.589839e-10	-3.659592e+01	-5.942986e+01
3.700000e-07	-5.252869e-06	-8.312181e-10	-3.649203e+01	-5.936117e+01
3.800000e-07	-5.237420e-06	-8.668930e-10	-3.638471e+01	-5.929006e+01
3.900000e-07	-5.221436e-06	-8.629174e-10	-3.627367e+01	-5.921693e+01
4.000000e-07	-5.204995e-06	-8.240573e-10	-3.615945e+01	-5.914223e+01
4.100000e-07	-5.188251e-06	-8.477941e-10	-3.604312e+01	-5.906642e+01
4.200000e-07	-5.171243e-06	-8.881581e-10	-3.592497e+01	-5.899003e+01
4.300000e-07	-5.153849e-06	-8.366397e-10	-3.580413e+01	-5.891358e+01
4.400000e-07	-5.136115e-06	-8.220312e-10	-3.568094e+01	-5.883760e+01
4.500000e-07	-5.118090e-06	-8.938590e-10	-3.555571e+01	-5.876262e+01
4.600000e-07	-5.099604e-06	-8.691554e-10	-3.542729e+01	-5.868915e+01
4.700000e-07	-5.080666e-06	-8.130007e-10	-3.529572e+01	-5.861769e+01
4.800000e-07	-5.061455e-06	-8.595063e-10	-3.516227e+01	-5.854868e+01
4.900000e-07	-5.042016e-06	-8.822845e-10	-3.502722e+01	-5.848253e+01
5.000000e-07	-5.022330e-06	-8.103749e-10	-3.489046e+01	-5.841960e+01
5.100000e-07	-5.002431e-06	-8.492260e-10	-3.475222e+01	-5.836016e+01
5.200000e-07	-4.982313e-06	-9.018880e-10	-3.461246e+01	-5.830445e+01
5.300000e-07	-4.961876e-06	-8.427586e-10	-3.447048e+01	-5.825261e+01
5.400000e-07	-4.941101e-06	-8.164523e-10	-3.432616e+01	-5.820470e+01
5.500000e-07	-4.919951e-06	-8.848112e-10	-3.417923e+01	-5.816073e+01
5.600000e-07	-4.898312e-06	-8.433894e-10	-3.402890e+01	-5.812060e+01
5.700000e-07	-4.876293e-06	-7.956588e-10	-3.387593e+01	-5.808415e+01
5.800000e-07	-4.854028e-06	-8.438839e-10	-3.372126e+01	-5.805114e+01
5.900000e-07	-4.831481e-06	-8.593626e-10	-3.356462e+01	-5.802129e+01
6.000000e-07	-4.808613e-06	-8.109314e-10	-3.340575e+01	-5.799421e+01
6.100000e-07	-4.785397e-06	-8.486618e-10	-3.324447e+01	-5.796950e+01
6.200000e-07	-4.761901e-06	-8.682518e-10	-3.308124e+01	-5.794670e+01
6.300000e-07	-4.738217e-06	-8.271422e-10	-3.291671e+01	-5.792532e+01
6.400000e-07	-4.714244e-06	-8.275985e-10	-3.275017e+01	-5.790483e+01
6.500000e-07	-4.689894e-06	-8.544946e-10	-3.258100e+01	-5.788473e+01
6.600000e-07	-4.665032e-06	-8.247079e-10	-3.240829e+01	-5.786447e+01
6.700000e-07	-4.639664e-06	-8.243866e-10	-3.223205e+01	-5.784354e+01
6.800000e-07	-4.613849e-06	-8.530806e-10	-3.205272e+01	-5.782146e+01
6.900000e-07	-4.587529e-06	-8.457741e-10	-3.186987e+01	-5.779777e+01
7.000000e-07	-4.560699e-06	-8.367586e-10	-3.168348e+01	-5.777204e+01
7.100000e-07	-4.533494e-06	-8.522082e-10	-3.149448e+01	-5.774392e+01
7.200000e-07	-4.506048e-06	-8.397895e-10	-3.130382e+01	-5.771309e+01
7.300000e-07	-4.478359e-06	-8.232388e-10	-3.111146e+01	-5.767931e+01
7.400000e-07	-4.450448e-06	-8.357614e-10	-3.091756e+01	-5.764241e+01
7.500000e-07	-4.422334e-06	-8.391068e-10	-3.072225e+01	-5.760227e+01
7.600000e-07	-4.393971e-06	-8.373811e-10	-3.052521e+01	-5.755888e+01
7.700000e-07	-4.365284e-06	-8.489563e-10	-3.032592e+01	-5.751225e+01
7.800000e-07	-4.336217e-06	-8.534162e-10	-3.012399e+01	-5.746250e+01
7.900000e-07	-4.306791e-06	-8.357035e-10	-2.991956e+01	-5.740980e+01
8.000000e-07	-4.277092e-06	-8.349735e-10	-2.971325e+01	-5.735437e+01
8.100000e-07	-4.247197e-06	-8.345373e-10	-2.950556e+01	-5.729649e+01
8.200000e-07	-4.217033e-06	-8.278830e-10	-2.929601e+01	-5.723647e+01
8.300000e-07	-4.186484e-06	-8.291156e-10	-2.908378e+01	-5.717468e+01
8.400000e-07	-4.155667e-06	-8.491193e-10	-2.886970e+01	-5.711148e+01
8.500000e-07	-4.124598e-06	-8.528817e-10	-2.865386e+01	-5.704726e+01
8.600000e-07	-4.093286e-06	-8.513795e-10	-2.843633e+01	-5.698242e+01
8.700000e-07	-4.061825e-06	-8.492850e-10	-2.821777e+01	-5.691734e+01
8.800000e-07	-4.030148e-06	-8.433835e-10	-2.799770e+01	-5.685238e+01
8.900000e-07	-3.998234e-06	-8.266276e-10	-2.777600e+01	-5.678786e+01
9.000000e-07	-3.966127e-06	-8.270183e-10	-2.755295e+01	-5.672410e+01
9.100000e-07	-3.933787e-06	-8.321901e-10	-2.732828e+01	-5.666133e+01
9.200000e-07	-3.901055e-06	-8.347498e-10	-2.710089e+01	-5.659975e+01
9.300000e-07	-3.867781e-06	-8.372252e-10	-2.686973e+01	-5.653950e+01
9.400000e-07	-3.834083e-06	-8.474583e-10	-2.663563e+01	-5.648065e+01
9.500000e-07	-3.800092e-06	-8.454328e-10	-2.639949e+01	-5.642321e+01
9.600000e-07	-3.765777e-06	-8.346678e-10	-2.616110e+01	-5.636710e+01
9.700000e-07	-3.731026e-06	-8.288105e-10	-2.591969e+01	-5.631222e+01
9.800000e-07	-3.695835e-06	-8.251555e-10	-2.567521e+01	-5.625836e+01
9.900000e-07	-3.660383e-06	-8.184581e-10	-2.542892e+01	-5.620528e+01
1.000000e-06	-3.624777e-06	-8.210230e-10	-2.518157e+01	-5.615267e+01
1.010000e-06	-3.589021e-06	-8.272156e-10	-2.493317e+01	-5.610018e+01
1.020000e-06	-3.553090e-06	-8.269141e-10	-2.468355e+01	-5.604740e+01
1.030000e-06	-3.516985e-06	-8.275456e-10	-2.443273e+01	-5.599392e+01
1.040000e-06	-3.480675e-06	-8.297547e-10	-2.418048e+01	-5.593928e+01
1.050000e-06	-3.444118e-06	-8.256430e-10	-2.392652e+01	-5.588302e+01
1.060000e-06	-3.407335e-06	-8.145874e-10	-2.367098e+01	-5.582467e+01
1.070000e-06	-3.370330e-06	-8.099652e-10	-2.341391e+01	-5.576377e+01
1.080000e-06	-3.333039e-06	-8.088757e-10	-2.315485e+01	-5.569988e+01
1.090000e-06	-3.295447e-06	-8.117602e-10	-2.289369e+01	-5.563258e+01
1.100000e-06	-3.257587e-06	-8.156296e-10	-2.263068e+01	-5.556148e+01
1.110000e-06	-3.219576e-06	-8.199491e-10	-2.236661e+01	-5.548624e+01
1.120000e-06	-3.181371e-06	-8.160688e-10	-2.210119e+01	-5.540657e+01
1.130000e-06	-3.142995e-06	-8.109690e-10	-2.183460e+01	-5.532223e+01
1.140000e-06	-3.104474e-06	-8.060342e-10	-2.156698e+01	-5.523302e+01
1.150000e-06	-3.065685e-06	-8.041067e-10	-2.129752e+01	-5.513883e+01
1.160000e-06	-3.026674e-06	-8.000756e-10	-2.102651e+01	-5.503958e+01
1.170000e-06	-2.987462e-06	-7.976879e-10	-2.075410e+01	-5.493527e+01
1.180000e-06	-2.948037e-06	-7.957277e-10	-2.048021e+01	-5.482595e+01
1.190000e-06	-2.908508e-06	-7.968552e-10	-2.020560e+01	-5.471172e+01
1.200000e-06	-2.868866e-06	-7.962885e-10	-1.993021e+01	-5.459273e+01
1.210000e-06	-2.829061e-06	-7.941223e-10	-1.965368e+01	-5.446916e+01
1.220000e-06	-2.789150e-06	-7.898163e-10	-1.937641e+01	-5.434126e+01
1.230000e-06	-2.749021e-06	-7.883201e-10	-1.909763e+01	-5.420926e+01
1.240000e-06	-2.708585e-06	-7.883805e-10	-1.881672e+01	-5.407345e+01
1.250000e-06	-2.667994e-06	-7.927174e-10	-1.853473e+01	-5.393409e+01
1.260000e-06	-2.627300e-06	-7.953313e-10	-1.825203e+01	-5.379148e+01
1.270000e-06	-2.586447e-06	-7.941218e-10	-1.796822e+01	-5.364588e+01
1.280000e-06	-2.545310e-06	-7.908460e-10	-1.768244e+01	-5.349755e+01
1.290000e-06	-2.503832e-06	-7.860021e-10	-1.739429e+01	-5.334670e+01
1.300000e-06	-2.461980e-06	-7.814696e-10	-1.710354e+01	-5.319354e+01
1.310000e-06	-2.419797e-06	-7.786607e-10	-1.681049e+01	-5.303820e+01
1.320000e-06	-2.377291e-06	-7.774561e-10	-1.651520e+01	-5.288080e+01
1.330000e-06	-2.334482e-06	-7.753108e-10	-1.621780e+01	-5.272137e+01
1.340000e-06	-2.291464e-06	-7.750230e-10	-1.591895e+01	-5.255993e+01
1.350000e-06	-2.248235e-06	-7.751619e-10	-1.561864e+01	-5.239639e+01
1.360000e-06	-2.204855e-06	-7.724888e-10	-1.531727e+01	-5.223064e+01
1.370000e-06	-2.161379e-06	-7.665641e-10	-1.501524e+01	-5.206249e+01
1.380000e-06	-2.117803e-06	-7.597465e-10	-1.471252e+01	-5.189170e+01
1.390000e-06	-2.074084e-06	-7.523224e-10	-1.440880e+01	-5.171798e+01
1.400000e-06	-2.030320e-06	-7.482504e-10	-1.410477e+01	-5.154098e+01
1.410000e-06	-1.986520e-06	-7.453810e-10	-1.380049e+01	-5.136031e+01
1.420000e-06	-1.942557e-06	-7.452861e-10	-1.349507e+01	-5.117552e+01
1.430000e-06	-1.898466e-06	-7.454311e-10	-1.318877e+01	-5.098615e+01
1.440000e-06	-1.854329e-06	-7.466155e-10	-1.288215e+01	-5.079170e+01
1.450000e-06	-1.810116e-06	-7.451609e-10	-1.257500e+01	-5.059162e+01
1.460000e-06	-1.765764e-06	-7.403659e-10	-1.226688e+01	-5.038539e+01
1.470000e-06	-1.721304e-06	-7.312957e-10	-1.195801e+01	-5.017245e+01
1.480000e-06	-1.676774e-06	-7.233785e-10	-1.164866e+01	-4.995222e+01
1.490000e-06	-1.632144e-06	-7.170495e-10	-1.133861e+01	-4.972415e+01
1.500000e-06	-1.587377e-06	-7.133052e-10	-1.102761e+01	-4.948768e+01
1.510000e-06	-1.542452e-06	-7.126663e-10	-1.071552e+01	-4.924224e+01
1.520000e-06	-1.497367e-06	-7.126844e-10	-1.040231e+01	-4.898730e+01
1.530000e-06	-1.452125e-06	-7.104343e-10	-1.008801e+01	-4.872230e+01
1.540000e-06	-1.406826e-06	-7.036383e-10	-9.773313e+00	-4.844673e+01
1.550000e-06	-1.361470e-06	-6.954691e-10	-9.458226e+00	-4.816006e+01
1.560000e-06	-1.315976e-06	-6.873748e-10	-9.142170e+00	-4.786178e+01
1.570000e-06	-1.270332e-06	-6.771828e-10	-8.825078e+00	-4.755137e+01
1.580000e-06	-1.224625e-06	-6.687566e-10	-8.507548e+00	-4.722832e+01
1.590000e-06	-1.178860e-06	-6.654350e-10	-8.189619e+00	-4.689212e+01
1.600000e-06	-1.132973e-06	-6.634731e-10	-7.870837e+00	-4.654223e+01
1.610000e-06	-1.086954e-06	-6.585102e-10	-7.551141e+00	-4.617812e+01
1.620000e-06	-1.040907e-06	-6.521411e-10	-7.231247e+00	-4.579922e+01
1.630000e-06	-9.948483e-07	-6.466497e-10	-6.911277e+00	-4.540495e+01
1.640000e-06	-9.486751e-07	-6.405179e-10	-6.590509e+00	-4.499466e+01
1.650000e-06	-9.024844e-07	-6.327102e-10	-6.269619e+00	-4.456771e+01
1.660000e-06	-8.562415e-07	-6.229231e-10	-5.948366e+00	-4.412339e+01
1.670000e-06	-8.099071e-07	-6.142261e-10	-5.626478e+00	-4.366094e+01
1.680000e-06	-7.635334e-07	-6.055899e-10	-5.304317e+00	-4.317958e+01
1.690000e-06	-7.170271e-07	-5.962128e-10	-4.981235e+00	-4.267846e+01
1.700000e-06	-6.705022e-07	-5.853830e-10	-4.658023e+00	-4.215668e+01
1.710000e-06	-6.240227e-07	-5.757436e-10	-4.335127e+00	-4.161332e+01
1.720000e-06	-5.774698e-07	-5.685319e-10	-4.011721e+00	-4.104738e+01
1.730000e-06	-5.308950e-07	-5.625748e-10	-3.688163e+00	-4.045786e+01
1.740000e-06	-4.842960e-07	-5.540840e-10	-3.364436e+00	-3.984370e+01
1.750000e-06	-4.376253e-07	-5.427670e-10	-3.040212e+00	-3.920385e+01
1.760000e-06	-3.909127e-07	-5.320241e-10	-2.715696e+00	-3.853721e+01
1.770000e-06	-3.441802e-07	-5.218222e-10	-2.391043e+00	-3.784273e+01
1.780000e-06	-2.974345e-07	-5.103245e-10	-2.066298e+00	-3.711933e+01
1.790000e-06	-2.506198e-07	-4.990830e-10	-1.741073e+00	-3.636598e+01
1.800000e-06	-2.037821e-07	-4.897455e-10	-1.415688e+00	-3.558169e+01
1.810000e-06	-1.570279e-07	-4.775672e-10	-1.090883e+00	-3.476552e+01
1.820000e-06	-1.102645e-07	-4.633274e-10	-7.660147e-01	-3.391661e+01
1.830000e-06	-6.349021e-08	-4.503185e-10	-4.410707e-01	-3.303419e+01
1.840000e-06	-1.675913e-08	-4.386217e-10	-1.164268e-01	-3.211759e+01
1.850000e-06	3.003726e-08	-4.264506e-10	2.086709e-01	-3.116627e+01
1.860000e-06	7.694797e-08	-4.132316e-10	5.345627e-01	-3.017979e+01
1.870000e-06	1.238298e-07	-3.983191e-10	8.602539e-01	-2.915790e+01
1.880000e-06	1.706058e-07	-3.830258e-10	1.185210e+00	-2.810048e+01
1.890000e-06	2.173122e-07	-3.672027e-10	1.509682e+00	-2.700759e+01
1.900000e-06	2.640136e-07	-3.507521e-10	1.834120e+00	-2.587945e+01
1.910000e-06	3.107787e-07	-3.344883e-10	2.159000e+00	-2.471647e+01
1.920000e-06	3.575896e-07	-3.204343e-10	2.484199e+00	-2.351926e+01
1.930000e-06	4.043885e-07	-3.062315e-10	2.809314e+00	-2.228858e+01
1.940000e-06	4.511872e-07	-2.883719e-10	3.134427e+00	-2.102541e+01
1.950000e-06	4.979809e-07	-2.701979e-10	3.459506e+00	-1.973089e+01
1.960000e-06	5.446735e-07	-2.523594e-10	3.783883e+00	-1.840635e+01
1.970000e-06	5.912873e-07	-2.338575e-10	4.107712e+00	-1.705328e+01
1.980000e-06	6.378088e-07	-2.141544e-10	4.430900e+00	-1.567334e+01
1.990000e-06	6.842463e-07	-1.953039e-10	4.753505e+00	-1.426831e+01
2.000000e-06	7.306542e-07	-1.753294e-10	5.075903e+00	-1.284015e+01
2.010000e-06	7.770016e-07	-1.523540e-10	5.397882e+00	-1.139089e+01
2.020000e-06	8.232719e-07	-1.298047e-10	5.719325e+00	-9.922702e+00
2.030000e-06	8.694435e-07	-1.098529e-10	6.040082e+00	-8.437823e+00
2.040000e-06	9.155446e-07	-9.217903e-11	6.360349e+00	-6.938565e+00
2.050000e-06	9.616118e-07	-7.521650e-11	6.680381e+00	-5.427288e+00
2.060000e-06	1.007619e-06	-5.595001e-11	6.999996e+00	-3.906385e+00
2.070000e-06	1.053557e-06	-3.519928e-11	7.319134e+00	-2.378261e+00
2.080000e-06	1.099444e-06	-1.256857e-11	7.637912e+00	-8.453190e-01
2.090000e-06	1.145320e-06	1.114294e-11	7.956617e+00	6.900599e-01
2.100000e-06	1.191103e-06	3.434302e-11	8.274673e+00	2.225531e+00
2.110000e-06	1.236739e-06	5.493934e-11	8.591707e+00	3.758802e+00
2.120000e-06	1.282336e-06	7.361476e-11	8.908476e+00	5.287643e+00
2.130000e-06	1.327897e-06	9.191223e-11	9.224987e+00	6.809904e+00
2.140000e-06	1.373389e-06	1.102702e-10	9.541025e+00	8.323518e+00
2.150000e-06	1.418803e-06	1.299467e-10	9.856520e+00	9.826518e+00
2.160000e-06	1.464101e-06	1.518831e-10	1.017121e+01	1.131703e+01
2.170000e-06	1.509306e-06	1.736073e-10	1.048525e+01	1.279331e+01
2.180000e-06	1.554329e-06	1.944935e-10	1.079802e+01	1.425369e+01
2.190000e-06	1.599149e-06	2.167318e-10	1.110939e+01	1.569664e+01
2.200000e-06	1.643828e-06	2.360217e-10	1.141978e+01	1.712074e+01
2.210000e-06	1.688410e-06	2.508741e-10	1.172949e+01	1.852468e+01
2.220000e-06	1.732872e-06	2.655001e-10	1.203838e+01	1.990724e+01
2.230000e-06	1.777138e-06	2.827806e-10	1.234590e+01	2.126734e+01
2.240000e-06	1.821266e-06	2.996332e-10	1.265246e+01	2.260398e+01
2.250000e-06	1.865303e-06	3.147023e-10	1.295838e+01	2.391626e+01
2.260000e-06	1.909259e-06	3.320706e-10	1.326375e+01	2.520339e+01
2.270000e-06	1.953118e-06	3.515044e-10	1.356844e+01	2.646463e+01
2.280000e-06	1.996924e-06	3.712081e-10	1.387276e+01	2.769936e+01
2.290000e-06	2.040725e-06	3.906647e-10	1.417705e+01	2.890702e+01
2.300000e-06	2.084491e-06	4.080061e-10	1.448110e+01	3.008712e+01
2.310000e-06	2.128163e-06	4.227877e-10	1.478449e+01	3.123923e+01
2.320000e-06	2.171743e-06	4.358829e-10	1.508724e+01	3.236301e+01
2.330000e-06	2.215285e-06	4.485686e-10	1.538973e+01	3.345815e+01
2.340000e-06	2.258714e-06	4.615931e-10	1.569143e+01	3.452441e+01
2.350000e-06	2.301874e-06	4.757965e-10	1.599127e+01	3.556161e+01
2.360000e-06	2.344852e-06	4.912280e-10	1.628984e+01	3.656962e+01
2.370000e-06	2.387672e-06	5.069343e-10	1.658732e+01	3.754834e+01
2.380000e-06	2.430141e-06	5.219622e-10	1.688235e+01	3.849776e+01
2.390000e-06	2.472185e-06	5.355054e-10	1.717444e+01	3.941789e+01
2.400000e-06	2.513868e-06	5.480730e-10	1.746401e+01	4.030883e+01
2.410000e-06	2.555278e-06	5.597301e-10	1.775169e+01	4.117069e+01
2.420000e-06	2.596386e-06	5.706663e-10	1.803726e+01	4.200368e+01
2.430000e-06	2.637216e-06	5.821913e-10	1.832092e+01	4.280803e+01
2.440000e-06	2.677768e-06	5.939003e-10	1.860263e+01	4.358406e+01
2.450000e-06	2.718119e-06	6.046320e-10	1.888296e+01	4.433213e+01
2.460000e-06	2.758337e-06	6.143534e-10	1.916235e+01	4.505266e+01
2.470000e-06	2.798371e-06	6.238039e-10	1.944047e+01	4.574614e+01
2.480000e-06	2.838215e-06	6.342793e-10	1.971727e+01	4.641311e+01
2.490000e-06	2.877908e-06	6.459664e-10	1.999302e+01	4.705417e+01
2.500000e-06	2.917558e-06	6.574443e-10	2.026847e+01	4.766997e+01
2.510000e-06	2.957174e-06	6.667805e-10	2.054369e+01	4.826123e+01
2.520000e-06	2.996576e-06	6.735030e-10	2.081741e+01	4.882870e+01
2.530000e-06	3.035688e-06	6.796763e-10	2.108913e+01	4.937318e+01
2.540000e-06	3.074572e-06	6.853630e-10	2.135925e+01	4.989550e+01
2.550000e-06	3.113204e-06	6.913273e-10	2.162764e+01	5.039652e+01
2.560000e-06	3.151668e-06	6.974389e-10	2.189484e+01	5.087713e+01
2.570000e-06	3.189937e-06	7.032471e-10	2.216071e+01	5.133824e+01
2.580000e-06	3.227916e-06	7.102527e-10	2.242455e+01	5.178075e+01
2.590000e-06	3.265642e-06	7.178867e-10	2.268663e+01	5.220558e+01
2.600000e-06	3.303225e-06	7.247692e-10	2.294772e+01	5.261362e+01
2.610000e-06	3.340695e-06	7.300138e-10	2.320803e+01	5.300574e+01
2.620000e-06	3.377907e-06	7.336861e-10	2.346654e+01	5.338280e+01
2.630000e-06	3.414766e-06	7.368088e-10	2.372261e+01	5.374561e+01
2.640000e-06	3.451333e-06	7.404013e-10	2.397664e+01	5.409494e+01
2.650000e-06	3.487651e-06	7.445663e-10	2.422894e+01	5.443151e+01
2.660000e-06	3.523773e-06	7.497000e-10	2.447989e+01	5.475598e+01
2.670000e-06	3.559722e-06	7.536083e-10	2.472962e+01	5.506896e+01
2.680000e-06	3.595494e-06	7.550050e-10	2.497814e+01	5.537098e+01
2.690000e-06	3.631180e-06	7.578986e-10	2.522605e+01	5.566252e+01
2.700000e-06	3.666777e-06	7.633168e-10	2.547334e+01	5.594398e+01
2.710000e-06	3.702216e-06	7.694272e-10	2.571954e+01	5.621571e+01
2.720000e-06	3.737459e-06	7.754177e-10	2.596437e+01	5.647796e+01
2.730000e-06	3.772383e-06	7.794647e-10	2.620700e+01	5.673095e+01
2.740000e-06	3.806916e-06	7.809874e-10	2.644690e+01	5.697484e+01
2.750000e-06	3.840955e-06	7.824138e-10	2.668337e+01	5.720971e+01
2.760000e-06	3.874361e-06	7.853219e-10	2.691545e+01	5.743562e+01
2.770000e-06	3.907196e-06	7.869026e-10	2.714355e+01	5.765259e+01
2.780000e-06	3.939679e-06	7.882506e-10	2.736921e+01	5.786059e+01
2.790000e-06	3.971938e-06	7.929443e-10	2.759331e+01	5.805958e+01
2.800000e-06	4.003965e-06	8.000048e-10	2.781581e+01	5.824951e+01
2.810000e-06	4.035803e-06	8.051788e-10	2.803699e+01	5.843033e+01
2.820000e-06	4.067481e-06	8.080454e-10	2.825706e+01	5.860198e+01
2.830000e-06	4.099017e-06	8.106772e-10	2.847614e+01	5.876442e+01
2.840000e-06	4.130376e-06	8.133413e-10	2.869400e+01	5.891764e+01
2.850000e-06	4.161420e-06	8.163141e-10	2.890966e+01	5.906165e+01
2.860000e-06	4.192135e-06	8.195746e-10	2.912304e+01	5.919650e+01
2.870000e-06	4.222490e-06	8.229319e-10	2.933392e+01	5.932229e+01
2.880000e-06	4.252489e-06	8.266100e-10	2.954232e+01	5.943915e+01
2.890000e-06	4.282206e-06	8.307065e-10	2.974877e+01	5.954728e+01
2.900000e-06	4.311684e-06	8.349437e-10	2.995356e+01	5.964692e+01
