# Temperatura_=_9.9
# Concentracion g/m^3_=_1620.0
# C_Vs_to_Am_M_A/Vsm_=_65563218390.804596
# pendiente_HvsI_1/m_=_3716.3
# ordenada_HvsI_A/m_=_1297.0
# frecuencia_Hz_=_135103.08570788475

Tiempo_(s)	Campo_(V.s)	Magnetizacion_(V.s)	Campo_(kA/m)	Magnetizacion_(A/m)
0.000000e+00	-5.529687e-06	-1.391610e-09	-3.836728e+01	-9.314312e+01
1.000000e-08	-5.529855e-06	-1.389478e-09	-3.836845e+01	-9.312022e+01
2.000000e-08	-5.529785e-06	-1.387793e-09	-3.836796e+01	-9.309674e+01
3.000000e-08	-5.529405e-06	-1.385895e-09	-3.836533e+01	-9.307281e+01
4.000000e-08	-5.528535e-06	-1.382661e-09	-3.835929e+01	-9.304854e+01
5.000000e-08	-5.527079e-06	-1.376502e-09	-3.834919e+01	-9.302405e+01
6.000000e-08	-5.525091e-06	-1.367739e-09	-3.833539e+01	-9.299941e+01
7.000000e-08	-5.522583e-06	-1.369880e-09	-3.831799e+01	-9.297466e+01
8.000000e-08	-5.519448e-06	-1.377090e-09	-3.829624e+01	-9.294981e+01
9.000000e-08	-5.515749e-06	-1.384564e-09	-3.827057e+01	-9.292485e+01
1.000000e-07	-5.511601e-06	-1.395375e-09	-3.824179e+01	-9.289971e+01
1.100000e-07	-5.507109e-06	-1.407778e-09	-3.821063e+01	-9.287427e+01
1.200000e-07	-5.502499e-06	-1.353528e-09	-3.817864e+01	-9.284836e+01
1.300000e-07	-5.497690e-06	-1.366095e-09	-3.814527e+01	-9.282180e+01
1.400000e-07	-5.492457e-06	-1.368380e-09	-3.810897e+01	-9.279431e+01
1.500000e-07	-5.486819e-06	-1.401864e-09	-3.806984e+01	-9.276559e+01
1.600000e-07	-5.480832e-06	-1.361057e-09	-3.802830e+01	-9.273531e+01
1.700000e-07	-5.474460e-06	-1.350223e-09	-3.798409e+01	-9.270309e+01
1.800000e-07	-5.467638e-06	-1.390995e-09	-3.793676e+01	-9.266849e+01
1.900000e-07	-5.460469e-06	-1.425308e-09	-3.788702e+01	-9.263109e+01
2.000000e-07	-5.453095e-06	-1.406943e-09	-3.783585e+01	-9.259040e+01
2.100000e-07	-5.445393e-06	-1.377339e-09	-3.778242e+01	-9.254597e+01
2.200000e-07	-5.437389e-06	-1.412901e-09	-3.772688e+01	-9.249729e+01
2.300000e-07	-5.429114e-06	-1.420940e-09	-3.766946e+01	-9.244391e+01
2.400000e-07	-5.420380e-06	-1.412280e-09	-3.760886e+01	-9.238534e+01
2.500000e-07	-5.411081e-06	-1.386615e-09	-3.754434e+01	-9.232116e+01
2.600000e-07	-5.400961e-06	-1.413601e-09	-3.747413e+01	-9.225096e+01
2.700000e-07	-5.390112e-06	-1.394775e-09	-3.739885e+01	-9.217438e+01
2.800000e-07	-5.378863e-06	-1.387281e-09	-3.732080e+01	-9.209109e+01
2.900000e-07	-5.367230e-06	-1.374137e-09	-3.724008e+01	-9.200085e+01
3.000000e-07	-5.355296e-06	-1.395882e-09	-3.715728e+01	-9.190345e+01
3.100000e-07	-5.343011e-06	-1.376612e-09	-3.707204e+01	-9.179879e+01
3.200000e-07	-5.330257e-06	-1.392555e-09	-3.698355e+01	-9.168679e+01
3.300000e-07	-5.317026e-06	-1.386732e-09	-3.689175e+01	-9.156749e+01
3.400000e-07	-5.303435e-06	-1.391692e-09	-3.679745e+01	-9.144097e+01
3.500000e-07	-5.289459e-06	-1.384989e-09	-3.670048e+01	-9.130743e+01
3.600000e-07	-5.275037e-06	-1.395732e-09	-3.660041e+01	-9.116709e+01
3.700000e-07	-5.260209e-06	-1.368011e-09	-3.649753e+01	-9.102027e+01
3.800000e-07	-5.244936e-06	-1.369087e-09	-3.639156e+01	-9.086734e+01
3.900000e-07	-5.229152e-06	-1.377122e-09	-3.628205e+01	-9.070874e+01
4.000000e-07	-5.212807e-06	-1.364636e-09	-3.616863e+01	-9.054494e+01
4.100000e-07	-5.196019e-06	-1.358434e-09	-3.605215e+01	-9.037645e+01
4.200000e-07	-5.178937e-06	-1.383886e-09	-3.593363e+01	-9.020381e+01
4.300000e-07	-5.161524e-06	-1.381239e-09	-3.581281e+01	-9.002758e+01
4.400000e-07	-5.143839e-06	-1.345718e-09	-3.569011e+01	-8.984832e+01
4.500000e-07	-5.125841e-06	-1.369484e-09	-3.556523e+01	-8.966658e+01
4.600000e-07	-5.107327e-06	-1.373784e-09	-3.543677e+01	-8.948291e+01
4.700000e-07	-5.088390e-06	-1.336101e-09	-3.530537e+01	-8.929780e+01
4.800000e-07	-5.069163e-06	-1.334397e-09	-3.517197e+01	-8.911172e+01
4.900000e-07	-5.049631e-06	-1.381505e-09	-3.503645e+01	-8.892509e+01
5.000000e-07	-5.029864e-06	-1.350787e-09	-3.489930e+01	-8.873826e+01
5.100000e-07	-5.009884e-06	-1.334761e-09	-3.476067e+01	-8.855153e+01
5.200000e-07	-4.989590e-06	-1.359684e-09	-3.461986e+01	-8.836511e+01
5.300000e-07	-4.968959e-06	-1.352740e-09	-3.447672e+01	-8.817915e+01
5.400000e-07	-4.947991e-06	-1.305461e-09	-3.433123e+01	-8.799371e+01
5.500000e-07	-4.926651e-06	-1.329274e-09	-3.418316e+01	-8.780878e+01
5.600000e-07	-4.904965e-06	-1.330117e-09	-3.403270e+01	-8.762427e+01
5.700000e-07	-4.882971e-06	-1.298686e-09	-3.388010e+01	-8.744000e+01
5.800000e-07	-4.860657e-06	-1.305924e-09	-3.372527e+01	-8.725575e+01
5.900000e-07	-4.837906e-06	-1.336603e-09	-3.356741e+01	-8.707119e+01
6.000000e-07	-4.814742e-06	-1.301354e-09	-3.340669e+01	-8.688599e+01
6.100000e-07	-4.791383e-06	-1.291987e-09	-3.324462e+01	-8.669972e+01
6.200000e-07	-4.767832e-06	-1.307673e-09	-3.308121e+01	-8.651193e+01
6.300000e-07	-4.744028e-06	-1.292656e-09	-3.291605e+01	-8.632216e+01
6.400000e-07	-4.719966e-06	-1.273219e-09	-3.274910e+01	-8.612990e+01
6.500000e-07	-4.695599e-06	-1.288287e-09	-3.258003e+01	-8.593465e+01
6.600000e-07	-4.670801e-06	-1.281142e-09	-3.240797e+01	-8.573594e+01
6.700000e-07	-4.645514e-06	-1.267507e-09	-3.223252e+01	-8.553327e+01
6.800000e-07	-4.619571e-06	-1.275252e-09	-3.205252e+01	-8.532620e+01
6.900000e-07	-4.592987e-06	-1.275249e-09	-3.186806e+01	-8.511432e+01
7.000000e-07	-4.565976e-06	-1.261256e-09	-3.168065e+01	-8.489728e+01
7.100000e-07	-4.538609e-06	-1.257838e-09	-3.149076e+01	-8.467477e+01
7.200000e-07	-4.511010e-06	-1.253298e-09	-3.129927e+01	-8.444653e+01
7.300000e-07	-4.483230e-06	-1.242077e-09	-3.110652e+01	-8.421240e+01
7.400000e-07	-4.455274e-06	-1.242331e-09	-3.091255e+01	-8.397225e+01
7.500000e-07	-4.427110e-06	-1.238378e-09	-3.071714e+01	-8.372607e+01
7.600000e-07	-4.398671e-06	-1.232578e-09	-3.051982e+01	-8.347387e+01
7.700000e-07	-4.369921e-06	-1.229373e-09	-3.032034e+01	-8.321576e+01
7.800000e-07	-4.340820e-06	-1.228991e-09	-3.011843e+01	-8.295191e+01
7.900000e-07	-4.311381e-06	-1.217335e-09	-2.991416e+01	-8.268255e+01
8.000000e-07	-4.281619e-06	-1.216460e-09	-2.970766e+01	-8.240795e+01
8.100000e-07	-4.251589e-06	-1.210215e-09	-2.949930e+01	-8.212844e+01
8.200000e-07	-4.221296e-06	-1.204449e-09	-2.928912e+01	-8.184440e+01
8.300000e-07	-4.190689e-06	-1.198430e-09	-2.907675e+01	-8.155622e+01
8.400000e-07	-4.159770e-06	-1.202802e-09	-2.886223e+01	-8.126430e+01
8.500000e-07	-4.128599e-06	-1.198826e-09	-2.864594e+01	-8.096906e+01
8.600000e-07	-4.097232e-06	-1.195621e-09	-2.842831e+01	-8.067094e+01
8.700000e-07	-4.065711e-06	-1.190391e-09	-2.820960e+01	-8.037032e+01
8.800000e-07	-4.034020e-06	-1.188143e-09	-2.798972e+01	-8.006760e+01
8.900000e-07	-4.002156e-06	-1.178349e-09	-2.776863e+01	-7.976312e+01
9.000000e-07	-3.970084e-06	-1.173985e-09	-2.754610e+01	-7.945720e+01
9.100000e-07	-3.937635e-06	-1.169910e-09	-2.732096e+01	-7.915011e+01
9.200000e-07	-3.904745e-06	-1.169280e-09	-2.709275e+01	-7.884207e+01
9.300000e-07	-3.871383e-06	-1.167214e-09	-2.686127e+01	-7.853324e+01
9.400000e-07	-3.837567e-06	-1.167255e-09	-2.662665e+01	-7.822372e+01
9.500000e-07	-3.803360e-06	-1.161115e-09	-2.638930e+01	-7.791356e+01
9.600000e-07	-3.768750e-06	-1.149208e-09	-2.614917e+01	-7.760275e+01
9.700000e-07	-3.733761e-06	-1.136231e-09	-2.590639e+01	-7.729121e+01
9.800000e-07	-3.698494e-06	-1.125842e-09	-2.566170e+01	-7.697883e+01
9.900000e-07	-3.662935e-06	-1.118757e-09	-2.541498e+01	-7.666543e+01
1.000000e-06	-3.627125e-06	-1.117132e-09	-2.516651e+01	-7.635081e+01
1.010000e-06	-3.591269e-06	-1.119001e-09	-2.491773e+01	-7.603470e+01
1.020000e-06	-3.555334e-06	-1.117947e-09	-2.466839e+01	-7.571684e+01
1.030000e-06	-3.519223e-06	-1.115599e-09	-2.441784e+01	-7.539692e+01
1.040000e-06	-3.482957e-06	-1.110033e-09	-2.416621e+01	-7.507462e+01
1.050000e-06	-3.446366e-06	-1.102585e-09	-2.391233e+01	-7.474964e+01
1.060000e-06	-3.409440e-06	-1.090923e-09	-2.365612e+01	-7.442165e+01
1.070000e-06	-3.372364e-06	-1.083682e-09	-2.339887e+01	-7.409036e+01
1.080000e-06	-3.335114e-06	-1.078867e-09	-2.314042e+01	-7.375548e+01
1.090000e-06	-3.297577e-06	-1.079163e-09	-2.287997e+01	-7.341674e+01
1.100000e-06	-3.259714e-06	-1.075154e-09	-2.261726e+01	-7.307391e+01
1.110000e-06	-3.221626e-06	-1.071913e-09	-2.235299e+01	-7.272680e+01
1.120000e-06	-3.183357e-06	-1.066683e-09	-2.208746e+01	-7.237525e+01
1.130000e-06	-3.144807e-06	-1.060395e-09	-2.181999e+01	-7.201912e+01
1.140000e-06	-3.106030e-06	-1.050753e-09	-2.155093e+01	-7.165832e+01
1.150000e-06	-3.067124e-06	-1.044219e-09	-2.128099e+01	-7.129281e+01
1.160000e-06	-3.028012e-06	-1.035195e-09	-2.100961e+01	-7.092257e+01
1.170000e-06	-2.988656e-06	-1.026293e-09	-2.073655e+01	-7.054759e+01
1.180000e-06	-2.949145e-06	-1.018526e-09	-2.046240e+01	-7.016791e+01
1.190000e-06	-2.909515e-06	-1.013730e-09	-2.018743e+01	-6.978359e+01
1.200000e-06	-2.869784e-06	-1.006656e-09	-1.991176e+01	-6.939468e+01
1.210000e-06	-2.829935e-06	-9.993171e-10	-1.963527e+01	-6.900126e+01
1.220000e-06	-2.789867e-06	-9.913254e-10	-1.935726e+01	-6.860337e+01
1.230000e-06	-2.749644e-06	-9.849789e-10	-1.907818e+01	-6.820107e+01
1.240000e-06	-2.709269e-06	-9.779458e-10	-1.879804e+01	-6.779439e+01
1.250000e-06	-2.668683e-06	-9.719995e-10	-1.851644e+01	-6.738334e+01
1.260000e-06	-2.627884e-06	-9.672806e-10	-1.823336e+01	-6.696788e+01
1.270000e-06	-2.586743e-06	-9.600535e-10	-1.794790e+01	-6.654795e+01
1.280000e-06	-2.545180e-06	-9.506617e-10	-1.765952e+01	-6.612344e+01
1.290000e-06	-2.503311e-06	-9.424951e-10	-1.736902e+01	-6.569419e+01
1.300000e-06	-2.461181e-06	-9.344358e-10	-1.707670e+01	-6.526000e+01
1.310000e-06	-2.418775e-06	-9.261975e-10	-1.678247e+01	-6.482061e+01
1.320000e-06	-2.376133e-06	-9.196986e-10	-1.648661e+01	-6.437571e+01
1.330000e-06	-2.333216e-06	-9.134025e-10	-1.618883e+01	-6.392496e+01
1.340000e-06	-2.290065e-06	-9.070912e-10	-1.588943e+01	-6.346796e+01
1.350000e-06	-2.246713e-06	-8.996734e-10	-1.558864e+01	-6.300428e+01
1.360000e-06	-2.203242e-06	-8.914028e-10	-1.528701e+01	-6.253344e+01
1.370000e-06	-2.159727e-06	-8.809048e-10	-1.498509e+01	-6.205496e+01
1.380000e-06	-2.116061e-06	-8.698954e-10	-1.468212e+01	-6.156833e+01
1.390000e-06	-2.072266e-06	-8.580848e-10	-1.437824e+01	-6.107304e+01
1.400000e-06	-2.028434e-06	-8.500063e-10	-1.407412e+01	-6.056857e+01
1.410000e-06	-1.984511e-06	-8.438550e-10	-1.376937e+01	-6.005440e+01
1.420000e-06	-1.940500e-06	-8.393179e-10	-1.346400e+01	-5.953006e+01
1.430000e-06	-1.896431e-06	-8.323398e-10	-1.315823e+01	-5.899509e+01
1.440000e-06	-1.852276e-06	-8.232762e-10	-1.285187e+01	-5.844905e+01
1.450000e-06	-1.807936e-06	-8.110272e-10	-1.254421e+01	-5.789156e+01
1.460000e-06	-1.763435e-06	-7.983222e-10	-1.223545e+01	-5.732230e+01
1.470000e-06	-1.718848e-06	-7.848678e-10	-1.192609e+01	-5.674097e+01
1.480000e-06	-1.674157e-06	-7.743216e-10	-1.161600e+01	-5.614734e+01
1.490000e-06	-1.629368e-06	-7.648763e-10	-1.130524e+01	-5.554125e+01
1.500000e-06	-1.584438e-06	-7.564073e-10	-1.099349e+01	-5.492256e+01
1.510000e-06	-1.539338e-06	-7.489881e-10	-1.068057e+01	-5.429120e+01
1.520000e-06	-1.494005e-06	-7.433050e-10	-1.036603e+01	-5.364715e+01
1.530000e-06	-1.448512e-06	-7.347356e-10	-1.005038e+01	-5.299043e+01
1.540000e-06	-1.403045e-06	-7.218826e-10	-9.734911e+00	-5.232106e+01
1.550000e-06	-1.357579e-06	-7.091006e-10	-9.419454e+00	-5.163911e+01
1.560000e-06	-1.311971e-06	-6.967567e-10	-9.103002e+00	-5.094465e+01
1.570000e-06	-1.266309e-06	-6.834106e-10	-8.786179e+00	-5.023774e+01
1.580000e-06	-1.220607e-06	-6.715805e-10	-8.469080e+00	-4.951842e+01
1.590000e-06	-1.174792e-06	-6.641864e-10	-8.151197e+00	-4.878669e+01
1.600000e-06	-1.128824e-06	-6.579910e-10	-7.832251e+00	-4.804252e+01
1.610000e-06	-1.082671e-06	-6.486717e-10	-7.512027e+00	-4.728580e+01
1.620000e-06	-1.036479e-06	-6.388313e-10	-7.191522e+00	-4.651636e+01
1.630000e-06	-9.902674e-07	-6.293842e-10	-6.870889e+00	-4.573392e+01
1.640000e-06	-9.440500e-07	-6.203840e-10	-6.550213e+00	-4.493812e+01
1.650000e-06	-8.977806e-07	-6.094174e-10	-6.229177e+00	-4.412848e+01
1.660000e-06	-8.514715e-07	-5.961657e-10	-5.907865e+00	-4.330441e+01
1.670000e-06	-8.051302e-07	-5.814855e-10	-5.586330e+00	-4.246519e+01
1.680000e-06	-7.586848e-07	-5.668191e-10	-5.264072e+00	-4.160999e+01
1.690000e-06	-7.121633e-07	-5.536946e-10	-4.941287e+00	-4.073784e+01
1.700000e-06	-6.655487e-07	-5.399544e-10	-4.617855e+00	-3.984767e+01
1.710000e-06	-6.188372e-07	-5.289619e-10	-4.293751e+00	-3.893829e+01
1.720000e-06	-5.721065e-07	-5.179566e-10	-3.969514e+00	-3.800840e+01
1.730000e-06	-5.254335e-07	-5.042252e-10	-3.645677e+00	-3.705662e+01
1.740000e-06	-4.787516e-07	-4.861293e-10	-3.321778e+00	-3.608148e+01
1.750000e-06	-4.319110e-07	-4.671495e-10	-2.996779e+00	-3.508148e+01
1.760000e-06	-3.849979e-07	-4.478947e-10	-2.671277e+00	-3.405507e+01
1.770000e-06	-3.381154e-07	-4.287661e-10	-2.345986e+00	-3.300067e+01
1.780000e-06	-2.912359e-07	-4.112959e-10	-2.020716e+00	-3.191676e+01
1.790000e-06	-2.443898e-07	-3.959475e-10	-1.695678e+00	-3.080181e+01
1.800000e-06	-1.975659e-07	-3.812707e-10	-1.370795e+00	-2.965439e+01
1.810000e-06	-1.507637e-07	-3.680304e-10	-1.046062e+00	-2.847314e+01
1.820000e-06	-1.039581e-07	-3.526957e-10	-7.213051e-01	-2.725683e+01
1.830000e-06	-5.710942e-08	-3.344365e-10	-3.962490e-01	-2.600438e+01
1.840000e-06	-1.022457e-08	-3.154567e-10	-7.094232e-02	-2.471488e+01
1.850000e-06	3.664584e-08	-2.950549e-10	2.542642e-01	-2.338760e+01
1.860000e-06	8.353532e-08	-2.724486e-10	5.796030e-01	-2.202206e+01
1.870000e-06	1.304877e-07	-2.504696e-10	9.053782e-01	-2.061799e+01
1.880000e-06	1.773761e-07	-2.326849e-10	1.230709e+00	-1.917538e+01
1.890000e-06	2.242204e-07	-2.158051e-10	1.555735e+00	-1.769448e+01
1.900000e-06	2.711153e-07	-1.959965e-10	1.881112e+00	-1.617582e+01
1.910000e-06	3.179828e-07	-1.757928e-10	2.206298e+00	-1.462020e+01
1.920000e-06	3.647497e-07	-1.552255e-10	2.530786e+00	-1.302871e+01
1.930000e-06	4.114859e-07	-1.309892e-10	2.855061e+00	-1.140271e+01
1.940000e-06	4.582583e-07	-1.049928e-10	3.179587e+00	-9.743832e+00
1.950000e-06	5.048898e-07	-8.022742e-11	3.503136e+00	-8.053968e+00
1.960000e-06	5.513747e-07	-5.834663e-11	3.825668e+00	-6.335249e+00
1.970000e-06	5.978735e-07	-3.898852e-11	4.148296e+00	-4.590037e+00
1.980000e-06	6.443450e-07	-1.815245e-11	4.470735e+00	-2.820894e+00
1.990000e-06	6.907359e-07	4.317339e-12	4.792614e+00	-1.030565e+00
2.000000e-06	7.371056e-07	3.160719e-11	5.114347e+00	7.780541e-01
2.010000e-06	7.835320e-07	6.150707e-11	5.436472e+00	2.601942e+00
2.020000e-06	8.299110e-07	9.117669e-11	5.758269e+00	4.437985e+00
2.030000e-06	8.761675e-07	1.186253e-10	6.079216e+00	6.283005e+00
2.040000e-06	9.223733e-07	1.406609e-10	6.399811e+00	8.133794e+00
2.050000e-06	9.686050e-07	1.618152e-10	6.720586e+00	9.987145e+00
2.060000e-06	1.014778e-06	1.841900e-10	7.040950e+00	1.183988e+01
2.070000e-06	1.060809e-06	2.085484e-10	7.360339e+00	1.368888e+01
2.080000e-06	1.106748e-06	2.370501e-10	7.679083e+00	1.553113e+01
2.090000e-06	1.152567e-06	2.668796e-10	7.996990e+00	1.736371e+01
2.100000e-06	1.198258e-06	2.954756e-10	8.314012e+00	1.918384e+01
2.110000e-06	1.243863e-06	3.223349e-10	8.630439e+00	2.098891e+01
2.120000e-06	1.289397e-06	3.449088e-10	8.946379e+00	2.277648e+01
2.130000e-06	1.334913e-06	3.636108e-10	9.262185e+00	2.454429e+01
2.140000e-06	1.380398e-06	3.824511e-10	9.577778e+00	2.629031e+01
2.150000e-06	1.425754e-06	4.051075e-10	9.892478e+00	2.801268e+01
2.160000e-06	1.471048e-06	4.288077e-10	1.020674e+01	2.970977e+01
2.170000e-06	1.516197e-06	4.532640e-10	1.052001e+01	3.138016e+01
2.180000e-06	1.561205e-06	4.768545e-10	1.083230e+01	3.302264e+01
2.190000e-06	1.606163e-06	5.005367e-10	1.114423e+01	3.463620e+01
2.200000e-06	1.650973e-06	5.247547e-10	1.145514e+01	3.622001e+01
2.210000e-06	1.695673e-06	5.462684e-10	1.176529e+01	3.777345e+01
2.220000e-06	1.740213e-06	5.639031e-10	1.207432e+01	3.929604e+01
2.230000e-06	1.784541e-06	5.802983e-10	1.238189e+01	4.078747e+01
2.240000e-06	1.828821e-06	5.960563e-10	1.268912e+01	4.224756e+01
2.250000e-06	1.873004e-06	6.119295e-10	1.299569e+01	4.367624e+01
2.260000e-06	1.917039e-06	6.304175e-10	1.330121e+01	4.507358e+01
2.270000e-06	1.960995e-06	6.529039e-10	1.360620e+01	4.643969e+01
2.280000e-06	2.004905e-06	6.753245e-10	1.391087e+01	4.777476e+01
2.290000e-06	2.048778e-06	6.963942e-10	1.421528e+01	4.907905e+01
2.300000e-06	2.092588e-06	7.137173e-10	1.451925e+01	5.035284e+01
2.310000e-06	2.136358e-06	7.268716e-10	1.482294e+01	5.159644e+01
2.320000e-06	2.180003e-06	7.402070e-10	1.512577e+01	5.281016e+01
2.330000e-06	2.223498e-06	7.538455e-10	1.542756e+01	5.399432e+01
2.340000e-06	2.266842e-06	7.717986e-10	1.572830e+01	5.514923e+01
2.350000e-06	2.310026e-06	7.903710e-10	1.602793e+01	5.627518e+01
2.360000e-06	2.353044e-06	8.079272e-10	1.632640e+01	5.737246e+01
2.370000e-06	2.395794e-06	8.241747e-10	1.662302e+01	5.844132e+01
2.380000e-06	2.438270e-06	8.396945e-10	1.691774e+01	5.948201e+01
2.390000e-06	2.480445e-06	8.534606e-10	1.721037e+01	6.049476e+01
2.400000e-06	2.522299e-06	8.668454e-10	1.750077e+01	6.147977e+01
2.410000e-06	2.563900e-06	8.808962e-10	1.778941e+01	6.243726e+01
2.420000e-06	2.605338e-06	8.934157e-10	1.807693e+01	6.336743e+01
2.430000e-06	2.646417e-06	9.040515e-10	1.836195e+01	6.427049e+01
2.440000e-06	2.687041e-06	9.156703e-10	1.864381e+01	6.514668e+01
2.450000e-06	2.727424e-06	9.286799e-10	1.892401e+01	6.599624e+01
2.460000e-06	2.767683e-06	9.400467e-10	1.920334e+01	6.681947e+01
2.470000e-06	2.807777e-06	9.513852e-10	1.948153e+01	6.761668e+01
2.480000e-06	2.847675e-06	9.652058e-10	1.975836e+01	6.838825e+01
2.490000e-06	2.887480e-06	9.806013e-10	2.003454e+01	6.913460e+01
2.500000e-06	2.927100e-06	9.952098e-10	2.030945e+01	6.985621e+01
2.510000e-06	2.966555e-06	1.004834e-09	2.058320e+01	7.055362e+01
2.520000e-06	3.005927e-06	1.010285e-09	2.085638e+01	7.122745e+01
2.530000e-06	3.045053e-06	1.015613e-09	2.112785e+01	7.187836e+01
2.540000e-06	3.083820e-06	1.022373e-09	2.139683e+01	7.250710e+01
2.550000e-06	3.122369e-06	1.032303e-09	2.166430e+01	7.311445e+01
2.560000e-06	3.160820e-06	1.042193e-09	2.193109e+01	7.370127e+01
2.570000e-06	3.199047e-06	1.053554e-09	2.219633e+01	7.426847e+01
2.580000e-06	3.237084e-06	1.063587e-09	2.246024e+01	7.481698e+01
2.590000e-06	3.274983e-06	1.071006e-09	2.272320e+01	7.534778e+01
2.600000e-06	3.312640e-06	1.076548e-09	2.298448e+01	7.586187e+01
2.610000e-06	3.350018e-06	1.079830e-09	2.324383e+01	7.636027e+01
2.620000e-06	3.387176e-06	1.084396e-09	2.350164e+01	7.684399e+01
2.630000e-06	3.424123e-06	1.090941e-09	2.375800e+01	7.731402e+01
2.640000e-06	3.460758e-06	1.099476e-09	2.401219e+01	7.777135e+01
2.650000e-06	3.497077e-06	1.106051e-09	2.426418e+01	7.821691e+01
2.660000e-06	3.533147e-06	1.111428e-09	2.451445e+01	7.865160e+01
2.670000e-06	3.569079e-06	1.117867e-09	2.476376e+01	7.907626e+01
2.680000e-06	3.604965e-06	1.124231e-09	2.501275e+01	7.949166e+01
2.690000e-06	3.640774e-06	1.131257e-09	2.526121e+01	7.989850e+01
2.700000e-06	3.676457e-06	1.138089e-09	2.550879e+01	8.029739e+01
2.710000e-06	3.711922e-06	1.143595e-09	2.575487e+01	8.068886e+01
2.720000e-06	3.747099e-06	1.147574e-09	2.599894e+01	8.107335e+01
2.730000e-06	3.781986e-06	1.151938e-09	2.624100e+01	8.145122e+01
2.740000e-06	3.816460e-06	1.157265e-09	2.648020e+01	8.182272e+01
2.750000e-06	3.850395e-06	1.161659e-09	2.671565e+01	8.218802e+01
2.760000e-06	3.883780e-06	1.165920e-09	2.694729e+01	8.254722e+01
2.770000e-06	3.916698e-06	1.172207e-09	2.717569e+01	8.290031e+01
2.780000e-06	3.949267e-06	1.180799e-09	2.740167e+01	8.324724e+01
2.790000e-06	3.981562e-06	1.190141e-09	2.762574e+01	8.358789e+01
2.800000e-06	4.013647e-06	1.196836e-09	2.784836e+01	8.392208e+01
2.810000e-06	4.045561e-06	1.200049e-09	2.806979e+01	8.424959e+01
2.820000e-06	4.077296e-06	1.203266e-09	2.828999e+01	8.457017e+01
2.830000e-06	4.108883e-06	1.207497e-09	2.850914e+01	8.488356e+01
2.840000e-06	4.140214e-06	1.211133e-09	2.872654e+01	8.518948e+01
2.850000e-06	4.171217e-06	1.215183e-09	2.894165e+01	8.548765e+01
2.860000e-06	4.201937e-06	1.221892e-09	2.915480e+01	8.577782e+01
2.870000e-06	4.232354e-06	1.230628e-09	2.936584e+01	8.605977e+01
2.880000e-06	4.262432e-06	1.237558e-09	2.957454e+01	8.633329e+01
2.890000e-06	4.292198e-06	1.242536e-09	2.978106e+01	8.659823e+01
2.900000e-06	4.321703e-06	1.246899e-09	2.998578e+01	8.685449e+01
