# Temperatura_=_14.6
# Concentracion g/m^3_=_1620.0
# C_Vs_to_Am_M_A/Vsm_=_65563218390.804596
# pendiente_HvsI_1/m_=_3716.3
# ordenada_HvsI_A/m_=_1297.0
# frecuencia_Hz_=_135099.09217149304

Tiempo_(s)	Campo_(V.s)	Magnetizacion_(V.s)	Campo_(kA/m)	Magnetizacion_(A/m)
0.000000e+00	-5.504083e-06	-1.517274e-09	-3.836899e+01	-1.002480e+02
1.000000e-08	-5.504356e-06	-1.518591e-09	-3.837089e+01	-1.002473e+02
2.000000e-08	-5.504416e-06	-1.519888e-09	-3.837131e+01	-1.002471e+02
3.000000e-08	-5.504169e-06	-1.519235e-09	-3.836959e+01	-1.002470e+02
4.000000e-08	-5.503492e-06	-1.518095e-09	-3.836486e+01	-1.002468e+02
5.000000e-08	-5.502283e-06	-1.514999e-09	-3.835644e+01	-1.002460e+02
6.000000e-08	-5.500462e-06	-1.508020e-09	-3.834374e+01	-1.002442e+02
7.000000e-08	-5.498012e-06	-1.505465e-09	-3.832666e+01	-1.002408e+02
8.000000e-08	-5.495012e-06	-1.512079e-09	-3.830575e+01	-1.002353e+02
9.000000e-08	-5.491494e-06	-1.502709e-09	-3.828123e+01	-1.002271e+02
1.000000e-07	-5.487592e-06	-1.493905e-09	-3.825403e+01	-1.002155e+02
1.100000e-07	-5.483406e-06	-1.539438e-09	-3.822485e+01	-1.002000e+02
1.200000e-07	-5.478910e-06	-1.538504e-09	-3.819351e+01	-1.001799e+02
1.300000e-07	-5.474170e-06	-1.495137e-09	-3.816047e+01	-1.001546e+02
1.400000e-07	-5.469131e-06	-1.454301e-09	-3.812534e+01	-1.001233e+02
1.500000e-07	-5.463645e-06	-1.514635e-09	-3.808709e+01	-1.000856e+02
1.600000e-07	-5.457749e-06	-1.552216e-09	-3.804599e+01	-1.000408e+02
1.700000e-07	-5.451548e-06	-1.509837e-09	-3.800276e+01	-9.998829e+01
1.800000e-07	-5.444998e-06	-1.481157e-09	-3.795710e+01	-9.992768e+01
1.900000e-07	-5.437950e-06	-1.528203e-09	-3.790798e+01	-9.985847e+01
2.000000e-07	-5.430544e-06	-1.556238e-09	-3.785635e+01	-9.978030e+01
2.100000e-07	-5.422904e-06	-1.500247e-09	-3.780309e+01	-9.969283e+01
2.200000e-07	-5.415032e-06	-1.478929e-09	-3.774821e+01	-9.959584e+01
2.300000e-07	-5.406964e-06	-1.521411e-09	-3.769197e+01	-9.948915e+01
2.400000e-07	-5.398540e-06	-1.559795e-09	-3.763325e+01	-9.937268e+01
2.500000e-07	-5.389590e-06	-1.526418e-09	-3.757086e+01	-9.924642e+01
2.600000e-07	-5.379938e-06	-1.513649e-09	-3.750357e+01	-9.911047e+01
2.700000e-07	-5.369497e-06	-1.500896e-09	-3.743079e+01	-9.896499e+01
2.800000e-07	-5.358471e-06	-1.495297e-09	-3.735392e+01	-9.881022e+01
2.900000e-07	-5.347093e-06	-1.471567e-09	-3.727461e+01	-9.864649e+01
3.000000e-07	-5.335411e-06	-1.478764e-09	-3.719317e+01	-9.847418e+01
3.100000e-07	-5.323295e-06	-1.483512e-09	-3.710872e+01	-9.829377e+01
3.200000e-07	-5.310773e-06	-1.499288e-09	-3.702142e+01	-9.810577e+01
3.300000e-07	-5.297849e-06	-1.499758e-09	-3.693133e+01	-9.791077e+01
3.400000e-07	-5.284495e-06	-1.483919e-09	-3.683824e+01	-9.770937e+01
3.500000e-07	-5.270767e-06	-1.463445e-09	-3.674254e+01	-9.750223e+01
3.600000e-07	-5.256680e-06	-1.477448e-09	-3.664434e+01	-9.729004e+01
3.700000e-07	-5.242153e-06	-1.463021e-09	-3.654308e+01	-9.707348e+01
3.800000e-07	-5.227129e-06	-1.448284e-09	-3.643834e+01	-9.685326e+01
3.900000e-07	-5.211513e-06	-1.475026e-09	-3.632948e+01	-9.663006e+01
4.000000e-07	-5.195330e-06	-1.485768e-09	-3.621667e+01	-9.640458e+01
4.100000e-07	-5.178808e-06	-1.434739e-09	-3.610150e+01	-9.617746e+01
4.200000e-07	-5.162014e-06	-1.435247e-09	-3.598442e+01	-9.594933e+01
4.300000e-07	-5.144940e-06	-1.481266e-09	-3.586540e+01	-9.572075e+01
4.400000e-07	-5.127526e-06	-1.435872e-09	-3.574401e+01	-9.549227e+01
4.500000e-07	-5.109673e-06	-1.403652e-09	-3.561956e+01	-9.526434e+01
4.600000e-07	-5.091485e-06	-1.461479e-09	-3.549277e+01	-9.503739e+01
4.700000e-07	-5.072862e-06	-1.464658e-09	-3.536294e+01	-9.481173e+01
4.800000e-07	-5.053826e-06	-1.382293e-09	-3.523024e+01	-9.458765e+01
4.900000e-07	-5.034520e-06	-1.415888e-09	-3.509567e+01	-9.436534e+01
5.000000e-07	-5.014972e-06	-1.460485e-09	-3.495939e+01	-9.414491e+01
5.100000e-07	-4.995207e-06	-1.401189e-09	-3.482161e+01	-9.392642e+01
5.200000e-07	-4.975156e-06	-1.382379e-09	-3.468184e+01	-9.370983e+01
5.300000e-07	-4.954812e-06	-1.452418e-09	-3.454002e+01	-9.349504e+01
5.400000e-07	-4.934096e-06	-1.418516e-09	-3.439561e+01	-9.328189e+01
5.500000e-07	-4.913093e-06	-1.371517e-09	-3.424920e+01	-9.307015e+01
5.600000e-07	-4.891766e-06	-1.413837e-09	-3.410052e+01	-9.285954e+01
5.700000e-07	-4.870043e-06	-1.412951e-09	-3.394909e+01	-9.264973e+01
5.800000e-07	-4.847998e-06	-1.348395e-09	-3.379542e+01	-9.244035e+01
5.900000e-07	-4.825634e-06	-1.381651e-09	-3.363952e+01	-9.223099e+01
6.000000e-07	-4.802908e-06	-1.417887e-09	-3.348109e+01	-9.202121e+01
6.100000e-07	-4.779825e-06	-1.372761e-09	-3.332018e+01	-9.181057e+01
6.200000e-07	-4.756479e-06	-1.359274e-09	-3.315744e+01	-9.159861e+01
6.300000e-07	-4.732897e-06	-1.391968e-09	-3.299305e+01	-9.138487e+01
6.400000e-07	-4.709091e-06	-1.366319e-09	-3.282710e+01	-9.116891e+01
6.500000e-07	-4.685005e-06	-1.343682e-09	-3.265919e+01	-9.095030e+01
6.600000e-07	-4.660462e-06	-1.366625e-09	-3.248810e+01	-9.072863e+01
6.700000e-07	-4.635490e-06	-1.363236e-09	-3.231402e+01	-9.050353e+01
6.800000e-07	-4.610023e-06	-1.338673e-09	-3.213649e+01	-9.027465e+01
6.900000e-07	-4.584008e-06	-1.345223e-09	-3.195514e+01	-9.004171e+01
7.000000e-07	-4.557496e-06	-1.352183e-09	-3.177033e+01	-8.980445e+01
7.100000e-07	-4.530518e-06	-1.332378e-09	-3.158226e+01	-8.956268e+01
7.200000e-07	-4.503199e-06	-1.325348e-09	-3.139182e+01	-8.931624e+01
7.300000e-07	-4.475658e-06	-1.327888e-09	-3.119983e+01	-8.906503e+01
7.400000e-07	-4.447957e-06	-1.324099e-09	-3.100673e+01	-8.880902e+01
7.500000e-07	-4.420076e-06	-1.319153e-09	-3.081237e+01	-8.854820e+01
7.600000e-07	-4.391972e-06	-1.320786e-09	-3.061646e+01	-8.828263e+01
7.700000e-07	-4.363550e-06	-1.313359e-09	-3.041833e+01	-8.801241e+01
7.800000e-07	-4.334757e-06	-1.303962e-09	-3.021761e+01	-8.773766e+01
7.900000e-07	-4.305637e-06	-1.293537e-09	-3.001462e+01	-8.745858e+01
8.000000e-07	-4.276223e-06	-1.289713e-09	-2.980957e+01	-8.717536e+01
8.100000e-07	-4.246477e-06	-1.283233e-09	-2.960221e+01	-8.688822e+01
8.200000e-07	-4.216478e-06	-1.281570e-09	-2.939309e+01	-8.659741e+01
8.300000e-07	-4.186222e-06	-1.278607e-09	-2.918217e+01	-8.630318e+01
8.400000e-07	-4.155657e-06	-1.277317e-09	-2.896910e+01	-8.600580e+01
8.500000e-07	-4.124844e-06	-1.273321e-09	-2.875431e+01	-8.570551e+01
8.600000e-07	-4.093746e-06	-1.271778e-09	-2.853752e+01	-8.540255e+01
8.700000e-07	-4.062426e-06	-1.263189e-09	-2.831919e+01	-8.509715e+01
8.800000e-07	-4.030952e-06	-1.255637e-09	-2.809979e+01	-8.478952e+01
8.900000e-07	-3.999246e-06	-1.249579e-09	-2.787876e+01	-8.447982e+01
9.000000e-07	-3.967313e-06	-1.243001e-09	-2.765616e+01	-8.416821e+01
9.100000e-07	-3.935213e-06	-1.234225e-09	-2.743239e+01	-8.385477e+01
9.200000e-07	-3.902882e-06	-1.232352e-09	-2.720701e+01	-8.353959e+01
9.300000e-07	-3.870105e-06	-1.230210e-09	-2.697852e+01	-8.322268e+01
9.400000e-07	-3.836832e-06	-1.225751e-09	-2.674657e+01	-8.290402e+01
9.500000e-07	-3.803125e-06	-1.223761e-09	-2.651160e+01	-8.258355e+01
9.600000e-07	-3.769014e-06	-1.219485e-09	-2.627381e+01	-8.226116e+01
9.700000e-07	-3.734508e-06	-1.203834e-09	-2.603327e+01	-8.193671e+01
9.800000e-07	-3.699656e-06	-1.188714e-09	-2.579032e+01	-8.160999e+01
9.900000e-07	-3.664453e-06	-1.182625e-09	-2.554492e+01	-8.128080e+01
1.000000e-06	-3.628963e-06	-1.175935e-09	-2.529752e+01	-8.094887e+01
1.010000e-06	-3.593406e-06	-1.171625e-09	-2.504965e+01	-8.061393e+01
1.020000e-06	-3.557715e-06	-1.173063e-09	-2.480085e+01	-8.027566e+01
1.030000e-06	-3.521815e-06	-1.175492e-09	-2.455059e+01	-7.993376e+01
1.040000e-06	-3.485793e-06	-1.169125e-09	-2.429948e+01	-7.958789e+01
1.050000e-06	-3.449554e-06	-1.161414e-09	-2.404686e+01	-7.923771e+01
1.060000e-06	-3.413045e-06	-1.152346e-09	-2.379235e+01	-7.888289e+01
1.070000e-06	-3.376305e-06	-1.141542e-09	-2.353624e+01	-7.852311e+01
1.080000e-06	-3.339325e-06	-1.130198e-09	-2.327845e+01	-7.815805e+01
1.090000e-06	-3.302082e-06	-1.127497e-09	-2.301883e+01	-7.778742e+01
1.100000e-06	-3.264526e-06	-1.123897e-09	-2.275703e+01	-7.741094e+01
1.110000e-06	-3.226725e-06	-1.116333e-09	-2.249351e+01	-7.702837e+01
1.120000e-06	-3.188760e-06	-1.110187e-09	-2.222886e+01	-7.663951e+01
1.130000e-06	-3.150569e-06	-1.105842e-09	-2.196263e+01	-7.624418e+01
1.140000e-06	-3.112105e-06	-1.096250e-09	-2.169450e+01	-7.584222e+01
1.150000e-06	-3.073438e-06	-1.089982e-09	-2.142495e+01	-7.543355e+01
1.160000e-06	-3.034615e-06	-1.085515e-09	-2.115432e+01	-7.501809e+01
1.170000e-06	-2.995587e-06	-1.076506e-09	-2.088225e+01	-7.459583e+01
1.180000e-06	-2.956354e-06	-1.065980e-09	-2.060875e+01	-7.416677e+01
1.190000e-06	-2.916937e-06	-1.062169e-09	-2.033398e+01	-7.373095e+01
1.200000e-06	-2.877311e-06	-1.055242e-09	-2.005775e+01	-7.328846e+01
1.210000e-06	-2.837575e-06	-1.044496e-09	-1.978075e+01	-7.283940e+01
1.220000e-06	-2.797774e-06	-1.038267e-09	-1.950329e+01	-7.238390e+01
1.230000e-06	-2.757832e-06	-1.034350e-09	-1.922486e+01	-7.192211e+01
1.240000e-06	-2.717703e-06	-1.026950e-09	-1.894512e+01	-7.145420e+01
1.250000e-06	-2.677371e-06	-1.018381e-09	-1.866397e+01	-7.098035e+01
1.260000e-06	-2.636907e-06	-1.013173e-09	-1.838189e+01	-7.050073e+01
1.270000e-06	-2.596215e-06	-1.005066e-09	-1.809823e+01	-7.001553e+01
1.280000e-06	-2.555220e-06	-9.931023e-10	-1.781245e+01	-6.952492e+01
1.290000e-06	-2.513971e-06	-9.851978e-10	-1.752490e+01	-6.902906e+01
1.300000e-06	-2.472401e-06	-9.784105e-10	-1.723512e+01	-6.852809e+01
1.310000e-06	-2.430596e-06	-9.688557e-10	-1.694370e+01	-6.802213e+01
1.320000e-06	-2.388599e-06	-9.630607e-10	-1.665093e+01	-6.751127e+01
1.330000e-06	-2.346258e-06	-9.568964e-10	-1.635577e+01	-6.699558e+01
1.340000e-06	-2.303538e-06	-9.473123e-10	-1.605797e+01	-6.647509e+01
1.350000e-06	-2.260520e-06	-9.374362e-10	-1.575809e+01	-6.594978e+01
1.360000e-06	-2.217293e-06	-9.286838e-10	-1.545676e+01	-6.541959e+01
1.370000e-06	-2.173930e-06	-9.171175e-10	-1.515448e+01	-6.488445e+01
1.380000e-06	-2.130426e-06	-9.050400e-10	-1.485121e+01	-6.434421e+01
1.390000e-06	-2.086806e-06	-8.952595e-10	-1.454713e+01	-6.379870e+01
1.400000e-06	-2.043147e-06	-8.865912e-10	-1.424279e+01	-6.324768e+01
1.410000e-06	-1.999407e-06	-8.759480e-10	-1.393788e+01	-6.269090e+01
1.420000e-06	-1.955573e-06	-8.678883e-10	-1.363231e+01	-6.212805e+01
1.430000e-06	-1.911713e-06	-8.607702e-10	-1.332656e+01	-6.155876e+01
1.440000e-06	-1.867798e-06	-8.522511e-10	-1.302043e+01	-6.098267e+01
1.450000e-06	-1.823768e-06	-8.418600e-10	-1.271349e+01	-6.039934e+01
1.460000e-06	-1.779622e-06	-8.305402e-10	-1.240575e+01	-5.980831e+01
1.470000e-06	-1.735401e-06	-8.159993e-10	-1.209749e+01	-5.920910e+01
1.480000e-06	-1.691090e-06	-8.023899e-10	-1.178860e+01	-5.860117e+01
1.490000e-06	-1.646617e-06	-7.935936e-10	-1.147857e+01	-5.798398e+01
1.500000e-06	-1.601907e-06	-7.864528e-10	-1.116690e+01	-5.735695e+01
1.510000e-06	-1.556982e-06	-7.784848e-10	-1.085373e+01	-5.671949e+01
1.520000e-06	-1.511983e-06	-7.715238e-10	-1.054004e+01	-5.607098e+01
1.530000e-06	-1.466949e-06	-7.618059e-10	-1.022611e+01	-5.541078e+01
1.540000e-06	-1.421850e-06	-7.480810e-10	-9.911720e+00	-5.473823e+01
1.550000e-06	-1.376662e-06	-7.333289e-10	-9.596720e+00	-5.405265e+01
1.560000e-06	-1.331353e-06	-7.206178e-10	-9.280870e+00	-5.335336e+01
1.570000e-06	-1.285871e-06	-7.090474e-10	-8.963811e+00	-5.263964e+01
1.580000e-06	-1.240300e-06	-6.962288e-10	-8.646139e+00	-5.191078e+01
1.590000e-06	-1.194708e-06	-6.865961e-10	-8.328316e+00	-5.116603e+01
1.600000e-06	-1.148991e-06	-6.798414e-10	-8.009620e+00	-5.040464e+01
1.610000e-06	-1.103162e-06	-6.726608e-10	-7.690149e+00	-4.962584e+01
1.620000e-06	-1.057343e-06	-6.627554e-10	-7.370742e+00	-4.882885e+01
1.630000e-06	-1.011460e-06	-6.512443e-10	-7.050895e+00	-4.801285e+01
1.640000e-06	-9.654424e-07	-6.391985e-10	-6.730104e+00	-4.717703e+01
1.650000e-06	-9.193710e-07	-6.283046e-10	-6.408940e+00	-4.632056e+01
1.660000e-06	-8.732768e-07	-6.147406e-10	-6.087617e+00	-4.544258e+01
1.670000e-06	-8.271543e-07	-5.987006e-10	-5.766096e+00	-4.454224e+01
1.680000e-06	-7.809982e-07	-5.810254e-10	-5.444342e+00	-4.361867e+01
1.690000e-06	-7.347449e-07	-5.644449e-10	-5.121910e+00	-4.267098e+01
1.700000e-06	-6.884539e-07	-5.485205e-10	-4.799215e+00	-4.169829e+01
1.710000e-06	-6.421812e-07	-5.324757e-10	-4.476648e+00	-4.069971e+01
1.720000e-06	-5.958936e-07	-5.184705e-10	-4.153977e+00	-3.967437e+01
1.730000e-06	-5.496051e-07	-5.038083e-10	-3.831300e+00	-3.862138e+01
1.740000e-06	-5.032395e-07	-4.876288e-10	-3.508085e+00	-3.753989e+01
1.750000e-06	-4.567662e-07	-4.715567e-10	-3.184119e+00	-3.642908e+01
1.760000e-06	-4.102148e-07	-4.538585e-10	-2.859609e+00	-3.528814e+01
1.770000e-06	-3.635759e-07	-4.356013e-10	-2.534489e+00	-3.411632e+01
1.780000e-06	-3.169212e-07	-4.190007e-10	-2.209259e+00	-3.291290e+01
1.790000e-06	-2.702614e-07	-4.033322e-10	-1.883994e+00	-3.167725e+01
1.800000e-06	-2.235715e-07	-3.872388e-10	-1.558518e+00	-3.040879e+01
1.810000e-06	-1.768880e-07	-3.694229e-10	-1.233087e+00	-2.910702e+01
1.820000e-06	-1.302150e-07	-3.501490e-10	-9.077295e-01	-2.777156e+01
1.830000e-06	-8.356174e-08	-3.299381e-10	-5.825093e-01	-2.640210e+01
1.840000e-06	-3.693196e-08	-3.103768e-10	-2.574529e-01	-2.499847e+01
1.850000e-06	9.691488e-09	-2.910634e-10	6.755941e-02	-2.356062e+01
1.860000e-06	5.636863e-08	-2.695354e-10	3.929459e-01	-2.208864e+01
1.870000e-06	1.030911e-07	-2.467256e-10	7.186487e-01	-2.058274e+01
1.880000e-06	1.497637e-07	-2.234726e-10	1.044003e+00	-1.904333e+01
1.890000e-06	1.963764e-07	-2.006583e-10	1.368941e+00	-1.747093e+01
1.900000e-06	2.429840e-07	-1.780130e-10	1.693843e+00	-1.586625e+01
1.910000e-06	2.896065e-07	-1.547353e-10	2.018848e+00	-1.423018e+01
1.920000e-06	3.361631e-07	-1.321925e-10	2.343394e+00	-1.256377e+01
1.930000e-06	3.826748e-07	-1.106369e-10	2.667628e+00	-1.086823e+01
1.940000e-06	4.291784e-07	-8.925145e-11	2.991805e+00	-9.144972e+00
1.950000e-06	4.756743e-07	-6.609620e-11	3.315928e+00	-7.395554e+00
1.960000e-06	5.221158e-07	-4.049450e-11	3.639672e+00	-5.621713e+00
1.970000e-06	5.684584e-07	-1.592648e-11	3.962726e+00	-3.825338e+00
1.980000e-06	6.148144e-07	8.419892e-12	4.285874e+00	-2.008474e+00
1.990000e-06	6.610773e-07	3.430861e-11	4.608373e+00	-1.733020e-01
2.000000e-06	7.072322e-07	6.173138e-11	4.930119e+00	1.677866e+00
2.010000e-06	7.534174e-07	9.251206e-11	5.252076e+00	3.542603e+00
2.020000e-06	7.995812e-07	1.213477e-10	5.573884e+00	5.418383e+00
2.030000e-06	8.456929e-07	1.485342e-10	5.895329e+00	7.302598e+00
2.040000e-06	8.917233e-07	1.730434e-10	6.216207e+00	9.192571e+00
2.050000e-06	9.376608e-07	1.965974e-10	6.536438e+00	1.108558e+01
2.060000e-06	9.835522e-07	2.212976e-10	6.856347e+00	1.297888e+01
2.070000e-06	1.029341e-06	2.449366e-10	7.175541e+00	1.486970e+01
2.080000e-06	1.075107e-06	2.700537e-10	7.494579e+00	1.675530e+01
2.090000e-06	1.120898e-06	2.963253e-10	7.813782e+00	1.863296e+01
2.100000e-06	1.166583e-06	3.247840e-10	8.132255e+00	2.050003e+01
2.110000e-06	1.212183e-06	3.531337e-10	8.450133e+00	2.235390e+01
2.120000e-06	1.257682e-06	3.769665e-10	8.767305e+00	2.419207e+01
2.130000e-06	1.303036e-06	3.980612e-10	9.083468e+00	2.601214e+01
2.140000e-06	1.348344e-06	4.179271e-10	9.399310e+00	2.781184e+01
2.150000e-06	1.393577e-06	4.395844e-10	9.714635e+00	2.958902e+01
2.160000e-06	1.438695e-06	4.649268e-10	1.002915e+01	3.134169e+01
2.170000e-06	1.483714e-06	4.915114e-10	1.034298e+01	3.306802e+01
2.180000e-06	1.528696e-06	5.171646e-10	1.065655e+01	3.476636e+01
2.190000e-06	1.573606e-06	5.414462e-10	1.096962e+01	3.643521e+01
2.200000e-06	1.618299e-06	5.650310e-10	1.128117e+01	3.807329e+01
2.210000e-06	1.662756e-06	5.850444e-10	1.159108e+01	3.967946e+01
2.220000e-06	1.707083e-06	6.021473e-10	1.190008e+01	4.125281e+01
2.230000e-06	1.751308e-06	6.187061e-10	1.220838e+01	4.279260e+01
2.240000e-06	1.795413e-06	6.382302e-10	1.251583e+01	4.429826e+01
2.250000e-06	1.839426e-06	6.574636e-10	1.282265e+01	4.576941e+01
2.260000e-06	1.883375e-06	6.753041e-10	1.312901e+01	4.720584e+01
2.270000e-06	1.927289e-06	6.953050e-10	1.343514e+01	4.860751e+01
2.280000e-06	1.971133e-06	7.148094e-10	1.374077e+01	4.997451e+01
2.290000e-06	2.014900e-06	7.336143e-10	1.404588e+01	5.130709e+01
2.300000e-06	2.058574e-06	7.523017e-10	1.435033e+01	5.260563e+01
2.310000e-06	2.102198e-06	7.707194e-10	1.465443e+01	5.387061e+01
2.320000e-06	2.145784e-06	7.876803e-10	1.495827e+01	5.510263e+01
2.330000e-06	2.189275e-06	8.040340e-10	1.526144e+01	5.630236e+01
2.340000e-06	2.232625e-06	8.213189e-10	1.556364e+01	5.747057e+01
2.350000e-06	2.275740e-06	8.383477e-10	1.586419e+01	5.860805e+01
2.360000e-06	2.318610e-06	8.550207e-10	1.616304e+01	5.971568e+01
2.370000e-06	2.361260e-06	8.684710e-10	1.646035e+01	6.079433e+01
2.380000e-06	2.403739e-06	8.782539e-10	1.675647e+01	6.184491e+01
2.390000e-06	2.445857e-06	8.902533e-10	1.705008e+01	6.286834e+01
2.400000e-06	2.487475e-06	9.051765e-10	1.734020e+01	6.386552e+01
2.410000e-06	2.528763e-06	9.222329e-10	1.762802e+01	6.483734e+01
2.420000e-06	2.569813e-06	9.401165e-10	1.791418e+01	6.578467e+01
2.430000e-06	2.610593e-06	9.546180e-10	1.819846e+01	6.670833e+01
2.440000e-06	2.651063e-06	9.640775e-10	1.848057e+01	6.760913e+01
2.450000e-06	2.691319e-06	9.720192e-10	1.876120e+01	6.848781e+01
2.460000e-06	2.731414e-06	9.809439e-10	1.904070e+01	6.934508e+01
2.470000e-06	2.771375e-06	9.918042e-10	1.931927e+01	7.018159e+01
2.480000e-06	2.811224e-06	1.005173e-09	1.959706e+01	7.099795e+01
2.490000e-06	2.850955e-06	1.020102e-09	1.987402e+01	7.179470e+01
2.500000e-06	2.890603e-06	1.035332e-09	2.015041e+01	7.257235e+01
2.510000e-06	2.930105e-06	1.048490e-09	2.042577e+01	7.333135e+01
2.520000e-06	2.969440e-06	1.057087e-09	2.069998e+01	7.407212e+01
2.530000e-06	3.008609e-06	1.062598e-09	2.097303e+01	7.479502e+01
2.540000e-06	3.047559e-06	1.068841e-09	2.124455e+01	7.550040e+01
2.550000e-06	3.086209e-06	1.077122e-09	2.151398e+01	7.618856e+01
2.560000e-06	3.124602e-06	1.088051e-09	2.178161e+01	7.685978e+01
2.570000e-06	3.162803e-06	1.099374e-09	2.204792e+01	7.751432e+01
2.580000e-06	3.200814e-06	1.108452e-09	2.231289e+01	7.815244e+01
2.590000e-06	3.238661e-06	1.115777e-09	2.257672e+01	7.877437e+01
2.600000e-06	3.276334e-06	1.123448e-09	2.283934e+01	7.938036e+01
2.610000e-06	3.313787e-06	1.132389e-09	2.310042e+01	7.997063e+01
2.620000e-06	3.350986e-06	1.140170e-09	2.335974e+01	8.054544e+01
2.630000e-06	3.387885e-06	1.147346e-09	2.361696e+01	8.110505e+01
2.640000e-06	3.424478e-06	1.154813e-09	2.387205e+01	8.164972e+01
2.650000e-06	3.460828e-06	1.162447e-09	2.412545e+01	8.217974e+01
2.660000e-06	3.496962e-06	1.171327e-09	2.437734e+01	8.269542e+01
2.670000e-06	3.532890e-06	1.179294e-09	2.462780e+01	8.319707e+01
2.680000e-06	3.568682e-06	1.185611e-09	2.487730e+01	8.368503e+01
2.690000e-06	3.604384e-06	1.190285e-09	2.512618e+01	8.415967e+01
2.700000e-06	3.639961e-06	1.194964e-09	2.537419e+01	8.462136e+01
2.710000e-06	3.675401e-06	1.201877e-09	2.562124e+01	8.507050e+01
2.720000e-06	3.710622e-06	1.209684e-09	2.586676e+01	8.550748e+01
2.730000e-06	3.745485e-06	1.217619e-09	2.610979e+01	8.593274e+01
2.740000e-06	3.779946e-06	1.223966e-09	2.635002e+01	8.634669e+01
2.750000e-06	3.814002e-06	1.229601e-09	2.658742e+01	8.674976e+01
2.760000e-06	3.847497e-06	1.236690e-09	2.682092e+01	8.714238e+01
2.770000e-06	3.880422e-06	1.242518e-09	2.705044e+01	8.752499e+01
2.780000e-06	3.912952e-06	1.246397e-09	2.727721e+01	8.789799e+01
2.790000e-06	3.945221e-06	1.253606e-09	2.750215e+01	8.826180e+01
2.800000e-06	3.977281e-06	1.262268e-09	2.772564e+01	8.861682e+01
2.810000e-06	4.009108e-06	1.269389e-09	2.794751e+01	8.896342e+01
2.820000e-06	4.040748e-06	1.274143e-09	2.816807e+01	8.930195e+01
2.830000e-06	4.072306e-06	1.277995e-09	2.838806e+01	8.963276e+01
2.840000e-06	4.103699e-06	1.281446e-09	2.860691e+01	8.995616e+01
2.850000e-06	4.134802e-06	1.285676e-09	2.882372e+01	9.027242e+01
2.860000e-06	4.165583e-06	1.290339e-09	2.903830e+01	9.058181e+01
2.870000e-06	4.195991e-06	1.294982e-09	2.925027e+01	9.088456e+01
2.880000e-06	4.226067e-06	1.301295e-09	2.945993e+01	9.118086e+01
2.890000e-06	4.255838e-06	1.308273e-09	2.966746e+01	9.147090e+01
2.900000e-06	4.285358e-06	1.316337e-09	2.987325e+01	9.175483e+01
