# Temperatura_=_11.6
# Concentracion g/m^3_=_1620.0
# C_Vs_to_Am_M_A/Vsm_=_65563218390.804596
# pendiente_HvsI_1/m_=_3716.3
# ordenada_HvsI_A/m_=_1297.0
# frecuencia_Hz_=_135103.23613763697

Tiempo_(s)	Campo_(V.s)	Magnetizacion_(V.s)	Campo_(kA/m)	Magnetizacion_(A/m)
0.000000e+00	-5.512984e-06	-1.450782e-09	-3.836664e+01	-9.580460e+01
1.000000e-08	-5.513061e-06	-1.448876e-09	-3.836717e+01	-9.579524e+01
2.000000e-08	-5.512890e-06	-1.446180e-09	-3.836598e+01	-9.578413e+01
3.000000e-08	-5.512458e-06	-1.444014e-09	-3.836297e+01	-9.577140e+01
4.000000e-08	-5.511632e-06	-1.443168e-09	-3.835723e+01	-9.575713e+01
5.000000e-08	-5.510296e-06	-1.451385e-09	-3.834793e+01	-9.574144e+01
6.000000e-08	-5.508429e-06	-1.467838e-09	-3.833494e+01	-9.572439e+01
7.000000e-08	-5.505949e-06	-1.461295e-09	-3.831768e+01	-9.570607e+01
8.000000e-08	-5.502924e-06	-1.390876e-09	-3.829663e+01	-9.568651e+01
9.000000e-08	-5.499404e-06	-1.345856e-09	-3.827213e+01	-9.566572e+01
1.000000e-07	-5.495445e-06	-1.433093e-09	-3.824458e+01	-9.564366e+01
1.100000e-07	-5.491117e-06	-1.536163e-09	-3.821446e+01	-9.562025e+01
1.200000e-07	-5.486443e-06	-1.444983e-09	-3.818193e+01	-9.559537e+01
1.300000e-07	-5.481557e-06	-1.357068e-09	-3.814793e+01	-9.556884e+01
1.400000e-07	-5.476406e-06	-1.401271e-09	-3.811208e+01	-9.554043e+01
1.500000e-07	-5.470772e-06	-1.516117e-09	-3.807287e+01	-9.550984e+01
1.600000e-07	-5.464683e-06	-1.451728e-09	-3.803050e+01	-9.547674e+01
1.700000e-07	-5.458306e-06	-1.332228e-09	-3.798612e+01	-9.544074e+01
1.800000e-07	-5.451521e-06	-1.389907e-09	-3.793890e+01	-9.540140e+01
1.900000e-07	-5.444261e-06	-1.505922e-09	-3.788838e+01	-9.535824e+01
2.000000e-07	-5.436761e-06	-1.504361e-09	-3.783617e+01	-9.531076e+01
2.100000e-07	-5.429114e-06	-1.402386e-09	-3.778296e+01	-9.525842e+01
2.200000e-07	-5.421144e-06	-1.409322e-09	-3.772749e+01	-9.520067e+01
2.300000e-07	-5.412746e-06	-1.457498e-09	-3.766905e+01	-9.513696e+01
2.400000e-07	-5.403953e-06	-1.462429e-09	-3.760785e+01	-9.506674e+01
2.500000e-07	-5.394676e-06	-1.413536e-09	-3.754329e+01	-9.498949e+01
2.600000e-07	-5.384705e-06	-1.425286e-09	-3.747390e+01	-9.490471e+01
2.700000e-07	-5.374105e-06	-1.432604e-09	-3.740013e+01	-9.481196e+01
2.800000e-07	-5.363027e-06	-1.424076e-09	-3.732303e+01	-9.471082e+01
2.900000e-07	-5.351456e-06	-1.385893e-09	-3.724251e+01	-9.460098e+01
3.000000e-07	-5.339460e-06	-1.396326e-09	-3.715903e+01	-9.448217e+01
3.100000e-07	-5.327123e-06	-1.422518e-09	-3.707317e+01	-9.435424e+01
3.200000e-07	-5.314384e-06	-1.438568e-09	-3.698451e+01	-9.421709e+01
3.300000e-07	-5.301203e-06	-1.401740e-09	-3.689279e+01	-9.407075e+01
3.400000e-07	-5.287704e-06	-1.392970e-09	-3.679884e+01	-9.391535e+01
3.500000e-07	-5.273823e-06	-1.420783e-09	-3.670224e+01	-9.375109e+01
3.600000e-07	-5.259396e-06	-1.406757e-09	-3.660184e+01	-9.357832e+01
3.700000e-07	-5.244501e-06	-1.371008e-09	-3.649818e+01	-9.339746e+01
3.800000e-07	-5.229245e-06	-1.403974e-09	-3.639200e+01	-9.320903e+01
3.900000e-07	-5.213458e-06	-1.421159e-09	-3.628214e+01	-9.301365e+01
4.000000e-07	-5.197080e-06	-1.351564e-09	-3.616816e+01	-9.281201e+01
4.100000e-07	-5.180378e-06	-1.365621e-09	-3.605193e+01	-9.260486e+01
4.200000e-07	-5.163372e-06	-1.433530e-09	-3.593357e+01	-9.239303e+01
4.300000e-07	-5.145959e-06	-1.380141e-09	-3.581239e+01	-9.217738e+01
4.400000e-07	-5.128178e-06	-1.310072e-09	-3.568865e+01	-9.195881e+01
4.500000e-07	-5.110075e-06	-1.401848e-09	-3.556267e+01	-9.173820e+01
4.600000e-07	-5.091650e-06	-1.413319e-09	-3.543444e+01	-9.151646e+01
4.700000e-07	-5.072807e-06	-1.306726e-09	-3.530330e+01	-9.129448e+01
4.800000e-07	-5.053572e-06	-1.328347e-09	-3.516944e+01	-9.107308e+01
4.900000e-07	-5.034062e-06	-1.414336e-09	-3.503367e+01	-9.085306e+01
5.000000e-07	-5.014273e-06	-1.339098e-09	-3.489595e+01	-9.063514e+01
5.100000e-07	-4.994209e-06	-1.322390e-09	-3.475632e+01	-9.041995e+01
5.200000e-07	-4.973904e-06	-1.409488e-09	-3.461501e+01	-9.020804e+01
5.300000e-07	-4.953329e-06	-1.366649e-09	-3.447182e+01	-8.999986e+01
5.400000e-07	-4.932392e-06	-1.279164e-09	-3.432611e+01	-8.979572e+01
5.500000e-07	-4.911160e-06	-1.358287e-09	-3.417835e+01	-8.959584e+01
5.600000e-07	-4.889583e-06	-1.379506e-09	-3.402819e+01	-8.940030e+01
5.700000e-07	-4.867540e-06	-1.291211e-09	-3.387478e+01	-8.920906e+01
5.800000e-07	-4.845129e-06	-1.316520e-09	-3.371882e+01	-8.902197e+01
5.900000e-07	-4.822448e-06	-1.379607e-09	-3.356098e+01	-8.883874e+01
6.000000e-07	-4.799426e-06	-1.312393e-09	-3.340076e+01	-8.865898e+01
6.100000e-07	-4.776095e-06	-1.290609e-09	-3.323839e+01	-8.848219e+01
6.200000e-07	-4.752501e-06	-1.346802e-09	-3.307419e+01	-8.830779e+01
6.300000e-07	-4.728656e-06	-1.321155e-09	-3.290825e+01	-8.813509e+01
6.400000e-07	-4.704613e-06	-1.282212e-09	-3.274093e+01	-8.796336e+01
6.500000e-07	-4.680330e-06	-1.319384e-09	-3.257193e+01	-8.779182e+01
6.600000e-07	-4.655668e-06	-1.320381e-09	-3.240030e+01	-8.761962e+01
6.700000e-07	-4.630501e-06	-1.281246e-09	-3.222515e+01	-8.744593e+01
6.800000e-07	-4.604801e-06	-1.298510e-09	-3.204630e+01	-8.726990e+01
6.900000e-07	-4.578543e-06	-1.314903e-09	-3.186356e+01	-8.709069e+01
7.000000e-07	-4.551761e-06	-1.289108e-09	-3.167718e+01	-8.690751e+01
7.100000e-07	-4.524571e-06	-1.281908e-09	-3.148795e+01	-8.671961e+01
7.200000e-07	-4.497082e-06	-1.296368e-09	-3.129665e+01	-8.652629e+01
7.300000e-07	-4.469374e-06	-1.280403e-09	-3.110382e+01	-8.632695e+01
7.400000e-07	-4.441445e-06	-1.268652e-09	-3.090945e+01	-8.612104e+01
7.500000e-07	-4.413297e-06	-1.274629e-09	-3.071356e+01	-8.590814e+01
7.600000e-07	-4.385029e-06	-1.275273e-09	-3.051684e+01	-8.568791e+01
7.700000e-07	-4.356546e-06	-1.262913e-09	-3.031861e+01	-8.546013e+01
7.800000e-07	-4.327676e-06	-1.261965e-09	-3.011770e+01	-8.522465e+01
7.900000e-07	-4.298409e-06	-1.253048e-09	-2.991402e+01	-8.498148e+01
8.000000e-07	-4.268859e-06	-1.243054e-09	-2.970837e+01	-8.473069e+01
8.100000e-07	-4.239037e-06	-1.239939e-09	-2.950083e+01	-8.447247e+01
8.200000e-07	-4.208879e-06	-1.240436e-09	-2.929095e+01	-8.420709e+01
8.300000e-07	-4.178462e-06	-1.227945e-09	-2.907927e+01	-8.393489e+01
8.400000e-07	-4.147859e-06	-1.224561e-09	-2.886629e+01	-8.365630e+01
8.500000e-07	-4.116835e-06	-1.224868e-09	-2.865039e+01	-8.337179e+01
8.600000e-07	-4.085458e-06	-1.214465e-09	-2.843202e+01	-8.308188e+01
8.700000e-07	-4.053942e-06	-1.200698e-09	-2.821269e+01	-8.278710e+01
8.800000e-07	-4.022226e-06	-1.198906e-09	-2.799197e+01	-8.248800e+01
8.900000e-07	-3.990347e-06	-1.191202e-09	-2.777011e+01	-8.218514e+01
9.000000e-07	-3.958295e-06	-1.182224e-09	-2.754705e+01	-8.187905e+01
9.100000e-07	-3.925989e-06	-1.183776e-09	-2.732223e+01	-8.157020e+01
9.200000e-07	-3.893353e-06	-1.181679e-09	-2.709510e+01	-8.125907e+01
9.300000e-07	-3.860422e-06	-1.168577e-09	-2.686592e+01	-8.094603e+01
9.400000e-07	-3.827072e-06	-1.162219e-09	-2.663383e+01	-8.063142e+01
9.500000e-07	-3.793178e-06	-1.159320e-09	-2.639796e+01	-8.031546e+01
9.600000e-07	-3.758884e-06	-1.144313e-09	-2.615929e+01	-7.999834e+01
9.700000e-07	-3.724209e-06	-1.132302e-09	-2.591797e+01	-7.968011e+01
9.800000e-07	-3.689104e-06	-1.130935e-09	-2.567367e+01	-7.936078e+01
9.900000e-07	-3.653673e-06	-1.126881e-09	-2.542709e+01	-7.904025e+01
1.000000e-06	-3.618036e-06	-1.117015e-09	-2.517908e+01	-7.871832e+01
1.010000e-06	-3.582192e-06	-1.117706e-09	-2.492963e+01	-7.839473e+01
1.020000e-06	-3.546171e-06	-1.117341e-09	-2.467895e+01	-7.806915e+01
1.030000e-06	-3.510051e-06	-1.108513e-09	-2.442758e+01	-7.774117e+01
1.040000e-06	-3.473783e-06	-1.102100e-09	-2.417518e+01	-7.741033e+01
1.050000e-06	-3.437272e-06	-1.100655e-09	-2.392109e+01	-7.707615e+01
1.060000e-06	-3.400494e-06	-1.089633e-09	-2.366514e+01	-7.673808e+01
1.070000e-06	-3.363447e-06	-1.082062e-09	-2.340732e+01	-7.639560e+01
1.080000e-06	-3.326211e-06	-1.082437e-09	-2.314818e+01	-7.604816e+01
1.090000e-06	-3.288765e-06	-1.081971e-09	-2.288758e+01	-7.569523e+01
1.100000e-06	-3.251072e-06	-1.074274e-09	-2.262526e+01	-7.533630e+01
1.110000e-06	-3.213185e-06	-1.069939e-09	-2.236160e+01	-7.497091e+01
1.120000e-06	-3.175005e-06	-1.063903e-09	-2.209588e+01	-7.459865e+01
1.130000e-06	-3.136555e-06	-1.053014e-09	-2.182830e+01	-7.421916e+01
1.140000e-06	-3.097888e-06	-1.044072e-09	-2.155920e+01	-7.383215e+01
1.150000e-06	-3.058996e-06	-1.041283e-09	-2.128854e+01	-7.343742e+01
1.160000e-06	-3.019938e-06	-1.035001e-09	-2.101672e+01	-7.303485e+01
1.170000e-06	-2.980700e-06	-1.027119e-09	-2.074366e+01	-7.262440e+01
1.180000e-06	-2.941228e-06	-1.022611e-09	-2.046895e+01	-7.220611e+01
1.190000e-06	-2.901572e-06	-1.017551e-09	-2.019298e+01	-7.178011e+01
1.200000e-06	-2.861803e-06	-1.008744e-09	-1.991621e+01	-7.134662e+01
1.210000e-06	-2.821942e-06	-1.002003e-09	-1.963881e+01	-7.090592e+01
1.220000e-06	-2.781973e-06	-9.950923e-10	-1.936065e+01	-7.045835e+01
1.230000e-06	-2.741893e-06	-9.874857e-10	-1.908172e+01	-7.000434e+01
1.240000e-06	-2.701690e-06	-9.844086e-10	-1.880193e+01	-6.954434e+01
1.250000e-06	-2.661243e-06	-9.839118e-10	-1.852045e+01	-6.907884e+01
1.260000e-06	-2.620620e-06	-9.808490e-10	-1.823774e+01	-6.860835e+01
1.270000e-06	-2.579840e-06	-9.740881e-10	-1.795394e+01	-6.813339e+01
1.280000e-06	-2.538814e-06	-9.684151e-10	-1.766842e+01	-6.765446e+01
1.290000e-06	-2.497458e-06	-9.601401e-10	-1.738062e+01	-6.717207e+01
1.300000e-06	-2.455792e-06	-9.490587e-10	-1.709065e+01	-6.668666e+01
1.310000e-06	-2.413949e-06	-9.405851e-10	-1.679945e+01	-6.619863e+01
1.320000e-06	-2.371771e-06	-9.361059e-10	-1.650592e+01	-6.570832e+01
1.330000e-06	-2.329263e-06	-9.284318e-10	-1.621009e+01	-6.521602e+01
1.340000e-06	-2.286512e-06	-9.200561e-10	-1.591257e+01	-6.472189e+01
1.350000e-06	-2.243449e-06	-9.132617e-10	-1.561289e+01	-6.422604e+01
1.360000e-06	-2.200125e-06	-9.044291e-10	-1.531138e+01	-6.372847e+01
1.370000e-06	-2.156591e-06	-8.924483e-10	-1.500841e+01	-6.322907e+01
1.380000e-06	-2.112923e-06	-8.815635e-10	-1.470452e+01	-6.272765e+01
1.390000e-06	-2.069161e-06	-8.713132e-10	-1.439996e+01	-6.222389e+01
1.400000e-06	-2.025341e-06	-8.634199e-10	-1.409500e+01	-6.171738e+01
1.410000e-06	-1.981446e-06	-8.577034e-10	-1.378952e+01	-6.120762e+01
1.420000e-06	-1.937474e-06	-8.525049e-10	-1.348351e+01	-6.069401e+01
1.430000e-06	-1.893442e-06	-8.435446e-10	-1.317708e+01	-6.017586e+01
1.440000e-06	-1.849383e-06	-8.325944e-10	-1.287045e+01	-5.965243e+01
1.450000e-06	-1.805274e-06	-8.207966e-10	-1.256348e+01	-5.912288e+01
1.460000e-06	-1.761002e-06	-8.085927e-10	-1.225538e+01	-5.858633e+01
1.470000e-06	-1.716543e-06	-7.954058e-10	-1.194598e+01	-5.804185e+01
1.480000e-06	-1.671905e-06	-7.863182e-10	-1.163533e+01	-5.748850e+01
1.490000e-06	-1.627164e-06	-7.799393e-10	-1.132396e+01	-5.692528e+01
1.500000e-06	-1.582359e-06	-7.722502e-10	-1.101215e+01	-5.635121e+01
1.510000e-06	-1.537442e-06	-7.642861e-10	-1.069956e+01	-5.576530e+01
1.520000e-06	-1.492429e-06	-7.561946e-10	-1.038629e+01	-5.516657e+01
1.530000e-06	-1.447233e-06	-7.455580e-10	-1.007176e+01	-5.455405e+01
1.540000e-06	-1.401894e-06	-7.313174e-10	-9.756230e+00	-5.392682e+01
1.550000e-06	-1.356555e-06	-7.180568e-10	-9.440702e+00	-5.328397e+01
1.560000e-06	-1.311074e-06	-7.059835e-10	-9.124186e+00	-5.262464e+01
1.570000e-06	-1.265456e-06	-6.951842e-10	-8.806717e+00	-5.194799e+01
1.580000e-06	-1.219799e-06	-6.872264e-10	-8.488973e+00	-5.125326e+01
1.590000e-06	-1.174021e-06	-6.811543e-10	-8.170392e+00	-5.053970e+01
1.600000e-06	-1.128158e-06	-6.726350e-10	-7.851219e+00	-4.980661e+01
1.610000e-06	-1.082243e-06	-6.611086e-10	-7.531681e+00	-4.905333e+01
1.620000e-06	-1.036283e-06	-6.489101e-10	-7.211825e+00	-4.827922e+01
1.630000e-06	-9.902716e-07	-6.369450e-10	-6.891620e+00	-4.748368e+01
1.640000e-06	-9.441507e-07	-6.259366e-10	-6.570650e+00	-4.666615e+01
1.650000e-06	-8.979518e-07	-6.147064e-10	-6.249137e+00	-4.582604e+01
1.660000e-06	-8.517236e-07	-5.995459e-10	-5.927420e+00	-4.496282e+01
1.670000e-06	-8.055393e-07	-5.833860e-10	-5.606008e+00	-4.407593e+01
1.680000e-06	-7.593436e-07	-5.682959e-10	-5.284517e+00	-4.316483e+01
1.690000e-06	-7.130546e-07	-5.541925e-10	-4.962378e+00	-4.222894e+01
1.700000e-06	-6.666954e-07	-5.388558e-10	-4.639749e+00	-4.126772e+01
1.710000e-06	-6.202637e-07	-5.247436e-10	-4.316615e+00	-4.028057e+01
1.720000e-06	-5.737794e-07	-5.118406e-10	-3.993116e+00	-3.926689e+01
1.730000e-06	-5.273145e-07	-4.983917e-10	-3.669752e+00	-3.822606e+01
1.740000e-06	-4.808319e-07	-4.828745e-10	-3.346265e+00	-3.715747e+01
1.750000e-06	-4.342499e-07	-4.642269e-10	-3.022085e+00	-3.606045e+01
1.760000e-06	-3.876031e-07	-4.435174e-10	-2.697455e+00	-3.493438e+01
1.770000e-06	-3.409606e-07	-4.240991e-10	-2.372855e+00	-3.377859e+01
1.780000e-06	-2.943351e-07	-4.066443e-10	-2.048373e+00	-3.259246e+01
1.790000e-06	-2.476566e-07	-3.910422e-10	-1.723522e+00	-3.137536e+01
1.800000e-06	-2.009196e-07	-3.770214e-10	-1.398265e+00	-3.012673e+01
1.810000e-06	-1.541497e-07	-3.610845e-10	-1.072778e+00	-2.884603e+01
1.820000e-06	-1.073844e-07	-3.428670e-10	-7.473225e-01	-2.753277e+01
1.830000e-06	-6.063885e-08	-3.246986e-10	-4.220054e-01	-2.618658e+01
1.840000e-06	-1.391373e-08	-3.066962e-10	-9.683012e-02	-2.480714e+01
1.850000e-06	3.280006e-08	-2.870757e-10	2.282662e-01	-2.339427e+01
1.860000e-06	7.958095e-08	-2.666773e-10	5.538296e-01	-2.194789e+01
1.870000e-06	1.263283e-07	-2.455605e-10	8.791597e-01	-2.046808e+01
1.880000e-06	1.730327e-07	-2.258013e-10	1.204190e+00	-1.895506e+01
1.890000e-06	2.197972e-07	-2.071438e-10	1.529639e+00	-1.740923e+01
1.900000e-06	2.665468e-07	-1.863741e-10	1.854985e+00	-1.583115e+01
1.910000e-06	3.133197e-07	-1.643347e-10	2.180493e+00	-1.422157e+01
1.920000e-06	3.600893e-07	-1.438835e-10	2.505978e+00	-1.258145e+01
1.930000e-06	4.067945e-07	-1.221452e-10	2.831014e+00	-1.091194e+01
1.940000e-06	4.534706e-07	-9.816854e-11	3.155848e+00	-9.214382e+00
1.950000e-06	5.001188e-07	-7.290029e-11	3.480489e+00	-7.490319e+00
1.960000e-06	5.466768e-07	-4.871924e-11	3.804501e+00	-5.741493e+00
1.970000e-06	5.931620e-07	-2.614038e-11	4.128006e+00	-3.969830e+00
1.980000e-06	6.395764e-07	-5.350392e-12	4.451019e+00	-2.177433e+00
1.990000e-06	6.859331e-07	1.632296e-11	4.773630e+00	-3.665710e-01
2.000000e-06	7.322557e-07	4.204043e-11	5.096004e+00	1.460339e+00
2.010000e-06	7.784894e-07	7.097563e-11	5.417759e+00	3.300748e+00
2.020000e-06	8.246836e-07	1.006818e-10	5.739240e+00	5.151996e+00
2.030000e-06	8.708729e-07	1.276482e-10	6.060686e+00	7.011332e+00
2.040000e-06	9.170500e-07	1.507058e-10	6.382048e+00	8.875938e+00
2.050000e-06	9.631757e-07	1.731116e-10	6.703051e+00	1.074295e+01
2.060000e-06	1.009222e-06	1.964300e-10	7.023502e+00	1.260950e+01
2.070000e-06	1.055129e-06	2.205977e-10	7.342987e+00	1.447271e+01
2.080000e-06	1.100891e-06	2.477911e-10	7.661456e+00	1.632975e+01
2.090000e-06	1.146554e-06	2.775611e-10	7.979239e+00	1.817783e+01
2.100000e-06	1.192158e-06	3.061445e-10	8.296614e+00	2.001426e+01
2.110000e-06	1.237736e-06	3.323018e-10	8.613807e+00	2.183643e+01
2.120000e-06	1.283210e-06	3.571541e-10	8.930276e+00	2.364189e+01
2.130000e-06	1.328580e-06	3.796555e-10	9.246021e+00	2.542828e+01
2.140000e-06	1.373847e-06	4.000260e-10	9.561046e+00	2.719345e+01
2.150000e-06	1.418996e-06	4.218242e-10	9.875253e+00	2.893539e+01
2.160000e-06	1.464125e-06	4.477410e-10	1.018932e+01	3.065229e+01
2.170000e-06	1.509167e-06	4.746946e-10	1.050278e+01	3.234251e+01
2.180000e-06	1.554068e-06	4.983199e-10	1.081526e+01	3.400463e+01
2.190000e-06	1.598829e-06	5.202563e-10	1.112677e+01	3.563742e+01
2.200000e-06	1.643445e-06	5.422657e-10	1.143726e+01	3.723983e+01
2.210000e-06	1.687949e-06	5.628164e-10	1.174698e+01	3.881103e+01
2.220000e-06	1.732383e-06	5.829484e-10	1.205621e+01	4.035037e+01
2.230000e-06	1.776735e-06	6.032054e-10	1.236487e+01	4.185737e+01
2.240000e-06	1.820985e-06	6.219162e-10	1.267283e+01	4.333173e+01
2.250000e-06	1.865129e-06	6.394761e-10	1.298003e+01	4.477332e+01
2.260000e-06	1.909170e-06	6.602345e-10	1.328653e+01	4.618212e+01
2.270000e-06	1.953174e-06	6.834502e-10	1.359277e+01	4.755828e+01
2.280000e-06	1.997116e-06	7.060952e-10	1.389857e+01	4.890203e+01
2.290000e-06	2.040965e-06	7.267548e-10	1.420373e+01	5.021371e+01
2.300000e-06	2.084708e-06	7.447434e-10	1.450815e+01	5.149374e+01
2.310000e-06	2.128404e-06	7.602426e-10	1.481225e+01	5.274262e+01
2.320000e-06	2.171931e-06	7.748463e-10	1.511517e+01	5.396086e+01
2.330000e-06	2.215245e-06	7.890858e-10	1.541660e+01	5.514905e+01
2.340000e-06	2.258457e-06	8.045893e-10	1.571733e+01	5.630776e+01
2.350000e-06	2.301572e-06	8.216799e-10	1.601739e+01	5.743760e+01
2.360000e-06	2.344459e-06	8.378921e-10	1.631585e+01	5.853915e+01
2.370000e-06	2.386947e-06	8.516701e-10	1.661153e+01	5.961300e+01
2.380000e-06	2.429063e-06	8.652189e-10	1.690464e+01	6.065970e+01
2.390000e-06	2.470879e-06	8.774038e-10	1.719564e+01	6.167979e+01
2.400000e-06	2.512323e-06	8.879228e-10	1.748407e+01	6.267378e+01
2.410000e-06	2.553416e-06	8.998784e-10	1.777005e+01	6.364212e+01
2.420000e-06	2.594329e-06	9.134482e-10	1.805478e+01	6.458527e+01
2.430000e-06	2.635002e-06	9.274337e-10	1.833783e+01	6.550363e+01
2.440000e-06	2.675516e-06	9.413167e-10	1.861978e+01	6.639756e+01
2.450000e-06	2.715971e-06	9.545813e-10	1.890132e+01	6.726743e+01
2.460000e-06	2.756260e-06	9.654407e-10	1.918171e+01	6.811357e+01
2.470000e-06	2.796354e-06	9.738192e-10	1.946073e+01	6.893628e+01
2.480000e-06	2.836275e-06	9.832806e-10	1.973855e+01	6.973587e+01
2.490000e-06	2.876048e-06	9.957632e-10	2.001535e+01	7.051263e+01
2.500000e-06	2.915700e-06	1.009107e-09	2.029130e+01	7.126688e+01
2.510000e-06	2.955237e-06	1.021923e-09	2.056645e+01	7.199892e+01
2.520000e-06	2.994540e-06	1.032277e-09	2.083997e+01	7.270909e+01
2.530000e-06	3.033554e-06	1.040690e-09	2.111149e+01	7.339772e+01
2.540000e-06	3.072339e-06	1.048419e-09	2.138140e+01	7.406518e+01
2.550000e-06	3.110988e-06	1.056102e-09	2.165037e+01	7.471189e+01
2.560000e-06	3.149395e-06	1.062393e-09	2.191766e+01	7.533828e+01
2.570000e-06	3.187475e-06	1.069252e-09	2.218267e+01	7.594480e+01
2.580000e-06	3.225365e-06	1.076981e-09	2.244636e+01	7.653197e+01
2.590000e-06	3.263069e-06	1.086527e-09	2.270875e+01	7.710031e+01
2.600000e-06	3.300607e-06	1.096161e-09	2.296999e+01	7.765039e+01
2.610000e-06	3.337980e-06	1.101962e-09	2.323008e+01	7.818281e+01
2.620000e-06	3.375095e-06	1.106601e-09	2.348837e+01	7.869819e+01
2.630000e-06	3.411941e-06	1.111762e-09	2.374480e+01	7.919719e+01
2.640000e-06	3.448548e-06	1.119136e-09	2.399956e+01	7.968045e+01
2.650000e-06	3.484967e-06	1.126938e-09	2.425301e+01	8.014865e+01
2.660000e-06	3.521202e-06	1.133187e-09	2.450518e+01	8.060248e+01
2.670000e-06	3.557258e-06	1.136831e-09	2.475611e+01	8.104261e+01
2.680000e-06	3.593190e-06	1.139310e-09	2.500617e+01	8.146972e+01
2.690000e-06	3.628970e-06	1.147343e-09	2.525517e+01	8.188446e+01
2.700000e-06	3.664603e-06	1.156609e-09	2.550316e+01	8.228747e+01
2.710000e-06	3.699968e-06	1.165753e-09	2.574927e+01	8.267938e+01
2.720000e-06	3.734898e-06	1.176325e-09	2.599236e+01	8.306076e+01
2.730000e-06	3.769374e-06	1.182020e-09	2.623229e+01	8.343218e+01
2.740000e-06	3.803471e-06	1.183776e-09	2.646958e+01	8.379416e+01
2.750000e-06	3.837233e-06	1.186668e-09	2.670454e+01	8.414717e+01
2.760000e-06	3.870594e-06	1.190803e-09	2.693671e+01	8.449165e+01
2.770000e-06	3.903498e-06	1.196658e-09	2.716570e+01	8.482802e+01
2.780000e-06	3.936010e-06	1.205433e-09	2.739197e+01	8.515662e+01
2.790000e-06	3.968261e-06	1.215731e-09	2.761641e+01	8.547778e+01
2.800000e-06	4.000332e-06	1.223463e-09	2.783960e+01	8.579178e+01
2.810000e-06	4.032302e-06	1.226842e-09	2.806209e+01	8.609888e+01
2.820000e-06	4.064061e-06	1.229460e-09	2.828311e+01	8.639929e+01
2.830000e-06	4.095541e-06	1.232215e-09	2.850219e+01	8.669321e+01
2.840000e-06	4.126809e-06	1.236521e-09	2.871980e+01	8.698079e+01
2.850000e-06	4.157787e-06	1.242190e-09	2.893538e+01	8.726220e+01
2.860000e-06	4.188421e-06	1.249430e-09	2.914858e+01	8.753757e+01
2.870000e-06	4.218758e-06	1.257396e-09	2.935970e+01	8.780702e+01
2.880000e-06	4.248814e-06	1.263519e-09	2.956887e+01	8.807067e+01
2.890000e-06	4.278578e-06	1.268795e-09	2.977601e+01	8.832864e+01
2.900000e-06	4.308047e-06	1.273449e-09	2.998109e+01	8.858104e+01
