# Temperatura_=_13.6
# Concentracion g/m^3_=_1620.0
# C_Vs_to_Am_M_A/Vsm_=_65563218390.804596
# pendiente_HvsI_1/m_=_3716.3
# ordenada_HvsI_A/m_=_1297.0
# frecuencia_Hz_=_135099.8659443148

Tiempo_(s)	Campo_(V.s)	Magnetizacion_(V.s)	Campo_(kA/m)	Magnetizacion_(A/m)
0.000000e+00	-5.529730e-06	-1.498708e-09	-3.836888e+01	-9.888834e+01
1.000000e-08	-5.529801e-06	-1.497554e-09	-3.836936e+01	-9.885963e+01
2.000000e-08	-5.529544e-06	-1.494818e-09	-3.836758e+01	-9.883362e+01
3.000000e-08	-5.528928e-06	-1.491036e-09	-3.836331e+01	-9.881026e+01
4.000000e-08	-5.527852e-06	-1.487783e-09	-3.835584e+01	-9.878941e+01
5.000000e-08	-5.526223e-06	-1.490857e-09	-3.834454e+01	-9.877088e+01
6.000000e-08	-5.524002e-06	-1.513557e-09	-3.832913e+01	-9.875445e+01
7.000000e-08	-5.521167e-06	-1.520114e-09	-3.830946e+01	-9.873981e+01
8.000000e-08	-5.517809e-06	-1.446311e-09	-3.828616e+01	-9.872663e+01
9.000000e-08	-5.513998e-06	-1.397898e-09	-3.825971e+01	-9.871451e+01
1.000000e-07	-5.509857e-06	-1.521378e-09	-3.823098e+01	-9.870302e+01
1.100000e-07	-5.505410e-06	-1.593665e-09	-3.820013e+01	-9.869169e+01
1.200000e-07	-5.500705e-06	-1.494986e-09	-3.816748e+01	-9.868000e+01
1.300000e-07	-5.495744e-06	-1.377604e-09	-3.813306e+01	-9.866742e+01
1.400000e-07	-5.490456e-06	-1.473905e-09	-3.809637e+01	-9.865338e+01
1.500000e-07	-5.484715e-06	-1.581664e-09	-3.805653e+01	-9.863731e+01
1.600000e-07	-5.478499e-06	-1.477954e-09	-3.801340e+01	-9.861861e+01
1.700000e-07	-5.471969e-06	-1.389596e-09	-3.796809e+01	-9.859669e+01
1.800000e-07	-5.465052e-06	-1.477358e-09	-3.792010e+01	-9.857097e+01
1.900000e-07	-5.457700e-06	-1.610612e-09	-3.786909e+01	-9.854085e+01
2.000000e-07	-5.450036e-06	-1.524163e-09	-3.781590e+01	-9.850577e+01
2.100000e-07	-5.442184e-06	-1.441400e-09	-3.776142e+01	-9.846520e+01
2.200000e-07	-5.434124e-06	-1.463681e-09	-3.770550e+01	-9.841862e+01
2.300000e-07	-5.425735e-06	-1.553623e-09	-3.764729e+01	-9.836556e+01
2.400000e-07	-5.416802e-06	-1.515382e-09	-3.758530e+01	-9.830558e+01
2.500000e-07	-5.407177e-06	-1.482137e-09	-3.751852e+01	-9.823832e+01
2.600000e-07	-5.396849e-06	-1.485680e-09	-3.744686e+01	-9.816342e+01
2.700000e-07	-5.385974e-06	-1.506889e-09	-3.737140e+01	-9.808062e+01
2.800000e-07	-5.374695e-06	-1.472071e-09	-3.729314e+01	-9.798969e+01
2.900000e-07	-5.362978e-06	-1.451799e-09	-3.721184e+01	-9.789049e+01
3.000000e-07	-5.350820e-06	-1.463905e-09	-3.712748e+01	-9.778292e+01
3.100000e-07	-5.338316e-06	-1.491439e-09	-3.704072e+01	-9.766695e+01
3.200000e-07	-5.325474e-06	-1.498630e-09	-3.695161e+01	-9.754260e+01
3.300000e-07	-5.312143e-06	-1.456508e-09	-3.685911e+01	-9.740998e+01
3.400000e-07	-5.298320e-06	-1.463302e-09	-3.676320e+01	-9.726923e+01
3.500000e-07	-5.284161e-06	-1.482036e-09	-3.666496e+01	-9.712056e+01
3.600000e-07	-5.269535e-06	-1.451742e-09	-3.656347e+01	-9.696423e+01
3.700000e-07	-5.254495e-06	-1.408914e-09	-3.645912e+01	-9.680055e+01
3.800000e-07	-5.239104e-06	-1.480551e-09	-3.635232e+01	-9.662986e+01
3.900000e-07	-5.223073e-06	-1.475755e-09	-3.624108e+01	-9.645255e+01
4.000000e-07	-5.206480e-06	-1.393659e-09	-3.612596e+01	-9.626903e+01
4.100000e-07	-5.189634e-06	-1.420148e-09	-3.600907e+01	-9.607974e+01
4.200000e-07	-5.172528e-06	-1.510884e-09	-3.589037e+01	-9.588512e+01
4.300000e-07	-5.155094e-06	-1.406459e-09	-3.576941e+01	-9.568563e+01
4.400000e-07	-5.137380e-06	-1.357379e-09	-3.564649e+01	-9.548175e+01
4.500000e-07	-5.119296e-06	-1.470241e-09	-3.552101e+01	-9.527391e+01
4.600000e-07	-5.100685e-06	-1.469852e-09	-3.539188e+01	-9.506258e+01
4.700000e-07	-5.081616e-06	-1.334504e-09	-3.525957e+01	-9.484818e+01
4.800000e-07	-5.062284e-06	-1.404663e-09	-3.512543e+01	-9.463111e+01
4.900000e-07	-5.042670e-06	-1.473608e-09	-3.498933e+01	-9.441175e+01
5.000000e-07	-5.022785e-06	-1.374113e-09	-3.485136e+01	-9.419045e+01
5.100000e-07	-5.002691e-06	-1.368705e-09	-3.471193e+01	-9.396752e+01
5.200000e-07	-4.982321e-06	-1.474777e-09	-3.457060e+01	-9.374322e+01
5.300000e-07	-4.961531e-06	-1.396781e-09	-3.442634e+01	-9.351780e+01
5.400000e-07	-4.940399e-06	-1.332820e-09	-3.427971e+01	-9.329144e+01
5.500000e-07	-4.918989e-06	-1.428688e-09	-3.413115e+01	-9.306429e+01
5.600000e-07	-4.897178e-06	-1.416153e-09	-3.397981e+01	-9.283646e+01
5.700000e-07	-4.875019e-06	-1.312277e-09	-3.382606e+01	-9.260802e+01
5.800000e-07	-4.852564e-06	-1.371672e-09	-3.367025e+01	-9.237901e+01
5.900000e-07	-4.829767e-06	-1.423106e-09	-3.351207e+01	-9.214942e+01
6.000000e-07	-4.806643e-06	-1.341001e-09	-3.335163e+01	-9.191922e+01
6.100000e-07	-4.783253e-06	-1.344761e-09	-3.318933e+01	-9.168836e+01
6.200000e-07	-4.759584e-06	-1.401821e-09	-3.302510e+01	-9.145676e+01
6.300000e-07	-4.735584e-06	-1.356968e-09	-3.285857e+01	-9.122430e+01
6.400000e-07	-4.711329e-06	-1.325421e-09	-3.269028e+01	-9.099088e+01
6.500000e-07	-4.686771e-06	-1.374413e-09	-3.251987e+01	-9.075636e+01
6.600000e-07	-4.661805e-06	-1.355475e-09	-3.234664e+01	-9.052063e+01
6.700000e-07	-4.636342e-06	-1.322474e-09	-3.216997e+01	-9.028353e+01
6.800000e-07	-4.610296e-06	-1.350193e-09	-3.198924e+01	-9.004493e+01
6.900000e-07	-4.583707e-06	-1.362748e-09	-3.180475e+01	-8.980470e+01
7.000000e-07	-4.556718e-06	-1.323803e-09	-3.161748e+01	-8.956271e+01
7.100000e-07	-4.529389e-06	-1.329036e-09	-3.142785e+01	-8.931884e+01
7.200000e-07	-4.501776e-06	-1.331751e-09	-3.123626e+01	-8.907297e+01
7.300000e-07	-4.473982e-06	-1.310146e-09	-3.104340e+01	-8.882501e+01
7.400000e-07	-4.446028e-06	-1.301688e-09	-3.084944e+01	-8.857485e+01
7.500000e-07	-4.417822e-06	-1.317393e-09	-3.065373e+01	-8.832242e+01
7.600000e-07	-4.389228e-06	-1.304614e-09	-3.045533e+01	-8.806763e+01
7.700000e-07	-4.360337e-06	-1.299756e-09	-3.025486e+01	-8.781039e+01
7.800000e-07	-4.331229e-06	-1.303821e-09	-3.005290e+01	-8.755065e+01
7.900000e-07	-4.301761e-06	-1.296039e-09	-2.984843e+01	-8.728831e+01
8.000000e-07	-4.271923e-06	-1.279744e-09	-2.964139e+01	-8.702332e+01
8.100000e-07	-4.241814e-06	-1.285245e-09	-2.943247e+01	-8.675557e+01
8.200000e-07	-4.211440e-06	-1.279877e-09	-2.922172e+01	-8.648498e+01
8.300000e-07	-4.180715e-06	-1.265608e-09	-2.900853e+01	-8.621144e+01
8.400000e-07	-4.149695e-06	-1.265975e-09	-2.879329e+01	-8.593482e+01
8.500000e-07	-4.118451e-06	-1.269020e-09	-2.857650e+01	-8.565500e+01
8.600000e-07	-4.086968e-06	-1.254815e-09	-2.835805e+01	-8.537181e+01
8.700000e-07	-4.055286e-06	-1.247874e-09	-2.813822e+01	-8.508507e+01
8.800000e-07	-4.023454e-06	-1.249492e-09	-2.791735e+01	-8.479459e+01
8.900000e-07	-3.991469e-06	-1.236440e-09	-2.769542e+01	-8.450014e+01
9.000000e-07	-3.959185e-06	-1.226325e-09	-2.747141e+01	-8.420148e+01
9.100000e-07	-3.926611e-06	-1.228226e-09	-2.724539e+01	-8.389836e+01
9.200000e-07	-3.893725e-06	-1.222716e-09	-2.701720e+01	-8.359050e+01
9.300000e-07	-3.860356e-06	-1.206682e-09	-2.678567e+01	-8.327761e+01
9.400000e-07	-3.826511e-06	-1.207972e-09	-2.655083e+01	-8.295940e+01
9.500000e-07	-3.792184e-06	-1.206072e-09	-2.631265e+01	-8.263556e+01
9.600000e-07	-3.757397e-06	-1.191337e-09	-2.607127e+01	-8.230579e+01
9.700000e-07	-3.722289e-06	-1.180613e-09	-2.582767e+01	-8.196981e+01
9.800000e-07	-3.686883e-06	-1.182983e-09	-2.558200e+01	-8.162732e+01
9.900000e-07	-3.651222e-06	-1.172456e-09	-2.533456e+01	-8.127806e+01
1.000000e-06	-3.615446e-06	-1.164194e-09	-2.508632e+01	-8.092181e+01
1.010000e-06	-3.579550e-06	-1.164066e-09	-2.483726e+01	-8.055834e+01
1.020000e-06	-3.543527e-06	-1.160583e-09	-2.458730e+01	-8.018750e+01
1.030000e-06	-3.507366e-06	-1.147368e-09	-2.433639e+01	-7.980915e+01
1.040000e-06	-3.470972e-06	-1.144724e-09	-2.408387e+01	-7.942321e+01
1.050000e-06	-3.434328e-06	-1.138222e-09	-2.382961e+01	-7.902966e+01
1.060000e-06	-3.397353e-06	-1.126389e-09	-2.357305e+01	-7.862851e+01
1.070000e-06	-3.360043e-06	-1.116536e-09	-2.331417e+01	-7.821986e+01
1.080000e-06	-3.322506e-06	-1.115720e-09	-2.305371e+01	-7.780383e+01
1.090000e-06	-3.284791e-06	-1.110023e-09	-2.279202e+01	-7.738062e+01
1.100000e-06	-3.246948e-06	-1.102241e-09	-2.252944e+01	-7.695048e+01
1.110000e-06	-3.208839e-06	-1.099142e-09	-2.226502e+01	-7.651372e+01
1.120000e-06	-3.170391e-06	-1.094518e-09	-2.199824e+01	-7.607070e+01
1.130000e-06	-3.131760e-06	-1.083561e-09	-2.173019e+01	-7.562180e+01
1.140000e-06	-3.092945e-06	-1.075931e-09	-2.146087e+01	-7.516746e+01
1.150000e-06	-3.053923e-06	-1.068852e-09	-2.119011e+01	-7.470814e+01
1.160000e-06	-3.014702e-06	-1.057279e-09	-2.091797e+01	-7.424434e+01
1.170000e-06	-2.975316e-06	-1.047522e-09	-2.064468e+01	-7.377656e+01
1.180000e-06	-2.935790e-06	-1.041396e-09	-2.037043e+01	-7.330528e+01
1.190000e-06	-2.896110e-06	-1.035418e-09	-2.009510e+01	-7.283102e+01
1.200000e-06	-2.856288e-06	-1.027245e-09	-1.981879e+01	-7.235425e+01
1.210000e-06	-2.816323e-06	-1.019878e-09	-1.954149e+01	-7.187542e+01
1.220000e-06	-2.776272e-06	-1.010526e-09	-1.926359e+01	-7.139495e+01
1.230000e-06	-2.736091e-06	-1.003072e-09	-1.898479e+01	-7.091320e+01
1.240000e-06	-2.695660e-06	-9.967724e-10	-1.870425e+01	-7.043048e+01
1.250000e-06	-2.654969e-06	-9.940791e-10	-1.842191e+01	-6.994705e+01
1.260000e-06	-2.614004e-06	-9.875990e-10	-1.813766e+01	-6.946307e+01
1.270000e-06	-2.572810e-06	-9.789792e-10	-1.785184e+01	-6.897865e+01
1.280000e-06	-2.531453e-06	-9.726990e-10	-1.756487e+01	-6.849382e+01
1.290000e-06	-2.489839e-06	-9.671150e-10	-1.727613e+01	-6.800850e+01
1.300000e-06	-2.447813e-06	-9.574704e-10	-1.698452e+01	-6.752254e+01
1.310000e-06	-2.405320e-06	-9.494849e-10	-1.668968e+01	-6.703572e+01
1.320000e-06	-2.362483e-06	-9.429825e-10	-1.639245e+01	-6.654772e+01
1.330000e-06	-2.319455e-06	-9.358819e-10	-1.609389e+01	-6.605813e+01
1.340000e-06	-2.276261e-06	-9.282117e-10	-1.579418e+01	-6.556650e+01
1.350000e-06	-2.232877e-06	-9.224703e-10	-1.549315e+01	-6.507227e+01
1.360000e-06	-2.189356e-06	-9.136059e-10	-1.519118e+01	-6.457485e+01
1.370000e-06	-2.145706e-06	-9.037107e-10	-1.488831e+01	-6.407358e+01
1.380000e-06	-2.101989e-06	-8.943655e-10	-1.458497e+01	-6.356778e+01
1.390000e-06	-2.058242e-06	-8.880158e-10	-1.428143e+01	-6.305670e+01
1.400000e-06	-2.014390e-06	-8.805525e-10	-1.397715e+01	-6.253959e+01
1.410000e-06	-1.970415e-06	-8.738224e-10	-1.367202e+01	-6.201570e+01
1.420000e-06	-1.926348e-06	-8.646638e-10	-1.336626e+01	-6.148424e+01
1.430000e-06	-1.882240e-06	-8.557934e-10	-1.306021e+01	-6.094447e+01
1.440000e-06	-1.837991e-06	-8.471975e-10	-1.275318e+01	-6.039563e+01
1.450000e-06	-1.793585e-06	-8.384396e-10	-1.244506e+01	-5.983700e+01
1.460000e-06	-1.749136e-06	-8.267447e-10	-1.213664e+01	-5.926791e+01
1.470000e-06	-1.704561e-06	-8.139379e-10	-1.182735e+01	-5.868771e+01
1.480000e-06	-1.659821e-06	-8.048527e-10	-1.151692e+01	-5.809579e+01
1.490000e-06	-1.614929e-06	-7.945444e-10	-1.120543e+01	-5.749159e+01
1.500000e-06	-1.569936e-06	-7.851252e-10	-1.089324e+01	-5.687461e+01
1.510000e-06	-1.524845e-06	-7.781703e-10	-1.058037e+01	-5.624437e+01
1.520000e-06	-1.479580e-06	-7.689765e-10	-1.026629e+01	-5.560046e+01
1.530000e-06	-1.434201e-06	-7.583381e-10	-9.951420e+00	-5.494249e+01
1.540000e-06	-1.388772e-06	-7.457074e-10	-9.636204e+00	-5.427013e+01
1.550000e-06	-1.343230e-06	-7.305816e-10	-9.320207e+00	-5.358305e+01
1.560000e-06	-1.297507e-06	-7.132357e-10	-9.002949e+00	-5.288095e+01
1.570000e-06	-1.251724e-06	-6.957393e-10	-8.685275e+00	-5.216354e+01
1.580000e-06	-1.205980e-06	-6.852599e-10	-8.367879e+00	-5.143054e+01
1.590000e-06	-1.160197e-06	-6.802491e-10	-8.050202e+00	-5.068163e+01
1.600000e-06	-1.114260e-06	-6.759505e-10	-7.731466e+00	-4.991650e+01
1.610000e-06	-1.068239e-06	-6.627872e-10	-7.412141e+00	-4.913477e+01
1.620000e-06	-1.022191e-06	-6.497916e-10	-7.092631e+00	-4.833606e+01
1.630000e-06	-9.760322e-07	-6.353989e-10	-6.772348e+00	-4.751989e+01
1.640000e-06	-9.297917e-07	-6.198342e-10	-6.451501e+00	-4.668574e+01
1.650000e-06	-8.834985e-07	-6.047064e-10	-6.130289e+00	-4.583302e+01
1.660000e-06	-8.372084e-07	-5.915165e-10	-5.809098e+00	-4.496106e+01
1.670000e-06	-7.909174e-07	-5.789857e-10	-5.487901e+00	-4.406910e+01
1.680000e-06	-7.445315e-07	-5.647730e-10	-5.166045e+00	-4.315630e+01
1.690000e-06	-6.981167e-07	-5.495320e-10	-4.843989e+00	-4.222175e+01
1.700000e-06	-6.516327e-07	-5.330295e-10	-4.521453e+00	-4.126445e+01
1.710000e-06	-6.051072e-07	-5.160369e-10	-4.198628e+00	-4.028332e+01
1.720000e-06	-5.585364e-07	-5.023034e-10	-3.875490e+00	-3.927723e+01
1.730000e-06	-5.118782e-07	-4.884687e-10	-3.551745e+00	-3.824499e+01
1.740000e-06	-4.651648e-07	-4.742516e-10	-3.227617e+00	-3.718535e+01
1.750000e-06	-4.183499e-07	-4.567275e-10	-2.902785e+00	-3.609706e+01
1.760000e-06	-3.714943e-07	-4.381767e-10	-2.577670e+00	-3.497885e+01
1.770000e-06	-3.246620e-07	-4.225313e-10	-2.252717e+00	-3.382944e+01
1.780000e-06	-2.777780e-07	-4.074350e-10	-1.927405e+00	-3.264762e+01
1.790000e-06	-2.308286e-07	-3.929150e-10	-1.601640e+00	-3.143220e+01
1.800000e-06	-1.838391e-07	-3.762347e-10	-1.275595e+00	-3.018208e+01
1.810000e-06	-1.368543e-07	-3.561616e-10	-9.495844e-01	-2.889627e+01
1.820000e-06	-8.996185e-08	-3.356874e-10	-6.242140e-01	-2.757388e+01
1.830000e-06	-4.304173e-08	-3.176955e-10	-2.986516e-01	-2.621418e+01
1.840000e-06	3.883532e-09	-3.000182e-10	2.694648e-02	-2.481660e+01
1.850000e-06	5.072466e-08	-2.810970e-10	3.519608e-01	-2.338077e+01
1.860000e-06	9.766259e-08	-2.610260e-10	6.776468e-01	-2.190651e+01
1.870000e-06	1.446639e-07	-2.411540e-10	1.003773e+00	-2.039389e+01
1.880000e-06	1.915767e-07	-2.204008e-10	1.329284e+00	-1.884318e+01
1.890000e-06	2.384176e-07	-2.012186e-10	1.654297e+00	-1.725493e+01
1.900000e-06	2.852932e-07	-1.814445e-10	1.979550e+00	-1.562993e+01
1.910000e-06	3.322106e-07	-1.603990e-10	2.305094e+00	-1.396924e+01
1.920000e-06	3.790043e-07	-1.377610e-10	2.629779e+00	-1.227417e+01
1.930000e-06	4.257700e-07	-1.130456e-10	2.954270e+00	-1.054630e+01
1.940000e-06	4.725395e-07	-8.496069e-11	3.278787e+00	-8.787461e+00
1.950000e-06	5.193435e-07	-5.821749e-11	3.603544e+00	-6.999713e+00
1.960000e-06	5.661204e-07	-3.634564e-11	3.928113e+00	-5.185356e+00
1.970000e-06	6.126652e-07	-1.447215e-11	4.251071e+00	-3.346898e+00
1.980000e-06	6.591334e-07	7.114034e-12	4.573498e+00	-1.487038e+00
1.990000e-06	7.056218e-07	3.097181e-11	4.896064e+00	3.913607e-01
2.000000e-06	7.520569e-07	5.939539e-11	5.218261e+00	2.285290e+00
2.010000e-06	7.984494e-07	8.905461e-11	5.540163e+00	4.191631e+00
2.020000e-06	8.447609e-07	1.175016e-10	5.861502e+00	6.107177e+00
2.030000e-06	8.909609e-07	1.442682e-10	6.182068e+00	8.028671e+00
2.040000e-06	9.370803e-07	1.678443e-10	6.502074e+00	9.952833e+00
2.050000e-06	9.830959e-07	1.916323e-10	6.821361e+00	1.187639e+01
2.060000e-06	1.029058e-06	2.172495e-10	7.140273e+00	1.379611e+01
2.070000e-06	1.075034e-06	2.436207e-10	7.459287e+00	1.570884e+01
2.080000e-06	1.120976e-06	2.717616e-10	7.778061e+00	1.761151e+01
2.090000e-06	1.166789e-06	2.991106e-10	8.095944e+00	1.950118e+01
2.100000e-06	1.212503e-06	3.254180e-10	8.413137e+00	2.137509e+01
2.110000e-06	1.258186e-06	3.508348e-10	8.730117e+00	2.323061e+01
2.120000e-06	1.303806e-06	3.757720e-10	9.046654e+00	2.506532e+01
2.130000e-06	1.349342e-06	3.984886e-10	9.362615e+00	2.687703e+01
2.140000e-06	1.394818e-06	4.208125e-10	9.678154e+00	2.866375e+01
2.150000e-06	1.440195e-06	4.455274e-10	9.993013e+00	3.042372e+01
2.160000e-06	1.485392e-06	4.717263e-10	1.030662e+01	3.215542e+01
2.170000e-06	1.530461e-06	4.975302e-10	1.061934e+01	3.385757e+01
2.180000e-06	1.575415e-06	5.216215e-10	1.093126e+01	3.552914e+01
2.190000e-06	1.620270e-06	5.447413e-10	1.124249e+01	3.716931e+01
2.200000e-06	1.664995e-06	5.654810e-10	1.155282e+01	3.877749e+01
2.210000e-06	1.709574e-06	5.831041e-10	1.186214e+01	4.035330e+01
2.220000e-06	1.754036e-06	6.013383e-10	1.217065e+01	4.189656e+01
2.230000e-06	1.798329e-06	6.209144e-10	1.247798e+01	4.340727e+01
2.240000e-06	1.842468e-06	6.407032e-10	1.278425e+01	4.488559e+01
2.250000e-06	1.886530e-06	6.606287e-10	1.308997e+01	4.633183e+01
2.260000e-06	1.930580e-06	6.832300e-10	1.339563e+01	4.774640e+01
2.270000e-06	1.974538e-06	7.064680e-10	1.370063e+01	4.912984e+01
2.280000e-06	2.018451e-06	7.272013e-10	1.400533e+01	5.048273e+01
2.290000e-06	2.062312e-06	7.460589e-10	1.430967e+01	5.180574e+01
2.300000e-06	2.106049e-06	7.625834e-10	1.461314e+01	5.309956e+01
2.310000e-06	2.149724e-06	7.780893e-10	1.491619e+01	5.436487e+01
2.320000e-06	2.193335e-06	7.950713e-10	1.521879e+01	5.560238e+01
2.330000e-06	2.236831e-06	8.116144e-10	1.552060e+01	5.681277e+01
2.340000e-06	2.280195e-06	8.271728e-10	1.582148e+01	5.799666e+01
2.350000e-06	2.323378e-06	8.437158e-10	1.612111e+01	5.915465e+01
2.360000e-06	2.366312e-06	8.593843e-10	1.641902e+01	6.028726e+01
2.370000e-06	2.408991e-06	8.732603e-10	1.671515e+01	6.139494e+01
2.380000e-06	2.451423e-06	8.863291e-10	1.700957e+01	6.247810e+01
2.390000e-06	2.493501e-06	8.996881e-10	1.730153e+01	6.353704e+01
2.400000e-06	2.535185e-06	9.137282e-10	1.759077e+01	6.457200e+01
2.410000e-06	2.576527e-06	9.274787e-10	1.787762e+01	6.558314e+01
2.420000e-06	2.617534e-06	9.407481e-10	1.816216e+01	6.657056e+01
2.430000e-06	2.658266e-06	9.544089e-10	1.844478e+01	6.753431e+01
2.440000e-06	2.698718e-06	9.667076e-10	1.872546e+01	6.847436e+01
2.450000e-06	2.738943e-06	9.776277e-10	1.900458e+01	6.939067e+01
2.460000e-06	2.779075e-06	9.892565e-10	1.928303e+01	7.028316e+01
2.470000e-06	2.819112e-06	1.001987e-09	1.956084e+01	7.115172e+01
2.480000e-06	2.858985e-06	1.015164e-09	1.983750e+01	7.199626e+01
2.490000e-06	2.898709e-06	1.028459e-09	2.011314e+01	7.281668e+01
2.500000e-06	2.938349e-06	1.040629e-09	2.038818e+01	7.361292e+01
2.510000e-06	2.977872e-06	1.049293e-09	2.066242e+01	7.438494e+01
2.520000e-06	3.017254e-06	1.056532e-09	2.093568e+01	7.513275e+01
2.530000e-06	3.056483e-06	1.065694e-09	2.120788e+01	7.585643e+01
2.540000e-06	3.095503e-06	1.074549e-09	2.147862e+01	7.655612e+01
2.550000e-06	3.134196e-06	1.083772e-09	2.174710e+01	7.723203e+01
2.560000e-06	3.172659e-06	1.094125e-09	2.201398e+01	7.788446e+01
2.570000e-06	3.210978e-06	1.104411e-09	2.227986e+01	7.851378e+01
2.580000e-06	3.248973e-06	1.111747e-09	2.254350e+01	7.912048e+01
2.590000e-06	3.286707e-06	1.117358e-09	2.280532e+01	7.970511e+01
2.600000e-06	3.324326e-06	1.124062e-09	2.306634e+01	8.026830e+01
2.610000e-06	3.361787e-06	1.130688e-09	2.332627e+01	8.081081e+01
2.620000e-06	3.398995e-06	1.136632e-09	2.358444e+01	8.133341e+01
2.630000e-06	3.435879e-06	1.143770e-09	2.384037e+01	8.183700e+01
2.640000e-06	3.472497e-06	1.152011e-09	2.409445e+01	8.232251e+01
2.650000e-06	3.508865e-06	1.160242e-09	2.434679e+01	8.279093e+01
2.660000e-06	3.545011e-06	1.167444e-09	2.459760e+01	8.324328e+01
2.670000e-06	3.581022e-06	1.170945e-09	2.484747e+01	8.368063e+01
2.680000e-06	3.616876e-06	1.173898e-09	2.509624e+01	8.410404e+01
2.690000e-06	3.652579e-06	1.178201e-09	2.534398e+01	8.451460e+01
2.700000e-06	3.688211e-06	1.181732e-09	2.559121e+01	8.491336e+01
2.710000e-06	3.723633e-06	1.186955e-09	2.583699e+01	8.530137e+01
2.720000e-06	3.758662e-06	1.196251e-09	2.608005e+01	8.567964e+01
2.730000e-06	3.793339e-06	1.205243e-09	2.632066e+01	8.604914e+01
2.740000e-06	3.827640e-06	1.211886e-09	2.655866e+01	8.641076e+01
2.750000e-06	3.861508e-06	1.217145e-09	2.679366e+01	8.676534e+01
2.760000e-06	3.894933e-06	1.221314e-09	2.702559e+01	8.711366e+01
2.770000e-06	3.927869e-06	1.224692e-09	2.725412e+01	8.745641e+01
2.780000e-06	3.960366e-06	1.230170e-09	2.747961e+01	8.779417e+01
2.790000e-06	3.992513e-06	1.236760e-09	2.770266e+01	8.812748e+01
2.800000e-06	4.024425e-06	1.242165e-09	2.792409e+01	8.845676e+01
2.810000e-06	4.056220e-06	1.246991e-09	2.814470e+01	8.878234e+01
2.820000e-06	4.087881e-06	1.253317e-09	2.836439e+01	8.910448e+01
2.830000e-06	4.119401e-06	1.259840e-09	2.858309e+01	8.942334e+01
2.840000e-06	4.150690e-06	1.265147e-09	2.880019e+01	8.973902e+01
2.850000e-06	4.181608e-06	1.271626e-09	2.901472e+01	9.005152e+01
2.860000e-06	4.212132e-06	1.279463e-09	2.922652e+01	9.036080e+01
2.870000e-06	4.242363e-06	1.287100e-09	2.943628e+01	9.066676e+01
2.880000e-06	4.272344e-06	1.293645e-09	2.964431e+01	9.096923e+01
2.890000e-06	4.302075e-06	1.300318e-09	2.985060e+01	9.126801e+01
2.900000e-06	4.331499e-06	1.307265e-09	3.005477e+01	9.156289e+01
