# Temperatura_=_15.1
# Concentracion g/m^3_=_1620.0
# C_Vs_to_Am_M_A/Vsm_=_65563218390.804596
# pendiente_HvsI_1/m_=_3716.3
# ordenada_HvsI_A/m_=_1297.0
# frecuencia_Hz_=_135098.23993043465

Tiempo_(s)	Campo_(V.s)	Magnetizacion_(V.s)	Campo_(kA/m)	Magnetizacion_(A/m)
0.000000e+00	-5.529599e-06	-1.499367e-09	-3.837628e+01	-9.954000e+01
1.000000e-08	-5.529856e-06	-1.500530e-09	-3.837806e+01	-9.951495e+01
2.000000e-08	-5.529849e-06	-1.500025e-09	-3.837801e+01	-9.948847e+01
3.000000e-08	-5.529493e-06	-1.495642e-09	-3.837554e+01	-9.946077e+01
4.000000e-08	-5.528643e-06	-1.489972e-09	-3.836964e+01	-9.943205e+01
5.000000e-08	-5.527187e-06	-1.484787e-09	-3.835954e+01	-9.940250e+01
6.000000e-08	-5.525137e-06	-1.480292e-09	-3.834532e+01	-9.937231e+01
7.000000e-08	-5.522521e-06	-1.489074e-09	-3.832716e+01	-9.934163e+01
8.000000e-08	-5.519427e-06	-1.501970e-09	-3.830568e+01	-9.931058e+01
9.000000e-08	-5.515948e-06	-1.489180e-09	-3.828154e+01	-9.927927e+01
1.000000e-07	-5.511923e-06	-1.466278e-09	-3.825361e+01	-9.924774e+01
1.100000e-07	-5.507512e-06	-1.477461e-09	-3.822299e+01	-9.921599e+01
1.200000e-07	-5.502938e-06	-1.486607e-09	-3.819125e+01	-9.918397e+01
1.300000e-07	-5.498083e-06	-1.459227e-09	-3.815756e+01	-9.915157e+01
1.400000e-07	-5.492854e-06	-1.469806e-09	-3.812126e+01	-9.911861e+01
1.500000e-07	-5.487306e-06	-1.469134e-09	-3.808276e+01	-9.908487e+01
1.600000e-07	-5.481452e-06	-1.495014e-09	-3.804213e+01	-9.905005e+01
1.700000e-07	-5.475242e-06	-1.470729e-09	-3.799903e+01	-9.901378e+01
1.800000e-07	-5.468673e-06	-1.478868e-09	-3.795344e+01	-9.897566e+01
1.900000e-07	-5.461684e-06	-1.499247e-09	-3.790494e+01	-9.893523e+01
2.000000e-07	-5.454312e-06	-1.492114e-09	-3.785377e+01	-9.889196e+01
2.100000e-07	-5.446671e-06	-1.476908e-09	-3.780075e+01	-9.884531e+01
2.200000e-07	-5.438738e-06	-1.468979e-09	-3.774569e+01	-9.879469e+01
2.300000e-07	-5.430470e-06	-1.495494e-09	-3.768831e+01	-9.873949e+01
2.400000e-07	-5.421782e-06	-1.494830e-09	-3.762801e+01	-9.867911e+01
2.500000e-07	-5.412480e-06	-1.501890e-09	-3.756346e+01	-9.861293e+01
2.600000e-07	-5.402465e-06	-1.490277e-09	-3.749395e+01	-9.854035e+01
2.700000e-07	-5.391795e-06	-1.494185e-09	-3.741990e+01	-9.846081e+01
2.800000e-07	-5.380616e-06	-1.469546e-09	-3.734231e+01	-9.837376e+01
2.900000e-07	-5.369021e-06	-1.477507e-09	-3.726185e+01	-9.827873e+01
3.000000e-07	-5.357045e-06	-1.474384e-09	-3.717873e+01	-9.817529e+01
3.100000e-07	-5.344773e-06	-1.482786e-09	-3.709356e+01	-9.806308e+01
3.200000e-07	-5.332116e-06	-1.485701e-09	-3.700572e+01	-9.794185e+01
3.300000e-07	-5.319052e-06	-1.501043e-09	-3.691505e+01	-9.781141e+01
3.400000e-07	-5.305603e-06	-1.480842e-09	-3.682171e+01	-9.767167e+01
3.500000e-07	-5.291742e-06	-1.475388e-09	-3.672552e+01	-9.752264e+01
3.600000e-07	-5.277386e-06	-1.478294e-09	-3.662588e+01	-9.736444e+01
3.700000e-07	-5.262553e-06	-1.465085e-09	-3.652294e+01	-9.719728e+01
3.800000e-07	-5.247222e-06	-1.448947e-09	-3.641654e+01	-9.702146e+01
3.900000e-07	-5.231410e-06	-1.477000e-09	-3.630680e+01	-9.683741e+01
4.000000e-07	-5.215188e-06	-1.471981e-09	-3.619422e+01	-9.664562e+01
4.100000e-07	-5.198522e-06	-1.435300e-09	-3.607855e+01	-9.644666e+01
4.200000e-07	-5.181494e-06	-1.453150e-09	-3.596037e+01	-9.624118e+01
4.300000e-07	-5.164129e-06	-1.474363e-09	-3.583986e+01	-9.602991e+01
4.400000e-07	-5.146436e-06	-1.433153e-09	-3.571707e+01	-9.581360e+01
4.500000e-07	-5.128399e-06	-1.412561e-09	-3.559189e+01	-9.559304e+01
4.600000e-07	-5.109957e-06	-1.456820e-09	-3.546390e+01	-9.536904e+01
4.700000e-07	-5.091132e-06	-1.425631e-09	-3.533325e+01	-9.514242e+01
4.800000e-07	-5.071988e-06	-1.390418e-09	-3.520039e+01	-9.491400e+01
4.900000e-07	-5.052521e-06	-1.430992e-09	-3.506529e+01	-9.468453e+01
5.000000e-07	-5.032814e-06	-1.450748e-09	-3.492852e+01	-9.445477e+01
5.100000e-07	-5.012908e-06	-1.392227e-09	-3.479036e+01	-9.422538e+01
5.200000e-07	-4.992690e-06	-1.411942e-09	-3.465005e+01	-9.399699e+01
5.300000e-07	-4.972090e-06	-1.440858e-09	-3.450708e+01	-9.377013e+01
5.400000e-07	-4.951123e-06	-1.396144e-09	-3.436157e+01	-9.354523e+01
5.500000e-07	-4.929822e-06	-1.371953e-09	-3.421374e+01	-9.332264e+01
5.600000e-07	-4.908215e-06	-1.415639e-09	-3.406378e+01	-9.310259e+01
5.700000e-07	-4.886253e-06	-1.389824e-09	-3.391136e+01	-9.288523e+01
5.800000e-07	-4.863920e-06	-1.363728e-09	-3.375637e+01	-9.267057e+01
5.900000e-07	-4.841276e-06	-1.398718e-09	-3.359921e+01	-9.245852e+01
6.000000e-07	-4.818323e-06	-1.403401e-09	-3.343992e+01	-9.224890e+01
6.100000e-07	-4.795042e-06	-1.358984e-09	-3.327834e+01	-9.204140e+01
6.200000e-07	-4.771520e-06	-1.372703e-09	-3.311509e+01	-9.183565e+01
6.300000e-07	-4.747780e-06	-1.382058e-09	-3.295033e+01	-9.163119e+01
6.400000e-07	-4.723744e-06	-1.349676e-09	-3.278352e+01	-9.142746e+01
6.500000e-07	-4.699291e-06	-1.349833e-09	-3.261381e+01	-9.122388e+01
6.600000e-07	-4.674330e-06	-1.371861e-09	-3.244058e+01	-9.101979e+01
6.700000e-07	-4.648951e-06	-1.352938e-09	-3.226445e+01	-9.081453e+01
6.800000e-07	-4.623199e-06	-1.340994e-09	-3.208572e+01	-9.060741e+01
6.900000e-07	-4.596921e-06	-1.353079e-09	-3.190335e+01	-9.039772e+01
7.000000e-07	-4.570116e-06	-1.340793e-09	-3.171732e+01	-9.018481e+01
7.100000e-07	-4.542971e-06	-1.326166e-09	-3.152893e+01	-8.996801e+01
7.200000e-07	-4.515582e-06	-1.329855e-09	-3.133884e+01	-8.974672e+01
7.300000e-07	-4.487923e-06	-1.327177e-09	-3.114688e+01	-8.952040e+01
7.400000e-07	-4.459994e-06	-1.314761e-09	-3.095305e+01	-8.928855e+01
7.500000e-07	-4.431825e-06	-1.318772e-09	-3.075755e+01	-8.905077e+01
7.600000e-07	-4.403378e-06	-1.315097e-09	-3.056013e+01	-8.880673e+01
7.700000e-07	-4.374708e-06	-1.305483e-09	-3.036115e+01	-8.855619e+01
7.800000e-07	-4.345777e-06	-1.302639e-09	-3.016037e+01	-8.829900e+01
7.900000e-07	-4.316517e-06	-1.305489e-09	-2.995730e+01	-8.803510e+01
8.000000e-07	-4.286972e-06	-1.293907e-09	-2.975226e+01	-8.776452e+01
8.100000e-07	-4.257108e-06	-1.288956e-09	-2.954500e+01	-8.748739e+01
8.200000e-07	-4.226892e-06	-1.287247e-09	-2.933529e+01	-8.720390e+01
8.300000e-07	-4.196348e-06	-1.282689e-09	-2.912331e+01	-8.691432e+01
8.400000e-07	-4.165604e-06	-1.273240e-09	-2.890994e+01	-8.661900e+01
8.500000e-07	-4.134563e-06	-1.276099e-09	-2.869451e+01	-8.631833e+01
8.600000e-07	-4.103221e-06	-1.272653e-09	-2.847700e+01	-8.601273e+01
8.700000e-07	-4.071717e-06	-1.264016e-09	-2.825835e+01	-8.570267e+01
8.800000e-07	-4.039990e-06	-1.256024e-09	-2.803816e+01	-8.538864e+01
8.900000e-07	-4.008114e-06	-1.250202e-09	-2.781694e+01	-8.507111e+01
9.000000e-07	-3.975981e-06	-1.235960e-09	-2.759393e+01	-8.475055e+01
9.100000e-07	-3.943522e-06	-1.230348e-09	-2.736866e+01	-8.442741e+01
9.200000e-07	-3.910815e-06	-1.231567e-09	-2.714166e+01	-8.410211e+01
9.300000e-07	-3.877667e-06	-1.229932e-09	-2.691161e+01	-8.377499e+01
9.400000e-07	-3.844066e-06	-1.226050e-09	-2.667841e+01	-8.344639e+01
9.500000e-07	-3.810042e-06	-1.225731e-09	-2.644229e+01	-8.311653e+01
9.600000e-07	-3.775567e-06	-1.218182e-09	-2.620303e+01	-8.278559e+01
9.700000e-07	-3.740744e-06	-1.203722e-09	-2.596135e+01	-8.245366e+01
9.800000e-07	-3.705604e-06	-1.195680e-09	-2.571747e+01	-8.212077e+01
9.900000e-07	-3.670161e-06	-1.191100e-09	-2.547149e+01	-8.178685e+01
1.000000e-06	-3.634547e-06	-1.184197e-09	-2.522432e+01	-8.145176e+01
1.010000e-06	-3.598829e-06	-1.180970e-09	-2.497643e+01	-8.111530e+01
1.020000e-06	-3.562917e-06	-1.182101e-09	-2.472720e+01	-8.077718e+01
1.030000e-06	-3.526772e-06	-1.177986e-09	-2.447635e+01	-8.043706e+01
1.040000e-06	-3.490450e-06	-1.174440e-09	-2.422427e+01	-8.009456e+01
1.050000e-06	-3.453944e-06	-1.169873e-09	-2.397091e+01	-7.974923e+01
1.060000e-06	-3.417153e-06	-1.161813e-09	-2.371558e+01	-7.940061e+01
1.070000e-06	-3.380090e-06	-1.149126e-09	-2.345835e+01	-7.904821e+01
1.080000e-06	-3.342784e-06	-1.142808e-09	-2.319944e+01	-7.869153e+01
1.090000e-06	-3.305220e-06	-1.138521e-09	-2.293874e+01	-7.833010e+01
1.100000e-06	-3.267421e-06	-1.134662e-09	-2.267641e+01	-7.796342e+01
1.110000e-06	-3.229409e-06	-1.130407e-09	-2.241260e+01	-7.759106e+01
1.120000e-06	-3.191134e-06	-1.127988e-09	-2.214697e+01	-7.721261e+01
1.130000e-06	-3.152601e-06	-1.120644e-09	-2.187955e+01	-7.682770e+01
1.140000e-06	-3.113916e-06	-1.113866e-09	-2.161106e+01	-7.643603e+01
1.150000e-06	-3.075057e-06	-1.107067e-09	-2.134138e+01	-7.603735e+01
1.160000e-06	-3.036011e-06	-1.098177e-09	-2.107039e+01	-7.563149e+01
1.170000e-06	-2.996796e-06	-1.085359e-09	-2.079823e+01	-7.521834e+01
1.180000e-06	-2.957379e-06	-1.076197e-09	-2.052467e+01	-7.479787e+01
1.190000e-06	-2.917791e-06	-1.068990e-09	-2.024993e+01	-7.437009e+01
1.200000e-06	-2.878013e-06	-1.061765e-09	-1.997386e+01	-7.393512e+01
1.210000e-06	-2.838072e-06	-1.055657e-09	-1.969667e+01	-7.349311e+01
1.220000e-06	-2.798005e-06	-1.052482e-09	-1.941859e+01	-7.304428e+01
1.230000e-06	-2.757827e-06	-1.047036e-09	-1.913975e+01	-7.258888e+01
1.240000e-06	-2.717532e-06	-1.039116e-09	-1.886010e+01	-7.212723e+01
1.250000e-06	-2.676974e-06	-1.032847e-09	-1.857862e+01	-7.165964e+01
1.260000e-06	-2.636148e-06	-1.026628e-09	-1.829528e+01	-7.118646e+01
1.270000e-06	-2.595036e-06	-1.016119e-09	-1.800995e+01	-7.070803e+01
1.280000e-06	-2.553580e-06	-1.005239e-09	-1.772224e+01	-7.022469e+01
1.290000e-06	-2.511726e-06	-9.993900e-10	-1.743177e+01	-6.973675e+01
1.300000e-06	-2.469589e-06	-9.941051e-10	-1.713934e+01	-6.924451e+01
1.310000e-06	-2.427356e-06	-9.871705e-10	-1.684623e+01	-6.874819e+01
1.320000e-06	-2.384974e-06	-9.796309e-10	-1.655209e+01	-6.824798e+01
1.330000e-06	-2.342293e-06	-9.721914e-10	-1.625588e+01	-6.774401e+01
1.340000e-06	-2.299236e-06	-9.634189e-10	-1.595706e+01	-6.723631e+01
1.350000e-06	-2.255946e-06	-9.544371e-10	-1.565662e+01	-6.672488e+01
1.360000e-06	-2.212543e-06	-9.431840e-10	-1.535540e+01	-6.620958e+01
1.370000e-06	-2.169024e-06	-9.308189e-10	-1.505337e+01	-6.569024e+01
1.380000e-06	-2.125403e-06	-9.191977e-10	-1.475063e+01	-6.516656e+01
1.390000e-06	-2.081726e-06	-9.113874e-10	-1.444750e+01	-6.463819e+01
1.400000e-06	-2.037986e-06	-9.040645e-10	-1.414394e+01	-6.410469e+01
1.410000e-06	-1.994128e-06	-8.960310e-10	-1.383956e+01	-6.356551e+01
1.420000e-06	-1.950175e-06	-8.885433e-10	-1.353452e+01	-6.302008e+01
1.430000e-06	-1.906144e-06	-8.809652e-10	-1.322894e+01	-6.246774e+01
1.440000e-06	-1.861985e-06	-8.709947e-10	-1.292247e+01	-6.190777e+01
1.450000e-06	-1.817725e-06	-8.616128e-10	-1.261530e+01	-6.133940e+01
1.460000e-06	-1.773389e-06	-8.507479e-10	-1.230760e+01	-6.076186e+01
1.470000e-06	-1.728954e-06	-8.377504e-10	-1.199921e+01	-6.017431e+01
1.480000e-06	-1.684370e-06	-8.262836e-10	-1.168979e+01	-5.957593e+01
1.490000e-06	-1.639578e-06	-8.174956e-10	-1.137893e+01	-5.896587e+01
1.500000e-06	-1.594614e-06	-8.087099e-10	-1.106687e+01	-5.834330e+01
1.510000e-06	-1.549536e-06	-8.017603e-10	-1.075403e+01	-5.770740e+01
1.520000e-06	-1.504387e-06	-7.945999e-10	-1.044068e+01	-5.705737e+01
1.530000e-06	-1.459159e-06	-7.854281e-10	-1.012679e+01	-5.639246e+01
1.540000e-06	-1.413843e-06	-7.762100e-10	-9.812289e+00	-5.571191e+01
1.550000e-06	-1.368440e-06	-7.672860e-10	-9.497185e+00	-5.501505e+01
1.560000e-06	-1.322945e-06	-7.559183e-10	-9.181444e+00	-5.430122e+01
1.570000e-06	-1.277365e-06	-7.427115e-10	-8.865114e+00	-5.356980e+01
1.580000e-06	-1.231612e-06	-7.292948e-10	-8.547578e+00	-5.282022e+01
1.590000e-06	-1.185786e-06	-7.195544e-10	-8.229540e+00	-5.205196e+01
1.600000e-06	-1.139943e-06	-7.121725e-10	-7.911384e+00	-5.126451e+01
1.610000e-06	-1.094016e-06	-7.026869e-10	-7.592640e+00	-5.045740e+01
1.620000e-06	-1.047989e-06	-6.909378e-10	-7.273206e+00	-4.963020e+01
1.630000e-06	-1.001865e-06	-6.776468e-10	-6.953100e+00	-4.878247e+01
1.640000e-06	-9.556703e-07	-6.631249e-10	-6.632501e+00	-4.791379e+01
1.650000e-06	-9.093963e-07	-6.478431e-10	-6.311352e+00	-4.702373e+01
1.660000e-06	-8.629887e-07	-6.335026e-10	-5.989277e+00	-4.611188e+01
1.670000e-06	-8.165146e-07	-6.191438e-10	-5.666739e+00	-4.517778e+01
1.680000e-06	-7.701347e-07	-6.044459e-10	-5.344855e+00	-4.422097e+01
1.690000e-06	-7.236862e-07	-5.879349e-10	-5.022495e+00	-4.324096e+01
1.700000e-06	-6.771062e-07	-5.720933e-10	-4.699222e+00	-4.223722e+01
1.710000e-06	-6.305408e-07	-5.554801e-10	-4.376052e+00	-4.120918e+01
1.720000e-06	-5.839482e-07	-5.391503e-10	-4.052691e+00	-4.015625e+01
1.730000e-06	-5.373349e-07	-5.236763e-10	-3.729188e+00	-3.907779e+01
1.740000e-06	-4.907374e-07	-5.089228e-10	-3.405794e+00	-3.797312e+01
1.750000e-06	-4.440818e-07	-4.930704e-10	-3.081997e+00	-3.684154e+01
1.760000e-06	-3.972756e-07	-4.748480e-10	-2.757155e+00	-3.568232e+01
1.770000e-06	-3.503746e-07	-4.559842e-10	-2.431654e+00	-3.449471e+01
1.780000e-06	-3.034839e-07	-4.392105e-10	-2.106226e+00	-3.327797e+01
1.790000e-06	-2.565576e-07	-4.229009e-10	-1.780550e+00	-3.203136e+01
1.800000e-06	-2.095221e-07	-4.051883e-10	-1.454116e+00	-3.075415e+01
1.810000e-06	-1.625540e-07	-3.862223e-10	-1.128150e+00	-2.944568e+01
1.820000e-06	-1.156672e-07	-3.668500e-10	-8.027486e-01	-2.810531e+01
1.830000e-06	-6.880505e-08	-3.481014e-10	-4.775178e-01	-2.673251e+01
1.840000e-06	-2.202730e-08	-3.283536e-10	-1.528729e-01	-2.532681e+01
1.850000e-06	2.479003e-08	-3.064809e-10	1.720466e-01	-2.388787e+01
1.860000e-06	7.167685e-08	-2.832214e-10	4.974486e-01	-2.241547e+01
1.870000e-06	1.185561e-07	-2.593601e-10	8.227981e-01	-2.090954e+01
1.880000e-06	1.654489e-07	-2.366966e-10	1.148241e+00	-1.937019e+01
1.890000e-06	2.123190e-07	-2.156038e-10	1.473527e+00	-1.779769e+01
1.900000e-06	2.591910e-07	-1.947034e-10	1.798826e+00	-1.619250e+01
1.910000e-06	3.060130e-07	-1.742327e-10	2.123778e+00	-1.455530e+01
1.920000e-06	3.527222e-07	-1.534836e-10	2.447947e+00	-1.288696e+01
1.930000e-06	3.994698e-07	-1.292039e-10	2.772383e+00	-1.118859e+01
1.940000e-06	4.462660e-07	-1.026768e-10	3.097156e+00	-9.461500e+00
1.950000e-06	4.930662e-07	-7.634951e-11	3.421957e+00	-7.707235e+00
1.960000e-06	5.397274e-07	-5.026415e-11	3.745793e+00	-5.927544e+00
1.970000e-06	5.862479e-07	-2.599903e-11	4.068652e+00	-4.124387e+00
1.980000e-06	6.327310e-07	-2.042239e-12	4.391252e+00	-2.299923e+00
1.990000e-06	6.792174e-07	1.915042e-11	4.713875e+00	-4.564918e-01
2.000000e-06	7.256709e-07	4.404523e-11	5.036269e+00	1.403397e+00
2.010000e-06	7.720310e-07	7.253195e-11	5.358016e+00	3.277087e+00
2.020000e-06	8.183718e-07	1.056605e-10	5.679628e+00	5.161797e+00
2.030000e-06	8.646977e-07	1.365317e-10	6.001137e+00	7.054640e+00
2.040000e-06	9.108712e-07	1.611563e-10	6.321589e+00	8.952657e+00
2.050000e-06	9.569183e-07	1.838057e-10	6.641162e+00	1.085284e+01
2.060000e-06	1.003008e-06	2.057472e-10	6.961034e+00	1.275214e+01
2.070000e-06	1.049066e-06	2.279059e-10	7.280684e+00	1.464755e+01
2.080000e-06	1.094978e-06	2.536633e-10	7.599317e+00	1.653607e+01
2.090000e-06	1.140771e-06	2.845360e-10	7.917130e+00	1.841476e+01
2.100000e-06	1.186513e-06	3.162773e-10	8.234587e+00	2.028079e+01
2.110000e-06	1.232180e-06	3.454963e-10	8.551522e+00	2.213141e+01
2.120000e-06	1.277780e-06	3.711857e-10	8.867995e+00	2.396405e+01
2.130000e-06	1.323311e-06	3.933954e-10	9.183988e+00	2.577625e+01
2.140000e-06	1.368745e-06	4.124747e-10	9.499306e+00	2.756575e+01
2.150000e-06	1.414150e-06	4.354586e-10	9.814420e+00	2.933049e+01
2.160000e-06	1.459500e-06	4.605779e-10	1.012915e+01	3.106858e+01
2.170000e-06	1.504765e-06	4.876091e-10	1.044330e+01	3.277838e+01
2.180000e-06	1.549917e-06	5.141297e-10	1.075667e+01	3.445843e+01
2.190000e-06	1.594956e-06	5.382465e-10	1.106924e+01	3.610753e+01
2.200000e-06	1.639830e-06	5.604456e-10	1.138068e+01	3.772466e+01
2.210000e-06	1.684453e-06	5.799728e-10	1.169037e+01	3.930905e+01
2.220000e-06	1.728884e-06	5.969413e-10	1.199873e+01	4.086012e+01
2.230000e-06	1.773191e-06	6.141745e-10	1.230623e+01	4.237749e+01
2.240000e-06	1.817399e-06	6.318925e-10	1.261303e+01	4.386098e+01
2.250000e-06	1.861507e-06	6.504029e-10	1.291915e+01	4.531058e+01
2.260000e-06	1.905494e-06	6.721720e-10	1.322443e+01	4.672644e+01
2.270000e-06	1.949380e-06	6.969793e-10	1.352900e+01	4.810885e+01
2.280000e-06	1.993217e-06	7.201772e-10	1.383324e+01	4.945822e+01
2.290000e-06	2.036995e-06	7.407227e-10	1.413706e+01	5.077507e+01
2.300000e-06	2.080734e-06	7.558440e-10	1.444062e+01	5.206000e+01
2.310000e-06	2.124429e-06	7.677626e-10	1.474387e+01	5.331369e+01
2.320000e-06	2.168038e-06	7.797101e-10	1.504652e+01	5.453685e+01
2.330000e-06	2.211562e-06	7.962376e-10	1.534859e+01	5.573025e+01
2.340000e-06	2.254961e-06	8.150589e-10	1.564978e+01	5.689466e+01
2.350000e-06	2.298154e-06	8.342180e-10	1.594955e+01	5.803083e+01
2.360000e-06	2.341225e-06	8.534837e-10	1.624847e+01	5.913954e+01
2.370000e-06	2.384161e-06	8.677737e-10	1.654645e+01	6.022152e+01
2.380000e-06	2.426782e-06	8.784708e-10	1.684225e+01	6.127747e+01
2.390000e-06	2.469030e-06	8.892035e-10	1.713546e+01	6.230806e+01
2.400000e-06	2.510933e-06	9.014222e-10	1.742627e+01	6.331392e+01
2.410000e-06	2.552653e-06	9.162424e-10	1.771581e+01	6.429562e+01
2.420000e-06	2.594151e-06	9.329722e-10	1.800381e+01	6.525369e+01
2.430000e-06	2.635283e-06	9.507116e-10	1.828927e+01	6.618861e+01
2.440000e-06	2.676024e-06	9.677158e-10	1.857202e+01	6.710082e+01
2.450000e-06	2.716462e-06	9.804086e-10	1.885267e+01	6.799073e+01
2.460000e-06	2.756703e-06	9.904780e-10	1.913195e+01	6.885870e+01
2.470000e-06	2.796752e-06	9.987397e-10	1.940989e+01	6.970505e+01
2.480000e-06	2.836672e-06	1.008239e-09	1.968695e+01	7.053013e+01
2.490000e-06	2.876498e-06	1.021219e-09	1.996335e+01	7.133421e+01
2.500000e-06	2.916192e-06	1.037385e-09	2.023883e+01	7.211760e+01
2.510000e-06	2.955711e-06	1.052752e-09	2.051310e+01	7.288061e+01
2.520000e-06	2.995049e-06	1.064846e-09	2.078611e+01	7.362352e+01
2.530000e-06	3.034134e-06	1.073692e-09	2.105736e+01	7.434668e+01
2.540000e-06	3.073020e-06	1.080899e-09	2.132724e+01	7.505041e+01
2.550000e-06	3.111799e-06	1.086317e-09	2.159637e+01	7.573508e+01
2.560000e-06	3.150357e-06	1.092183e-09	2.186397e+01	7.640110e+01
2.570000e-06	3.188629e-06	1.100842e-09	2.212958e+01	7.704889e+01
2.580000e-06	3.226695e-06	1.111595e-09	2.239377e+01	7.767890e+01
2.590000e-06	3.264560e-06	1.122761e-09	2.265656e+01	7.829164e+01
2.600000e-06	3.302237e-06	1.134529e-09	2.291804e+01	7.888762e+01
2.610000e-06	3.339776e-06	1.145033e-09	2.317857e+01	7.946739e+01
2.620000e-06	3.377098e-06	1.151382e-09	2.343759e+01	8.003153e+01
2.630000e-06	3.414112e-06	1.154200e-09	2.369447e+01	8.058064e+01
2.640000e-06	3.450844e-06	1.157558e-09	2.394940e+01	8.111531e+01
2.650000e-06	3.487306e-06	1.161273e-09	2.420245e+01	8.163617e+01
2.660000e-06	3.523546e-06	1.167141e-09	2.445396e+01	8.214382e+01
2.670000e-06	3.559605e-06	1.177388e-09	2.470421e+01	8.263888e+01
2.680000e-06	3.595484e-06	1.187433e-09	2.495322e+01	8.312194e+01
2.690000e-06	3.631260e-06	1.194284e-09	2.520151e+01	8.359356e+01
2.700000e-06	3.666922e-06	1.201232e-09	2.544901e+01	8.405429e+01
2.710000e-06	3.702466e-06	1.206790e-09	2.569569e+01	8.450465e+01
2.720000e-06	3.737841e-06	1.209654e-09	2.594120e+01	8.494509e+01
2.730000e-06	3.772928e-06	1.215851e-09	2.618471e+01	8.537605e+01
2.740000e-06	3.807588e-06	1.224619e-09	2.642525e+01	8.579790e+01
2.750000e-06	3.841808e-06	1.231917e-09	2.666275e+01	8.621097e+01
2.760000e-06	3.875444e-06	1.238549e-09	2.689619e+01	8.661554e+01
2.770000e-06	3.908456e-06	1.246146e-09	2.712530e+01	8.701184e+01
2.780000e-06	3.941043e-06	1.251987e-09	2.735145e+01	8.740003e+01
2.790000e-06	3.973311e-06	1.257848e-09	2.757540e+01	8.778026e+01
2.800000e-06	4.005357e-06	1.264336e-09	2.779780e+01	8.815260e+01
2.810000e-06	4.037218e-06	1.268878e-09	2.801892e+01	8.851710e+01
2.820000e-06	4.068913e-06	1.271945e-09	2.823889e+01	8.887378e+01
2.830000e-06	4.100464e-06	1.277596e-09	2.845786e+01	8.922262e+01
2.840000e-06	4.131854e-06	1.284166e-09	2.867571e+01	8.956358e+01
2.850000e-06	4.163000e-06	1.287615e-09	2.889187e+01	8.989662e+01
2.860000e-06	4.193778e-06	1.291542e-09	2.910547e+01	9.022168e+01
2.870000e-06	4.224152e-06	1.298303e-09	2.931627e+01	9.053870e+01
2.880000e-06	4.254214e-06	1.305241e-09	2.952491e+01	9.084764e+01
2.890000e-06	4.284056e-06	1.311771e-09	2.973201e+01	9.114847e+01
2.900000e-06	4.313651e-06	1.318517e-09	2.993741e+01	9.144117e+01
