# Temperatura_=_-9.9
# Concentracion g/m^3_=_1620.0
# C_Vs_to_Am_M_A/Vsm_=_65563218390.804596
# pendiente_HvsI_1/m_=_3716.3
# ordenada_HvsI_A/m_=_1297.0
# frecuencia_Hz_=_135109.9734445373

Tiempo_(s)	Campo_(V.s)	Magnetizacion_(V.s)	Campo_(kA/m)	Magnetizacion_(A/m)
0.000000e+00	-5.521291e-06	-9.929737e-10	-3.837019e+01	-6.562291e+01
1.000000e-08	-5.521597e-06	-9.909213e-10	-3.837232e+01	-6.562437e+01
2.000000e-08	-5.521743e-06	-9.876069e-10	-3.837333e+01	-6.562547e+01
3.000000e-08	-5.521559e-06	-9.823448e-10	-3.837205e+01	-6.562609e+01
4.000000e-08	-5.520948e-06	-9.792570e-10	-3.836781e+01	-6.562614e+01
5.000000e-08	-5.519824e-06	-9.779372e-10	-3.836000e+01	-6.562551e+01
6.000000e-08	-5.518111e-06	-9.759103e-10	-3.834809e+01	-6.562412e+01
7.000000e-08	-5.515692e-06	-9.733799e-10	-3.833128e+01	-6.562183e+01
8.000000e-08	-5.512678e-06	-9.654623e-10	-3.831033e+01	-6.561853e+01
9.000000e-08	-5.509206e-06	-9.808211e-10	-3.828621e+01	-6.561406e+01
1.000000e-07	-5.505275e-06	-1.001065e-09	-3.825889e+01	-6.560827e+01
1.100000e-07	-5.500951e-06	-9.531299e-10	-3.822884e+01	-6.560094e+01
1.200000e-07	-5.496435e-06	-9.118835e-10	-3.819745e+01	-6.559187e+01
1.300000e-07	-5.491806e-06	-9.769921e-10	-3.816528e+01	-6.558079e+01
1.400000e-07	-5.486811e-06	-1.015958e-09	-3.813057e+01	-6.556741e+01
1.500000e-07	-5.481308e-06	-9.957746e-10	-3.809233e+01	-6.555143e+01
1.600000e-07	-5.475421e-06	-8.999806e-10	-3.805142e+01	-6.553250e+01
1.700000e-07	-5.469274e-06	-9.445955e-10	-3.800869e+01	-6.551024e+01
1.800000e-07	-5.462671e-06	-9.810245e-10	-3.796281e+01	-6.548426e+01
1.900000e-07	-5.455610e-06	-9.861135e-10	-3.791374e+01	-6.545416e+01
2.000000e-07	-5.448255e-06	-9.598596e-10	-3.786262e+01	-6.541952e+01
2.100000e-07	-5.440615e-06	-9.771646e-10	-3.780953e+01	-6.537990e+01
2.200000e-07	-5.432716e-06	-9.948326e-10	-3.775463e+01	-6.533489e+01
2.300000e-07	-5.424564e-06	-9.694073e-10	-3.769798e+01	-6.528409e+01
2.400000e-07	-5.416032e-06	-9.496465e-10	-3.763869e+01	-6.522711e+01
2.500000e-07	-5.406947e-06	-9.560670e-10	-3.757555e+01	-6.516358e+01
2.600000e-07	-5.397163e-06	-9.968295e-10	-3.750756e+01	-6.509321e+01
2.700000e-07	-5.386787e-06	-9.781347e-10	-3.743545e+01	-6.501571e+01
2.800000e-07	-5.375955e-06	-9.545401e-10	-3.736017e+01	-6.493088e+01
2.900000e-07	-5.364596e-06	-9.333031e-10	-3.728124e+01	-6.483858e+01
3.000000e-07	-5.352813e-06	-9.639196e-10	-3.719935e+01	-6.473874e+01
3.100000e-07	-5.340704e-06	-9.394817e-10	-3.711520e+01	-6.463135e+01
3.200000e-07	-5.328131e-06	-9.358905e-10	-3.702782e+01	-6.451651e+01
3.300000e-07	-5.315057e-06	-9.387213e-10	-3.693696e+01	-6.439439e+01
3.400000e-07	-5.301667e-06	-9.783424e-10	-3.684391e+01	-6.426527e+01
3.500000e-07	-5.287957e-06	-9.466943e-10	-3.674864e+01	-6.412948e+01
3.600000e-07	-5.273767e-06	-9.255140e-10	-3.665002e+01	-6.398747e+01
3.700000e-07	-5.259121e-06	-9.311889e-10	-3.654824e+01	-6.383977e+01
3.800000e-07	-5.244189e-06	-9.477979e-10	-3.644447e+01	-6.368697e+01
3.900000e-07	-5.228623e-06	-8.985725e-10	-3.633629e+01	-6.352976e+01
4.000000e-07	-5.212359e-06	-9.078804e-10	-3.622327e+01	-6.336889e+01
4.100000e-07	-5.195876e-06	-9.606464e-10	-3.610872e+01	-6.320514e+01
4.200000e-07	-5.179007e-06	-9.389973e-10	-3.599149e+01	-6.303938e+01
4.300000e-07	-5.161593e-06	-8.796585e-10	-3.587047e+01	-6.287248e+01
4.400000e-07	-5.143958e-06	-9.282291e-10	-3.574791e+01	-6.270534e+01
4.500000e-07	-5.126131e-06	-9.594004e-10	-3.562402e+01	-6.253889e+01
4.600000e-07	-5.107861e-06	-8.805255e-10	-3.549706e+01	-6.237402e+01
4.700000e-07	-5.089095e-06	-8.835249e-10	-3.536664e+01	-6.221163e+01
4.800000e-07	-5.069995e-06	-9.580006e-10	-3.523391e+01	-6.205259e+01
4.900000e-07	-5.050593e-06	-9.224837e-10	-3.509908e+01	-6.189769e+01
5.000000e-07	-5.030903e-06	-8.690524e-10	-3.496224e+01	-6.174771e+01
5.100000e-07	-5.011062e-06	-9.402728e-10	-3.482435e+01	-6.160334e+01
5.200000e-07	-4.990970e-06	-9.370482e-10	-3.468473e+01	-6.146517e+01
5.300000e-07	-4.970446e-06	-8.647323e-10	-3.454209e+01	-6.133374e+01
5.400000e-07	-4.949612e-06	-8.999624e-10	-3.439731e+01	-6.120948e+01
5.500000e-07	-4.928494e-06	-9.497558e-10	-3.425055e+01	-6.109270e+01
5.600000e-07	-4.906979e-06	-8.722595e-10	-3.410103e+01	-6.098363e+01
5.700000e-07	-4.885163e-06	-8.714507e-10	-3.394942e+01	-6.088236e+01
5.800000e-07	-4.863056e-06	-9.341486e-10	-3.379579e+01	-6.078892e+01
5.900000e-07	-4.840549e-06	-9.003939e-10	-3.363937e+01	-6.070318e+01
6.000000e-07	-4.817690e-06	-8.574011e-10	-3.348052e+01	-6.062493e+01
6.100000e-07	-4.794621e-06	-9.193514e-10	-3.332020e+01	-6.055386e+01
6.200000e-07	-4.771244e-06	-9.137729e-10	-3.315774e+01	-6.048958e+01
6.300000e-07	-4.747530e-06	-8.685068e-10	-3.299294e+01	-6.043157e+01
6.400000e-07	-4.723559e-06	-8.948562e-10	-3.282635e+01	-6.037929e+01
6.500000e-07	-4.699309e-06	-9.163774e-10	-3.265783e+01	-6.033210e+01
6.600000e-07	-4.674676e-06	-8.733448e-10	-3.248664e+01	-6.028932e+01
6.700000e-07	-4.649507e-06	-8.847073e-10	-3.231173e+01	-6.025022e+01
6.800000e-07	-4.623791e-06	-9.112361e-10	-3.213302e+01	-6.021406e+01
6.900000e-07	-4.597491e-06	-8.920154e-10	-3.195024e+01	-6.018005e+01
7.000000e-07	-4.570734e-06	-8.880113e-10	-3.176429e+01	-6.014744e+01
7.100000e-07	-4.543680e-06	-9.096790e-10	-3.157628e+01	-6.011547e+01
7.200000e-07	-4.516283e-06	-8.880503e-10	-3.138589e+01	-6.008339e+01
7.300000e-07	-4.488626e-06	-8.685480e-10	-3.119369e+01	-6.005050e+01
7.400000e-07	-4.460858e-06	-8.794388e-10	-3.100071e+01	-6.001614e+01
7.500000e-07	-4.432975e-06	-8.768953e-10	-3.080694e+01	-5.997969e+01
7.600000e-07	-4.404775e-06	-8.726265e-10	-3.061096e+01	-5.994061e+01
7.700000e-07	-4.376177e-06	-8.882076e-10	-3.041222e+01	-5.989842e+01
7.800000e-07	-4.347341e-06	-8.873087e-10	-3.021183e+01	-5.985269e+01
7.900000e-07	-4.318226e-06	-8.679447e-10	-3.000949e+01	-5.980309e+01
8.000000e-07	-4.288744e-06	-8.730036e-10	-2.980461e+01	-5.974935e+01
8.100000e-07	-4.258974e-06	-8.721961e-10	-2.959772e+01	-5.969128e+01
8.200000e-07	-4.228924e-06	-8.582590e-10	-2.938889e+01	-5.962876e+01
8.300000e-07	-4.198522e-06	-8.595742e-10	-2.917761e+01	-5.956176e+01
8.400000e-07	-4.167790e-06	-8.743657e-10	-2.896404e+01	-5.949028e+01
8.500000e-07	-4.136770e-06	-8.655787e-10	-2.874847e+01	-5.941441e+01
8.600000e-07	-4.105510e-06	-8.634458e-10	-2.853122e+01	-5.933428e+01
8.700000e-07	-4.074080e-06	-8.708566e-10	-2.831281e+01	-5.925007e+01
8.800000e-07	-4.042452e-06	-8.648132e-10	-2.809301e+01	-5.916201e+01
8.900000e-07	-4.010649e-06	-8.489138e-10	-2.787199e+01	-5.907035e+01
9.000000e-07	-3.978633e-06	-8.577711e-10	-2.764950e+01	-5.897535e+01
9.100000e-07	-3.946299e-06	-8.599026e-10	-2.742479e+01	-5.887731e+01
9.200000e-07	-3.913643e-06	-8.507427e-10	-2.719784e+01	-5.877651e+01
9.300000e-07	-3.880610e-06	-8.494505e-10	-2.696828e+01	-5.867325e+01
9.400000e-07	-3.847037e-06	-8.552913e-10	-2.673497e+01	-5.856781e+01
9.500000e-07	-3.812974e-06	-8.451131e-10	-2.649824e+01	-5.846043e+01
9.600000e-07	-3.778649e-06	-8.423549e-10	-2.625971e+01	-5.835137e+01
9.700000e-07	-3.744042e-06	-8.481999e-10	-2.601920e+01	-5.824082e+01
9.800000e-07	-3.708984e-06	-8.424849e-10	-2.577557e+01	-5.812895e+01
9.900000e-07	-3.673587e-06	-8.300495e-10	-2.552958e+01	-5.801592e+01
1.000000e-06	-3.638038e-06	-8.310806e-10	-2.528253e+01	-5.790182e+01
1.010000e-06	-3.602343e-06	-8.300072e-10	-2.503446e+01	-5.778670e+01
1.020000e-06	-3.566474e-06	-8.230276e-10	-2.478519e+01	-5.767059e+01
1.030000e-06	-3.530463e-06	-8.263201e-10	-2.453494e+01	-5.755347e+01
1.040000e-06	-3.494287e-06	-8.331968e-10	-2.428353e+01	-5.743528e+01
1.050000e-06	-3.457861e-06	-8.290289e-10	-2.403039e+01	-5.731595e+01
1.060000e-06	-3.421191e-06	-8.228826e-10	-2.377555e+01	-5.719535e+01
1.070000e-06	-3.384337e-06	-8.220477e-10	-2.351944e+01	-5.707335e+01
1.080000e-06	-3.347175e-06	-8.166300e-10	-2.326118e+01	-5.694976e+01
1.090000e-06	-3.309682e-06	-8.133000e-10	-2.300062e+01	-5.682442e+01
1.100000e-06	-3.272001e-06	-8.188778e-10	-2.273876e+01	-5.669713e+01
1.110000e-06	-3.234127e-06	-8.224771e-10	-2.247555e+01	-5.656769e+01
1.120000e-06	-3.196012e-06	-8.186367e-10	-2.221067e+01	-5.643588e+01
1.130000e-06	-3.157634e-06	-8.198762e-10	-2.194397e+01	-5.630152e+01
1.140000e-06	-3.119074e-06	-8.192567e-10	-2.167599e+01	-5.616441e+01
1.150000e-06	-3.080333e-06	-8.156040e-10	-2.140676e+01	-5.602435e+01
1.160000e-06	-3.041357e-06	-8.098198e-10	-2.113590e+01	-5.588118e+01
1.170000e-06	-3.002180e-06	-8.085475e-10	-2.086364e+01	-5.573472e+01
1.180000e-06	-2.962834e-06	-8.064446e-10	-2.059020e+01	-5.558485e+01
1.190000e-06	-2.923303e-06	-8.068671e-10	-2.031548e+01	-5.543144e+01
1.200000e-06	-2.883617e-06	-8.072895e-10	-2.003968e+01	-5.527436e+01
1.210000e-06	-2.843823e-06	-8.039311e-10	-1.976314e+01	-5.511354e+01
1.220000e-06	-2.803868e-06	-7.964468e-10	-1.948547e+01	-5.494890e+01
1.230000e-06	-2.763785e-06	-7.937092e-10	-1.920691e+01	-5.478038e+01
1.240000e-06	-2.723524e-06	-7.934657e-10	-1.892712e+01	-5.460792e+01
1.250000e-06	-2.682959e-06	-7.968439e-10	-1.864521e+01	-5.443150e+01
1.260000e-06	-2.642287e-06	-7.988900e-10	-1.836256e+01	-5.425107e+01
1.270000e-06	-2.601460e-06	-7.990904e-10	-1.807884e+01	-5.406660e+01
1.280000e-06	-2.560388e-06	-7.939208e-10	-1.779341e+01	-5.387808e+01
1.290000e-06	-2.519107e-06	-7.855400e-10	-1.750652e+01	-5.368546e+01
1.300000e-06	-2.477423e-06	-7.786556e-10	-1.721684e+01	-5.348870e+01
1.310000e-06	-2.435383e-06	-7.747015e-10	-1.692468e+01	-5.328776e+01
1.320000e-06	-2.393133e-06	-7.725679e-10	-1.663107e+01	-5.308258e+01
1.330000e-06	-2.350667e-06	-7.723692e-10	-1.633595e+01	-5.287306e+01
1.340000e-06	-2.307912e-06	-7.718939e-10	-1.603882e+01	-5.265913e+01
1.350000e-06	-2.264901e-06	-7.678701e-10	-1.573992e+01	-5.244067e+01
1.360000e-06	-2.221657e-06	-7.616490e-10	-1.543940e+01	-5.221753e+01
1.370000e-06	-2.178215e-06	-7.541461e-10	-1.513750e+01	-5.198956e+01
1.380000e-06	-2.134643e-06	-7.473968e-10	-1.483469e+01	-5.175658e+01
1.390000e-06	-2.090974e-06	-7.417547e-10	-1.453121e+01	-5.151839e+01
1.400000e-06	-2.047232e-06	-7.389102e-10	-1.422723e+01	-5.127475e+01
1.410000e-06	-2.003367e-06	-7.362815e-10	-1.392239e+01	-5.102544e+01
1.420000e-06	-1.959413e-06	-7.328078e-10	-1.361693e+01	-5.077017e+01
1.430000e-06	-1.915426e-06	-7.292258e-10	-1.331125e+01	-5.050866e+01
1.440000e-06	-1.871379e-06	-7.257787e-10	-1.300514e+01	-5.024062e+01
1.450000e-06	-1.827214e-06	-7.176081e-10	-1.269821e+01	-4.996571e+01
1.460000e-06	-1.782891e-06	-7.067944e-10	-1.239019e+01	-4.968361e+01
1.470000e-06	-1.738447e-06	-6.973957e-10	-1.208133e+01	-4.939396e+01
1.480000e-06	-1.693887e-06	-6.898646e-10	-1.177166e+01	-4.909641e+01
1.490000e-06	-1.649126e-06	-6.820514e-10	-1.146059e+01	-4.879058e+01
1.500000e-06	-1.604147e-06	-6.762155e-10	-1.114801e+01	-4.847609e+01
1.510000e-06	-1.559064e-06	-6.729923e-10	-1.083471e+01	-4.815253e+01
1.520000e-06	-1.513999e-06	-6.710551e-10	-1.052153e+01	-4.781951e+01
1.530000e-06	-1.468893e-06	-6.671248e-10	-1.020807e+01	-4.747660e+01
1.540000e-06	-1.423695e-06	-6.605143e-10	-9.893964e+00	-4.712336e+01
1.550000e-06	-1.378356e-06	-6.490754e-10	-9.578881e+00	-4.675935e+01
1.560000e-06	-1.332859e-06	-6.368073e-10	-9.262697e+00	-4.638410e+01
1.570000e-06	-1.287249e-06	-6.258740e-10	-8.945731e+00	-4.599712e+01
1.580000e-06	-1.241573e-06	-6.175221e-10	-8.628307e+00	-4.559789e+01
1.590000e-06	-1.195826e-06	-6.139085e-10	-8.310388e+00	-4.518589e+01
1.600000e-06	-1.149959e-06	-6.148323e-10	-7.991634e+00	-4.476054e+01
1.610000e-06	-1.103980e-06	-6.125468e-10	-7.672102e+00	-4.432126e+01
1.620000e-06	-1.057874e-06	-6.038165e-10	-7.351694e+00	-4.386740e+01
1.630000e-06	-1.011696e-06	-5.920520e-10	-7.030774e+00	-4.339832e+01
1.640000e-06	-9.654935e-07	-5.805905e-10	-6.709693e+00	-4.291330e+01
1.650000e-06	-9.192443e-07	-5.699654e-10	-6.388285e+00	-4.241161e+01
1.660000e-06	-8.729120e-07	-5.613222e-10	-6.066298e+00	-4.189247e+01
1.670000e-06	-8.264998e-07	-5.552161e-10	-5.743757e+00	-4.135506e+01
1.680000e-06	-7.801282e-07	-5.497151e-10	-5.421498e+00	-4.079853e+01
1.690000e-06	-7.337429e-07	-5.427893e-10	-5.099143e+00	-4.022199e+01
1.700000e-06	-6.872429e-07	-5.326546e-10	-4.775991e+00	-3.962452e+01
1.710000e-06	-6.406372e-07	-5.201306e-10	-4.452106e+00	-3.900516e+01
1.720000e-06	-5.939475e-07	-5.080334e-10	-4.127636e+00	-3.836297e+01
1.730000e-06	-5.473234e-07	-4.988402e-10	-3.803622e+00	-3.769695e+01
1.740000e-06	-5.007531e-07	-4.898217e-10	-3.479982e+00	-3.700612e+01
1.750000e-06	-4.541533e-07	-4.793085e-10	-3.156136e+00	-3.628949e+01
1.760000e-06	-4.074441e-07	-4.673606e-10	-2.831531e+00	-3.554609e+01
1.770000e-06	-3.606746e-07	-4.567557e-10	-2.506507e+00	-3.477498e+01
1.780000e-06	-3.139201e-07	-4.478290e-10	-2.181587e+00	-3.397525e+01
1.790000e-06	-2.671210e-07	-4.386955e-10	-1.856356e+00	-3.314602e+01
1.800000e-06	-2.202424e-07	-4.261662e-10	-1.530574e+00	-3.228651e+01
1.810000e-06	-1.733235e-07	-4.109215e-10	-1.204511e+00	-3.139597e+01
1.820000e-06	-1.264936e-07	-3.945644e-10	-8.790670e-01	-3.047376e+01
1.830000e-06	-7.969845e-08	-3.804026e-10	-5.538640e-01	-2.951933e+01
1.840000e-06	-3.284909e-08	-3.685448e-10	-2.282846e-01	-2.853224e+01
1.850000e-06	1.402855e-08	-3.572161e-10	9.749136e-02	-2.751218e+01
1.860000e-06	6.085800e-08	-3.445390e-10	4.229324e-01	-2.645895e+01
1.870000e-06	1.076263e-07	-3.302134e-10	7.479485e-01	-2.537251e+01
1.880000e-06	1.543759e-07	-3.148412e-10	1.072835e+00	-2.425295e+01
1.890000e-06	2.011618e-07	-2.993979e-10	1.397973e+00	-2.310054e+01
1.900000e-06	2.479778e-07	-2.826301e-10	1.723320e+00	-2.191568e+01
1.910000e-06	2.947528e-07	-2.633655e-10	2.048383e+00	-2.069895e+01
1.920000e-06	3.415004e-07	-2.444457e-10	2.373255e+00	-1.945110e+01
1.930000e-06	3.882023e-07	-2.289515e-10	2.697810e+00	-1.817301e+01
1.940000e-06	4.348491e-07	-2.135198e-10	3.021982e+00	-1.686576e+01
1.950000e-06	4.814204e-07	-1.961302e-10	3.345629e+00	-1.553057e+01
1.960000e-06	5.279408e-07	-1.788794e-10	3.668922e+00	-1.416881e+01
1.970000e-06	5.745085e-07	-1.615524e-10	3.992545e+00	-1.278199e+01
1.980000e-06	6.210970e-07	-1.430681e-10	4.316311e+00	-1.137176e+01
1.990000e-06	6.676133e-07	-1.247102e-10	4.639575e+00	-9.939894e+00
2.000000e-06	7.139229e-07	-1.050965e-10	4.961404e+00	-8.488264e+00
2.010000e-06	7.601087e-07	-8.197827e-11	5.282372e+00	-7.018849e+00
2.020000e-06	8.063216e-07	-5.689280e-11	5.603529e+00	-5.533708e+00
2.030000e-06	8.525485e-07	-3.373079e-11	5.924782e+00	-4.034966e+00
2.040000e-06	8.987015e-07	-1.501120e-11	6.245522e+00	-2.524799e+00
2.050000e-06	9.447538e-07	3.055541e-12	6.565563e+00	-1.005418e+00
2.060000e-06	9.908035e-07	2.409156e-11	6.885585e+00	5.209465e-01
2.070000e-06	1.036762e-06	4.755349e-11	7.204971e+00	2.052061e+00
2.080000e-06	1.082643e-06	7.146181e-11	7.523821e+00	3.585705e+00
2.090000e-06	1.128439e-06	9.603487e-11	7.842083e+00	5.119684e+00
2.100000e-06	1.174151e-06	1.203052e-10	8.159757e+00	6.651846e+00
2.110000e-06	1.219813e-06	1.441713e-10	8.477083e+00	8.180093e+00
2.120000e-06	1.265390e-06	1.664197e-10	8.793825e+00	9.702392e+00
2.130000e-06	1.310906e-06	1.861190e-10	9.110137e+00	1.121679e+01
2.140000e-06	1.356339e-06	2.041684e-10	9.425876e+00	1.272141e+01
2.150000e-06	1.401666e-06	2.236702e-10	9.740872e+00	1.421448e+01
2.160000e-06	1.446824e-06	2.461564e-10	1.005470e+01	1.569433e+01
2.170000e-06	1.491892e-06	2.701655e-10	1.036790e+01	1.715938e+01
2.180000e-06	1.536908e-06	2.930544e-10	1.068074e+01	1.860816e+01
2.190000e-06	1.581777e-06	3.140935e-10	1.099255e+01	2.003933e+01
2.200000e-06	1.626532e-06	3.338929e-10	1.130358e+01	2.145163e+01
2.210000e-06	1.671235e-06	3.514506e-10	1.161424e+01	2.284394e+01
2.220000e-06	1.715777e-06	3.659742e-10	1.192378e+01	2.421522e+01
2.230000e-06	1.760065e-06	3.811536e-10	1.223156e+01	2.556454e+01
2.240000e-06	1.804203e-06	3.980464e-10	1.253830e+01	2.689109e+01
2.250000e-06	1.848260e-06	4.144483e-10	1.284447e+01	2.819412e+01
2.260000e-06	1.892253e-06	4.330669e-10	1.315021e+01	2.947301e+01
2.270000e-06	1.936180e-06	4.549533e-10	1.345547e+01	3.072720e+01
2.280000e-06	1.980043e-06	4.750263e-10	1.376030e+01	3.195621e+01
2.290000e-06	2.023859e-06	4.910031e-10	1.406480e+01	3.315962e+01
2.300000e-06	2.067637e-06	5.054489e-10	1.436903e+01	3.433712e+01
2.310000e-06	2.111361e-06	5.188000e-10	1.467290e+01	3.548841e+01
2.320000e-06	2.155028e-06	5.317351e-10	1.497636e+01	3.661327e+01
2.330000e-06	2.198615e-06	5.448760e-10	1.527926e+01	3.771154e+01
2.340000e-06	2.242037e-06	5.578376e-10	1.558102e+01	3.878308e+01
2.350000e-06	2.285323e-06	5.728019e-10	1.588185e+01	3.982781e+01
2.360000e-06	2.328505e-06	5.897628e-10	1.618193e+01	4.084568e+01
2.370000e-06	2.371487e-06	6.041431e-10	1.648064e+01	4.183667e+01
2.380000e-06	2.414172e-06	6.152433e-10	1.677728e+01	4.280081e+01
2.390000e-06	2.456489e-06	6.255787e-10	1.707136e+01	4.373815e+01
2.400000e-06	2.498358e-06	6.359555e-10	1.736233e+01	4.464876e+01
2.410000e-06	2.539740e-06	6.473409e-10	1.764991e+01	4.553275e+01
2.420000e-06	2.580792e-06	6.595761e-10	1.793521e+01	4.639026e+01
2.430000e-06	2.621625e-06	6.722303e-10	1.821897e+01	4.722147e+01
2.440000e-06	2.662212e-06	6.843966e-10	1.850103e+01	4.802655e+01
2.450000e-06	2.702625e-06	6.938542e-10	1.878188e+01	4.880574e+01
2.460000e-06	2.742894e-06	7.017893e-10	1.906173e+01	4.955929e+01
2.470000e-06	2.783003e-06	7.084544e-10	1.934047e+01	5.028749e+01
2.480000e-06	2.822961e-06	7.156906e-10	1.961816e+01	5.099065e+01
2.490000e-06	2.862751e-06	7.255267e-10	1.989467e+01	5.166912e+01
2.500000e-06	2.902401e-06	7.365480e-10	2.017022e+01	5.232328e+01
2.510000e-06	2.941966e-06	7.471633e-10	2.044518e+01	5.295353e+01
2.520000e-06	2.981421e-06	7.570483e-10	2.071937e+01	5.356033e+01
2.530000e-06	3.020645e-06	7.648507e-10	2.099196e+01	5.414413e+01
2.540000e-06	3.059586e-06	7.708682e-10	2.126258e+01	5.470544e+01
2.550000e-06	3.098242e-06	7.755082e-10	2.153122e+01	5.524478e+01
2.560000e-06	3.136677e-06	7.800742e-10	2.179832e+01	5.576269e+01
2.570000e-06	3.174945e-06	7.869065e-10	2.206427e+01	5.625976e+01
2.580000e-06	3.213037e-06	7.940304e-10	2.232899e+01	5.673656e+01
2.590000e-06	3.251020e-06	8.009648e-10	2.259295e+01	5.719370e+01
2.600000e-06	3.288823e-06	8.079934e-10	2.285566e+01	5.763181e+01
2.610000e-06	3.326409e-06	8.145437e-10	2.311687e+01	5.805150e+01
2.620000e-06	3.363734e-06	8.198239e-10	2.337625e+01	5.845341e+01
2.630000e-06	3.400768e-06	8.227501e-10	2.363363e+01	5.883817e+01
2.640000e-06	3.437599e-06	8.235815e-10	2.388958e+01	5.920643e+01
2.650000e-06	3.474157e-06	8.250824e-10	2.414364e+01	5.955880e+01
2.660000e-06	3.510382e-06	8.293845e-10	2.439539e+01	5.989592e+01
2.670000e-06	3.546359e-06	8.356427e-10	2.464541e+01	6.021839e+01
2.680000e-06	3.582219e-06	8.421490e-10	2.489462e+01	6.052682e+01
2.690000e-06	3.617999e-06	8.484811e-10	2.514327e+01	6.082179e+01
2.700000e-06	3.653666e-06	8.550768e-10	2.539114e+01	6.110388e+01
2.710000e-06	3.689172e-06	8.602539e-10	2.563788e+01	6.137365e+01
2.720000e-06	3.724504e-06	8.631985e-10	2.588342e+01	6.163163e+01
2.730000e-06	3.759549e-06	8.659293e-10	2.612697e+01	6.187835e+01
2.740000e-06	3.794124e-06	8.678060e-10	2.636725e+01	6.211431e+01
2.750000e-06	3.828136e-06	8.709326e-10	2.660361e+01	6.234001e+01
2.760000e-06	3.861676e-06	8.768917e-10	2.683670e+01	6.255592e+01
2.770000e-06	3.894807e-06	8.843110e-10	2.706694e+01	6.276249e+01
2.780000e-06	3.927531e-06	8.929920e-10	2.729436e+01	6.296018e+01
2.790000e-06	3.959976e-06	9.009152e-10	2.751983e+01	6.314942e+01
2.800000e-06	3.992129e-06	9.045876e-10	2.774328e+01	6.333065e+01
2.810000e-06	4.024024e-06	9.037797e-10	2.796493e+01	6.350427e+01
2.820000e-06	4.055780e-06	9.028950e-10	2.818563e+01	6.367070e+01
2.830000e-06	4.087389e-06	9.060644e-10	2.840529e+01	6.383034e+01
2.840000e-06	4.118809e-06	9.127179e-10	2.862365e+01	6.398358e+01
2.850000e-06	4.150008e-06	9.200186e-10	2.884046e+01	6.413083e+01
2.860000e-06	4.180858e-06	9.279745e-10	2.905485e+01	6.427247e+01
2.870000e-06	4.211319e-06	9.350224e-10	2.926654e+01	6.440888e+01
2.880000e-06	4.241432e-06	9.381812e-10	2.947582e+01	6.454042e+01
2.890000e-06	4.271272e-06	9.388228e-10	2.968318e+01	6.466748e+01
2.900000e-06	4.300863e-06	9.391811e-10	2.988883e+01	6.479039e+01
