# Temperatura_=_-8.16
# Concentracion g/m^3_=_1620.0
# C_Vs_to_Am_M_A/Vsm_=_65563218390.804596
# pendiente_HvsI_1/m_=_3716.3
# ordenada_HvsI_A/m_=_1297.0
# frecuencia_Hz_=_135109.436176334

Tiempo_(s)	Campo_(V.s)	Magnetizacion_(V.s)	Campo_(kA/m)	Magnetizacion_(A/m)
0.000000e+00	-5.500414e-06	-1.080142e-09	-3.836801e+01	-7.148732e+01
1.000000e-08	-5.500446e-06	-1.077392e-09	-3.836824e+01	-7.145897e+01
2.000000e-08	-5.500296e-06	-1.074496e-09	-3.836719e+01	-7.142962e+01
3.000000e-08	-5.499886e-06	-1.071713e-09	-3.836433e+01	-7.139917e+01
4.000000e-08	-5.499019e-06	-1.070463e-09	-3.835829e+01	-7.136753e+01
5.000000e-08	-5.497692e-06	-1.072143e-09	-3.834903e+01	-7.133465e+01
6.000000e-08	-5.495739e-06	-1.084661e-09	-3.833540e+01	-7.130050e+01
7.000000e-08	-5.493119e-06	-1.100587e-09	-3.831713e+01	-7.126504e+01
8.000000e-08	-5.490009e-06	-1.061138e-09	-3.829544e+01	-7.122829e+01
9.000000e-08	-5.486442e-06	-9.955757e-10	-3.827055e+01	-7.119024e+01
1.000000e-07	-5.482398e-06	-1.044218e-09	-3.824235e+01	-7.115090e+01
1.100000e-07	-5.478019e-06	-1.145501e-09	-3.821180e+01	-7.111029e+01
1.200000e-07	-5.473442e-06	-1.089028e-09	-3.817988e+01	-7.106844e+01
1.300000e-07	-5.468589e-06	-9.932045e-10	-3.814602e+01	-7.102533e+01
1.400000e-07	-5.463393e-06	-1.010736e-09	-3.810978e+01	-7.098098e+01
1.500000e-07	-5.457733e-06	-1.150593e-09	-3.807030e+01	-7.093537e+01
1.600000e-07	-5.451597e-06	-1.122441e-09	-3.802750e+01	-7.088848e+01
1.700000e-07	-5.445164e-06	-1.005763e-09	-3.798262e+01	-7.084025e+01
1.800000e-07	-5.438348e-06	-1.011519e-09	-3.793508e+01	-7.079063e+01
1.900000e-07	-5.431072e-06	-1.141420e-09	-3.788433e+01	-7.073952e+01
2.000000e-07	-5.423417e-06	-1.134276e-09	-3.783093e+01	-7.068682e+01
2.100000e-07	-5.415537e-06	-1.043158e-09	-3.777596e+01	-7.063241e+01
2.200000e-07	-5.407449e-06	-1.022994e-09	-3.771954e+01	-7.057615e+01
2.300000e-07	-5.399103e-06	-1.098332e-09	-3.766132e+01	-7.051787e+01
2.400000e-07	-5.390414e-06	-1.107876e-09	-3.760071e+01	-7.045742e+01
2.500000e-07	-5.381109e-06	-1.057473e-09	-3.753581e+01	-7.039460e+01
2.600000e-07	-5.371066e-06	-1.056191e-09	-3.746575e+01	-7.032925e+01
2.700000e-07	-5.360419e-06	-1.080073e-09	-3.739149e+01	-7.026119e+01
2.800000e-07	-5.349324e-06	-1.081147e-09	-3.731409e+01	-7.019024e+01
2.900000e-07	-5.337817e-06	-1.036636e-09	-3.723382e+01	-7.011626e+01
3.000000e-07	-5.325907e-06	-1.036059e-09	-3.715075e+01	-7.003909e+01
3.100000e-07	-5.313609e-06	-1.055205e-09	-3.706496e+01	-6.995863e+01
3.200000e-07	-5.300904e-06	-1.096417e-09	-3.697634e+01	-6.987480e+01
3.300000e-07	-5.287723e-06	-1.056620e-09	-3.688440e+01	-6.978753e+01
3.400000e-07	-5.274064e-06	-1.051569e-09	-3.678912e+01	-6.969683e+01
3.500000e-07	-5.260116e-06	-1.075871e-09	-3.669182e+01	-6.960272e+01
3.600000e-07	-5.245828e-06	-1.092558e-09	-3.659216e+01	-6.950526e+01
3.700000e-07	-5.231118e-06	-1.030481e-09	-3.648955e+01	-6.940459e+01
3.800000e-07	-5.216101e-06	-1.063340e-09	-3.638480e+01	-6.930085e+01
3.900000e-07	-5.200432e-06	-1.087769e-09	-3.627550e+01	-6.919427e+01
4.000000e-07	-5.184044e-06	-1.025927e-09	-3.616119e+01	-6.908509e+01
4.100000e-07	-5.167270e-06	-1.003068e-09	-3.604418e+01	-6.897361e+01
4.200000e-07	-5.150179e-06	-1.097847e-09	-3.592496e+01	-6.886016e+01
4.300000e-07	-5.132749e-06	-1.068057e-09	-3.580338e+01	-6.874509e+01
4.400000e-07	-5.114966e-06	-9.797627e-10	-3.567933e+01	-6.862878e+01
4.500000e-07	-5.096811e-06	-1.050831e-09	-3.555270e+01	-6.851166e+01
4.600000e-07	-5.078320e-06	-1.101965e-09	-3.542371e+01	-6.839412e+01
4.700000e-07	-5.059440e-06	-9.892624e-10	-3.529201e+01	-6.827658e+01
4.800000e-07	-5.040195e-06	-9.858044e-10	-3.515777e+01	-6.815947e+01
4.900000e-07	-5.020712e-06	-1.086440e-09	-3.502187e+01	-6.804316e+01
5.000000e-07	-5.000951e-06	-1.028845e-09	-3.488402e+01	-6.792806e+01
5.100000e-07	-4.980958e-06	-9.819574e-10	-3.474456e+01	-6.781449e+01
5.200000e-07	-4.960781e-06	-1.078231e-09	-3.460382e+01	-6.770276e+01
5.300000e-07	-4.940251e-06	-1.064817e-09	-3.446061e+01	-6.759315e+01
5.400000e-07	-4.919331e-06	-9.561159e-10	-3.431469e+01	-6.748585e+01
5.500000e-07	-4.898061e-06	-1.018167e-09	-3.416632e+01	-6.738104e+01
5.600000e-07	-4.876425e-06	-1.066277e-09	-3.401540e+01	-6.727880e+01
5.700000e-07	-4.854437e-06	-9.766956e-10	-3.386202e+01	-6.717917e+01
5.800000e-07	-4.832118e-06	-9.774491e-10	-3.370633e+01	-6.708212e+01
5.900000e-07	-4.809501e-06	-1.060855e-09	-3.354857e+01	-6.698755e+01
6.000000e-07	-4.786542e-06	-1.006694e-09	-3.338842e+01	-6.689530e+01
6.100000e-07	-4.763287e-06	-9.665903e-10	-3.322620e+01	-6.680517e+01
6.200000e-07	-4.739795e-06	-1.023204e-09	-3.306233e+01	-6.671687e+01
6.300000e-07	-4.716027e-06	-1.020505e-09	-3.289654e+01	-6.663008e+01
6.400000e-07	-4.691987e-06	-9.674236e-10	-3.272885e+01	-6.654444e+01
6.500000e-07	-4.667662e-06	-1.007197e-09	-3.255917e+01	-6.645954e+01
6.600000e-07	-4.642998e-06	-1.023699e-09	-3.238713e+01	-6.637495e+01
6.700000e-07	-4.617787e-06	-9.861324e-10	-3.221127e+01	-6.629022e+01
6.800000e-07	-4.591963e-06	-9.949540e-10	-3.203114e+01	-6.620490e+01
6.900000e-07	-4.565652e-06	-1.025742e-09	-3.184761e+01	-6.611852e+01
7.000000e-07	-4.538845e-06	-9.936847e-10	-3.166062e+01	-6.603065e+01
7.100000e-07	-4.511653e-06	-9.809171e-10	-3.147094e+01	-6.594085e+01
7.200000e-07	-4.484207e-06	-9.995934e-10	-3.127949e+01	-6.584872e+01
7.300000e-07	-4.456518e-06	-9.937100e-10	-3.108634e+01	-6.575391e+01
7.400000e-07	-4.428603e-06	-9.766883e-10	-3.089162e+01	-6.565610e+01
7.500000e-07	-4.400501e-06	-9.923461e-10	-3.069560e+01	-6.555503e+01
7.600000e-07	-4.372237e-06	-9.970492e-10	-3.049844e+01	-6.545048e+01
7.700000e-07	-4.343695e-06	-9.826158e-10	-3.029935e+01	-6.534231e+01
7.800000e-07	-4.314755e-06	-9.840406e-10	-3.009748e+01	-6.523044e+01
7.900000e-07	-4.285483e-06	-9.835669e-10	-2.989329e+01	-6.511485e+01
8.000000e-07	-4.255904e-06	-9.689088e-10	-2.968697e+01	-6.499557e+01
8.100000e-07	-4.226014e-06	-9.662635e-10	-2.947847e+01	-6.487270e+01
8.200000e-07	-4.195879e-06	-9.782948e-10	-2.926826e+01	-6.474640e+01
8.300000e-07	-4.165540e-06	-9.727692e-10	-2.905664e+01	-6.461689e+01
8.400000e-07	-4.134953e-06	-9.699458e-10	-2.884327e+01	-6.448440e+01
8.500000e-07	-4.104010e-06	-9.768191e-10	-2.862743e+01	-6.434923e+01
8.600000e-07	-4.072715e-06	-9.714590e-10	-2.840913e+01	-6.421169e+01
8.700000e-07	-4.041249e-06	-9.543167e-10	-2.818964e+01	-6.407213e+01
8.800000e-07	-4.009646e-06	-9.572263e-10	-2.796920e+01	-6.393087e+01
8.900000e-07	-3.977841e-06	-9.539729e-10	-2.774734e+01	-6.378827e+01
9.000000e-07	-3.945828e-06	-9.458016e-10	-2.752403e+01	-6.364466e+01
9.100000e-07	-3.913527e-06	-9.474925e-10	-2.729872e+01	-6.350033e+01
9.200000e-07	-3.880940e-06	-9.547713e-10	-2.707141e+01	-6.335557e+01
9.300000e-07	-3.848003e-06	-9.434246e-10	-2.684166e+01	-6.321062e+01
9.400000e-07	-3.814652e-06	-9.405353e-10	-2.660902e+01	-6.306565e+01
9.500000e-07	-3.780882e-06	-9.419078e-10	-2.637346e+01	-6.292079e+01
9.600000e-07	-3.746639e-06	-9.310378e-10	-2.613460e+01	-6.277613e+01
9.700000e-07	-3.711934e-06	-9.171336e-10	-2.589252e+01	-6.263165e+01
9.800000e-07	-3.676868e-06	-9.229673e-10	-2.564791e+01	-6.248731e+01
9.900000e-07	-3.641513e-06	-9.237006e-10	-2.540130e+01	-6.234295e+01
1.000000e-06	-3.605934e-06	-9.159061e-10	-2.515311e+01	-6.219839e+01
1.010000e-06	-3.570217e-06	-9.163463e-10	-2.490397e+01	-6.205336e+01
1.020000e-06	-3.534330e-06	-9.179677e-10	-2.465364e+01	-6.190751e+01
1.030000e-06	-3.498270e-06	-9.062955e-10	-2.440211e+01	-6.176048e+01
1.040000e-06	-3.462043e-06	-9.007498e-10	-2.414940e+01	-6.161181e+01
1.050000e-06	-3.425681e-06	-9.025944e-10	-2.389576e+01	-6.146104e+01
1.060000e-06	-3.389108e-06	-8.954196e-10	-2.364065e+01	-6.130764e+01
1.070000e-06	-3.352194e-06	-8.878312e-10	-2.338315e+01	-6.115110e+01
1.080000e-06	-3.314980e-06	-8.911828e-10	-2.312357e+01	-6.099085e+01
1.090000e-06	-3.277492e-06	-8.911839e-10	-2.286207e+01	-6.082636e+01
1.100000e-06	-3.239785e-06	-8.817932e-10	-2.259905e+01	-6.065708e+01
1.110000e-06	-3.201903e-06	-8.800342e-10	-2.233481e+01	-6.048251e+01
1.120000e-06	-3.163814e-06	-8.793673e-10	-2.206911e+01	-6.030215e+01
1.130000e-06	-3.125568e-06	-8.727807e-10	-2.180233e+01	-6.011556e+01
1.140000e-06	-3.087142e-06	-8.677537e-10	-2.153429e+01	-5.992236e+01
1.150000e-06	-3.048419e-06	-8.704552e-10	-2.126418e+01	-5.972220e+01
1.160000e-06	-3.009330e-06	-8.657913e-10	-2.099152e+01	-5.951482e+01
1.170000e-06	-2.969978e-06	-8.592190e-10	-2.071702e+01	-5.930003e+01
1.180000e-06	-2.930508e-06	-8.578564e-10	-2.044169e+01	-5.907769e+01
1.190000e-06	-2.890979e-06	-8.583935e-10	-2.016596e+01	-5.884776e+01
1.200000e-06	-2.851353e-06	-8.525606e-10	-1.988955e+01	-5.861026e+01
1.210000e-06	-2.811558e-06	-8.487752e-10	-1.961196e+01	-5.836530e+01
1.220000e-06	-2.771636e-06	-8.423192e-10	-1.933349e+01	-5.811305e+01
1.230000e-06	-2.731541e-06	-8.340939e-10	-1.905381e+01	-5.785375e+01
1.240000e-06	-2.691253e-06	-8.291453e-10	-1.877277e+01	-5.758769e+01
1.250000e-06	-2.650868e-06	-8.323765e-10	-1.849107e+01	-5.731523e+01
1.260000e-06	-2.610348e-06	-8.315467e-10	-1.820843e+01	-5.703677e+01
1.270000e-06	-2.569580e-06	-8.283122e-10	-1.792405e+01	-5.675272e+01
1.280000e-06	-2.528477e-06	-8.283011e-10	-1.763733e+01	-5.646354e+01
1.290000e-06	-2.487128e-06	-8.263825e-10	-1.734891e+01	-5.616968e+01
1.300000e-06	-2.445499e-06	-8.158039e-10	-1.705853e+01	-5.587161e+01
1.310000e-06	-2.403509e-06	-8.049654e-10	-1.676563e+01	-5.556978e+01
1.320000e-06	-2.361303e-06	-7.987393e-10	-1.647122e+01	-5.526460e+01
1.330000e-06	-2.318879e-06	-7.923447e-10	-1.617529e+01	-5.495646e+01
1.340000e-06	-2.276125e-06	-7.902446e-10	-1.587706e+01	-5.464571e+01
1.350000e-06	-2.233061e-06	-7.937187e-10	-1.557667e+01	-5.433263e+01
1.360000e-06	-2.189798e-06	-7.947149e-10	-1.527489e+01	-5.401744e+01
1.370000e-06	-2.146368e-06	-7.896084e-10	-1.497194e+01	-5.370031e+01
1.380000e-06	-2.102789e-06	-7.810963e-10	-1.466796e+01	-5.338130e+01
1.390000e-06	-2.059115e-06	-7.686308e-10	-1.436331e+01	-5.306041e+01
1.400000e-06	-2.015367e-06	-7.577415e-10	-1.405815e+01	-5.273756e+01
1.410000e-06	-1.971589e-06	-7.532411e-10	-1.375278e+01	-5.241257e+01
1.420000e-06	-1.927735e-06	-7.543170e-10	-1.344687e+01	-5.208520e+01
1.430000e-06	-1.883750e-06	-7.541303e-10	-1.314006e+01	-5.175509e+01
1.440000e-06	-1.839694e-06	-7.538502e-10	-1.283275e+01	-5.142184e+01
1.450000e-06	-1.795560e-06	-7.513799e-10	-1.252489e+01	-5.108496e+01
1.460000e-06	-1.751390e-06	-7.435751e-10	-1.221678e+01	-5.074387e+01
1.470000e-06	-1.707187e-06	-7.284677e-10	-1.190845e+01	-5.039797e+01
1.480000e-06	-1.662873e-06	-7.158441e-10	-1.159934e+01	-5.004656e+01
1.490000e-06	-1.618365e-06	-7.059862e-10	-1.128887e+01	-4.968892e+01
1.500000e-06	-1.573602e-06	-6.980027e-10	-1.097662e+01	-4.932428e+01
1.510000e-06	-1.528714e-06	-6.951588e-10	-1.066351e+01	-4.895185e+01
1.520000e-06	-1.483740e-06	-6.949605e-10	-1.034980e+01	-4.857081e+01
1.530000e-06	-1.438621e-06	-6.916837e-10	-1.003507e+01	-4.818031e+01
1.540000e-06	-1.393428e-06	-6.845235e-10	-9.719824e+00	-4.777951e+01
1.550000e-06	-1.348189e-06	-6.743498e-10	-9.404264e+00	-4.736757e+01
1.560000e-06	-1.302828e-06	-6.618964e-10	-9.087846e+00	-4.694364e+01
1.570000e-06	-1.257303e-06	-6.504877e-10	-8.770291e+00	-4.650689e+01
1.580000e-06	-1.211697e-06	-6.420516e-10	-8.452162e+00	-4.605652e+01
1.590000e-06	-1.166078e-06	-6.380335e-10	-8.133949e+00	-4.559171e+01
1.600000e-06	-1.120355e-06	-6.355192e-10	-7.815013e+00	-4.511169e+01
1.610000e-06	-1.074582e-06	-6.306292e-10	-7.495724e+00	-4.461569e+01
1.620000e-06	-1.028810e-06	-6.228514e-10	-7.176441e+00	-4.410297e+01
1.630000e-06	-9.829701e-07	-6.115485e-10	-6.856686e+00	-4.357281e+01
1.640000e-06	-9.370023e-07	-5.974348e-10	-6.536039e+00	-4.302451e+01
1.650000e-06	-8.909052e-07	-5.828786e-10	-6.214490e+00	-4.245736e+01
1.660000e-06	-8.447774e-07	-5.690684e-10	-5.892726e+00	-4.187070e+01
1.670000e-06	-7.985805e-07	-5.577490e-10	-5.570481e+00	-4.126384e+01
1.680000e-06	-7.522895e-07	-5.493201e-10	-5.247579e+00	-4.063612e+01
1.690000e-06	-7.060159e-07	-5.413103e-10	-4.924798e+00	-3.998687e+01
1.700000e-06	-6.598002e-07	-5.311736e-10	-4.602421e+00	-3.931542e+01
1.710000e-06	-6.134989e-07	-5.198607e-10	-4.279448e+00	-3.862109e+01
1.720000e-06	-5.670643e-07	-5.086067e-10	-3.955545e+00	-3.790321e+01
1.730000e-06	-5.205999e-07	-4.954045e-10	-3.631433e+00	-3.716109e+01
1.740000e-06	-4.740855e-07	-4.815309e-10	-3.306973e+00	-3.639404e+01
1.750000e-06	-4.275773e-07	-4.678888e-10	-2.982556e+00	-3.560135e+01
1.760000e-06	-3.810425e-07	-4.539586e-10	-2.657953e+00	-3.478232e+01
1.770000e-06	-3.344315e-07	-4.425817e-10	-2.332820e+00	-3.393624e+01
1.780000e-06	-2.878198e-07	-4.326103e-10	-2.007681e+00	-3.306242e+01
1.790000e-06	-2.411221e-07	-4.225770e-10	-1.681942e+00	-3.216018e+01
1.800000e-06	-1.943908e-07	-4.096166e-10	-1.355969e+00	-3.122885e+01
1.810000e-06	-1.476835e-07	-3.928895e-10	-1.030163e+00	-3.026779e+01
1.820000e-06	-1.010076e-07	-3.748710e-10	-7.045765e-01	-2.927641e+01
1.830000e-06	-5.432890e-08	-3.585892e-10	-3.789700e-01	-2.825417e+01
1.840000e-06	-7.670125e-09	-3.445763e-10	-5.350279e-02	-2.720058e+01
1.850000e-06	3.895797e-08	-3.317958e-10	2.717505e-01	-2.611525e+01
1.860000e-06	8.564521e-08	-3.184909e-10	5.974163e-01	-2.499785e+01
1.870000e-06	1.323145e-07	-3.035849e-10	9.229571e-01	-2.384817e+01
1.880000e-06	1.789377e-07	-2.874977e-10	1.248176e+00	-2.266611e+01
1.890000e-06	2.255818e-07	-2.708841e-10	1.573541e+00	-2.145171e+01
1.900000e-06	2.721839e-07	-2.520904e-10	1.898613e+00	-2.020513e+01
1.910000e-06	3.187623e-07	-2.322898e-10	2.223520e+00	-1.892669e+01
1.920000e-06	3.653640e-07	-2.149938e-10	2.548589e+00	-1.761686e+01
1.930000e-06	4.119213e-07	-1.986663e-10	2.873348e+00	-1.627629e+01
1.940000e-06	4.583581e-07	-1.802979e-10	3.197267e+00	-1.490578e+01
1.950000e-06	5.046761e-07	-1.607053e-10	3.520357e+00	-1.350634e+01
1.960000e-06	5.510337e-07	-1.419227e-10	3.843723e+00	-1.207911e+01
1.970000e-06	5.973930e-07	-1.217531e-10	4.167101e+00	-1.062546e+01
1.980000e-06	6.437080e-07	-1.010188e-10	4.490171e+00	-9.146885e+00
1.990000e-06	6.900294e-07	-8.030122e-11	4.813285e+00	-7.645081e+00
2.000000e-06	7.362858e-07	-5.801166e-11	5.135946e+00	-6.121891e+00
2.010000e-06	7.824748e-07	-3.414357e-11	5.458136e+00	-4.579311e+00
2.020000e-06	8.285814e-07	-1.136748e-11	5.779751e+00	-3.019478e+00
2.030000e-06	8.746059e-07	8.888213e-12	6.100794e+00	-1.444651e+00
2.040000e-06	9.206022e-07	2.635040e-11	6.421641e+00	1.428038e-01
2.050000e-06	9.665649e-07	4.342936e-11	6.742252e+00	1.740427e+00
2.060000e-06	1.012467e-06	6.308610e-11	7.062441e+00	3.345688e+00
2.070000e-06	1.058311e-06	8.407444e-11	7.382226e+00	4.956007e+00
2.080000e-06	1.104109e-06	1.065842e-10	7.701685e+00	6.568772e+00
2.090000e-06	1.149861e-06	1.309434e-10	8.020829e+00	8.181363e+00
2.100000e-06	1.195521e-06	1.557856e-10	8.339329e+00	9.791171e+00
2.110000e-06	1.240990e-06	1.794227e-10	8.656496e+00	1.139562e+01
2.120000e-06	1.286312e-06	2.006337e-10	8.972643e+00	1.299220e+01
2.130000e-06	1.331623e-06	2.196179e-10	9.288704e+00	1.457845e+01
2.140000e-06	1.376925e-06	2.377196e-10	9.604708e+00	1.615203e+01
2.150000e-06	1.422149e-06	2.583451e-10	9.920172e+00	1.771070e+01
2.160000e-06	1.467252e-06	2.830271e-10	1.023479e+01	1.925234e+01
2.170000e-06	1.512207e-06	3.087698e-10	1.054836e+01	2.077498e+01
2.180000e-06	1.557067e-06	3.314164e-10	1.086129e+01	2.227678e+01
2.190000e-06	1.601772e-06	3.516214e-10	1.117312e+01	2.375610e+01
2.200000e-06	1.646253e-06	3.712288e-10	1.148340e+01	2.521143e+01
2.210000e-06	1.690641e-06	3.881225e-10	1.179303e+01	2.664145e+01
2.220000e-06	1.734935e-06	4.041478e-10	1.210200e+01	2.804502e+01
2.230000e-06	1.779117e-06	4.218491e-10	1.241019e+01	2.942115e+01
2.240000e-06	1.823210e-06	4.390199e-10	1.271776e+01	3.076906e+01
2.250000e-06	1.867203e-06	4.565847e-10	1.302463e+01	3.208811e+01
2.260000e-06	1.911093e-06	4.783065e-10	1.333078e+01	3.337784e+01
2.270000e-06	1.954925e-06	5.009480e-10	1.363654e+01	3.463792e+01
2.280000e-06	1.998740e-06	5.208123e-10	1.394217e+01	3.586819e+01
2.290000e-06	2.042473e-06	5.386107e-10	1.424723e+01	3.706861e+01
2.300000e-06	2.086120e-06	5.541648e-10	1.455168e+01	3.823926e+01
2.310000e-06	2.129724e-06	5.676115e-10	1.485584e+01	3.938034e+01
2.320000e-06	2.173268e-06	5.820473e-10	1.515959e+01	4.049214e+01
2.330000e-06	2.216633e-06	5.970866e-10	1.546208e+01	4.157502e+01
2.340000e-06	2.259776e-06	6.120055e-10	1.576301e+01	4.262941e+01
2.350000e-06	2.302729e-06	6.281074e-10	1.606263e+01	4.365581e+01
2.360000e-06	2.345464e-06	6.437305e-10	1.636074e+01	4.465475e+01
2.370000e-06	2.387899e-06	6.555695e-10	1.665674e+01	4.562678e+01
2.380000e-06	2.429903e-06	6.656441e-10	1.694974e+01	4.657248e+01
2.390000e-06	2.471474e-06	6.770377e-10	1.723971e+01	4.749242e+01
2.400000e-06	2.512761e-06	6.904679e-10	1.752771e+01	4.838720e+01
2.410000e-06	2.553790e-06	7.055774e-10	1.781390e+01	4.925736e+01
2.420000e-06	2.594577e-06	7.202320e-10	1.809842e+01	5.010346e+01
2.430000e-06	2.635181e-06	7.348963e-10	1.838165e+01	5.092602e+01
2.440000e-06	2.675550e-06	7.476805e-10	1.866324e+01	5.172554e+01
2.450000e-06	2.715701e-06	7.572450e-10	1.894332e+01	5.250248e+01
2.460000e-06	2.755686e-06	7.651404e-10	1.922223e+01	5.325728e+01
2.470000e-06	2.795574e-06	7.725543e-10	1.950047e+01	5.399033e+01
2.480000e-06	2.835374e-06	7.807983e-10	1.977809e+01	5.470201e+01
2.490000e-06	2.875051e-06	7.911472e-10	2.005485e+01	5.539265e+01
2.500000e-06	2.914582e-06	8.038037e-10	2.033060e+01	5.606256e+01
2.510000e-06	2.953969e-06	8.161264e-10	2.060534e+01	5.671203e+01
2.520000e-06	2.993247e-06	8.258431e-10	2.087933e+01	5.734132e+01
2.530000e-06	3.032296e-06	8.336346e-10	2.115172e+01	5.795070e+01
2.540000e-06	3.070988e-06	8.399692e-10	2.142161e+01	5.854038e+01
2.550000e-06	3.109375e-06	8.455387e-10	2.168938e+01	5.911062e+01
2.560000e-06	3.147573e-06	8.520315e-10	2.195583e+01	5.966162e+01
2.570000e-06	3.185637e-06	8.585117e-10	2.222134e+01	6.019363e+01
2.580000e-06	3.223538e-06	8.651516e-10	2.248572e+01	6.070687e+01
2.590000e-06	3.261286e-06	8.744950e-10	2.274903e+01	6.120159e+01
2.600000e-06	3.298768e-06	8.839364e-10	2.301048e+01	6.167804e+01
2.610000e-06	3.335941e-06	8.908947e-10	2.326978e+01	6.213649e+01
2.620000e-06	3.372877e-06	8.966452e-10	2.352743e+01	6.257723e+01
2.630000e-06	3.409506e-06	8.998294e-10	2.378293e+01	6.300056e+01
2.640000e-06	3.445881e-06	9.010877e-10	2.403666e+01	6.340680e+01
2.650000e-06	3.482037e-06	9.045245e-10	2.428887e+01	6.379629e+01
2.660000e-06	3.518001e-06	9.104016e-10	2.453974e+01	6.416940e+01
2.670000e-06	3.553873e-06	9.148733e-10	2.478997e+01	6.452651e+01
2.680000e-06	3.589664e-06	9.171218e-10	2.503962e+01	6.486801e+01
2.690000e-06	3.625388e-06	9.199067e-10	2.528882e+01	6.519433e+01
2.700000e-06	3.661014e-06	9.236598e-10	2.553732e+01	6.550589e+01
2.710000e-06	3.696356e-06	9.281571e-10	2.578385e+01	6.580314e+01
2.720000e-06	3.731272e-06	9.348981e-10	2.602741e+01	6.608654e+01
2.730000e-06	3.765780e-06	9.426304e-10	2.626811e+01	6.635656e+01
2.740000e-06	3.799841e-06	9.491038e-10	2.650571e+01	6.661367e+01
2.750000e-06	3.833344e-06	9.529211e-10	2.673940e+01	6.685837e+01
2.760000e-06	3.866407e-06	9.557956e-10	2.697004e+01	6.709114e+01
2.770000e-06	3.899177e-06	9.580402e-10	2.719862e+01	6.731248e+01
2.780000e-06	3.931661e-06	9.609353e-10	2.742521e+01	6.752289e+01
2.790000e-06	3.963841e-06	9.666801e-10	2.764968e+01	6.772287e+01
2.800000e-06	3.995747e-06	9.724916e-10	2.787224e+01	6.791293e+01
2.810000e-06	4.027488e-06	9.752959e-10	2.809366e+01	6.809357e+01
2.820000e-06	4.059093e-06	9.775389e-10	2.831411e+01	6.826530e+01
2.830000e-06	4.090490e-06	9.812410e-10	2.853312e+01	6.842862e+01
2.840000e-06	4.121683e-06	9.847498e-10	2.875071e+01	6.858404e+01
2.850000e-06	4.152606e-06	9.903787e-10	2.896642e+01	6.873206e+01
2.860000e-06	4.183137e-06	9.964543e-10	2.917938e+01	6.887320e+01
2.870000e-06	4.213277e-06	9.989782e-10	2.938962e+01	6.900794e+01
2.880000e-06	4.243100e-06	1.001124e-09	2.959765e+01	6.913680e+01
2.890000e-06	4.272699e-06	1.006148e-09	2.980412e+01	6.926027e+01
2.900000e-06	4.302107e-06	1.012130e-09	3.000925e+01	6.937885e+01
