# Temperatura_=_-12.79
# Concentracion g/m^3_=_1620.0
# C_Vs_to_Am_M_A/Vsm_=_65563218390.804596
# pendiente_HvsI_1/m_=_3716.3
# ordenada_HvsI_A/m_=_1297.0
# frecuencia_Hz_=_135108.30804145895

Tiempo_(s)	Campo_(V.s)	Magnetizacion_(V.s)	Campo_(kA/m)	Magnetizacion_(A/m)
0.000000e+00	-5.518166e-06	-8.700289e-10	-3.836218e+01	-5.972052e+01
1.000000e-08	-5.518356e-06	-8.680849e-10	-3.836350e+01	-5.972644e+01
2.000000e-08	-5.518218e-06	-8.648959e-10	-3.836254e+01	-5.973314e+01
3.000000e-08	-5.517703e-06	-8.616247e-10	-3.835896e+01	-5.974060e+01
4.000000e-08	-5.516681e-06	-8.578044e-10	-3.835186e+01	-5.974883e+01
5.000000e-08	-5.515106e-06	-8.551216e-10	-3.834090e+01	-5.975785e+01
6.000000e-08	-5.512991e-06	-8.614534e-10	-3.832620e+01	-5.976769e+01
7.000000e-08	-5.510343e-06	-8.874173e-10	-3.830779e+01	-5.977837e+01
8.000000e-08	-5.507110e-06	-8.888723e-10	-3.828531e+01	-5.978992e+01
9.000000e-08	-5.503316e-06	-8.177774e-10	-3.825894e+01	-5.980234e+01
1.000000e-07	-5.499136e-06	-7.577167e-10	-3.822988e+01	-5.981563e+01
1.100000e-07	-5.494749e-06	-8.330644e-10	-3.819938e+01	-5.982976e+01
1.200000e-07	-5.490166e-06	-9.223307e-10	-3.816752e+01	-5.984467e+01
1.300000e-07	-5.485183e-06	-9.120606e-10	-3.813288e+01	-5.986026e+01
1.400000e-07	-5.479731e-06	-8.027047e-10	-3.809498e+01	-5.987641e+01
1.500000e-07	-5.474032e-06	-8.264261e-10	-3.805535e+01	-5.989293e+01
1.600000e-07	-5.468074e-06	-9.079092e-10	-3.801394e+01	-5.990961e+01
1.700000e-07	-5.461616e-06	-9.107871e-10	-3.796904e+01	-5.992619e+01
1.800000e-07	-5.454708e-06	-8.320121e-10	-3.792102e+01	-5.994238e+01
1.900000e-07	-5.447537e-06	-8.444304e-10	-3.787117e+01	-5.995782e+01
2.000000e-07	-5.440077e-06	-9.024749e-10	-3.781930e+01	-5.997215e+01
2.100000e-07	-5.432270e-06	-9.245784e-10	-3.776503e+01	-5.998496e+01
2.200000e-07	-5.424215e-06	-8.787231e-10	-3.770903e+01	-5.999583e+01
2.300000e-07	-5.415883e-06	-8.666359e-10	-3.765111e+01	-6.000430e+01
2.400000e-07	-5.406936e-06	-8.950874e-10	-3.758891e+01	-6.000994e+01
2.500000e-07	-5.397288e-06	-9.248565e-10	-3.752183e+01	-6.001230e+01
2.600000e-07	-5.387113e-06	-9.099921e-10	-3.745110e+01	-6.001095e+01
2.700000e-07	-5.376450e-06	-8.680400e-10	-3.737697e+01	-6.000548e+01
2.800000e-07	-5.365224e-06	-8.825853e-10	-3.729893e+01	-5.999553e+01
2.900000e-07	-5.353532e-06	-8.925324e-10	-3.721764e+01	-5.998076e+01
3.000000e-07	-5.341523e-06	-8.743147e-10	-3.713416e+01	-5.996091e+01
3.100000e-07	-5.329116e-06	-8.466532e-10	-3.704791e+01	-5.993576e+01
3.200000e-07	-5.316256e-06	-9.136561e-10	-3.695850e+01	-5.990517e+01
3.300000e-07	-5.303008e-06	-9.355925e-10	-3.686640e+01	-5.986908e+01
3.400000e-07	-5.289444e-06	-9.048273e-10	-3.677211e+01	-5.982752e+01
3.500000e-07	-5.275440e-06	-8.662653e-10	-3.667475e+01	-5.978059e+01
3.600000e-07	-5.260932e-06	-9.044944e-10	-3.657389e+01	-5.972847e+01
3.700000e-07	-5.245965e-06	-8.746003e-10	-3.646984e+01	-5.967145e+01
3.800000e-07	-5.230424e-06	-8.554572e-10	-3.636180e+01	-5.960989e+01
3.900000e-07	-5.214395e-06	-8.856574e-10	-3.625036e+01	-5.954423e+01
4.000000e-07	-5.198019e-06	-9.101516e-10	-3.613652e+01	-5.947498e+01
4.100000e-07	-5.181281e-06	-8.564203e-10	-3.602016e+01	-5.940272e+01
4.200000e-07	-5.164199e-06	-8.749814e-10	-3.590141e+01	-5.932808e+01
4.300000e-07	-5.146825e-06	-9.231798e-10	-3.578062e+01	-5.925174e+01
4.400000e-07	-5.129156e-06	-8.766758e-10	-3.565779e+01	-5.917442e+01
4.500000e-07	-5.111004e-06	-8.270720e-10	-3.553160e+01	-5.909684e+01
4.600000e-07	-5.092320e-06	-8.838770e-10	-3.540170e+01	-5.901974e+01
4.700000e-07	-5.073376e-06	-8.967429e-10	-3.527001e+01	-5.894384e+01
4.800000e-07	-5.054211e-06	-8.435151e-10	-3.513677e+01	-5.886986e+01
4.900000e-07	-5.034701e-06	-8.720718e-10	-3.500114e+01	-5.879844e+01
5.000000e-07	-5.014956e-06	-9.135249e-10	-3.486387e+01	-5.873022e+01
5.100000e-07	-4.994954e-06	-8.718033e-10	-3.472482e+01	-5.866574e+01
5.200000e-07	-4.974617e-06	-8.643970e-10	-3.458344e+01	-5.860549e+01
5.300000e-07	-4.953980e-06	-9.178035e-10	-3.443997e+01	-5.854987e+01
5.400000e-07	-4.933018e-06	-8.834915e-10	-3.429424e+01	-5.849918e+01
5.500000e-07	-4.911633e-06	-8.396666e-10	-3.414557e+01	-5.845364e+01
5.600000e-07	-4.889900e-06	-8.804159e-10	-3.399449e+01	-5.841336e+01
5.700000e-07	-4.867925e-06	-9.015616e-10	-3.384171e+01	-5.837833e+01
5.800000e-07	-4.845633e-06	-8.551863e-10	-3.368674e+01	-5.834848e+01
5.900000e-07	-4.822874e-06	-8.705461e-10	-3.352852e+01	-5.832361e+01
6.000000e-07	-4.799755e-06	-8.952316e-10	-3.336780e+01	-5.830342e+01
6.100000e-07	-4.776422e-06	-8.670574e-10	-3.320558e+01	-5.828754e+01
6.200000e-07	-4.752831e-06	-8.528913e-10	-3.304158e+01	-5.827552e+01
6.300000e-07	-4.729013e-06	-8.853685e-10	-3.287600e+01	-5.826683e+01
6.400000e-07	-4.704943e-06	-8.732385e-10	-3.270867e+01	-5.826088e+01
6.500000e-07	-4.680443e-06	-8.595022e-10	-3.253835e+01	-5.825705e+01
6.600000e-07	-4.655431e-06	-8.764717e-10	-3.236446e+01	-5.825468e+01
6.700000e-07	-4.629974e-06	-8.807825e-10	-3.218748e+01	-5.825308e+01
6.800000e-07	-4.604057e-06	-8.603350e-10	-3.200731e+01	-5.825158e+01
6.900000e-07	-4.577564e-06	-8.735642e-10	-3.182313e+01	-5.824950e+01
7.000000e-07	-4.550622e-06	-8.802612e-10	-3.163583e+01	-5.824619e+01
7.100000e-07	-4.523399e-06	-8.647438e-10	-3.144658e+01	-5.824104e+01
7.200000e-07	-4.495888e-06	-8.582263e-10	-3.125532e+01	-5.823349e+01
7.300000e-07	-4.468194e-06	-8.687602e-10	-3.106280e+01	-5.822304e+01
7.400000e-07	-4.440344e-06	-8.619161e-10	-3.086918e+01	-5.820924e+01
7.500000e-07	-4.412201e-06	-8.593440e-10	-3.067353e+01	-5.819173e+01
7.600000e-07	-4.383741e-06	-8.675101e-10	-3.047568e+01	-5.817023e+01
7.700000e-07	-4.354960e-06	-8.664318e-10	-3.027560e+01	-5.814454e+01
7.800000e-07	-4.325853e-06	-8.599599e-10	-3.007324e+01	-5.811453e+01
7.900000e-07	-4.296484e-06	-8.601674e-10	-2.986907e+01	-5.808017e+01
8.000000e-07	-4.266843e-06	-8.550690e-10	-2.966300e+01	-5.804151e+01
8.100000e-07	-4.236929e-06	-8.459372e-10	-2.945504e+01	-5.799865e+01
8.200000e-07	-4.206722e-06	-8.545918e-10	-2.924504e+01	-5.795178e+01
8.300000e-07	-4.176171e-06	-8.619275e-10	-2.903265e+01	-5.790114e+01
8.400000e-07	-4.145325e-06	-8.578644e-10	-2.881821e+01	-5.784703e+01
8.500000e-07	-4.114219e-06	-8.570777e-10	-2.860196e+01	-5.778977e+01
8.600000e-07	-4.082849e-06	-8.641924e-10	-2.838388e+01	-5.772973e+01
8.700000e-07	-4.051289e-06	-8.550859e-10	-2.816448e+01	-5.766727e+01
8.800000e-07	-4.019578e-06	-8.497158e-10	-2.794402e+01	-5.760279e+01
8.900000e-07	-3.987678e-06	-8.513541e-10	-2.772225e+01	-5.753664e+01
9.000000e-07	-3.955566e-06	-8.496735e-10	-2.749902e+01	-5.746919e+01
9.100000e-07	-3.923129e-06	-8.421474e-10	-2.727351e+01	-5.740076e+01
9.200000e-07	-3.890296e-06	-8.492688e-10	-2.704526e+01	-5.733165e+01
9.300000e-07	-3.857032e-06	-8.491372e-10	-2.681401e+01	-5.726210e+01
9.400000e-07	-3.823228e-06	-8.416593e-10	-2.657900e+01	-5.719230e+01
9.500000e-07	-3.789007e-06	-8.429992e-10	-2.634110e+01	-5.712238e+01
9.600000e-07	-3.754395e-06	-8.478266e-10	-2.610048e+01	-5.705244e+01
9.700000e-07	-3.719383e-06	-8.360415e-10	-2.585707e+01	-5.698248e+01
9.800000e-07	-3.684087e-06	-8.285909e-10	-2.561170e+01	-5.691247e+01
9.900000e-07	-3.648615e-06	-8.306052e-10	-2.536510e+01	-5.684231e+01
1.000000e-06	-3.613001e-06	-8.270642e-10	-2.511751e+01	-5.677185e+01
1.010000e-06	-3.577250e-06	-8.204276e-10	-2.486897e+01	-5.670089e+01
1.020000e-06	-3.541381e-06	-8.293902e-10	-2.461961e+01	-5.662920e+01
1.030000e-06	-3.505279e-06	-8.371086e-10	-2.436863e+01	-5.655650e+01
1.040000e-06	-3.468921e-06	-8.336253e-10	-2.411587e+01	-5.648250e+01
1.050000e-06	-3.432360e-06	-8.308001e-10	-2.386170e+01	-5.640690e+01
1.060000e-06	-3.395558e-06	-8.291305e-10	-2.360585e+01	-5.632938e+01
1.070000e-06	-3.358501e-06	-8.211720e-10	-2.334823e+01	-5.624965e+01
1.080000e-06	-3.321233e-06	-8.170884e-10	-2.308914e+01	-5.616742e+01
1.090000e-06	-3.283731e-06	-8.233438e-10	-2.282843e+01	-5.608244e+01
1.100000e-06	-3.245985e-06	-8.256826e-10	-2.256602e+01	-5.599446e+01
1.110000e-06	-3.207934e-06	-8.251214e-10	-2.230149e+01	-5.590332e+01
1.120000e-06	-3.169581e-06	-8.287439e-10	-2.203486e+01	-5.580887e+01
1.130000e-06	-3.131095e-06	-8.297697e-10	-2.176731e+01	-5.571103e+01
1.140000e-06	-3.092452e-06	-8.221337e-10	-2.149866e+01	-5.560977e+01
1.150000e-06	-3.053601e-06	-8.167738e-10	-2.122857e+01	-5.550511e+01
1.160000e-06	-3.014562e-06	-8.133176e-10	-2.095717e+01	-5.539712e+01
1.170000e-06	-2.975261e-06	-8.089500e-10	-2.068396e+01	-5.528595e+01
1.180000e-06	-2.935808e-06	-8.063821e-10	-2.040968e+01	-5.517176e+01
1.190000e-06	-2.896271e-06	-8.100752e-10	-2.013481e+01	-5.505479e+01
1.200000e-06	-2.856601e-06	-8.080847e-10	-1.985903e+01	-5.493527e+01
1.210000e-06	-2.816811e-06	-8.046120e-10	-1.958241e+01	-5.481349e+01
1.220000e-06	-2.776936e-06	-8.031060e-10	-1.930520e+01	-5.468974e+01
1.230000e-06	-2.736924e-06	-8.017615e-10	-1.902704e+01	-5.456432e+01
1.240000e-06	-2.696679e-06	-7.969036e-10	-1.874726e+01	-5.443751e+01
1.250000e-06	-2.656187e-06	-7.959253e-10	-1.846576e+01	-5.430958e+01
1.260000e-06	-2.615418e-06	-7.968040e-10	-1.818233e+01	-5.418078e+01
1.270000e-06	-2.574437e-06	-7.955030e-10	-1.789743e+01	-5.405129e+01
1.280000e-06	-2.533235e-06	-7.914445e-10	-1.761100e+01	-5.392127e+01
1.290000e-06	-2.491665e-06	-7.890805e-10	-1.732200e+01	-5.379078e+01
1.300000e-06	-2.449670e-06	-7.845988e-10	-1.703006e+01	-5.365984e+01
1.310000e-06	-2.407310e-06	-7.781614e-10	-1.673557e+01	-5.352837e+01
1.320000e-06	-2.364667e-06	-7.746425e-10	-1.643912e+01	-5.339623e+01
1.330000e-06	-2.321792e-06	-7.720472e-10	-1.614105e+01	-5.326318e+01
1.340000e-06	-2.278769e-06	-7.706512e-10	-1.584196e+01	-5.312889e+01
1.350000e-06	-2.235620e-06	-7.706052e-10	-1.554199e+01	-5.299294e+01
1.360000e-06	-2.192274e-06	-7.688327e-10	-1.524064e+01	-5.285483e+01
1.370000e-06	-2.148721e-06	-7.632759e-10	-1.493786e+01	-5.271399e+01
1.380000e-06	-2.105064e-06	-7.555110e-10	-1.463436e+01	-5.256976e+01
1.390000e-06	-2.061373e-06	-7.505980e-10	-1.433062e+01	-5.242142e+01
1.400000e-06	-2.017643e-06	-7.473270e-10	-1.402661e+01	-5.226819e+01
1.410000e-06	-1.973797e-06	-7.462321e-10	-1.372179e+01	-5.210927e+01
1.420000e-06	-1.929825e-06	-7.482717e-10	-1.341611e+01	-5.194378e+01
1.430000e-06	-1.885830e-06	-7.490425e-10	-1.311025e+01	-5.177087e+01
1.440000e-06	-1.841739e-06	-7.444752e-10	-1.280373e+01	-5.158965e+01
1.450000e-06	-1.797497e-06	-7.375411e-10	-1.249616e+01	-5.139924e+01
1.460000e-06	-1.753117e-06	-7.313232e-10	-1.218763e+01	-5.119879e+01
1.470000e-06	-1.708598e-06	-7.214914e-10	-1.187814e+01	-5.098747e+01
1.480000e-06	-1.663921e-06	-7.143951e-10	-1.156755e+01	-5.076451e+01
1.490000e-06	-1.619105e-06	-7.106026e-10	-1.125598e+01	-5.052917e+01
1.500000e-06	-1.574169e-06	-7.101829e-10	-1.094359e+01	-5.028077e+01
1.510000e-06	-1.529040e-06	-7.107939e-10	-1.062985e+01	-5.001871e+01
1.520000e-06	-1.483858e-06	-7.111314e-10	-1.031575e+01	-4.974245e+01
1.530000e-06	-1.438736e-06	-7.058344e-10	-1.000206e+01	-4.945153e+01
1.540000e-06	-1.393502e-06	-6.953595e-10	-9.687596e+00	-4.914556e+01
1.550000e-06	-1.348096e-06	-6.872919e-10	-9.371933e+00	-4.882421e+01
1.560000e-06	-1.302537e-06	-6.819509e-10	-9.055210e+00	-4.848725e+01
1.570000e-06	-1.256883e-06	-6.761077e-10	-8.737828e+00	-4.813445e+01
1.580000e-06	-1.211211e-06	-6.694808e-10	-8.420313e+00	-4.776570e+01
1.590000e-06	-1.165525e-06	-6.660673e-10	-8.102706e+00	-4.738087e+01
1.600000e-06	-1.119724e-06	-6.647921e-10	-7.784299e+00	-4.697991e+01
1.610000e-06	-1.073747e-06	-6.585559e-10	-7.464668e+00	-4.656275e+01
1.620000e-06	-1.027764e-06	-6.501910e-10	-7.144992e+00	-4.612934e+01
1.630000e-06	-9.817042e-07	-6.389921e-10	-6.824787e+00	-4.567961e+01
1.640000e-06	-9.354842e-07	-6.293896e-10	-6.503467e+00	-4.521348e+01
1.650000e-06	-8.892708e-07	-6.233741e-10	-6.182193e+00	-4.473081e+01
1.660000e-06	-8.430207e-07	-6.177546e-10	-5.860662e+00	-4.423143e+01
1.670000e-06	-7.966638e-07	-6.090722e-10	-5.538390e+00	-4.371510e+01
1.680000e-06	-7.503001e-07	-5.978092e-10	-5.216071e+00	-4.318149e+01
1.690000e-06	-7.038800e-07	-5.867763e-10	-4.893359e+00	-4.263020e+01
1.700000e-06	-6.574202e-07	-5.748265e-10	-4.570372e+00	-4.206074e+01
1.710000e-06	-6.110027e-07	-5.656104e-10	-4.247679e+00	-4.147254e+01
1.720000e-06	-5.645575e-07	-5.607686e-10	-3.924792e+00	-4.086490e+01
1.730000e-06	-5.180337e-07	-5.554153e-10	-3.601359e+00	-4.023707e+01
1.740000e-06	-4.713767e-07	-5.472292e-10	-3.277001e+00	-3.958818e+01
1.750000e-06	-4.246184e-07	-5.359716e-10	-2.951938e+00	-3.891729e+01
1.760000e-06	-3.778556e-07	-5.213888e-10	-2.626844e+00	-3.822339e+01
1.770000e-06	-3.310871e-07	-5.082626e-10	-2.301710e+00	-3.750539e+01
1.780000e-06	-2.843247e-07	-4.957923e-10	-1.976620e+00	-3.676219e+01
1.790000e-06	-2.375757e-07	-4.847734e-10	-1.651622e+00	-3.599263e+01
1.800000e-06	-1.908427e-07	-4.762276e-10	-1.326735e+00	-3.519556e+01
1.810000e-06	-1.441653e-07	-4.682782e-10	-1.002234e+00	-3.436983e+01
1.820000e-06	-9.747485e-08	-4.596261e-10	-6.776431e-01	-3.351434e+01
1.830000e-06	-5.066122e-08	-4.474566e-10	-3.521958e-01	-3.262803e+01
1.840000e-06	-3.811080e-09	-4.319639e-10	-2.649455e-02	-3.170992e+01
1.850000e-06	4.309092e-08	-4.160995e-10	2.995672e-01	-3.075913e+01
1.860000e-06	9.000606e-08	-4.003460e-10	6.257203e-01	-2.977490e+01
1.870000e-06	1.368211e-07	-3.855273e-10	9.511778e-01	-2.875664e+01
1.880000e-06	1.836349e-07	-3.740318e-10	1.276626e+00	-2.770389e+01
1.890000e-06	2.304696e-07	-3.641086e-10	1.602220e+00	-2.661637e+01
1.900000e-06	2.773421e-07	-3.485551e-10	1.928076e+00	-2.549401e+01
1.910000e-06	3.241799e-07	-3.311342e-10	2.253692e+00	-2.433693e+01
1.920000e-06	3.709237e-07	-3.151044e-10	2.578654e+00	-2.314548e+01
1.930000e-06	4.175878e-07	-2.955156e-10	2.903062e+00	-2.192022e+01
1.940000e-06	4.642573e-07	-2.728934e-10	3.227507e+00	-2.066193e+01
1.950000e-06	5.109308e-07	-2.518576e-10	3.551981e+00	-1.937162e+01
1.960000e-06	5.574708e-07	-2.357111e-10	3.875525e+00	-1.805050e+01
1.970000e-06	6.039530e-07	-2.197836e-10	4.198669e+00	-1.670001e+01
1.980000e-06	6.504303e-07	-2.030103e-10	4.521778e+00	-1.532177e+01
1.990000e-06	6.968705e-07	-1.840188e-10	4.844629e+00	-1.391759e+01
2.000000e-06	7.432162e-07	-1.589102e-10	5.166824e+00	-1.248946e+01
2.010000e-06	7.894388e-07	-1.306529e-10	5.488162e+00	-1.103951e+01
2.020000e-06	8.356600e-07	-1.054962e-10	5.809491e+00	-9.569982e+00
2.030000e-06	8.818932e-07	-8.580738e-11	6.130903e+00	-8.083251e+00
2.040000e-06	9.281303e-07	-7.043066e-11	6.452343e+00	-6.581759e+00
2.050000e-06	9.743492e-07	-5.513311e-11	6.773656e+00	-5.068008e+00
2.060000e-06	1.020339e-06	-3.659621e-11	7.093377e+00	-3.544537e+00
2.070000e-06	1.066216e-06	-1.533079e-11	7.412312e+00	-2.013891e+00
2.080000e-06	1.112091e-06	1.029783e-11	7.731236e+00	-4.786037e-01
2.090000e-06	1.157857e-06	3.876506e-11	8.049400e+00	1.058828e+00
2.100000e-06	1.203598e-06	6.519276e-11	8.367387e+00	2.595965e+00
2.110000e-06	1.249274e-06	8.732410e-11	8.684925e+00	4.130440e+00
2.120000e-06	1.294816e-06	1.055721e-10	9.001535e+00	5.659981e+00
2.130000e-06	1.340270e-06	1.203929e-10	9.317528e+00	7.182422e+00
2.140000e-06	1.385615e-06	1.347788e-10	9.632764e+00	8.695711e+00
2.150000e-06	1.430811e-06	1.535965e-10	9.946971e+00	1.019793e+01
2.160000e-06	1.475891e-06	1.782135e-10	1.026036e+01	1.168728e+01
2.170000e-06	1.520937e-06	2.042551e-10	1.057352e+01	1.316212e+01
2.180000e-06	1.565883e-06	2.279065e-10	1.088599e+01	1.462091e+01
2.190000e-06	1.610671e-06	2.485557e-10	1.119735e+01	1.606229e+01
2.200000e-06	1.655326e-06	2.666313e-10	1.150779e+01	1.748500e+01
2.210000e-06	1.699826e-06	2.816191e-10	1.181716e+01	1.888791e+01
2.220000e-06	1.744211e-06	2.950324e-10	1.212572e+01	2.027000e+01
2.230000e-06	1.788496e-06	3.107063e-10	1.243359e+01	2.163037e+01
2.240000e-06	1.832659e-06	3.290062e-10	1.274061e+01	2.296821e+01
2.250000e-06	1.876698e-06	3.478089e-10	1.304676e+01	2.428280e+01
2.260000e-06	1.920637e-06	3.673033e-10	1.335223e+01	2.557348e+01
2.270000e-06	1.964541e-06	3.881606e-10	1.365745e+01	2.683965e+01
2.280000e-06	2.008385e-06	4.084095e-10	1.396225e+01	2.808079e+01
2.290000e-06	2.052149e-06	4.260124e-10	1.426650e+01	2.929639e+01
2.300000e-06	2.095869e-06	4.394489e-10	1.457044e+01	3.048597e+01
2.310000e-06	2.139510e-06	4.493964e-10	1.487383e+01	3.164909e+01
2.320000e-06	2.183048e-06	4.607012e-10	1.517651e+01	3.278533e+01
2.330000e-06	2.226469e-06	4.734934e-10	1.547836e+01	3.389425e+01
2.340000e-06	2.269731e-06	4.873058e-10	1.577912e+01	3.497544e+01
2.350000e-06	2.312762e-06	5.034892e-10	1.607827e+01	3.602851e+01
2.360000e-06	2.355517e-06	5.198829e-10	1.637550e+01	3.705305e+01
2.370000e-06	2.398036e-06	5.328434e-10	1.667110e+01	3.804869e+01
2.380000e-06	2.440310e-06	5.440664e-10	1.696499e+01	3.901506e+01
2.390000e-06	2.482313e-06	5.556074e-10	1.725699e+01	3.995180e+01
2.400000e-06	2.524026e-06	5.659786e-10	1.754698e+01	4.085861e+01
2.410000e-06	2.565427e-06	5.779158e-10	1.783480e+01	4.173521e+01
2.420000e-06	2.606496e-06	5.925278e-10	1.812031e+01	4.258137e+01
2.430000e-06	2.647330e-06	6.064101e-10	1.840418e+01	4.339692e+01
2.440000e-06	2.687959e-06	6.197503e-10	1.868664e+01	4.418175e+01
2.450000e-06	2.728311e-06	6.290068e-10	1.896716e+01	4.493585e+01
2.460000e-06	2.768407e-06	6.344923e-10	1.924591e+01	4.565927e+01
2.470000e-06	2.808371e-06	6.402686e-10	1.952374e+01	4.635217e+01
2.480000e-06	2.848263e-06	6.508125e-10	1.980106e+01	4.701482e+01
2.490000e-06	2.887942e-06	6.640733e-10	2.007691e+01	4.764757e+01
2.500000e-06	2.927447e-06	6.757063e-10	2.035155e+01	4.825092e+01
2.510000e-06	2.966867e-06	6.866878e-10	2.062560e+01	4.882545e+01
2.520000e-06	3.006128e-06	6.949374e-10	2.089854e+01	4.937188e+01
2.530000e-06	3.045125e-06	7.001222e-10	2.116965e+01	4.989102e+01
2.540000e-06	3.083861e-06	7.025940e-10	2.143894e+01	5.038382e+01
2.550000e-06	3.122374e-06	7.055112e-10	2.170668e+01	5.085130e+01
2.560000e-06	3.160668e-06	7.113777e-10	2.197290e+01	5.129458e+01
2.570000e-06	3.198775e-06	7.192114e-10	2.223782e+01	5.171486e+01
2.580000e-06	3.236704e-06	7.284666e-10	2.250150e+01	5.211343e+01
2.590000e-06	3.274419e-06	7.367865e-10	2.276369e+01	5.249161e+01
2.600000e-06	3.311961e-06	7.428957e-10	2.302468e+01	5.285076e+01
2.610000e-06	3.349337e-06	7.472453e-10	2.328452e+01	5.319227e+01
2.620000e-06	3.386449e-06	7.487858e-10	2.354253e+01	5.351754e+01
2.630000e-06	3.423277e-06	7.525060e-10	2.379855e+01	5.382795e+01
2.640000e-06	3.459822e-06	7.570637e-10	2.405261e+01	5.412483e+01
2.650000e-06	3.496102e-06	7.621240e-10	2.430483e+01	5.440951e+01
2.660000e-06	3.532192e-06	7.665181e-10	2.455572e+01	5.468320e+01
2.670000e-06	3.568126e-06	7.698552e-10	2.480554e+01	5.494708e+01
2.680000e-06	3.603905e-06	7.741052e-10	2.505427e+01	5.520221e+01
2.690000e-06	3.639571e-06	7.792689e-10	2.530222e+01	5.544955e+01
2.700000e-06	3.675087e-06	7.845067e-10	2.554913e+01	5.568996e+01
2.710000e-06	3.710373e-06	7.883574e-10	2.579444e+01	5.592416e+01
2.720000e-06	3.745377e-06	7.929741e-10	2.603778e+01	5.615275e+01
2.730000e-06	3.780009e-06	7.980115e-10	2.627854e+01	5.637622e+01
2.740000e-06	3.814253e-06	8.021651e-10	2.651661e+01	5.659491e+01
2.750000e-06	3.847996e-06	8.070484e-10	2.675119e+01	5.680904e+01
2.760000e-06	3.881110e-06	8.116878e-10	2.698140e+01	5.701873e+01
2.770000e-06	3.913863e-06	8.160241e-10	2.720909e+01	5.722397e+01
2.780000e-06	3.946376e-06	8.205651e-10	2.743512e+01	5.742465e+01
2.790000e-06	3.978593e-06	8.249853e-10	2.765910e+01	5.762057e+01
2.800000e-06	4.010563e-06	8.286791e-10	2.788135e+01	5.781148e+01
2.810000e-06	4.042352e-06	8.305661e-10	2.810235e+01	5.799703e+01
2.820000e-06	4.073996e-06	8.334235e-10	2.832234e+01	5.817685e+01
2.830000e-06	4.105458e-06	8.369133e-10	2.854106e+01	5.835053e+01
2.840000e-06	4.136641e-06	8.398053e-10	2.875784e+01	5.851767e+01
2.850000e-06	4.167425e-06	8.428833e-10	2.897185e+01	5.867785e+01
2.860000e-06	4.197924e-06	8.475620e-10	2.918388e+01	5.883067e+01
2.870000e-06	4.228223e-06	8.512773e-10	2.939452e+01	5.897579e+01
2.880000e-06	4.258263e-06	8.535403e-10	2.960336e+01	5.911289e+01
2.890000e-06	4.288025e-06	8.565991e-10	2.981026e+01	5.924172e+01
2.900000e-06	4.317452e-06	8.604857e-10	3.001484e+01	5.936211e+01
