# Temperatura_=_-6.7
# Concentracion g/m^3_=_1620.0
# C_Vs_to_Am_M_A/Vsm_=_65563218390.804596
# pendiente_HvsI_1/m_=_3716.3
# ordenada_HvsI_A/m_=_1297.0
# frecuencia_Hz_=_135108.0498876352

Tiempo_(s)	Campo_(V.s)	Magnetizacion_(V.s)	Campo_(kA/m)	Magnetizacion_(A/m)
0.000000e+00	-5.525546e-06	-1.113582e-09	-3.837243e+01	-7.417505e+01
1.000000e-08	-5.525623e-06	-1.112412e-09	-3.837297e+01	-7.413841e+01
2.000000e-08	-5.525522e-06	-1.109495e-09	-3.837227e+01	-7.410419e+01
3.000000e-08	-5.525204e-06	-1.104050e-09	-3.837006e+01	-7.407226e+01
4.000000e-08	-5.524451e-06	-1.099743e-09	-3.836483e+01	-7.404240e+01
5.000000e-08	-5.523068e-06	-1.098161e-09	-3.835522e+01	-7.401437e+01
6.000000e-08	-5.521057e-06	-1.102266e-09	-3.834126e+01	-7.398785e+01
7.000000e-08	-5.518463e-06	-1.104723e-09	-3.832324e+01	-7.396247e+01
8.000000e-08	-5.515367e-06	-1.079103e-09	-3.830174e+01	-7.393783e+01
9.000000e-08	-5.511859e-06	-1.075837e-09	-3.827738e+01	-7.391346e+01
1.000000e-07	-5.507913e-06	-1.147277e-09	-3.824998e+01	-7.388888e+01
1.100000e-07	-5.503508e-06	-1.163851e-09	-3.821939e+01	-7.386354e+01
1.200000e-07	-5.498855e-06	-1.069312e-09	-3.818707e+01	-7.383690e+01
1.300000e-07	-5.494113e-06	-1.029958e-09	-3.815414e+01	-7.380840e+01
1.400000e-07	-5.488971e-06	-1.093663e-09	-3.811843e+01	-7.377744e+01
1.500000e-07	-5.483287e-06	-1.163094e-09	-3.807896e+01	-7.374346e+01
1.600000e-07	-5.477311e-06	-1.075793e-09	-3.803746e+01	-7.370588e+01
1.700000e-07	-5.471071e-06	-1.045681e-09	-3.799413e+01	-7.366416e+01
1.800000e-07	-5.464330e-06	-1.123221e-09	-3.794732e+01	-7.361776e+01
1.900000e-07	-5.457066e-06	-1.197903e-09	-3.789687e+01	-7.356621e+01
2.000000e-07	-5.449551e-06	-1.123213e-09	-3.784468e+01	-7.350906e+01
2.100000e-07	-5.441835e-06	-1.059045e-09	-3.779110e+01	-7.344592e+01
2.200000e-07	-5.433826e-06	-1.091318e-09	-3.773548e+01	-7.337645e+01
2.300000e-07	-5.425499e-06	-1.141057e-09	-3.767765e+01	-7.330040e+01
2.400000e-07	-5.416800e-06	-1.117732e-09	-3.761724e+01	-7.321756e+01
2.500000e-07	-5.407568e-06	-1.079716e-09	-3.755313e+01	-7.312782e+01
2.600000e-07	-5.397585e-06	-1.105885e-09	-3.748380e+01	-7.303112e+01
2.700000e-07	-5.386990e-06	-1.108334e-09	-3.741023e+01	-7.292752e+01
2.800000e-07	-5.375902e-06	-1.078409e-09	-3.733322e+01	-7.281712e+01
2.900000e-07	-5.364315e-06	-1.050124e-09	-3.725276e+01	-7.270013e+01
3.000000e-07	-5.352334e-06	-1.080895e-09	-3.716955e+01	-7.257681e+01
3.100000e-07	-5.339999e-06	-1.084194e-09	-3.708389e+01	-7.244752e+01
3.200000e-07	-5.327290e-06	-1.085468e-09	-3.699563e+01	-7.231268e+01
3.300000e-07	-5.314097e-06	-1.064210e-09	-3.690401e+01	-7.217275e+01
3.400000e-07	-5.300547e-06	-1.087472e-09	-3.680992e+01	-7.202828e+01
3.500000e-07	-5.286718e-06	-1.085597e-09	-3.671388e+01	-7.187984e+01
3.600000e-07	-5.272428e-06	-1.063898e-09	-3.661464e+01	-7.172807e+01
3.700000e-07	-5.257630e-06	-1.040950e-09	-3.651188e+01	-7.157361e+01
3.800000e-07	-5.242380e-06	-1.085184e-09	-3.640597e+01	-7.141714e+01
3.900000e-07	-5.226543e-06	-1.075095e-09	-3.629599e+01	-7.125933e+01
4.000000e-07	-5.210181e-06	-1.031655e-09	-3.618236e+01	-7.110086e+01
4.100000e-07	-5.193447e-06	-1.055496e-09	-3.606615e+01	-7.094241e+01
4.200000e-07	-5.176389e-06	-1.099521e-09	-3.594769e+01	-7.078460e+01
4.300000e-07	-5.158980e-06	-1.037493e-09	-3.582680e+01	-7.062806e+01
4.400000e-07	-5.141261e-06	-1.016869e-09	-3.570375e+01	-7.047337e+01
4.500000e-07	-5.123225e-06	-1.089572e-09	-3.557849e+01	-7.032102e+01
4.600000e-07	-5.104746e-06	-1.069551e-09	-3.545016e+01	-7.017151e+01
4.700000e-07	-5.085803e-06	-9.925219e-10	-3.531861e+01	-7.002521e+01
4.800000e-07	-5.066522e-06	-1.038695e-09	-3.518472e+01	-6.988247e+01
4.900000e-07	-5.047012e-06	-1.079800e-09	-3.504923e+01	-6.974354e+01
5.000000e-07	-5.027283e-06	-1.011818e-09	-3.491222e+01	-6.960860e+01
5.100000e-07	-5.007365e-06	-1.025381e-09	-3.477390e+01	-6.947776e+01
5.200000e-07	-4.987175e-06	-1.080056e-09	-3.463368e+01	-6.935104e+01
5.300000e-07	-4.966583e-06	-1.024367e-09	-3.449068e+01	-6.922839e+01
5.400000e-07	-4.945598e-06	-9.921322e-10	-3.434496e+01	-6.910969e+01
5.500000e-07	-4.924300e-06	-1.064920e-09	-3.419705e+01	-6.899475e+01
5.600000e-07	-4.902653e-06	-1.040479e-09	-3.404672e+01	-6.888330e+01
5.700000e-07	-4.880642e-06	-9.821495e-10	-3.389387e+01	-6.877503e+01
5.800000e-07	-4.858358e-06	-1.028926e-09	-3.373911e+01	-6.866956e+01
5.900000e-07	-4.835696e-06	-1.054529e-09	-3.358173e+01	-6.856650e+01
6.000000e-07	-4.812629e-06	-9.930392e-10	-3.342154e+01	-6.846538e+01
6.100000e-07	-4.789347e-06	-1.010432e-09	-3.325986e+01	-6.836574e+01
6.200000e-07	-4.765835e-06	-1.041363e-09	-3.309658e+01	-6.826707e+01
6.300000e-07	-4.742022e-06	-1.004113e-09	-3.293121e+01	-6.816888e+01
6.400000e-07	-4.717959e-06	-9.939053e-10	-3.276411e+01	-6.807067e+01
6.500000e-07	-4.693617e-06	-1.030041e-09	-3.259506e+01	-6.797195e+01
6.600000e-07	-4.668827e-06	-1.006379e-09	-3.242291e+01	-6.787224e+01
6.700000e-07	-4.643481e-06	-9.912396e-10	-3.224689e+01	-6.777110e+01
6.800000e-07	-4.617619e-06	-1.015210e-09	-3.206728e+01	-6.766811e+01
6.900000e-07	-4.591166e-06	-1.010902e-09	-3.188359e+01	-6.756289e+01
7.000000e-07	-4.564165e-06	-9.894419e-10	-3.169607e+01	-6.745511e+01
7.100000e-07	-4.536875e-06	-1.005711e-09	-3.150655e+01	-6.734448e+01
7.200000e-07	-4.509361e-06	-1.004245e-09	-3.131549e+01	-6.723077e+01
7.300000e-07	-4.481664e-06	-9.849841e-10	-3.112314e+01	-6.711379e+01
7.400000e-07	-4.453793e-06	-9.898543e-10	-3.092959e+01	-6.699341e+01
7.500000e-07	-4.425725e-06	-9.950311e-10	-3.073467e+01	-6.686956e+01
7.600000e-07	-4.397351e-06	-9.819253e-10	-3.053763e+01	-6.674219e+01
7.700000e-07	-4.368659e-06	-9.827196e-10	-3.033837e+01	-6.661134e+01
7.800000e-07	-4.339670e-06	-9.858755e-10	-3.013706e+01	-6.647707e+01
7.900000e-07	-4.310304e-06	-9.699879e-10	-2.993313e+01	-6.633946e+01
8.000000e-07	-4.280653e-06	-9.679421e-10	-2.972721e+01	-6.619867e+01
8.100000e-07	-4.250764e-06	-9.763727e-10	-2.951964e+01	-6.605485e+01
8.200000e-07	-4.220608e-06	-9.711418e-10	-2.931022e+01	-6.590818e+01
8.300000e-07	-4.190206e-06	-9.647216e-10	-2.909909e+01	-6.575888e+01
8.400000e-07	-4.159533e-06	-9.757628e-10	-2.888609e+01	-6.560713e+01
8.500000e-07	-4.128523e-06	-9.724287e-10	-2.867073e+01	-6.545316e+01
8.600000e-07	-4.097171e-06	-9.622182e-10	-2.845301e+01	-6.529717e+01
8.700000e-07	-4.065587e-06	-9.617031e-10	-2.823367e+01	-6.513934e+01
8.800000e-07	-4.033851e-06	-9.633919e-10	-2.801328e+01	-6.497985e+01
8.900000e-07	-4.001963e-06	-9.500655e-10	-2.779183e+01	-6.481886e+01
9.000000e-07	-3.969916e-06	-9.496811e-10	-2.756928e+01	-6.465649e+01
9.100000e-07	-3.937631e-06	-9.539956e-10	-2.734508e+01	-6.449282e+01
9.200000e-07	-3.905026e-06	-9.483663e-10	-2.711865e+01	-6.432793e+01
9.300000e-07	-3.871966e-06	-9.414738e-10	-2.688906e+01	-6.416183e+01
9.400000e-07	-3.838367e-06	-9.460521e-10	-2.665573e+01	-6.399451e+01
9.500000e-07	-3.804324e-06	-9.379592e-10	-2.641932e+01	-6.382591e+01
9.600000e-07	-3.769911e-06	-9.231349e-10	-2.618034e+01	-6.365596e+01
9.700000e-07	-3.735079e-06	-9.165650e-10	-2.593845e+01	-6.348451e+01
9.800000e-07	-3.699829e-06	-9.136535e-10	-2.569365e+01	-6.331143e+01
9.900000e-07	-3.664356e-06	-9.046925e-10	-2.544730e+01	-6.313651e+01
1.000000e-06	-3.628749e-06	-9.065410e-10	-2.520003e+01	-6.295956e+01
1.010000e-06	-3.592965e-06	-9.144384e-10	-2.495153e+01	-6.278033e+01
1.020000e-06	-3.557066e-06	-9.131271e-10	-2.470223e+01	-6.259857e+01
1.030000e-06	-3.521083e-06	-9.076640e-10	-2.445234e+01	-6.241402e+01
1.040000e-06	-3.484860e-06	-9.065723e-10	-2.420079e+01	-6.222642e+01
1.050000e-06	-3.448349e-06	-9.014630e-10	-2.394723e+01	-6.203549e+01
1.060000e-06	-3.411531e-06	-8.918649e-10	-2.369155e+01	-6.184097e+01
1.070000e-06	-3.374416e-06	-8.883126e-10	-2.343380e+01	-6.164261e+01
1.080000e-06	-3.337055e-06	-8.868633e-10	-2.317434e+01	-6.144015e+01
1.090000e-06	-3.299389e-06	-8.833124e-10	-2.291277e+01	-6.123338e+01
1.100000e-06	-3.261501e-06	-8.808682e-10	-2.264966e+01	-6.102209e+01
1.110000e-06	-3.223440e-06	-8.799222e-10	-2.238534e+01	-6.080611e+01
1.120000e-06	-3.185196e-06	-8.752293e-10	-2.211975e+01	-6.058528e+01
1.130000e-06	-3.146794e-06	-8.730358e-10	-2.185307e+01	-6.035949e+01
1.140000e-06	-3.108152e-06	-8.708559e-10	-2.158472e+01	-6.012865e+01
1.150000e-06	-3.069240e-06	-8.674724e-10	-2.131449e+01	-5.989270e+01
1.160000e-06	-3.030173e-06	-8.618546e-10	-2.104319e+01	-5.965160e+01
1.170000e-06	-2.990932e-06	-8.577765e-10	-2.077068e+01	-5.940536e+01
1.180000e-06	-2.951513e-06	-8.528912e-10	-2.049693e+01	-5.915401e+01
1.190000e-06	-2.911953e-06	-8.492119e-10	-2.022220e+01	-5.889759e+01
1.200000e-06	-2.872262e-06	-8.450535e-10	-1.994657e+01	-5.863617e+01
1.210000e-06	-2.832421e-06	-8.415331e-10	-1.966989e+01	-5.836985e+01
1.220000e-06	-2.792379e-06	-8.355763e-10	-1.939182e+01	-5.809873e+01
1.230000e-06	-2.752274e-06	-8.328717e-10	-1.911330e+01	-5.782292e+01
1.240000e-06	-2.712064e-06	-8.291273e-10	-1.883407e+01	-5.754253e+01
1.250000e-06	-2.671583e-06	-8.245656e-10	-1.855294e+01	-5.725768e+01
1.260000e-06	-2.630799e-06	-8.197487e-10	-1.826971e+01	-5.696849e+01
1.270000e-06	-2.589759e-06	-8.150458e-10	-1.798471e+01	-5.667506e+01
1.280000e-06	-2.548498e-06	-8.096575e-10	-1.769817e+01	-5.637748e+01
1.290000e-06	-2.506922e-06	-8.043489e-10	-1.740944e+01	-5.607582e+01
1.300000e-06	-2.465061e-06	-7.984735e-10	-1.711874e+01	-5.577015e+01
1.310000e-06	-2.422889e-06	-7.935092e-10	-1.682587e+01	-5.546049e+01
1.320000e-06	-2.380364e-06	-7.895844e-10	-1.653055e+01	-5.514686e+01
1.330000e-06	-2.337620e-06	-7.850896e-10	-1.623372e+01	-5.482922e+01
1.340000e-06	-2.294619e-06	-7.803777e-10	-1.593510e+01	-5.450754e+01
1.350000e-06	-2.251353e-06	-7.753695e-10	-1.563463e+01	-5.418174e+01
1.360000e-06	-2.207921e-06	-7.700186e-10	-1.533302e+01	-5.385170e+01
1.370000e-06	-2.164363e-06	-7.647244e-10	-1.503053e+01	-5.351729e+01
1.380000e-06	-2.120670e-06	-7.588672e-10	-1.472710e+01	-5.317835e+01
1.390000e-06	-2.076887e-06	-7.515317e-10	-1.442304e+01	-5.283468e+01
1.400000e-06	-2.033110e-06	-7.470156e-10	-1.411904e+01	-5.248606e+01
1.410000e-06	-1.989284e-06	-7.424559e-10	-1.381469e+01	-5.213224e+01
1.420000e-06	-1.945350e-06	-7.379951e-10	-1.350958e+01	-5.177296e+01
1.430000e-06	-1.901327e-06	-7.339099e-10	-1.320386e+01	-5.140792e+01
1.440000e-06	-1.857256e-06	-7.300391e-10	-1.289781e+01	-5.103681e+01
1.450000e-06	-1.813086e-06	-7.253773e-10	-1.259107e+01	-5.065930e+01
1.460000e-06	-1.768728e-06	-7.194160e-10	-1.228302e+01	-5.027506e+01
1.470000e-06	-1.724223e-06	-7.104257e-10	-1.197395e+01	-4.988372e+01
1.480000e-06	-1.679543e-06	-7.003143e-10	-1.166367e+01	-4.948491e+01
1.490000e-06	-1.634684e-06	-6.903638e-10	-1.135214e+01	-4.907824e+01
1.500000e-06	-1.589709e-06	-6.813822e-10	-1.103981e+01	-4.866331e+01
1.510000e-06	-1.544607e-06	-6.738731e-10	-1.072660e+01	-4.823971e+01
1.520000e-06	-1.499426e-06	-6.689972e-10	-1.041284e+01	-4.780702e+01
1.530000e-06	-1.454144e-06	-6.654573e-10	-1.009838e+01	-4.736480e+01
1.540000e-06	-1.408711e-06	-6.595445e-10	-9.782865e+00	-4.691259e+01
1.550000e-06	-1.363141e-06	-6.491786e-10	-9.466404e+00	-4.644991e+01
1.560000e-06	-1.317549e-06	-6.364686e-10	-9.149785e+00	-4.597628e+01
1.570000e-06	-1.271902e-06	-6.242126e-10	-8.832790e+00	-4.549117e+01
1.580000e-06	-1.226167e-06	-6.133649e-10	-8.515181e+00	-4.499406e+01
1.590000e-06	-1.180402e-06	-6.049335e-10	-8.197358e+00	-4.448437e+01
1.600000e-06	-1.134555e-06	-6.018976e-10	-7.878974e+00	-4.396150e+01
1.610000e-06	-1.088646e-06	-5.979342e-10	-7.560159e+00	-4.342483e+01
1.620000e-06	-1.042588e-06	-5.895057e-10	-7.240305e+00	-4.287370e+01
1.630000e-06	-9.964075e-07	-5.800860e-10	-6.919602e+00	-4.230741e+01
1.640000e-06	-9.502250e-07	-5.708294e-10	-6.598885e+00	-4.172522e+01
1.650000e-06	-9.040086e-07	-5.596436e-10	-6.277933e+00	-4.112637e+01
1.660000e-06	-8.576944e-07	-5.470111e-10	-5.956302e+00	-4.051004e+01
1.670000e-06	-8.113503e-07	-5.337426e-10	-5.634463e+00	-3.987538e+01
1.680000e-06	-7.649457e-07	-5.196516e-10	-5.312204e+00	-3.922153e+01
1.690000e-06	-7.184236e-07	-5.072606e-10	-4.989129e+00	-3.854755e+01
1.700000e-06	-6.719161e-07	-4.959130e-10	-4.666155e+00	-3.785253e+01
1.710000e-06	-6.253426e-07	-4.856722e-10	-4.342723e+00	-3.713548e+01
1.720000e-06	-5.786942e-07	-4.764897e-10	-4.018771e+00	-3.639544e+01
1.730000e-06	-5.320677e-07	-4.668332e-10	-3.694971e+00	-3.563142e+01
1.740000e-06	-4.853469e-07	-4.538922e-10	-3.370516e+00	-3.484241e+01
1.750000e-06	-4.385959e-07	-4.373286e-10	-3.045852e+00	-3.402744e+01
1.760000e-06	-3.918719e-07	-4.202434e-10	-2.721374e+00	-3.318554e+01
1.770000e-06	-3.450292e-07	-4.065706e-10	-2.396072e+00	-3.231575e+01
1.780000e-06	-2.981359e-07	-3.944586e-10	-2.070420e+00	-3.141719e+01
1.790000e-06	-2.511914e-07	-3.833568e-10	-1.744412e+00	-3.048898e+01
1.800000e-06	-2.042055e-07	-3.725073e-10	-1.418116e+00	-2.953035e+01
1.810000e-06	-1.573432e-07	-3.598538e-10	-1.092678e+00	-2.854055e+01
1.820000e-06	-1.104889e-07	-3.440829e-10	-7.672957e-01	-2.751896e+01
1.830000e-06	-6.358530e-08	-3.278154e-10	-4.415713e-01	-2.646505e+01
1.840000e-06	-1.670410e-08	-3.103283e-10	-1.160024e-01	-2.537836e+01
1.850000e-06	3.015206e-08	-2.917242e-10	2.093925e-01	-2.425861e+01
1.860000e-06	7.699739e-08	-2.752648e-10	5.347122e-01	-2.310559e+01
1.870000e-06	1.238847e-07	-2.602908e-10	8.603238e-01	-2.191928e+01
1.880000e-06	1.708047e-07	-2.466961e-10	1.186162e+00	-2.069977e+01
1.890000e-06	2.176535e-07	-2.321588e-10	1.511506e+00	-1.944732e+01
1.900000e-06	2.644527e-07	-2.148248e-10	1.836505e+00	-1.816234e+01
1.910000e-06	3.112598e-07	-1.936343e-10	2.161559e+00	-1.684542e+01
1.920000e-06	3.580667e-07	-1.746189e-10	2.486612e+00	-1.549729e+01
1.930000e-06	4.048519e-07	-1.587103e-10	2.811514e+00	-1.411888e+01
1.940000e-06	4.515366e-07	-1.437504e-10	3.135718e+00	-1.271125e+01
1.950000e-06	4.981190e-07	-1.271711e-10	3.459213e+00	-1.127564e+01
1.960000e-06	5.446427e-07	-1.107393e-10	3.782299e+00	-9.813451e+00
1.970000e-06	5.911785e-07	-9.183703e-11	4.105469e+00	-8.326226e+00
1.980000e-06	6.377608e-07	-6.918460e-11	4.428962e+00	-6.815657e+00
1.990000e-06	6.843306e-07	-4.476188e-11	4.752368e+00	-5.283570e+00
2.000000e-06	7.307735e-07	-1.979532e-11	5.074893e+00	-3.731912e+00
2.010000e-06	7.770916e-07	2.960852e-12	5.396552e+00	-2.162746e+00
2.020000e-06	8.233669e-07	2.285274e-11	5.717913e+00	-5.782279e-01
2.030000e-06	8.696409e-07	4.076079e-11	6.039265e+00	1.019399e+00
2.040000e-06	9.158778e-07	5.985294e-11	6.360359e+00	2.627824e+00
2.050000e-06	9.619880e-07	8.137334e-11	6.680574e+00	4.244685e+00
2.060000e-06	1.007991e-06	1.036835e-10	7.000045e+00	5.867580e+00
2.070000e-06	1.053981e-06	1.263072e-10	7.319422e+00	7.494090e+00
2.080000e-06	1.099928e-06	1.502025e-10	7.638506e+00	9.121791e+00
2.090000e-06	1.145767e-06	1.748207e-10	7.956837e+00	1.074827e+01
2.100000e-06	1.191526e-06	1.979160e-10	8.274612e+00	1.237115e+01
2.110000e-06	1.237218e-06	2.187147e-10	8.591921e+00	1.398809e+01
2.120000e-06	1.282823e-06	2.397845e-10	8.908629e+00	1.559680e+01
2.130000e-06	1.328358e-06	2.579359e-10	9.224850e+00	1.719509e+01
2.140000e-06	1.373793e-06	2.753357e-10	9.540372e+00	1.878083e+01
2.150000e-06	1.419085e-06	2.941663e-10	9.854906e+00	2.035199e+01
2.160000e-06	1.464351e-06	3.190844e-10	1.016926e+01	2.190665e+01
2.170000e-06	1.509567e-06	3.459437e-10	1.048327e+01	2.344302e+01
2.180000e-06	1.554568e-06	3.725630e-10	1.079578e+01	2.495941e+01
2.190000e-06	1.599363e-06	3.963020e-10	1.110686e+01	2.645427e+01
2.200000e-06	1.644084e-06	4.160175e-10	1.141743e+01	2.792618e+01
2.210000e-06	1.688719e-06	4.292272e-10	1.172739e+01	2.937387e+01
2.220000e-06	1.733167e-06	4.383918e-10	1.203606e+01	3.079619e+01
2.230000e-06	1.777457e-06	4.515496e-10	1.234364e+01	3.219214e+01
2.240000e-06	1.821633e-06	4.708258e-10	1.265042e+01	3.356085e+01
2.250000e-06	1.865706e-06	4.929050e-10	1.295649e+01	3.490160e+01
2.260000e-06	1.909708e-06	5.160203e-10	1.326206e+01	3.621378e+01
2.270000e-06	1.953618e-06	5.382933e-10	1.356700e+01	3.749691e+01
2.280000e-06	1.997483e-06	5.568836e-10	1.387162e+01	3.875066e+01
2.290000e-06	2.041341e-06	5.715591e-10	1.417619e+01	3.997476e+01
2.300000e-06	2.085111e-06	5.821371e-10	1.448016e+01	4.116911e+01
2.310000e-06	2.128786e-06	5.938451e-10	1.478346e+01	4.233365e+01
2.320000e-06	2.172394e-06	6.086640e-10	1.508630e+01	4.346846e+01
2.330000e-06	2.215913e-06	6.268800e-10	1.538852e+01	4.457367e+01
2.340000e-06	2.259323e-06	6.446522e-10	1.568998e+01	4.564950e+01
2.350000e-06	2.302579e-06	6.615155e-10	1.599038e+01	4.669622e+01
2.360000e-06	2.345572e-06	6.764122e-10	1.628895e+01	4.771418e+01
2.370000e-06	2.388301e-06	6.871030e-10	1.658567e+01	4.870377e+01
2.380000e-06	2.430709e-06	6.957141e-10	1.688018e+01	4.966540e+01
2.390000e-06	2.472756e-06	7.070127e-10	1.717218e+01	5.059953e+01
2.400000e-06	2.514575e-06	7.215034e-10	1.746259e+01	5.150666e+01
2.410000e-06	2.556017e-06	7.372404e-10	1.775039e+01	5.238728e+01
2.420000e-06	2.597034e-06	7.504172e-10	1.803523e+01	5.324192e+01
2.430000e-06	2.637829e-06	7.639346e-10	1.831854e+01	5.407109e+01
2.440000e-06	2.678403e-06	7.761425e-10	1.860031e+01	5.487533e+01
2.450000e-06	2.718844e-06	7.873903e-10	1.888115e+01	5.565515e+01
2.460000e-06	2.759108e-06	7.967284e-10	1.916077e+01	5.641109e+01
2.470000e-06	2.799140e-06	8.042230e-10	1.943877e+01	5.714366e+01
2.480000e-06	2.839098e-06	8.135923e-10	1.971626e+01	5.785335e+01
2.490000e-06	2.878965e-06	8.255575e-10	1.999312e+01	5.854067e+01
2.500000e-06	2.918646e-06	8.391967e-10	2.026868e+01	5.920609e+01
2.510000e-06	2.958224e-06	8.514336e-10	2.054354e+01	5.985008e+01
2.520000e-06	2.997671e-06	8.604127e-10	2.081747e+01	6.047311e+01
2.530000e-06	3.036909e-06	8.648278e-10	2.108997e+01	6.107560e+01
2.540000e-06	3.075919e-06	8.678015e-10	2.136088e+01	6.165800e+01
2.550000e-06	3.114607e-06	8.714942e-10	2.162954e+01	6.222072e+01
2.560000e-06	3.153018e-06	8.765928e-10	2.189629e+01	6.276419e+01
2.570000e-06	3.191220e-06	8.838654e-10	2.216159e+01	6.328880e+01
2.580000e-06	3.229245e-06	8.937959e-10	2.242566e+01	6.379496e+01
2.590000e-06	3.267105e-06	9.045317e-10	2.268857e+01	6.428305e+01
2.600000e-06	3.304754e-06	9.134775e-10	2.295003e+01	6.475349e+01
2.610000e-06	3.342181e-06	9.198190e-10	2.320994e+01	6.520665e+01
2.620000e-06	3.379388e-06	9.229775e-10	2.346833e+01	6.564293e+01
2.630000e-06	3.416310e-06	9.238224e-10	2.372474e+01	6.606274e+01
2.640000e-06	3.452923e-06	9.272386e-10	2.397900e+01	6.646647e+01
2.650000e-06	3.489292e-06	9.328002e-10	2.423157e+01	6.685452e+01
2.660000e-06	3.525476e-06	9.403950e-10	2.448284e+01	6.722732e+01
2.670000e-06	3.561530e-06	9.477574e-10	2.473323e+01	6.758527e+01
2.680000e-06	3.597446e-06	9.534736e-10	2.498265e+01	6.792881e+01
2.690000e-06	3.633221e-06	9.582165e-10	2.523108e+01	6.825837e+01
2.700000e-06	3.668866e-06	9.618638e-10	2.547862e+01	6.857438e+01
2.710000e-06	3.704303e-06	9.654013e-10	2.572472e+01	6.887730e+01
2.720000e-06	3.739495e-06	9.702077e-10	2.596911e+01	6.916759e+01
2.730000e-06	3.774383e-06	9.753768e-10	2.621139e+01	6.944569e+01
2.740000e-06	3.808852e-06	9.796569e-10	2.645076e+01	6.971209e+01
2.750000e-06	3.842809e-06	9.852759e-10	2.668658e+01	6.996724e+01
2.760000e-06	3.876277e-06	9.917385e-10	2.691900e+01	7.021162e+01
2.770000e-06	3.909242e-06	9.969511e-10	2.714793e+01	7.044571e+01
2.780000e-06	3.941765e-06	1.001439e-09	2.737378e+01	7.066996e+01
2.790000e-06	3.974077e-06	1.005082e-09	2.759818e+01	7.088486e+01
2.800000e-06	4.006204e-06	1.007659e-09	2.782129e+01	7.109087e+01
2.810000e-06	4.038102e-06	1.009512e-09	2.804281e+01	7.128844e+01
2.820000e-06	4.069802e-06	1.011541e-09	2.826295e+01	7.147803e+01
2.830000e-06	4.101369e-06	1.013456e-09	2.848216e+01	7.166007e+01
2.840000e-06	4.132674e-06	1.014729e-09	2.869956e+01	7.183499e+01
2.850000e-06	4.163629e-06	1.017030e-09	2.891453e+01	7.200322e+01
2.860000e-06	4.194349e-06	1.020789e-09	2.912787e+01	7.216514e+01
2.870000e-06	4.224733e-06	1.026667e-09	2.933887e+01	7.232114e+01
2.880000e-06	4.254784e-06	1.031996e-09	2.954756e+01	7.247158e+01
2.890000e-06	4.284601e-06	1.035870e-09	2.975462e+01	7.261680e+01
2.900000e-06	4.314147e-06	1.038158e-09	2.995981e+01	7.275714e+01
