# Temperatura_=_-6.39
# Concentracion g/m^3_=_1620.0
# C_Vs_to_Am_M_A/Vsm_=_65563218390.804596
# pendiente_HvsI_1/m_=_3716.3
# ordenada_HvsI_A/m_=_1297.0
# frecuencia_Hz_=_135108.44388063232

Tiempo_(s)	Campo_(V.s)	Magnetizacion_(V.s)	Campo_(kA/m)	Magnetizacion_(A/m)
0.000000e+00	-5.526834e-06	-1.074448e-09	-3.835698e+01	-7.317638e+01
1.000000e-08	-5.527040e-06	-1.075717e-09	-3.835841e+01	-7.315685e+01
2.000000e-08	-5.526913e-06	-1.074604e-09	-3.835753e+01	-7.313695e+01
3.000000e-08	-5.526393e-06	-1.070473e-09	-3.835392e+01	-7.311684e+01
4.000000e-08	-5.525480e-06	-1.064902e-09	-3.834758e+01	-7.309664e+01
5.000000e-08	-5.524055e-06	-1.059112e-09	-3.833769e+01	-7.307650e+01
6.000000e-08	-5.521997e-06	-1.060947e-09	-3.832342e+01	-7.305648e+01
7.000000e-08	-5.519374e-06	-1.087335e-09	-3.830521e+01	-7.303666e+01
8.000000e-08	-5.516221e-06	-1.104702e-09	-3.828332e+01	-7.301704e+01
9.000000e-08	-5.512527e-06	-1.067081e-09	-3.825769e+01	-7.299762e+01
1.000000e-07	-5.508376e-06	-9.842626e-10	-3.822888e+01	-7.297831e+01
1.100000e-07	-5.503993e-06	-9.529297e-10	-3.819846e+01	-7.295898e+01
1.200000e-07	-5.499461e-06	-1.014414e-09	-3.816701e+01	-7.293948e+01
1.300000e-07	-5.494655e-06	-1.127203e-09	-3.813366e+01	-7.291956e+01
1.400000e-07	-5.489359e-06	-1.103776e-09	-3.809690e+01	-7.289897e+01
1.500000e-07	-5.483646e-06	-1.022502e-09	-3.805725e+01	-7.287736e+01
1.600000e-07	-5.477721e-06	-1.014850e-09	-3.801613e+01	-7.285438e+01
1.700000e-07	-5.471427e-06	-1.103737e-09	-3.797245e+01	-7.282962e+01
1.800000e-07	-5.464599e-06	-1.089337e-09	-3.792506e+01	-7.280265e+01
1.900000e-07	-5.457384e-06	-1.032770e-09	-3.787499e+01	-7.277300e+01
2.000000e-07	-5.449923e-06	-1.027674e-09	-3.782321e+01	-7.274021e+01
2.100000e-07	-5.442178e-06	-1.125171e-09	-3.776945e+01	-7.270378e+01
2.200000e-07	-5.434148e-06	-1.112530e-09	-3.771373e+01	-7.266324e+01
2.300000e-07	-5.425821e-06	-1.049162e-09	-3.765594e+01	-7.261812e+01
2.400000e-07	-5.416938e-06	-1.018868e-09	-3.759429e+01	-7.256799e+01
2.500000e-07	-5.407338e-06	-1.074847e-09	-3.752766e+01	-7.251244e+01
2.600000e-07	-5.397064e-06	-1.100498e-09	-3.745636e+01	-7.245110e+01
2.700000e-07	-5.386384e-06	-1.057366e-09	-3.738224e+01	-7.238367e+01
2.800000e-07	-5.375317e-06	-1.033008e-09	-3.730543e+01	-7.230991e+01
2.900000e-07	-5.363677e-06	-1.058896e-09	-3.722465e+01	-7.222964e+01
3.000000e-07	-5.351605e-06	-1.077745e-09	-3.714087e+01	-7.214275e+01
3.100000e-07	-5.339190e-06	-1.033209e-09	-3.705470e+01	-7.204922e+01
3.200000e-07	-5.326340e-06	-1.060552e-09	-3.696553e+01	-7.194912e+01
3.300000e-07	-5.313068e-06	-1.092843e-09	-3.687342e+01	-7.184260e+01
3.400000e-07	-5.299522e-06	-1.108522e-09	-3.677940e+01	-7.172989e+01
3.500000e-07	-5.285631e-06	-1.048912e-09	-3.668300e+01	-7.161130e+01
3.600000e-07	-5.271203e-06	-1.058176e-09	-3.658287e+01	-7.148724e+01
3.700000e-07	-5.256319e-06	-1.056771e-09	-3.647957e+01	-7.135817e+01
3.800000e-07	-5.240964e-06	-1.062316e-09	-3.637301e+01	-7.122464e+01
3.900000e-07	-5.224954e-06	-1.041180e-09	-3.626189e+01	-7.108725e+01
4.000000e-07	-5.208595e-06	-1.070964e-09	-3.614836e+01	-7.094664e+01
4.100000e-07	-5.192021e-06	-1.073613e-09	-3.603333e+01	-7.080351e+01
4.200000e-07	-5.175007e-06	-1.057103e-09	-3.591526e+01	-7.065857e+01
4.300000e-07	-5.157615e-06	-1.042425e-09	-3.579455e+01	-7.051256e+01
4.400000e-07	-5.140017e-06	-1.069779e-09	-3.567242e+01	-7.036622e+01
4.500000e-07	-5.122005e-06	-1.043824e-09	-3.554741e+01	-7.022028e+01
4.600000e-07	-5.103448e-06	-1.004480e-09	-3.541862e+01	-7.007543e+01
4.700000e-07	-5.084551e-06	-1.020792e-09	-3.528748e+01	-6.993237e+01
4.800000e-07	-5.065403e-06	-1.066627e-09	-3.515459e+01	-6.979170e+01
4.900000e-07	-5.045934e-06	-1.033019e-09	-3.501947e+01	-6.965400e+01
5.000000e-07	-5.026208e-06	-1.012864e-09	-3.488257e+01	-6.951977e+01
5.100000e-07	-5.006276e-06	-1.049572e-09	-3.474424e+01	-6.938944e+01
5.200000e-07	-4.986026e-06	-1.048819e-09	-3.460370e+01	-6.926336e+01
5.300000e-07	-4.965333e-06	-1.013990e-09	-3.446009e+01	-6.914179e+01
5.400000e-07	-4.944258e-06	-1.032144e-09	-3.431382e+01	-6.902490e+01
5.500000e-07	-4.922836e-06	-1.037236e-09	-3.416515e+01	-6.891275e+01
5.600000e-07	-4.901065e-06	-9.907052e-10	-3.401406e+01	-6.880536e+01
5.700000e-07	-4.879078e-06	-1.007974e-09	-3.386147e+01	-6.870259e+01
5.800000e-07	-4.856733e-06	-1.048998e-09	-3.370639e+01	-6.860428e+01
5.900000e-07	-4.833916e-06	-1.019815e-09	-3.354803e+01	-6.851015e+01
6.000000e-07	-4.810740e-06	-9.911640e-10	-3.338719e+01	-6.841986e+01
6.100000e-07	-4.787305e-06	-1.031027e-09	-3.322455e+01	-6.833300e+01
6.200000e-07	-4.763675e-06	-1.023299e-09	-3.306055e+01	-6.824911e+01
6.300000e-07	-4.739880e-06	-9.973325e-10	-3.289541e+01	-6.816768e+01
6.400000e-07	-4.715831e-06	-1.014430e-09	-3.272851e+01	-6.808816e+01
6.500000e-07	-4.691386e-06	-1.028087e-09	-3.255886e+01	-6.800999e+01
6.600000e-07	-4.666435e-06	-9.949381e-10	-3.238569e+01	-6.793259e+01
6.700000e-07	-4.640954e-06	-1.005076e-09	-3.220885e+01	-6.785538e+01
6.800000e-07	-4.614963e-06	-1.015971e-09	-3.202847e+01	-6.777781e+01
6.900000e-07	-4.588418e-06	-1.007120e-09	-3.184425e+01	-6.769932e+01
7.000000e-07	-4.561375e-06	-1.004646e-09	-3.165657e+01	-6.761941e+01
7.100000e-07	-4.534040e-06	-1.021618e-09	-3.146686e+01	-6.753760e+01
7.200000e-07	-4.506506e-06	-1.005225e-09	-3.127577e+01	-6.745346e+01
7.300000e-07	-4.478822e-06	-9.999760e-10	-3.108364e+01	-6.736664e+01
7.400000e-07	-4.450973e-06	-1.003705e-09	-3.089036e+01	-6.727682e+01
7.500000e-07	-4.422792e-06	-9.988062e-10	-3.069478e+01	-6.718375e+01
7.600000e-07	-4.394290e-06	-9.894996e-10	-3.049697e+01	-6.708724e+01
7.700000e-07	-4.365536e-06	-9.974832e-10	-3.029741e+01	-6.698718e+01
7.800000e-07	-4.336456e-06	-9.932649e-10	-3.009559e+01	-6.688349e+01
7.900000e-07	-4.307058e-06	-9.867660e-10	-2.989157e+01	-6.677617e+01
8.000000e-07	-4.277408e-06	-9.863693e-10	-2.968579e+01	-6.666527e+01
8.100000e-07	-4.247529e-06	-9.795818e-10	-2.947843e+01	-6.655089e+01
8.200000e-07	-4.217293e-06	-9.728695e-10	-2.926859e+01	-6.643317e+01
8.300000e-07	-4.186699e-06	-9.812062e-10	-2.905626e+01	-6.631226e+01
8.400000e-07	-4.155870e-06	-9.852326e-10	-2.884230e+01	-6.618837e+01
8.500000e-07	-4.124753e-06	-9.763152e-10	-2.862635e+01	-6.606169e+01
8.600000e-07	-4.093406e-06	-9.779374e-10	-2.840879e+01	-6.593245e+01
8.700000e-07	-4.061869e-06	-9.786928e-10	-2.818992e+01	-6.580086e+01
8.800000e-07	-4.030139e-06	-9.694545e-10	-2.796971e+01	-6.566712e+01
8.900000e-07	-3.998248e-06	-9.597751e-10	-2.774839e+01	-6.553141e+01
9.000000e-07	-3.966132e-06	-9.650101e-10	-2.752550e+01	-6.539389e+01
9.100000e-07	-3.933684e-06	-9.634123e-10	-2.730030e+01	-6.525467e+01
9.200000e-07	-3.900842e-06	-9.636673e-10	-2.707237e+01	-6.511386e+01
9.300000e-07	-3.867567e-06	-9.673839e-10	-2.684144e+01	-6.497150e+01
9.400000e-07	-3.833838e-06	-9.683461e-10	-2.660736e+01	-6.482758e+01
9.500000e-07	-3.799661e-06	-9.551519e-10	-2.637017e+01	-6.468206e+01
9.600000e-07	-3.765069e-06	-9.519211e-10	-2.613009e+01	-6.453486e+01
9.700000e-07	-3.730177e-06	-9.490874e-10	-2.588794e+01	-6.438585e+01
9.800000e-07	-3.694999e-06	-9.427469e-10	-2.564380e+01	-6.423484e+01
9.900000e-07	-3.659546e-06	-9.379011e-10	-2.539775e+01	-6.408164e+01
1.000000e-06	-3.623960e-06	-9.451410e-10	-2.515078e+01	-6.392600e+01
1.010000e-06	-3.588224e-06	-9.444715e-10	-2.490276e+01	-6.376766e+01
1.020000e-06	-3.552321e-06	-9.422978e-10	-2.465359e+01	-6.360633e+01
1.030000e-06	-3.516257e-06	-9.420044e-10	-2.440330e+01	-6.344172e+01
1.040000e-06	-3.479946e-06	-9.425331e-10	-2.415130e+01	-6.327353e+01
1.050000e-06	-3.443299e-06	-9.346031e-10	-2.389696e+01	-6.310148e+01
1.060000e-06	-3.406388e-06	-9.293389e-10	-2.364080e+01	-6.292528e+01
1.070000e-06	-3.369243e-06	-9.268437e-10	-2.338301e+01	-6.274467e+01
1.080000e-06	-3.331795e-06	-9.239901e-10	-2.312311e+01	-6.255943e+01
1.090000e-06	-3.294172e-06	-9.232195e-10	-2.286200e+01	-6.236936e+01
1.100000e-06	-3.256389e-06	-9.243014e-10	-2.259978e+01	-6.217431e+01
1.110000e-06	-3.218330e-06	-9.220092e-10	-2.233565e+01	-6.197417e+01
1.120000e-06	-3.180063e-06	-9.189628e-10	-2.207007e+01	-6.176886e+01
1.130000e-06	-3.141589e-06	-9.163439e-10	-2.180306e+01	-6.155838e+01
1.140000e-06	-3.102822e-06	-9.112901e-10	-2.153401e+01	-6.134277e+01
1.150000e-06	-3.063821e-06	-9.060648e-10	-2.126334e+01	-6.112209e+01
1.160000e-06	-3.024665e-06	-9.012487e-10	-2.099159e+01	-6.089649e+01
1.170000e-06	-2.985345e-06	-8.988379e-10	-2.071870e+01	-6.066614e+01
1.180000e-06	-2.945870e-06	-8.943753e-10	-2.044474e+01	-6.043123e+01
1.190000e-06	-2.906264e-06	-8.924616e-10	-2.016987e+01	-6.019202e+01
1.200000e-06	-2.866509e-06	-8.886461e-10	-1.989397e+01	-5.994876e+01
1.210000e-06	-2.826614e-06	-8.847383e-10	-1.961709e+01	-5.970173e+01
1.220000e-06	-2.786591e-06	-8.801481e-10	-1.933932e+01	-5.945122e+01
1.230000e-06	-2.746447e-06	-8.794859e-10	-1.906072e+01	-5.919751e+01
1.240000e-06	-2.706147e-06	-8.753281e-10	-1.878103e+01	-5.894087e+01
1.250000e-06	-2.665621e-06	-8.729302e-10	-1.849977e+01	-5.868156e+01
1.260000e-06	-2.624816e-06	-8.696753e-10	-1.821658e+01	-5.841978e+01
1.270000e-06	-2.583711e-06	-8.636326e-10	-1.793131e+01	-5.815572e+01
1.280000e-06	-2.542272e-06	-8.540694e-10	-1.764371e+01	-5.788953e+01
1.290000e-06	-2.500517e-06	-8.475652e-10	-1.735393e+01	-5.762127e+01
1.300000e-06	-2.458470e-06	-8.420832e-10	-1.706212e+01	-5.735096e+01
1.310000e-06	-2.416141e-06	-8.391339e-10	-1.676834e+01	-5.707858e+01
1.320000e-06	-2.373507e-06	-8.375644e-10	-1.647246e+01	-5.680401e+01
1.330000e-06	-2.330573e-06	-8.354565e-10	-1.617450e+01	-5.652706e+01
1.340000e-06	-2.287510e-06	-8.301735e-10	-1.587563e+01	-5.624750e+01
1.350000e-06	-2.244264e-06	-8.249607e-10	-1.557550e+01	-5.596501e+01
1.360000e-06	-2.200761e-06	-8.182366e-10	-1.527358e+01	-5.567921e+01
1.370000e-06	-2.157118e-06	-8.093310e-10	-1.497069e+01	-5.538966e+01
1.380000e-06	-2.113386e-06	-8.019740e-10	-1.466719e+01	-5.509586e+01
1.390000e-06	-2.069628e-06	-7.981873e-10	-1.436350e+01	-5.479727e+01
1.400000e-06	-2.025861e-06	-7.968148e-10	-1.405975e+01	-5.449329e+01
1.410000e-06	-1.982013e-06	-7.942501e-10	-1.375544e+01	-5.418332e+01
1.420000e-06	-1.938037e-06	-7.902562e-10	-1.345024e+01	-5.386669e+01
1.430000e-06	-1.893976e-06	-7.837913e-10	-1.314445e+01	-5.354276e+01
1.440000e-06	-1.849823e-06	-7.760483e-10	-1.283802e+01	-5.321086e+01
1.450000e-06	-1.805518e-06	-7.651741e-10	-1.253054e+01	-5.287032e+01
1.460000e-06	-1.761110e-06	-7.538733e-10	-1.222235e+01	-5.252049e+01
1.470000e-06	-1.716552e-06	-7.447677e-10	-1.191310e+01	-5.216074e+01
1.480000e-06	-1.671804e-06	-7.394735e-10	-1.160255e+01	-5.179046e+01
1.490000e-06	-1.626924e-06	-7.330812e-10	-1.129107e+01	-5.140908e+01
1.500000e-06	-1.581934e-06	-7.266286e-10	-1.097884e+01	-5.101606e+01
1.510000e-06	-1.536830e-06	-7.218737e-10	-1.066581e+01	-5.061091e+01
1.520000e-06	-1.491576e-06	-7.179821e-10	-1.035174e+01	-5.019317e+01
1.530000e-06	-1.446186e-06	-7.103475e-10	-1.003673e+01	-4.976244e+01
1.540000e-06	-1.400702e-06	-7.000076e-10	-9.721062e+00	-4.931834e+01
1.550000e-06	-1.355141e-06	-6.898273e-10	-9.404861e+00	-4.886055e+01
1.560000e-06	-1.309556e-06	-6.800070e-10	-9.088497e+00	-4.838876e+01
1.570000e-06	-1.263965e-06	-6.711300e-10	-8.772088e+00	-4.790272e+01
1.580000e-06	-1.218255e-06	-6.628457e-10	-8.454859e+00	-4.740216e+01
1.590000e-06	-1.172399e-06	-6.563156e-10	-8.136608e+00	-4.688686e+01
1.600000e-06	-1.126410e-06	-6.506369e-10	-7.817438e+00	-4.635659e+01
1.610000e-06	-1.080353e-06	-6.441125e-10	-7.497799e+00	-4.581111e+01
1.620000e-06	-1.034352e-06	-6.377234e-10	-7.178546e+00	-4.525017e+01
1.630000e-06	-9.882788e-07	-6.299400e-10	-6.858789e+00	-4.467349e+01
1.640000e-06	-9.421035e-07	-6.215120e-10	-6.538327e+00	-4.408076e+01
1.650000e-06	-8.959513e-07	-6.117552e-10	-6.218024e+00	-4.347163e+01
1.660000e-06	-8.497024e-07	-5.998467e-10	-5.897050e+00	-4.284569e+01
1.670000e-06	-8.033591e-07	-5.867622e-10	-5.575422e+00	-4.220246e+01
1.680000e-06	-7.570355e-07	-5.752870e-10	-5.253930e+00	-4.154141e+01
1.690000e-06	-7.106384e-07	-5.641049e-10	-4.931927e+00	-4.086195e+01
1.700000e-06	-6.640971e-07	-5.523580e-10	-4.608924e+00	-4.016338e+01
1.710000e-06	-6.174215e-07	-5.418748e-10	-4.284989e+00	-3.944497e+01
1.720000e-06	-5.706684e-07	-5.356168e-10	-3.960516e+00	-3.870589e+01
1.730000e-06	-5.239535e-07	-5.284349e-10	-3.636309e+00	-3.794526e+01
1.740000e-06	-4.772704e-07	-5.164643e-10	-3.312322e+00	-3.716212e+01
1.750000e-06	-4.306168e-07	-5.015106e-10	-2.988539e+00	-3.635547e+01
1.760000e-06	-3.839073e-07	-4.866491e-10	-2.664369e+00	-3.552427e+01
1.770000e-06	-3.370537e-07	-4.728837e-10	-2.339199e+00	-3.466744e+01
1.780000e-06	-2.902140e-07	-4.589286e-10	-2.014125e+00	-3.378389e+01
1.790000e-06	-2.434296e-07	-4.476398e-10	-1.689435e+00	-3.287253e+01
1.800000e-06	-1.965520e-07	-4.354913e-10	-1.364098e+00	-3.193229e+01
1.810000e-06	-1.495984e-07	-4.216313e-10	-1.038233e+00	-3.096211e+01
1.820000e-06	-1.026359e-07	-4.077379e-10	-7.123072e-01	-2.996103e+01
1.830000e-06	-5.573983e-08	-3.948931e-10	-3.868420e-01	-2.892813e+01
1.840000e-06	-8.902164e-09	-3.833620e-10	-6.178223e-02	-2.786258e+01
1.850000e-06	3.797655e-08	-3.698493e-10	2.635625e-01	-2.676369e+01
1.860000e-06	8.485807e-08	-3.524618e-10	5.889266e-01	-2.563088e+01
1.870000e-06	1.317499e-07	-3.310367e-10	9.143619e-01	-2.446372e+01
1.880000e-06	1.786605e-07	-3.091336e-10	1.239928e+00	-2.326195e+01
1.890000e-06	2.255760e-07	-2.923825e-10	1.565528e+00	-2.202549e+01
1.900000e-06	2.725008e-07	-2.769234e-10	1.891193e+00	-2.075446e+01
1.910000e-06	3.193916e-07	-2.615610e-10	2.216621e+00	-1.944915e+01
1.920000e-06	3.662327e-07	-2.488629e-10	2.541705e+00	-1.811009e+01
1.930000e-06	4.130179e-07	-2.343353e-10	2.866400e+00	-1.673801e+01
1.940000e-06	4.597089e-07	-2.138669e-10	3.190442e+00	-1.533387e+01
1.950000e-06	5.063756e-07	-1.903808e-10	3.514316e+00	-1.389882e+01
1.960000e-06	5.530466e-07	-1.690245e-10	3.838219e+00	-1.243425e+01
1.970000e-06	5.996537e-07	-1.460620e-10	4.161679e+00	-1.094173e+01
1.980000e-06	6.462538e-07	-1.217215e-10	4.485089e+00	-9.423035e+00
1.990000e-06	6.927855e-07	-9.770686e-11	4.808026e+00	-7.880132e+00
2.000000e-06	7.391742e-07	-7.527997e-11	5.129970e+00	-6.315145e+00
2.010000e-06	7.855022e-07	-5.263844e-11	5.451493e+00	-4.730352e+00
2.020000e-06	8.318048e-07	-3.058412e-11	5.772838e+00	-3.128165e+00
2.030000e-06	8.780558e-07	-1.095734e-11	6.093827e+00	-1.511108e+00
2.040000e-06	9.242888e-07	7.584076e-12	6.414690e+00	1.182048e-01
2.050000e-06	9.704792e-07	3.119317e-11	6.735258e+00	1.757091e+00
2.060000e-06	1.016605e-06	5.779581e-11	7.055380e+00	3.402826e+00
2.070000e-06	1.062699e-06	8.349505e-11	7.375273e+00	5.052663e+00
2.080000e-06	1.108684e-06	1.097350e-10	7.694417e+00	6.703860e+00
2.090000e-06	1.154531e-06	1.330518e-10	8.012599e+00	8.353701e+00
2.100000e-06	1.200311e-06	1.517503e-10	8.330323e+00	9.999519e+00
2.110000e-06	1.246074e-06	1.678368e-10	8.647922e+00	1.163872e+01
2.120000e-06	1.291720e-06	1.879174e-10	8.964712e+00	1.326879e+01
2.130000e-06	1.337151e-06	2.099701e-10	9.280009e+00	1.488733e+01
2.140000e-06	1.382512e-06	2.327892e-10	9.594823e+00	1.649208e+01
2.150000e-06	1.427857e-06	2.574329e-10	9.909520e+00	1.808088e+01
2.160000e-06	1.473074e-06	2.821328e-10	1.022333e+01	1.965175e+01
2.170000e-06	1.518168e-06	3.036621e-10	1.053629e+01	2.120286e+01
2.180000e-06	1.563167e-06	3.217272e-10	1.084859e+01	2.273255e+01
2.190000e-06	1.608085e-06	3.394689e-10	1.116033e+01	2.423931e+01
2.200000e-06	1.652885e-06	3.585286e-10	1.147124e+01	2.572183e+01
2.210000e-06	1.697463e-06	3.779206e-10	1.178063e+01	2.717894e+01
2.220000e-06	1.741901e-06	3.983139e-10	1.208903e+01	2.860967e+01
2.230000e-06	1.786229e-06	4.176521e-10	1.239667e+01	3.001318e+01
2.240000e-06	1.830448e-06	4.345227e-10	1.270356e+01	3.138882e+01
2.250000e-06	1.874640e-06	4.499803e-10	1.301026e+01	3.273606e+01
2.260000e-06	1.918741e-06	4.669337e-10	1.331633e+01	3.405453e+01
2.270000e-06	1.962708e-06	4.857318e-10	1.362146e+01	3.534397e+01
2.280000e-06	2.006537e-06	5.039767e-10	1.392564e+01	3.660426e+01
2.290000e-06	2.050271e-06	5.230358e-10	1.422916e+01	3.783537e+01
2.300000e-06	2.093973e-06	5.411641e-10	1.453246e+01	3.903736e+01
2.310000e-06	2.137642e-06	5.561428e-10	1.483553e+01	4.021037e+01
2.320000e-06	2.181251e-06	5.699786e-10	1.513818e+01	4.135462e+01
2.330000e-06	2.224714e-06	5.824028e-10	1.543982e+01	4.247037e+01
2.340000e-06	2.268003e-06	5.945351e-10	1.574025e+01	4.355793e+01
2.350000e-06	2.311078e-06	6.077522e-10	1.603920e+01	4.461764e+01
2.360000e-06	2.353917e-06	6.231950e-10	1.633651e+01	4.564987e+01
2.370000e-06	2.396581e-06	6.376759e-10	1.663260e+01	4.665500e+01
2.380000e-06	2.439007e-06	6.522113e-10	1.692704e+01	4.763342e+01
2.390000e-06	2.481120e-06	6.637609e-10	1.721931e+01	4.858550e+01
2.400000e-06	2.522908e-06	6.730474e-10	1.750933e+01	4.951163e+01
2.410000e-06	2.564359e-06	6.853490e-10	1.779700e+01	5.041218e+01
2.420000e-06	2.605431e-06	6.963060e-10	1.808205e+01	5.128751e+01
2.430000e-06	2.646252e-06	7.067066e-10	1.836535e+01	5.213797e+01
2.440000e-06	2.686908e-06	7.152947e-10	1.864751e+01	5.296388e+01
2.450000e-06	2.727318e-06	7.248517e-10	1.892796e+01	5.376557e+01
2.460000e-06	2.767482e-06	7.367202e-10	1.920671e+01	5.454334e+01
2.470000e-06	2.807569e-06	7.492352e-10	1.948491e+01	5.529748e+01
2.480000e-06	2.847580e-06	7.631462e-10	1.976259e+01	5.602828e+01
2.490000e-06	2.887402e-06	7.755273e-10	2.003896e+01	5.673601e+01
2.500000e-06	2.927093e-06	7.859291e-10	2.031443e+01	5.742095e+01
2.510000e-06	2.966621e-06	7.925586e-10	2.058875e+01	5.808339e+01
2.520000e-06	3.005930e-06	7.985572e-10	2.086156e+01	5.872361e+01
2.530000e-06	3.045039e-06	8.054881e-10	2.113299e+01	5.934189e+01
2.540000e-06	3.084000e-06	8.133597e-10	2.140338e+01	5.993853e+01
2.550000e-06	3.122726e-06	8.236334e-10	2.167215e+01	6.051387e+01
2.560000e-06	3.161207e-06	8.337509e-10	2.193921e+01	6.106822e+01
2.570000e-06	3.199525e-06	8.434584e-10	2.220514e+01	6.160195e+01
2.580000e-06	3.237586e-06	8.513557e-10	2.246929e+01	6.211543e+01
2.590000e-06	3.275448e-06	8.580328e-10	2.273206e+01	6.260904e+01
2.600000e-06	3.313125e-06	8.632823e-10	2.299354e+01	6.308322e+01
2.610000e-06	3.350564e-06	8.689392e-10	2.325337e+01	6.353840e+01
2.620000e-06	3.387794e-06	8.754915e-10	2.351175e+01	6.397504e+01
2.630000e-06	3.424736e-06	8.804156e-10	2.376813e+01	6.439364e+01
2.640000e-06	3.461331e-06	8.844786e-10	2.402211e+01	6.479469e+01
2.650000e-06	3.497669e-06	8.895641e-10	2.427430e+01	6.517871e+01
2.660000e-06	3.533902e-06	8.977276e-10	2.452576e+01	6.554626e+01
2.670000e-06	3.570027e-06	9.061770e-10	2.477648e+01	6.589788e+01
2.680000e-06	3.605950e-06	9.126356e-10	2.502579e+01	6.623415e+01
2.690000e-06	3.641710e-06	9.172471e-10	2.527396e+01	6.655563e+01
2.700000e-06	3.677328e-06	9.195217e-10	2.552116e+01	6.686292e+01
2.710000e-06	3.712722e-06	9.210125e-10	2.576680e+01	6.715661e+01
2.720000e-06	3.747818e-06	9.242311e-10	2.601037e+01	6.743727e+01
2.730000e-06	3.782584e-06	9.300874e-10	2.625165e+01	6.770551e+01
2.740000e-06	3.816892e-06	9.357653e-10	2.648975e+01	6.796191e+01
2.750000e-06	3.850678e-06	9.419775e-10	2.672423e+01	6.820706e+01
2.760000e-06	3.884044e-06	9.484868e-10	2.695580e+01	6.844152e+01
2.770000e-06	3.916993e-06	9.543455e-10	2.718446e+01	6.866587e+01
2.780000e-06	3.949548e-06	9.600051e-10	2.741040e+01	6.888066e+01
2.790000e-06	3.981794e-06	9.648477e-10	2.763419e+01	6.908643e+01
2.800000e-06	4.013768e-06	9.696335e-10	2.785609e+01	6.928372e+01
2.810000e-06	4.045599e-06	9.729850e-10	2.807701e+01	6.947303e+01
2.820000e-06	4.077325e-06	9.758672e-10	2.829719e+01	6.965486e+01
2.830000e-06	4.108840e-06	9.796002e-10	2.851591e+01	6.982971e+01
2.840000e-06	4.140119e-06	9.820048e-10	2.873299e+01	6.999802e+01
2.850000e-06	4.171118e-06	9.841707e-10	2.894813e+01	7.016025e+01
2.860000e-06	4.201828e-06	9.885051e-10	2.916126e+01	7.031682e+01
2.870000e-06	4.232218e-06	9.939075e-10	2.937217e+01	7.046813e+01
2.880000e-06	4.262303e-06	9.993387e-10	2.958096e+01	7.061456e+01
2.890000e-06	4.292110e-06	1.005261e-09	2.978783e+01	7.075647e+01
2.900000e-06	4.321636e-06	1.010332e-09	2.999274e+01	7.089419e+01
