# Temperatura_=_-10.66
# Concentracion g/m^3_=_1620.0
# C_Vs_to_Am_M_A/Vsm_=_65563218390.804596
# pendiente_HvsI_1/m_=_3716.3
# ordenada_HvsI_A/m_=_1297.0
# frecuencia_Hz_=_135112.44345181936

Tiempo_(s)	Campo_(V.s)	Magnetizacion_(V.s)	Campo_(kA/m)	Magnetizacion_(A/m)
0.000000e+00	-5.524912e-06	-9.771353e-10	-3.837866e+01	-6.525468e+01
1.000000e-08	-5.525115e-06	-9.787427e-10	-3.838008e+01	-6.521376e+01
2.000000e-08	-5.525140e-06	-9.792017e-10	-3.838025e+01	-6.517360e+01
3.000000e-08	-5.524852e-06	-9.776642e-10	-3.837825e+01	-6.513449e+01
4.000000e-08	-5.524149e-06	-9.739946e-10	-3.837337e+01	-6.509673e+01
5.000000e-08	-5.522893e-06	-9.657923e-10	-3.836464e+01	-6.506054e+01
6.000000e-08	-5.520953e-06	-9.522232e-10	-3.835117e+01	-6.502612e+01
7.000000e-08	-5.518441e-06	-9.318392e-10	-3.833372e+01	-6.499362e+01
8.000000e-08	-5.515426e-06	-9.371521e-10	-3.831277e+01	-6.496313e+01
9.000000e-08	-5.511871e-06	-1.002192e-09	-3.828808e+01	-6.493468e+01
1.000000e-07	-5.507801e-06	-1.040895e-09	-3.825981e+01	-6.490824e+01
1.100000e-07	-5.503421e-06	-9.665876e-10	-3.822938e+01	-6.488369e+01
1.200000e-07	-5.499047e-06	-9.111342e-10	-3.819900e+01	-6.486088e+01
1.300000e-07	-5.494525e-06	-9.121058e-10	-3.816759e+01	-6.483955e+01
1.400000e-07	-5.489504e-06	-9.933398e-10	-3.813271e+01	-6.481942e+01
1.500000e-07	-5.483939e-06	-9.539245e-10	-3.809405e+01	-6.480010e+01
1.600000e-07	-5.478023e-06	-9.043066e-10	-3.805295e+01	-6.478119e+01
1.700000e-07	-5.471776e-06	-9.416752e-10	-3.800956e+01	-6.476220e+01
1.800000e-07	-5.465004e-06	-1.000193e-09	-3.796252e+01	-6.474262e+01
1.900000e-07	-5.457805e-06	-1.011991e-09	-3.791251e+01	-6.472190e+01
2.000000e-07	-5.450339e-06	-9.486028e-10	-3.786065e+01	-6.469947e+01
2.100000e-07	-5.442574e-06	-9.510639e-10	-3.780671e+01	-6.467475e+01
2.200000e-07	-5.434596e-06	-9.628691e-10	-3.775129e+01	-6.464714e+01
2.300000e-07	-5.426483e-06	-9.818725e-10	-3.769493e+01	-6.461607e+01
2.400000e-07	-5.418111e-06	-9.594058e-10	-3.763678e+01	-6.458099e+01
2.500000e-07	-5.409089e-06	-9.802644e-10	-3.757411e+01	-6.454138e+01
2.600000e-07	-5.399186e-06	-9.805007e-10	-3.750531e+01	-6.449677e+01
2.700000e-07	-5.388624e-06	-9.651284e-10	-3.743195e+01	-6.444675e+01
2.800000e-07	-5.377520e-06	-9.226429e-10	-3.735481e+01	-6.439097e+01
2.900000e-07	-5.365921e-06	-9.385571e-10	-3.727424e+01	-6.432916e+01
3.000000e-07	-5.353978e-06	-9.565157e-10	-3.719128e+01	-6.426114e+01
3.100000e-07	-5.341713e-06	-9.546232e-10	-3.710608e+01	-6.418680e+01
3.200000e-07	-5.328999e-06	-9.400639e-10	-3.701776e+01	-6.410615e+01
3.300000e-07	-5.315870e-06	-9.653520e-10	-3.692656e+01	-6.401928e+01
3.400000e-07	-5.302424e-06	-9.807091e-10	-3.683316e+01	-6.392638e+01
3.500000e-07	-5.288659e-06	-9.528684e-10	-3.673754e+01	-6.382773e+01
3.600000e-07	-5.274427e-06	-9.317389e-10	-3.663868e+01	-6.372372e+01
3.700000e-07	-5.259864e-06	-9.545321e-10	-3.653752e+01	-6.361480e+01
3.800000e-07	-5.244916e-06	-9.491567e-10	-3.643368e+01	-6.350154e+01
3.900000e-07	-5.229212e-06	-9.213462e-10	-3.632459e+01	-6.338453e+01
4.000000e-07	-5.212877e-06	-9.504200e-10	-3.621112e+01	-6.326447e+01
4.100000e-07	-5.196237e-06	-9.803889e-10	-3.609553e+01	-6.314208e+01
4.200000e-07	-5.179264e-06	-9.459642e-10	-3.597763e+01	-6.301812e+01
4.300000e-07	-5.161889e-06	-9.178931e-10	-3.585694e+01	-6.289338e+01
4.400000e-07	-5.144288e-06	-9.674002e-10	-3.573467e+01	-6.276866e+01
4.500000e-07	-5.126388e-06	-9.557225e-10	-3.561033e+01	-6.264474e+01
4.600000e-07	-5.108045e-06	-9.124832e-10	-3.548291e+01	-6.252240e+01
4.700000e-07	-5.089219e-06	-9.208917e-10	-3.535214e+01	-6.240237e+01
4.800000e-07	-5.070049e-06	-9.533824e-10	-3.521897e+01	-6.228535e+01
4.900000e-07	-5.050595e-06	-9.153444e-10	-3.508384e+01	-6.217196e+01
5.000000e-07	-5.030856e-06	-9.215517e-10	-3.494672e+01	-6.206275e+01
5.100000e-07	-5.010980e-06	-9.489104e-10	-3.480865e+01	-6.195820e+01
5.200000e-07	-4.990873e-06	-9.282823e-10	-3.466898e+01	-6.185869e+01
5.300000e-07	-4.970407e-06	-9.015586e-10	-3.452681e+01	-6.176451e+01
5.400000e-07	-4.949619e-06	-9.431194e-10	-3.438241e+01	-6.167584e+01
5.500000e-07	-4.928410e-06	-9.321188e-10	-3.423508e+01	-6.159275e+01
5.600000e-07	-4.906699e-06	-8.918458e-10	-3.408427e+01	-6.151522e+01
5.700000e-07	-4.884714e-06	-9.021502e-10	-3.393154e+01	-6.144312e+01
5.800000e-07	-4.862526e-06	-9.240094e-10	-3.377742e+01	-6.137620e+01
5.900000e-07	-4.839927e-06	-8.990894e-10	-3.362044e+01	-6.131415e+01
6.000000e-07	-4.816953e-06	-9.042245e-10	-3.346084e+01	-6.125653e+01
6.100000e-07	-4.793631e-06	-9.207105e-10	-3.329884e+01	-6.120284e+01
6.200000e-07	-4.769973e-06	-9.037252e-10	-3.313450e+01	-6.115253e+01
6.300000e-07	-4.746134e-06	-8.931110e-10	-3.296890e+01	-6.110495e+01
6.400000e-07	-4.722149e-06	-9.081560e-10	-3.280230e+01	-6.105944e+01
6.500000e-07	-4.697901e-06	-9.005077e-10	-3.263386e+01	-6.101528e+01
6.600000e-07	-4.673255e-06	-8.894810e-10	-3.246265e+01	-6.097176e+01
6.700000e-07	-4.648082e-06	-9.026492e-10	-3.228779e+01	-6.092815e+01
6.800000e-07	-4.622317e-06	-9.010753e-10	-3.210881e+01	-6.088372e+01
6.900000e-07	-4.595979e-06	-8.925646e-10	-3.192586e+01	-6.083778e+01
7.000000e-07	-4.569115e-06	-8.950953e-10	-3.173925e+01	-6.078967e+01
7.100000e-07	-4.541880e-06	-8.957907e-10	-3.155006e+01	-6.073877e+01
7.200000e-07	-4.514410e-06	-8.827079e-10	-3.135924e+01	-6.068453e+01
7.300000e-07	-4.486703e-06	-8.895581e-10	-3.116677e+01	-6.062645e+01
7.400000e-07	-4.458793e-06	-8.937896e-10	-3.097290e+01	-6.056412e+01
7.500000e-07	-4.430714e-06	-8.889899e-10	-3.077785e+01	-6.049719e+01
7.600000e-07	-4.402451e-06	-8.865401e-10	-3.058152e+01	-6.042541e+01
7.700000e-07	-4.373964e-06	-8.896364e-10	-3.038364e+01	-6.034861e+01
7.800000e-07	-4.345091e-06	-8.722303e-10	-3.018307e+01	-6.026672e+01
7.900000e-07	-4.315859e-06	-8.659227e-10	-2.998001e+01	-6.017971e+01
8.000000e-07	-4.286316e-06	-8.702564e-10	-2.977479e+01	-6.008768e+01
8.100000e-07	-4.256426e-06	-8.702893e-10	-2.956716e+01	-5.999078e+01
8.200000e-07	-4.226261e-06	-8.650075e-10	-2.935762e+01	-5.988922e+01
8.300000e-07	-4.195740e-06	-8.800089e-10	-2.914561e+01	-5.978330e+01
8.400000e-07	-4.164843e-06	-8.838461e-10	-2.893098e+01	-5.967334e+01
8.500000e-07	-4.133721e-06	-8.748295e-10	-2.871479e+01	-5.955973e+01
8.600000e-07	-4.102362e-06	-8.701803e-10	-2.849696e+01	-5.944286e+01
8.700000e-07	-4.070768e-06	-8.659902e-10	-2.827749e+01	-5.932316e+01
8.800000e-07	-4.039008e-06	-8.517693e-10	-2.805687e+01	-5.920107e+01
8.900000e-07	-4.007076e-06	-8.486521e-10	-2.783506e+01	-5.907703e+01
9.000000e-07	-3.975045e-06	-8.570363e-10	-2.761255e+01	-5.895146e+01
9.100000e-07	-3.942882e-06	-8.591547e-10	-2.738913e+01	-5.882475e+01
9.200000e-07	-3.910313e-06	-8.590453e-10	-2.716289e+01	-5.869728e+01
9.300000e-07	-3.877296e-06	-8.644764e-10	-2.693354e+01	-5.856939e+01
9.400000e-07	-3.843918e-06	-8.610232e-10	-2.670168e+01	-5.844136e+01
9.500000e-07	-3.810029e-06	-8.487491e-10	-2.646627e+01	-5.831342e+01
9.600000e-07	-3.775606e-06	-8.427202e-10	-2.622716e+01	-5.818578e+01
9.700000e-07	-3.740810e-06	-8.380954e-10	-2.598544e+01	-5.805855e+01
9.800000e-07	-3.705639e-06	-8.299842e-10	-2.574113e+01	-5.793181e+01
9.900000e-07	-3.670140e-06	-8.284542e-10	-2.549454e+01	-5.780557e+01
1.000000e-06	-3.634484e-06	-8.350639e-10	-2.524685e+01	-5.767981e+01
1.010000e-06	-3.598706e-06	-8.347319e-10	-2.499833e+01	-5.755444e+01
1.020000e-06	-3.562762e-06	-8.339768e-10	-2.474864e+01	-5.742932e+01
1.030000e-06	-3.526686e-06	-8.347772e-10	-2.449804e+01	-5.730428e+01
1.040000e-06	-3.490526e-06	-8.337197e-10	-2.424685e+01	-5.717913e+01
1.050000e-06	-3.454169e-06	-8.264539e-10	-2.399430e+01	-5.705362e+01
1.060000e-06	-3.417418e-06	-8.236074e-10	-2.373901e+01	-5.692751e+01
1.070000e-06	-3.380320e-06	-8.210284e-10	-2.348131e+01	-5.680054e+01
1.080000e-06	-3.343022e-06	-8.197592e-10	-2.322222e+01	-5.667244e+01
1.090000e-06	-3.305514e-06	-8.192490e-10	-2.296168e+01	-5.654296e+01
1.100000e-06	-3.267774e-06	-8.199990e-10	-2.269952e+01	-5.641184e+01
1.110000e-06	-3.229758e-06	-8.157092e-10	-2.243543e+01	-5.627886e+01
1.120000e-06	-3.191568e-06	-8.141016e-10	-2.217015e+01	-5.614381e+01
1.130000e-06	-3.153234e-06	-8.134685e-10	-2.190387e+01	-5.600650e+01
1.140000e-06	-3.114589e-06	-8.102045e-10	-2.163542e+01	-5.586680e+01
1.150000e-06	-3.075743e-06	-8.064494e-10	-2.136558e+01	-5.572458e+01
1.160000e-06	-3.036741e-06	-8.053770e-10	-2.109465e+01	-5.557978e+01
1.170000e-06	-2.997507e-06	-8.004804e-10	-2.082211e+01	-5.543233e+01
1.180000e-06	-2.958049e-06	-7.954713e-10	-2.054801e+01	-5.528225e+01
1.190000e-06	-2.918408e-06	-7.920512e-10	-2.027265e+01	-5.512953e+01
1.200000e-06	-2.878678e-06	-7.885781e-10	-1.999667e+01	-5.497424e+01
1.210000e-06	-2.838840e-06	-7.839253e-10	-1.971993e+01	-5.481644e+01
1.220000e-06	-2.798903e-06	-7.825611e-10	-1.944251e+01	-5.465622e+01
1.230000e-06	-2.758832e-06	-7.841291e-10	-1.916416e+01	-5.449368e+01
1.240000e-06	-2.718555e-06	-7.834837e-10	-1.888438e+01	-5.432891e+01
1.250000e-06	-2.678073e-06	-7.828262e-10	-1.860317e+01	-5.416202e+01
1.260000e-06	-2.637372e-06	-7.815657e-10	-1.832044e+01	-5.399310e+01
1.270000e-06	-2.596480e-06	-7.775409e-10	-1.803639e+01	-5.382220e+01
1.280000e-06	-2.555345e-06	-7.694813e-10	-1.775064e+01	-5.364937e+01
1.290000e-06	-2.513855e-06	-7.620224e-10	-1.746243e+01	-5.347463e+01
1.300000e-06	-2.472075e-06	-7.553217e-10	-1.717221e+01	-5.329795e+01
1.310000e-06	-2.430054e-06	-7.526303e-10	-1.688031e+01	-5.311925e+01
1.320000e-06	-2.387704e-06	-7.539029e-10	-1.658613e+01	-5.293842e+01
1.330000e-06	-2.344966e-06	-7.586011e-10	-1.628925e+01	-5.275530e+01
1.340000e-06	-2.301961e-06	-7.596434e-10	-1.599052e+01	-5.256966e+01
1.350000e-06	-2.258739e-06	-7.585125e-10	-1.569028e+01	-5.238123e+01
1.360000e-06	-2.215328e-06	-7.505809e-10	-1.538872e+01	-5.218969e+01
1.370000e-06	-2.171766e-06	-7.387476e-10	-1.508612e+01	-5.199465e+01
1.380000e-06	-2.128065e-06	-7.280985e-10	-1.478255e+01	-5.179570e+01
1.390000e-06	-2.084272e-06	-7.236309e-10	-1.447834e+01	-5.159236e+01
1.400000e-06	-2.040391e-06	-7.242347e-10	-1.417353e+01	-5.138412e+01
1.410000e-06	-1.996450e-06	-7.247123e-10	-1.386829e+01	-5.117045e+01
1.420000e-06	-1.952478e-06	-7.249321e-10	-1.356284e+01	-5.095077e+01
1.430000e-06	-1.908454e-06	-7.268768e-10	-1.325703e+01	-5.072449e+01
1.440000e-06	-1.864332e-06	-7.240164e-10	-1.295054e+01	-5.049100e+01
1.450000e-06	-1.820098e-06	-7.155126e-10	-1.264326e+01	-5.024970e+01
1.460000e-06	-1.775771e-06	-7.031779e-10	-1.233535e+01	-4.999997e+01
1.470000e-06	-1.731303e-06	-6.900640e-10	-1.202645e+01	-4.974122e+01
1.480000e-06	-1.686676e-06	-6.817009e-10	-1.171645e+01	-4.947285e+01
1.490000e-06	-1.641886e-06	-6.788547e-10	-1.140532e+01	-4.919429e+01
1.500000e-06	-1.596927e-06	-6.819767e-10	-1.109302e+01	-4.890501e+01
1.510000e-06	-1.551906e-06	-6.861093e-10	-1.078028e+01	-4.860448e+01
1.520000e-06	-1.506828e-06	-6.892281e-10	-1.046714e+01	-4.829221e+01
1.530000e-06	-1.461641e-06	-6.853907e-10	-1.015326e+01	-4.796776e+01
1.540000e-06	-1.416337e-06	-6.742152e-10	-9.838550e+00	-4.763069e+01
1.550000e-06	-1.370932e-06	-6.622487e-10	-9.523144e+00	-4.728062e+01
1.560000e-06	-1.325421e-06	-6.529747e-10	-9.207006e+00	-4.691718e+01
1.570000e-06	-1.279828e-06	-6.457973e-10	-8.890294e+00	-4.654003e+01
1.580000e-06	-1.234181e-06	-6.401907e-10	-8.573211e+00	-4.614885e+01
1.590000e-06	-1.188446e-06	-6.399814e-10	-8.255512e+00	-4.574332e+01
1.600000e-06	-1.142662e-06	-6.433260e-10	-7.937477e+00	-4.532315e+01
1.610000e-06	-1.096812e-06	-6.412200e-10	-7.618976e+00	-4.488802e+01
1.620000e-06	-1.050807e-06	-6.335852e-10	-7.299407e+00	-4.443764e+01
1.630000e-06	-1.004664e-06	-6.211661e-10	-6.978874e+00	-4.397165e+01
1.640000e-06	-9.584314e-07	-6.073798e-10	-6.657720e+00	-4.348971e+01
1.650000e-06	-9.122161e-07	-5.958318e-10	-6.336687e+00	-4.299142e+01
1.660000e-06	-8.659762e-07	-5.899206e-10	-6.015482e+00	-4.247636e+01
1.670000e-06	-8.196016e-07	-5.849972e-10	-5.693343e+00	-4.194404e+01
1.680000e-06	-7.731479e-07	-5.792670e-10	-5.370653e+00	-4.139392e+01
1.690000e-06	-7.267288e-07	-5.726621e-10	-5.048204e+00	-4.082543e+01
1.700000e-06	-6.802690e-07	-5.631408e-10	-4.725472e+00	-4.023789e+01
1.710000e-06	-6.336762e-07	-5.493233e-10	-4.401816e+00	-3.963061e+01
1.720000e-06	-5.870746e-07	-5.361025e-10	-4.078099e+00	-3.900279e+01
1.730000e-06	-5.404962e-07	-5.271720e-10	-3.754544e+00	-3.835361e+01
1.740000e-06	-4.938655e-07	-5.193353e-10	-3.430625e+00	-3.768218e+01
1.750000e-06	-4.471794e-07	-5.137786e-10	-3.106321e+00	-3.698755e+01
1.760000e-06	-4.004397e-07	-5.087198e-10	-2.781644e+00	-3.626873e+01
1.770000e-06	-3.536954e-07	-4.983723e-10	-2.456936e+00	-3.552471e+01
1.780000e-06	-3.069130e-07	-4.829307e-10	-2.131963e+00	-3.475446e+01
1.790000e-06	-2.600092e-07	-4.658609e-10	-1.806148e+00	-3.395693e+01
1.800000e-06	-2.130142e-07	-4.491467e-10	-1.479698e+00	-3.313108e+01
1.810000e-06	-1.660818e-07	-4.340042e-10	-1.153683e+00	-3.227589e+01
1.820000e-06	-1.192716e-07	-4.228351e-10	-8.285172e-01	-3.139040e+01
1.830000e-06	-7.247390e-08	-4.159412e-10	-5.034382e-01	-3.047367e+01
1.840000e-06	-2.558695e-08	-4.088595e-10	-1.777391e-01	-2.952485e+01
1.850000e-06	2.134068e-08	-4.002609e-10	1.482425e-01	-2.854320e+01
1.860000e-06	6.816316e-08	-3.859725e-10	4.734938e-01	-2.752806e+01
1.870000e-06	1.149635e-07	-3.639574e-10	7.985915e-01	-2.647891e+01
1.880000e-06	1.618275e-07	-3.391141e-10	1.124131e+00	-2.539535e+01
1.890000e-06	2.087154e-07	-3.174312e-10	1.449837e+00	-2.427716e+01
1.900000e-06	2.556253e-07	-3.001156e-10	1.775695e+00	-2.312428e+01
1.910000e-06	3.025310e-07	-2.878569e-10	2.101524e+00	-2.193682e+01
1.920000e-06	3.493610e-07	-2.805420e-10	2.426828e+00	-2.071507e+01
1.930000e-06	3.961122e-07	-2.732064e-10	2.751584e+00	-1.945954e+01
1.940000e-06	4.428398e-07	-2.572198e-10	3.076176e+00	-1.817091e+01
1.950000e-06	4.896039e-07	-2.327239e-10	3.401022e+00	-1.685009e+01
1.960000e-06	5.362993e-07	-2.071873e-10	3.725390e+00	-1.549816e+01
1.970000e-06	5.828542e-07	-1.835942e-10	4.048783e+00	-1.411641e+01
1.980000e-06	6.294006e-07	-1.624316e-10	4.372116e+00	-1.270634e+01
1.990000e-06	6.759246e-07	-1.455484e-10	4.695294e+00	-1.126960e+01
2.000000e-06	7.223675e-07	-1.289225e-10	5.017909e+00	-9.808034e+00
2.010000e-06	7.687838e-07	-1.084414e-10	5.340338e+00	-8.323641e+00
2.020000e-06	8.151783e-07	-8.583543e-11	5.662616e+00	-6.818567e+00
2.030000e-06	8.615077e-07	-6.096366e-11	5.984442e+00	-5.295086e+00
2.040000e-06	9.077685e-07	-3.646911e-11	6.305792e+00	-3.755585e+00
2.050000e-06	9.539728e-07	-1.361285e-11	6.626749e+00	-2.202545e+00
2.060000e-06	1.000083e-06	9.723826e-12	6.947054e+00	-6.385165e-01
2.070000e-06	1.046134e-06	3.206470e-11	7.266946e+00	9.338946e-01
2.080000e-06	1.092176e-06	5.437121e-11	7.586776e+00	2.512053e+00
2.090000e-06	1.138117e-06	7.686635e-11	7.905900e+00	4.093311e+00
2.100000e-06	1.183915e-06	1.000987e-10	8.224035e+00	5.675035e+00
2.110000e-06	1.229661e-06	1.226994e-10	8.541813e+00	7.254616e+00
2.120000e-06	1.275309e-06	1.431998e-10	8.858901e+00	8.829500e+00
2.130000e-06	1.320761e-06	1.633114e-10	9.174634e+00	1.039720e+01
2.140000e-06	1.366105e-06	1.836717e-10	9.489618e+00	1.195530e+01
2.150000e-06	1.411475e-06	2.034001e-10	9.804779e+00	1.350151e+01
2.160000e-06	1.456811e-06	2.252093e-10	1.011970e+01	1.503362e+01
2.170000e-06	1.501987e-06	2.459539e-10	1.043351e+01	1.654957e+01
2.180000e-06	1.547050e-06	2.653244e-10	1.074655e+01	1.804742e+01
2.190000e-06	1.591982e-06	2.861699e-10	1.105867e+01	1.952538e+01
2.200000e-06	1.636683e-06	3.070167e-10	1.136918e+01	2.098180e+01
2.210000e-06	1.681270e-06	3.260547e-10	1.167890e+01	2.241517e+01
2.220000e-06	1.725757e-06	3.411273e-10	1.198793e+01	2.382416e+01
2.230000e-06	1.770104e-06	3.569666e-10	1.229599e+01	2.520758e+01
2.240000e-06	1.814368e-06	3.730338e-10	1.260346e+01	2.656437e+01
2.250000e-06	1.858510e-06	3.874630e-10	1.291010e+01	2.789365e+01
2.260000e-06	1.902553e-06	4.027930e-10	1.321604e+01	2.919466e+01
2.270000e-06	1.946521e-06	4.225512e-10	1.352146e+01	3.046678e+01
2.280000e-06	1.990424e-06	4.436947e-10	1.382643e+01	3.170954e+01
2.290000e-06	2.034312e-06	4.633182e-10	1.413130e+01	3.292257e+01
2.300000e-06	2.078178e-06	4.809436e-10	1.443601e+01	3.410561e+01
2.310000e-06	2.121921e-06	4.958057e-10	1.473988e+01	3.525852e+01
2.320000e-06	2.165557e-06	5.085888e-10	1.504299e+01	3.638126e+01
2.330000e-06	2.209166e-06	5.203609e-10	1.534592e+01	3.747386e+01
2.340000e-06	2.252660e-06	5.321780e-10	1.564805e+01	3.853643e+01
2.350000e-06	2.295932e-06	5.452748e-10	1.594863e+01	3.956917e+01
2.360000e-06	2.338974e-06	5.593388e-10	1.624763e+01	4.057231e+01
2.370000e-06	2.381703e-06	5.744733e-10	1.654444e+01	4.154614e+01
2.380000e-06	2.424133e-06	5.879796e-10	1.683918e+01	4.249102e+01
2.390000e-06	2.466322e-06	6.011883e-10	1.713225e+01	4.340733e+01
2.400000e-06	2.508121e-06	6.143818e-10	1.742260e+01	4.429546e+01
2.410000e-06	2.549593e-06	6.266082e-10	1.771069e+01	4.515587e+01
2.420000e-06	2.590771e-06	6.370532e-10	1.799673e+01	4.598902e+01
2.430000e-06	2.631614e-06	6.472344e-10	1.828044e+01	4.679538e+01
2.440000e-06	2.672204e-06	6.586484e-10	1.856240e+01	4.757545e+01
2.450000e-06	2.712556e-06	6.684571e-10	1.884271e+01	4.832973e+01
2.460000e-06	2.752752e-06	6.782628e-10	1.912192e+01	4.905875e+01
2.470000e-06	2.792817e-06	6.890715e-10	1.940024e+01	4.976303e+01
2.480000e-06	2.832758e-06	7.018078e-10	1.967768e+01	5.044310e+01
2.490000e-06	2.872603e-06	7.163770e-10	1.995446e+01	5.109950e+01
2.500000e-06	2.912366e-06	7.297828e-10	2.023068e+01	5.173277e+01
2.510000e-06	2.952012e-06	7.393020e-10	2.050608e+01	5.234347e+01
2.520000e-06	2.991460e-06	7.445680e-10	2.078010e+01	5.293213e+01
2.530000e-06	3.030711e-06	7.485760e-10	2.105276e+01	5.349933e+01
2.540000e-06	3.069769e-06	7.544458e-10	2.132408e+01	5.404561e+01
2.550000e-06	3.108558e-06	7.612261e-10	2.159352e+01	5.457153e+01
2.560000e-06	3.147072e-06	7.700097e-10	2.186106e+01	5.507767e+01
2.570000e-06	3.185390e-06	7.792466e-10	2.212723e+01	5.556458e+01
2.580000e-06	3.223496e-06	7.881806e-10	2.239194e+01	5.603282e+01
2.590000e-06	3.261400e-06	7.975934e-10	2.265524e+01	5.648296e+01
2.600000e-06	3.299150e-06	8.055080e-10	2.291747e+01	5.691556e+01
2.610000e-06	3.336717e-06	8.105984e-10	2.317843e+01	5.733115e+01
2.620000e-06	3.373998e-06	8.144226e-10	2.343739e+01	5.773030e+01
2.630000e-06	3.410990e-06	8.180223e-10	2.369436e+01	5.811354e+01
2.640000e-06	3.447708e-06	8.227522e-10	2.394942e+01	5.848140e+01
2.650000e-06	3.484134e-06	8.296296e-10	2.420245e+01	5.883441e+01
2.660000e-06	3.520290e-06	8.380964e-10	2.445361e+01	5.917306e+01
2.670000e-06	3.556251e-06	8.457979e-10	2.470341e+01	5.949785e+01
2.680000e-06	3.592133e-06	8.507405e-10	2.495266e+01	5.980925e+01
2.690000e-06	3.627911e-06	8.539723e-10	2.520120e+01	6.010774e+01
2.700000e-06	3.663548e-06	8.579011e-10	2.544875e+01	6.039375e+01
2.710000e-06	3.698971e-06	8.619982e-10	2.569482e+01	6.066771e+01
2.720000e-06	3.734161e-06	8.664516e-10	2.593926e+01	6.093004e+01
2.730000e-06	3.769027e-06	8.717565e-10	2.618146e+01	6.118113e+01
2.740000e-06	3.803394e-06	8.773547e-10	2.642018e+01	6.142136e+01
2.750000e-06	3.837229e-06	8.823698e-10	2.665522e+01	6.165108e+01
2.760000e-06	3.870609e-06	8.856076e-10	2.688709e+01	6.187065e+01
2.770000e-06	3.903564e-06	8.871908e-10	2.711601e+01	6.208040e+01
2.780000e-06	3.936151e-06	8.892158e-10	2.734238e+01	6.228066e+01
2.790000e-06	3.968490e-06	8.935204e-10	2.756702e+01	6.247173e+01
2.800000e-06	4.000621e-06	8.980758e-10	2.779022e+01	6.265392e+01
2.810000e-06	4.032576e-06	9.010433e-10	2.801219e+01	6.282752e+01
2.820000e-06	4.064401e-06	9.028303e-10	2.823327e+01	6.299284e+01
2.830000e-06	4.096039e-06	9.030860e-10	2.845304e+01	6.315015e+01
2.840000e-06	4.127391e-06	9.030604e-10	2.867082e+01	6.329975e+01
2.850000e-06	4.158473e-06	9.044626e-10	2.888673e+01	6.344192e+01
2.860000e-06	4.189212e-06	9.072985e-10	2.910026e+01	6.357695e+01
2.870000e-06	4.219589e-06	9.121600e-10	2.931127e+01	6.370513e+01
2.880000e-06	4.249738e-06	9.159869e-10	2.952070e+01	6.382676e+01
2.890000e-06	4.279624e-06	9.187690e-10	2.972830e+01	6.394211e+01
2.900000e-06	4.309182e-06	9.214263e-10	2.993362e+01	6.405150e+01
