# Temperatura_=_-4.27
# Concentracion g/m^3_=_1620.0
# C_Vs_to_Am_M_A/Vsm_=_65563218390.804596
# pendiente_HvsI_1/m_=_3716.3
# ordenada_HvsI_A/m_=_1297.0
# frecuencia_Hz_=_135104.94019821737

Tiempo_(s)	Campo_(V.s)	Magnetizacion_(V.s)	Campo_(kA/m)	Magnetizacion_(A/m)
0.000000e+00	-5.547075e-06	-1.153512e-09	-3.837380e+01	-7.787070e+01
1.000000e-08	-5.547300e-06	-1.150753e-09	-3.837536e+01	-7.783940e+01
2.000000e-08	-5.547287e-06	-1.150339e-09	-3.837527e+01	-7.781076e+01
3.000000e-08	-5.547008e-06	-1.150670e-09	-3.837334e+01	-7.778542e+01
4.000000e-08	-5.546319e-06	-1.149551e-09	-3.836857e+01	-7.776395e+01
5.000000e-08	-5.544965e-06	-1.147439e-09	-3.835920e+01	-7.774684e+01
6.000000e-08	-5.542932e-06	-1.146319e-09	-3.834514e+01	-7.773453e+01
7.000000e-08	-5.540362e-06	-1.151728e-09	-3.832736e+01	-7.772733e+01
8.000000e-08	-5.537343e-06	-1.141632e-09	-3.830648e+01	-7.772545e+01
9.000000e-08	-5.533827e-06	-1.106759e-09	-3.828215e+01	-7.772900e+01
1.000000e-07	-5.529884e-06	-1.143797e-09	-3.825487e+01	-7.773795e+01
1.100000e-07	-5.525635e-06	-1.244687e-09	-3.822548e+01	-7.775217e+01
1.200000e-07	-5.521028e-06	-1.190562e-09	-3.819361e+01	-7.777137e+01
1.300000e-07	-5.516174e-06	-1.067201e-09	-3.816003e+01	-7.779515e+01
1.400000e-07	-5.511075e-06	-1.084374e-09	-3.812476e+01	-7.782298e+01
1.500000e-07	-5.505530e-06	-1.221175e-09	-3.808640e+01	-7.785423e+01
1.600000e-07	-5.499556e-06	-1.241606e-09	-3.804507e+01	-7.788815e+01
1.700000e-07	-5.493203e-06	-1.088148e-09	-3.800112e+01	-7.792387e+01
1.800000e-07	-5.486480e-06	-1.093584e-09	-3.795461e+01	-7.796047e+01
1.900000e-07	-5.479367e-06	-1.207350e-09	-3.790541e+01	-7.799693e+01
2.000000e-07	-5.471893e-06	-1.232257e-09	-3.785370e+01	-7.803221e+01
2.100000e-07	-5.464190e-06	-1.117805e-09	-3.780042e+01	-7.806521e+01
2.200000e-07	-5.456291e-06	-1.109095e-09	-3.774578e+01	-7.809481e+01
2.300000e-07	-5.448128e-06	-1.195106e-09	-3.768930e+01	-7.811991e+01
2.400000e-07	-5.439513e-06	-1.225860e-09	-3.762970e+01	-7.813943e+01
2.500000e-07	-5.430244e-06	-1.166278e-09	-3.756558e+01	-7.815233e+01
2.600000e-07	-5.420248e-06	-1.147563e-09	-3.749643e+01	-7.815764e+01
2.700000e-07	-5.409505e-06	-1.188665e-09	-3.742211e+01	-7.815447e+01
2.800000e-07	-5.398229e-06	-1.204725e-09	-3.734411e+01	-7.814203e+01
2.900000e-07	-5.386638e-06	-1.178115e-09	-3.726392e+01	-7.811963e+01
3.000000e-07	-5.374648e-06	-1.160484e-09	-3.718098e+01	-7.808674e+01
3.100000e-07	-5.362229e-06	-1.199457e-09	-3.709506e+01	-7.804294e+01
3.200000e-07	-5.349429e-06	-1.221845e-09	-3.700651e+01	-7.798798e+01
3.300000e-07	-5.336209e-06	-1.191407e-09	-3.691506e+01	-7.792176e+01
3.400000e-07	-5.322629e-06	-1.148841e-09	-3.682112e+01	-7.784431e+01
3.500000e-07	-5.308754e-06	-1.201824e-09	-3.672514e+01	-7.775586e+01
3.600000e-07	-5.294465e-06	-1.220440e-09	-3.662628e+01	-7.765677e+01
3.700000e-07	-5.279593e-06	-1.166645e-09	-3.652340e+01	-7.754753e+01
3.800000e-07	-5.264284e-06	-1.160628e-09	-3.641750e+01	-7.742881e+01
3.900000e-07	-5.248626e-06	-1.225279e-09	-3.630918e+01	-7.730137e+01
4.000000e-07	-5.232372e-06	-1.166193e-09	-3.619674e+01	-7.716609e+01
4.100000e-07	-5.215643e-06	-1.117592e-09	-3.608101e+01	-7.702395e+01
4.200000e-07	-5.198631e-06	-1.206021e-09	-3.596332e+01	-7.687601e+01
4.300000e-07	-5.181264e-06	-1.221170e-09	-3.584318e+01	-7.672338e+01
4.400000e-07	-5.163541e-06	-1.099953e-09	-3.572057e+01	-7.656721e+01
4.500000e-07	-5.145502e-06	-1.149342e-09	-3.559578e+01	-7.640865e+01
4.600000e-07	-5.127146e-06	-1.249561e-09	-3.546880e+01	-7.624886e+01
4.700000e-07	-5.108300e-06	-1.140689e-09	-3.533843e+01	-7.608895e+01
4.800000e-07	-5.088986e-06	-1.079869e-09	-3.520481e+01	-7.593001e+01
4.900000e-07	-5.069447e-06	-1.207380e-09	-3.506964e+01	-7.577304e+01
5.000000e-07	-5.049691e-06	-1.181269e-09	-3.493298e+01	-7.561894e+01
5.100000e-07	-5.029702e-06	-1.076129e-09	-3.479470e+01	-7.546852e+01
5.200000e-07	-5.009513e-06	-1.168942e-09	-3.465503e+01	-7.532248e+01
5.300000e-07	-4.989000e-06	-1.208805e-09	-3.451313e+01	-7.518137e+01
5.400000e-07	-4.967968e-06	-1.081907e-09	-3.436763e+01	-7.504561e+01
5.500000e-07	-4.946570e-06	-1.115013e-09	-3.421960e+01	-7.491546e+01
5.600000e-07	-4.924881e-06	-1.215255e-09	-3.406956e+01	-7.479107e+01
5.700000e-07	-4.902797e-06	-1.115459e-09	-3.391679e+01	-7.467240e+01
5.800000e-07	-4.880406e-06	-1.069654e-09	-3.376189e+01	-7.455928e+01
5.900000e-07	-4.857730e-06	-1.170595e-09	-3.360502e+01	-7.445140e+01
6.000000e-07	-4.834601e-06	-1.143975e-09	-3.344502e+01	-7.434833e+01
6.100000e-07	-4.811084e-06	-1.066713e-09	-3.328233e+01	-7.424952e+01
6.200000e-07	-4.787402e-06	-1.133756e-09	-3.311850e+01	-7.415429e+01
6.300000e-07	-4.763561e-06	-1.149690e-09	-3.295357e+01	-7.406189e+01
6.400000e-07	-4.739458e-06	-1.081747e-09	-3.278683e+01	-7.397151e+01
6.500000e-07	-4.715034e-06	-1.103509e-09	-3.261787e+01	-7.388227e+01
6.600000e-07	-4.690168e-06	-1.138502e-09	-3.244586e+01	-7.379326e+01
6.700000e-07	-4.664748e-06	-1.088254e-09	-3.227000e+01	-7.370356e+01
6.800000e-07	-4.638803e-06	-1.090411e-09	-3.209052e+01	-7.361225e+01
6.900000e-07	-4.612328e-06	-1.126452e-09	-3.190737e+01	-7.351844e+01
7.000000e-07	-4.585353e-06	-1.102921e-09	-3.172076e+01	-7.342127e+01
7.100000e-07	-4.557963e-06	-1.084373e-09	-3.153128e+01	-7.331997e+01
7.200000e-07	-4.530356e-06	-1.110188e-09	-3.134030e+01	-7.321381e+01
7.300000e-07	-4.502624e-06	-1.096613e-09	-3.114845e+01	-7.310219e+01
7.400000e-07	-4.474702e-06	-1.077085e-09	-3.095529e+01	-7.298456e+01
7.500000e-07	-4.446550e-06	-1.091288e-09	-3.076054e+01	-7.286053e+01
7.600000e-07	-4.418082e-06	-1.093670e-09	-3.056361e+01	-7.272979e+01
7.700000e-07	-4.389226e-06	-1.075128e-09	-3.036399e+01	-7.259216e+01
7.800000e-07	-4.360109e-06	-1.077799e-09	-3.016255e+01	-7.244758e+01
7.900000e-07	-4.330732e-06	-1.075985e-09	-2.995933e+01	-7.229611e+01
8.000000e-07	-4.301059e-06	-1.060506e-09	-2.975406e+01	-7.213792e+01
8.100000e-07	-4.271146e-06	-1.065413e-09	-2.954713e+01	-7.197326e+01
8.200000e-07	-4.240928e-06	-1.074146e-09	-2.933808e+01	-7.180253e+01
8.300000e-07	-4.210364e-06	-1.060407e-09	-2.912664e+01	-7.162616e+01
8.400000e-07	-4.179468e-06	-1.054475e-09	-2.891291e+01	-7.144467e+01
8.500000e-07	-4.148304e-06	-1.062949e-09	-2.869732e+01	-7.125865e+01
8.600000e-07	-4.116933e-06	-1.051519e-09	-2.848030e+01	-7.106870e+01
8.700000e-07	-4.085366e-06	-1.038486e-09	-2.826192e+01	-7.087547e+01
8.800000e-07	-4.053665e-06	-1.046541e-09	-2.804262e+01	-7.067961e+01
8.900000e-07	-4.021791e-06	-1.046701e-09	-2.782213e+01	-7.048175e+01
9.000000e-07	-3.989659e-06	-1.029684e-09	-2.759984e+01	-7.028249e+01
9.100000e-07	-3.957250e-06	-1.032697e-09	-2.737564e+01	-7.008242e+01
9.200000e-07	-3.924428e-06	-1.036767e-09	-2.714858e+01	-6.988204e+01
9.300000e-07	-3.891085e-06	-1.020895e-09	-2.691792e+01	-6.968180e+01
9.400000e-07	-3.857342e-06	-1.013918e-09	-2.668449e+01	-6.948208e+01
9.500000e-07	-3.823147e-06	-1.024115e-09	-2.644793e+01	-6.928315e+01
9.600000e-07	-3.788486e-06	-1.016948e-09	-2.620816e+01	-6.908520e+01
9.700000e-07	-3.753467e-06	-1.007074e-09	-2.596590e+01	-6.888834e+01
9.800000e-07	-3.718134e-06	-1.012404e-09	-2.572147e+01	-6.869257e+01
9.900000e-07	-3.682601e-06	-1.011172e-09	-2.547566e+01	-6.849777e+01
1.000000e-06	-3.646878e-06	-9.960660e-10	-2.522853e+01	-6.830377e+01
1.010000e-06	-3.610935e-06	-9.975131e-10	-2.497989e+01	-6.811028e+01
1.020000e-06	-3.574881e-06	-1.002867e-09	-2.473047e+01	-6.791694e+01
1.030000e-06	-3.538751e-06	-9.957990e-10	-2.448053e+01	-6.772332e+01
1.040000e-06	-3.502404e-06	-9.933839e-10	-2.422909e+01	-6.752893e+01
1.050000e-06	-3.465769e-06	-9.996865e-10	-2.397565e+01	-6.733322e+01
1.060000e-06	-3.428796e-06	-9.934153e-10	-2.371988e+01	-6.713562e+01
1.070000e-06	-3.391534e-06	-9.833257e-10	-2.346210e+01	-6.693554e+01
1.080000e-06	-3.354070e-06	-9.820036e-10	-2.320293e+01	-6.673237e+01
1.090000e-06	-3.316376e-06	-9.774017e-10	-2.294217e+01	-6.652551e+01
1.100000e-06	-3.278464e-06	-9.669718e-10	-2.267990e+01	-6.631438e+01
1.110000e-06	-3.240362e-06	-9.648466e-10	-2.241632e+01	-6.609845e+01
1.120000e-06	-3.202060e-06	-9.655381e-10	-2.215135e+01	-6.587720e+01
1.130000e-06	-3.163529e-06	-9.586928e-10	-2.188480e+01	-6.565021e+01
1.140000e-06	-3.124786e-06	-9.548211e-10	-2.161679e+01	-6.541709e+01
1.150000e-06	-3.085856e-06	-9.563314e-10	-2.134747e+01	-6.517753e+01
1.160000e-06	-3.046719e-06	-9.507486e-10	-2.107673e+01	-6.493131e+01
1.170000e-06	-3.007364e-06	-9.397538e-10	-2.080448e+01	-6.467828e+01
1.180000e-06	-2.967813e-06	-9.345693e-10	-2.053087e+01	-6.441836e+01
1.190000e-06	-2.928154e-06	-9.301979e-10	-2.025651e+01	-6.415159e+01
1.200000e-06	-2.888395e-06	-9.253362e-10	-1.998147e+01	-6.387803e+01
1.210000e-06	-2.848479e-06	-9.219160e-10	-1.970533e+01	-6.359787e+01
1.220000e-06	-2.808350e-06	-9.180628e-10	-1.942772e+01	-6.331132e+01
1.230000e-06	-2.768007e-06	-9.119917e-10	-1.914864e+01	-6.301868e+01
1.240000e-06	-2.727583e-06	-9.083338e-10	-1.886899e+01	-6.272029e+01
1.250000e-06	-2.686975e-06	-9.053413e-10	-1.858808e+01	-6.241651e+01
1.260000e-06	-2.646030e-06	-9.020197e-10	-1.830482e+01	-6.210775e+01
1.270000e-06	-2.604787e-06	-8.972406e-10	-1.801951e+01	-6.179441e+01
1.280000e-06	-2.563264e-06	-8.927330e-10	-1.773226e+01	-6.147691e+01
1.290000e-06	-2.521402e-06	-8.864397e-10	-1.744266e+01	-6.115566e+01
1.300000e-06	-2.479199e-06	-8.784180e-10	-1.715071e+01	-6.083101e+01
1.310000e-06	-2.436727e-06	-8.708979e-10	-1.685690e+01	-6.050332e+01
1.320000e-06	-2.393927e-06	-8.657927e-10	-1.656081e+01	-6.017287e+01
1.330000e-06	-2.350829e-06	-8.607218e-10	-1.626267e+01	-5.983991e+01
1.340000e-06	-2.307505e-06	-8.562988e-10	-1.596296e+01	-5.950460e+01
1.350000e-06	-2.264004e-06	-8.524071e-10	-1.566203e+01	-5.916705e+01
1.360000e-06	-2.220435e-06	-8.465507e-10	-1.536062e+01	-5.882729e+01
1.370000e-06	-2.176798e-06	-8.377341e-10	-1.505875e+01	-5.848525e+01
1.380000e-06	-2.133031e-06	-8.297223e-10	-1.475598e+01	-5.814080e+01
1.390000e-06	-2.089147e-06	-8.221014e-10	-1.445240e+01	-5.779373e+01
1.400000e-06	-2.045193e-06	-8.152263e-10	-1.414833e+01	-5.744375e+01
1.410000e-06	-2.001224e-06	-8.112408e-10	-1.384415e+01	-5.709048e+01
1.420000e-06	-1.957185e-06	-8.079693e-10	-1.353950e+01	-5.673347e+01
1.430000e-06	-1.913016e-06	-8.028186e-10	-1.323395e+01	-5.637224e+01
1.440000e-06	-1.868725e-06	-7.957215e-10	-1.292755e+01	-5.600621e+01
1.450000e-06	-1.824306e-06	-7.894053e-10	-1.262027e+01	-5.563478e+01
1.460000e-06	-1.779755e-06	-7.832562e-10	-1.231207e+01	-5.525729e+01
1.470000e-06	-1.735074e-06	-7.758842e-10	-1.200297e+01	-5.487306e+01
1.480000e-06	-1.690316e-06	-7.681950e-10	-1.169335e+01	-5.448139e+01
1.490000e-06	-1.645412e-06	-7.603290e-10	-1.138270e+01	-5.408157e+01
1.500000e-06	-1.600297e-06	-7.512541e-10	-1.107061e+01	-5.367287e+01
1.510000e-06	-1.555061e-06	-7.436723e-10	-1.075767e+01	-5.325459e+01
1.520000e-06	-1.509689e-06	-7.397630e-10	-1.044379e+01	-5.282600e+01
1.530000e-06	-1.464167e-06	-7.377705e-10	-1.012888e+01	-5.238644e+01
1.540000e-06	-1.418567e-06	-7.332231e-10	-9.813425e+00	-5.193523e+01
1.550000e-06	-1.372931e-06	-7.262373e-10	-9.497721e+00	-5.147172e+01
1.560000e-06	-1.327238e-06	-7.174458e-10	-9.181626e+00	-5.099531e+01
1.570000e-06	-1.281466e-06	-7.064821e-10	-8.864984e+00	-5.050541e+01
1.580000e-06	-1.235587e-06	-6.937106e-10	-8.547599e+00	-5.000145e+01
1.590000e-06	-1.189599e-06	-6.849507e-10	-8.229458e+00	-4.948290e+01
1.600000e-06	-1.143610e-06	-6.799586e-10	-7.911317e+00	-4.894923e+01
1.610000e-06	-1.097675e-06	-6.749992e-10	-7.593545e+00	-4.839995e+01
1.620000e-06	-1.051642e-06	-6.695546e-10	-7.275095e+00	-4.783455e+01
1.630000e-06	-1.005464e-06	-6.641372e-10	-6.955645e+00	-4.725256e+01
1.640000e-06	-9.591686e-07	-6.584540e-10	-6.635379e+00	-4.665347e+01
1.650000e-06	-9.126757e-07	-6.516886e-10	-6.313749e+00	-4.603677e+01
1.660000e-06	-8.661644e-07	-6.415602e-10	-5.991991e+00	-4.540195e+01
1.670000e-06	-8.196559e-07	-6.281737e-10	-5.670252e+00	-4.474845e+01
1.680000e-06	-7.730128e-07	-6.145304e-10	-5.347582e+00	-4.407570e+01
1.690000e-06	-7.263399e-07	-6.015758e-10	-5.024706e+00	-4.338306e+01
1.700000e-06	-6.796385e-07	-5.887545e-10	-4.701633e+00	-4.266988e+01
1.710000e-06	-6.329337e-07	-5.765165e-10	-4.378537e+00	-4.193546e+01
1.720000e-06	-5.862068e-07	-5.664139e-10	-4.055288e+00	-4.117904e+01
1.730000e-06	-5.394465e-07	-5.562056e-10	-3.731807e+00	-4.039982e+01
1.740000e-06	-4.926660e-07	-5.454801e-10	-3.408187e+00	-3.959696e+01
1.750000e-06	-4.457556e-07	-5.344811e-10	-3.083668e+00	-3.876957e+01
1.760000e-06	-3.987702e-07	-5.209839e-10	-2.758630e+00	-3.791675e+01
1.770000e-06	-3.517549e-07	-5.048179e-10	-2.433386e+00	-3.703754e+01
1.780000e-06	-3.046923e-07	-4.892811e-10	-2.107814e+00	-3.613098e+01
1.790000e-06	-2.575922e-07	-4.771532e-10	-1.781982e+00	-3.519610e+01
1.800000e-06	-2.105229e-07	-4.653366e-10	-1.456365e+00	-3.423196e+01
1.810000e-06	-1.634428e-07	-4.512557e-10	-1.130672e+00	-3.323761e+01
1.820000e-06	-1.163535e-07	-4.369496e-10	-8.049153e-01	-3.221215e+01
1.830000e-06	-6.933038e-08	-4.225922e-10	-4.796168e-01	-3.115474e+01
1.840000e-06	-2.230484e-08	-4.070987e-10	-1.543014e-01	-3.006461e+01
1.850000e-06	2.471718e-08	-3.903785e-10	1.709896e-01	-2.894109e+01
1.860000e-06	7.170347e-08	-3.726443e-10	4.960334e-01	-2.778359e+01
1.870000e-06	1.187214e-07	-3.523367e-10	8.212959e-01	-2.659168e+01
1.880000e-06	1.658476e-07	-3.334846e-10	1.147308e+00	-2.536504e+01
1.890000e-06	2.130098e-07	-3.183409e-10	1.473568e+00	-2.410353e+01
1.900000e-06	2.601212e-07	-3.033824e-10	1.799478e+00	-2.280717e+01
1.910000e-06	3.071917e-07	-2.866872e-10	2.125104e+00	-2.147617e+01
1.920000e-06	3.541093e-07	-2.691881e-10	2.449673e+00	-2.011092e+01
1.930000e-06	4.009709e-07	-2.496398e-10	2.773854e+00	-1.871204e+01
1.940000e-06	4.478693e-07	-2.271420e-10	3.098290e+00	-1.728032e+01
1.950000e-06	4.946611e-07	-2.048029e-10	3.421989e+00	-1.581679e+01
1.960000e-06	5.414487e-07	-1.867506e-10	3.745658e+00	-1.432267e+01
1.970000e-06	5.882561e-07	-1.709901e-10	4.069464e+00	-1.279941e+01
1.980000e-06	6.349298e-07	-1.523804e-10	4.392345e+00	-1.124864e+01
1.990000e-06	6.815018e-07	-1.312853e-10	4.714523e+00	-9.672202e+00
2.000000e-06	7.280836e-07	-1.067207e-10	5.036769e+00	-8.072102e+00
2.010000e-06	7.745807e-07	-7.783451e-11	5.358429e+00	-6.450531e+00
2.020000e-06	8.210143e-07	-4.953300e-11	5.679649e+00	-4.809828e+00
2.030000e-06	8.674781e-07	-2.602206e-11	6.001079e+00	-3.152466e+00
2.040000e-06	9.138796e-07	-6.363837e-12	6.322077e+00	-1.481038e+00
2.050000e-06	9.602357e-07	1.143940e-11	6.642761e+00	2.017722e-01
2.060000e-06	1.006537e-06	3.051791e-11	6.963068e+00	1.893207e+00
2.070000e-06	1.052678e-06	5.396145e-11	7.282262e+00	3.590462e+00
2.080000e-06	1.098827e-06	8.089325e-11	7.601513e+00	5.290707e+00
2.090000e-06	1.144920e-06	1.083543e-10	7.920376e+00	6.991113e+00
2.100000e-06	1.190828e-06	1.352243e-10	8.237963e+00	8.688871e+00
2.110000e-06	1.236688e-06	1.603408e-10	8.555217e+00	1.038122e+01
2.120000e-06	1.282522e-06	1.826232e-10	8.872291e+00	1.206548e+01
2.130000e-06	1.328290e-06	2.019771e-10	9.188906e+00	1.373903e+01
2.140000e-06	1.373947e-06	2.203648e-10	9.504751e+00	1.539939e+01
2.150000e-06	1.419522e-06	2.406901e-10	9.820033e+00	1.704419e+01
2.160000e-06	1.465019e-06	2.653246e-10	1.013477e+01	1.867121e+01
2.170000e-06	1.510385e-06	2.921842e-10	1.044861e+01	2.027838e+01
2.180000e-06	1.555555e-06	3.174684e-10	1.076108e+01	2.186380e+01
2.190000e-06	1.600583e-06	3.396672e-10	1.107258e+01	2.342574e+01
2.200000e-06	1.645525e-06	3.587614e-10	1.138348e+01	2.496265e+01
2.210000e-06	1.690377e-06	3.747161e-10	1.169377e+01	2.647317e+01
2.220000e-06	1.735053e-06	3.892752e-10	1.200282e+01	2.795613e+01
2.230000e-06	1.779568e-06	4.061090e-10	1.231077e+01	2.941052e+01
2.240000e-06	1.824000e-06	4.256839e-10	1.261815e+01	3.083554e+01
2.250000e-06	1.868288e-06	4.446441e-10	1.292453e+01	3.223055e+01
2.260000e-06	1.912460e-06	4.642946e-10	1.323010e+01	3.359507e+01
2.270000e-06	1.956521e-06	4.860688e-10	1.353491e+01	3.492879e+01
2.280000e-06	2.000481e-06	5.057926e-10	1.383901e+01	3.623155e+01
2.290000e-06	2.044369e-06	5.229892e-10	1.414263e+01	3.750330e+01
2.300000e-06	2.088204e-06	5.395320e-10	1.444587e+01	3.874415e+01
2.310000e-06	2.131994e-06	5.548407e-10	1.474881e+01	3.995429e+01
2.320000e-06	2.175698e-06	5.694711e-10	1.505114e+01	4.113402e+01
2.330000e-06	2.219327e-06	5.841971e-10	1.535296e+01	4.228371e+01
2.340000e-06	2.262930e-06	5.989820e-10	1.565460e+01	4.340381e+01
2.350000e-06	2.306390e-06	6.147957e-10	1.595525e+01	4.449483e+01
2.360000e-06	2.349563e-06	6.304419e-10	1.625391e+01	4.555730e+01
2.370000e-06	2.392460e-06	6.430163e-10	1.655066e+01	4.659180e+01
2.380000e-06	2.435196e-06	6.535368e-10	1.684631e+01	4.759891e+01
2.390000e-06	2.477669e-06	6.654977e-10	1.714013e+01	4.857925e+01
2.400000e-06	2.519808e-06	6.792995e-10	1.743164e+01	4.953341e+01
2.410000e-06	2.561707e-06	6.938369e-10	1.772149e+01	5.046199e+01
2.420000e-06	2.603260e-06	7.077053e-10	1.800895e+01	5.136556e+01
2.430000e-06	2.644418e-06	7.205929e-10	1.829367e+01	5.224470e+01
2.440000e-06	2.685272e-06	7.324639e-10	1.857629e+01	5.309993e+01
2.450000e-06	2.725922e-06	7.434287e-10	1.885750e+01	5.393179e+01
2.460000e-06	2.766346e-06	7.537501e-10	1.913715e+01	5.474074e+01
2.470000e-06	2.806565e-06	7.638749e-10	1.941538e+01	5.552725e+01
2.480000e-06	2.846613e-06	7.753047e-10	1.969243e+01	5.629176e+01
2.490000e-06	2.886529e-06	7.889478e-10	1.996856e+01	5.703468e+01
2.500000e-06	2.926333e-06	8.029517e-10	2.024391e+01	5.775638e+01
2.510000e-06	2.966035e-06	8.152554e-10	2.051857e+01	5.845724e+01
2.520000e-06	3.005633e-06	8.253785e-10	2.079250e+01	5.913760e+01
2.530000e-06	3.045014e-06	8.340745e-10	2.106493e+01	5.979778e+01
2.540000e-06	3.084162e-06	8.415755e-10	2.133575e+01	6.043813e+01
2.550000e-06	3.123048e-06	8.490745e-10	2.160476e+01	6.105894e+01
2.560000e-06	3.161717e-06	8.574746e-10	2.187227e+01	6.166053e+01
2.570000e-06	3.200168e-06	8.663716e-10	2.213827e+01	6.224322e+01
2.580000e-06	3.238385e-06	8.751535e-10	2.240264e+01	6.280732e+01
2.590000e-06	3.276391e-06	8.832815e-10	2.266556e+01	6.335315e+01
2.600000e-06	3.314159e-06	8.918773e-10	2.292684e+01	6.388104e+01
2.610000e-06	3.351749e-06	9.006134e-10	2.318688e+01	6.439135e+01
2.620000e-06	3.389153e-06	9.070824e-10	2.344563e+01	6.488443e+01
2.630000e-06	3.426366e-06	9.119398e-10	2.370307e+01	6.536064e+01
2.640000e-06	3.463319e-06	9.185951e-10	2.395870e+01	6.582038e+01
2.650000e-06	3.499933e-06	9.254776e-10	2.421199e+01	6.626406e+01
2.660000e-06	3.536257e-06	9.315675e-10	2.446328e+01	6.669208e+01
2.670000e-06	3.572307e-06	9.376551e-10	2.471266e+01	6.710489e+01
2.680000e-06	3.608259e-06	9.426581e-10	2.496137e+01	6.750294e+01
2.690000e-06	3.644158e-06	9.480426e-10	2.520972e+01	6.788669e+01
2.700000e-06	3.679861e-06	9.537112e-10	2.545670e+01	6.825661e+01
2.710000e-06	3.715428e-06	9.584643e-10	2.570275e+01	6.861319e+01
2.720000e-06	3.750842e-06	9.639113e-10	2.594774e+01	6.895692e+01
2.730000e-06	3.785990e-06	9.696502e-10	2.619089e+01	6.928831e+01
2.740000e-06	3.820785e-06	9.746193e-10	2.643160e+01	6.960786e+01
2.750000e-06	3.855160e-06	9.795967e-10	2.666940e+01	6.991607e+01
2.760000e-06	3.889029e-06	9.858757e-10	2.690370e+01	7.021344e+01
2.770000e-06	3.922266e-06	9.923796e-10	2.713363e+01	7.050048e+01
2.780000e-06	3.954963e-06	9.974121e-10	2.735982e+01	7.077768e+01
2.790000e-06	3.987314e-06	1.002760e-09	2.758362e+01	7.104552e+01
2.800000e-06	4.019390e-06	1.009045e-09	2.780552e+01	7.130449e+01
2.810000e-06	4.051283e-06	1.013796e-09	2.802615e+01	7.155504e+01
2.820000e-06	4.083037e-06	1.018597e-09	2.824582e+01	7.179763e+01
2.830000e-06	4.114664e-06	1.025028e-09	2.846461e+01	7.203268e+01
2.840000e-06	4.146139e-06	1.030379e-09	2.868234e+01	7.226061e+01
2.850000e-06	4.177318e-06	1.033946e-09	2.889804e+01	7.248182e+01
2.860000e-06	4.208167e-06	1.037932e-09	2.911145e+01	7.269666e+01
2.870000e-06	4.238733e-06	1.042762e-09	2.932290e+01	7.290550e+01
2.880000e-06	4.268982e-06	1.046864e-09	2.953215e+01	7.310864e+01
2.890000e-06	4.298911e-06	1.051162e-09	2.973920e+01	7.330639e+01
2.900000e-06	4.328544e-06	1.056772e-09	2.994420e+01	7.349901e+01
