# Temperatura_=_-7.07
# Concentracion g/m^3_=_1620.0
# C_Vs_to_Am_M_A/Vsm_=_65563218390.804596
# pendiente_HvsI_1/m_=_3716.3
# ordenada_HvsI_A/m_=_1297.0
# frecuencia_Hz_=_135107.17686479568

Tiempo_(s)	Campo_(V.s)	Magnetizacion_(V.s)	Campo_(kA/m)	Magnetizacion_(A/m)
0.000000e+00	-5.517040e-06	-1.043179e-09	-3.837693e+01	-6.995927e+01
1.000000e-08	-5.517167e-06	-1.039966e-09	-3.837781e+01	-6.988851e+01
2.000000e-08	-5.517111e-06	-1.037681e-09	-3.837742e+01	-6.981658e+01
3.000000e-08	-5.516766e-06	-1.035902e-09	-3.837502e+01	-6.974403e+01
4.000000e-08	-5.516077e-06	-1.034534e-09	-3.837023e+01	-6.967140e+01
5.000000e-08	-5.514994e-06	-1.031570e-09	-3.836269e+01	-6.959925e+01
6.000000e-08	-5.513353e-06	-1.023175e-09	-3.835128e+01	-6.952809e+01
7.000000e-08	-5.511024e-06	-1.015851e-09	-3.833508e+01	-6.945843e+01
8.000000e-08	-5.508023e-06	-1.015591e-09	-3.831420e+01	-6.939075e+01
9.000000e-08	-5.504475e-06	-1.033921e-09	-3.828952e+01	-6.932543e+01
1.000000e-07	-5.500470e-06	-1.063726e-09	-3.826166e+01	-6.926284e+01
1.100000e-07	-5.496099e-06	-1.062629e-09	-3.823126e+01	-6.920325e+01
1.200000e-07	-5.491504e-06	-9.952085e-10	-3.819930e+01	-6.914684e+01
1.300000e-07	-5.486755e-06	-9.694484e-10	-3.816626e+01	-6.909373e+01
1.400000e-07	-5.481650e-06	-1.015021e-09	-3.813075e+01	-6.904392e+01
1.500000e-07	-5.476063e-06	-1.062386e-09	-3.809189e+01	-6.899734e+01
1.600000e-07	-5.470121e-06	-1.026041e-09	-3.805055e+01	-6.895380e+01
1.700000e-07	-5.463883e-06	-9.869488e-10	-3.800716e+01	-6.891304e+01
1.800000e-07	-5.457244e-06	-1.011919e-09	-3.796098e+01	-6.887468e+01
1.900000e-07	-5.450070e-06	-1.063499e-09	-3.791108e+01	-6.883828e+01
2.000000e-07	-5.442535e-06	-1.039944e-09	-3.785867e+01	-6.880331e+01
2.100000e-07	-5.434803e-06	-1.000640e-09	-3.780488e+01	-6.876917e+01
2.200000e-07	-5.426829e-06	-1.013007e-09	-3.774941e+01	-6.873522e+01
2.300000e-07	-5.418642e-06	-1.059631e-09	-3.769247e+01	-6.870075e+01
2.400000e-07	-5.410191e-06	-1.063334e-09	-3.763368e+01	-6.866504e+01
2.500000e-07	-5.401183e-06	-1.042248e-09	-3.757102e+01	-6.862736e+01
2.600000e-07	-5.391342e-06	-1.063020e-09	-3.750256e+01	-6.858694e+01
2.700000e-07	-5.380747e-06	-1.078966e-09	-3.742886e+01	-6.854307e+01
2.800000e-07	-5.369706e-06	-1.058645e-09	-3.735206e+01	-6.849506e+01
2.900000e-07	-5.358241e-06	-1.032943e-09	-3.727231e+01	-6.844225e+01
3.000000e-07	-5.346334e-06	-1.052112e-09	-3.718949e+01	-6.838405e+01
3.100000e-07	-5.334102e-06	-1.058058e-09	-3.710439e+01	-6.831995e+01
3.200000e-07	-5.321451e-06	-1.057789e-09	-3.701640e+01	-6.824952e+01
3.300000e-07	-5.308328e-06	-1.053398e-09	-3.692511e+01	-6.817242e+01
3.400000e-07	-5.294846e-06	-1.068340e-09	-3.683133e+01	-6.808842e+01
3.500000e-07	-5.281028e-06	-1.064083e-09	-3.673521e+01	-6.799740e+01
3.600000e-07	-5.266793e-06	-1.059576e-09	-3.663619e+01	-6.789935e+01
3.700000e-07	-5.252154e-06	-1.040755e-09	-3.653436e+01	-6.779438e+01
3.800000e-07	-5.237042e-06	-1.040117e-09	-3.642924e+01	-6.768271e+01
3.900000e-07	-5.221300e-06	-1.037144e-09	-3.631974e+01	-6.756468e+01
4.000000e-07	-5.204968e-06	-1.028875e-09	-3.620613e+01	-6.744073e+01
4.100000e-07	-5.188290e-06	-1.026993e-09	-3.609012e+01	-6.731139e+01
4.200000e-07	-5.171302e-06	-1.043859e-09	-3.597195e+01	-6.717729e+01
4.300000e-07	-5.153974e-06	-1.034345e-09	-3.585141e+01	-6.703913e+01
4.400000e-07	-5.136345e-06	-1.014870e-09	-3.572878e+01	-6.689768e+01
4.500000e-07	-5.118365e-06	-1.028452e-09	-3.560371e+01	-6.675374e+01
4.600000e-07	-5.099973e-06	-1.036381e-09	-3.547578e+01	-6.660816e+01
4.700000e-07	-5.081143e-06	-1.000637e-09	-3.534480e+01	-6.646181e+01
4.800000e-07	-5.061964e-06	-9.927840e-10	-3.521139e+01	-6.631554e+01
4.900000e-07	-5.042530e-06	-1.024577e-09	-3.507620e+01	-6.617018e+01
5.000000e-07	-5.022789e-06	-1.016467e-09	-3.493888e+01	-6.602655e+01
5.100000e-07	-5.002761e-06	-9.980012e-10	-3.479956e+01	-6.588540e+01
5.200000e-07	-4.982556e-06	-1.014978e-09	-3.465902e+01	-6.574742e+01
5.300000e-07	-4.962107e-06	-1.014116e-09	-3.451678e+01	-6.561320e+01
5.400000e-07	-4.941276e-06	-9.839856e-10	-3.437187e+01	-6.548329e+01
5.500000e-07	-4.920072e-06	-9.943695e-10	-3.422437e+01	-6.535808e+01
5.600000e-07	-4.898496e-06	-1.003403e-09	-3.407429e+01	-6.523789e+01
5.700000e-07	-4.876576e-06	-9.761079e-10	-3.392181e+01	-6.512292e+01
5.800000e-07	-4.854343e-06	-9.737780e-10	-3.376716e+01	-6.501324e+01
5.900000e-07	-4.831744e-06	-1.003551e-09	-3.360996e+01	-6.490881e+01
6.000000e-07	-4.808809e-06	-9.895517e-10	-3.345042e+01	-6.480947e+01
6.100000e-07	-4.785519e-06	-9.709191e-10	-3.328841e+01	-6.471496e+01
6.200000e-07	-4.761950e-06	-9.827111e-10	-3.312446e+01	-6.462489e+01
6.300000e-07	-4.738187e-06	-9.832615e-10	-3.295917e+01	-6.453880e+01
6.400000e-07	-4.714173e-06	-9.634929e-10	-3.279213e+01	-6.445613e+01
6.500000e-07	-4.689879e-06	-9.725658e-10	-3.262313e+01	-6.437623e+01
6.600000e-07	-4.665215e-06	-9.807377e-10	-3.245157e+01	-6.429841e+01
6.700000e-07	-4.640135e-06	-9.699506e-10	-3.227712e+01	-6.422193e+01
6.800000e-07	-4.614560e-06	-9.684404e-10	-3.209921e+01	-6.414602e+01
6.900000e-07	-4.588364e-06	-9.783772e-10	-3.191699e+01	-6.406987e+01
7.000000e-07	-4.561620e-06	-9.714014e-10	-3.173095e+01	-6.399270e+01
7.100000e-07	-4.534447e-06	-9.643018e-10	-3.154194e+01	-6.391373e+01
7.200000e-07	-4.506959e-06	-9.647884e-10	-3.135073e+01	-6.383222e+01
7.300000e-07	-4.479214e-06	-9.594937e-10	-3.115774e+01	-6.374747e+01
7.400000e-07	-4.451310e-06	-9.515572e-10	-3.096363e+01	-6.365884e+01
7.500000e-07	-4.423279e-06	-9.534999e-10	-3.076865e+01	-6.356576e+01
7.600000e-07	-4.394960e-06	-9.579683e-10	-3.057166e+01	-6.346775e+01
7.700000e-07	-4.366371e-06	-9.590887e-10	-3.037279e+01	-6.336440e+01
7.800000e-07	-4.337434e-06	-9.574142e-10	-3.017150e+01	-6.325541e+01
7.900000e-07	-4.308099e-06	-9.544907e-10	-2.996745e+01	-6.314058e+01
8.000000e-07	-4.278457e-06	-9.500539e-10	-2.976126e+01	-6.301979e+01
8.100000e-07	-4.248520e-06	-9.430211e-10	-2.955301e+01	-6.289304e+01
8.200000e-07	-4.218334e-06	-9.378509e-10	-2.934303e+01	-6.276043e+01
8.300000e-07	-4.187901e-06	-9.358907e-10	-2.913134e+01	-6.262214e+01
8.400000e-07	-4.157199e-06	-9.380520e-10	-2.891777e+01	-6.247844e+01
8.500000e-07	-4.126227e-06	-9.395447e-10	-2.870233e+01	-6.232968e+01
8.600000e-07	-4.094971e-06	-9.410699e-10	-2.848492e+01	-6.217628e+01
8.700000e-07	-4.063461e-06	-9.380156e-10	-2.826573e+01	-6.201871e+01
8.800000e-07	-4.031792e-06	-9.340406e-10	-2.804544e+01	-6.185750e+01
8.900000e-07	-3.999938e-06	-9.275628e-10	-2.782386e+01	-6.169320e+01
9.000000e-07	-3.967846e-06	-9.238096e-10	-2.760062e+01	-6.152637e+01
9.100000e-07	-3.935538e-06	-9.209681e-10	-2.737589e+01	-6.135761e+01
9.200000e-07	-3.903025e-06	-9.180925e-10	-2.714972e+01	-6.118747e+01
9.300000e-07	-3.870183e-06	-9.147375e-10	-2.692128e+01	-6.101651e+01
9.400000e-07	-3.836895e-06	-9.153642e-10	-2.668972e+01	-6.084524e+01
9.500000e-07	-3.803158e-06	-9.152069e-10	-2.645504e+01	-6.067413e+01
9.600000e-07	-3.768954e-06	-9.112059e-10	-2.621711e+01	-6.050360e+01
9.700000e-07	-3.734290e-06	-9.068489e-10	-2.597599e+01	-6.033401e+01
9.800000e-07	-3.699220e-06	-9.039607e-10	-2.573204e+01	-6.016564e+01
9.900000e-07	-3.663855e-06	-8.964390e-10	-2.548604e+01	-5.999871e+01
1.000000e-06	-3.628268e-06	-8.910365e-10	-2.523849e+01	-5.983333e+01
1.010000e-06	-3.592475e-06	-8.898647e-10	-2.498951e+01	-5.966958e+01
1.020000e-06	-3.556553e-06	-8.899465e-10	-2.473964e+01	-5.950742e+01
1.030000e-06	-3.520525e-06	-8.886885e-10	-2.448902e+01	-5.934675e+01
1.040000e-06	-3.484322e-06	-8.881590e-10	-2.423719e+01	-5.918738e+01
1.050000e-06	-3.447912e-06	-8.859794e-10	-2.398393e+01	-5.902907e+01
1.060000e-06	-3.411281e-06	-8.793234e-10	-2.372912e+01	-5.887151e+01
1.070000e-06	-3.374365e-06	-8.728248e-10	-2.347233e+01	-5.871432e+01
1.080000e-06	-3.337159e-06	-8.693743e-10	-2.321352e+01	-5.855711e+01
1.090000e-06	-3.299724e-06	-8.689288e-10	-2.295312e+01	-5.839941e+01
1.100000e-06	-3.262017e-06	-8.678872e-10	-2.269082e+01	-5.824075e+01
1.110000e-06	-3.224051e-06	-8.661682e-10	-2.242673e+01	-5.808063e+01
1.120000e-06	-3.185941e-06	-8.629953e-10	-2.216164e+01	-5.791855e+01
1.130000e-06	-3.147633e-06	-8.570734e-10	-2.189516e+01	-5.775402e+01
1.140000e-06	-3.109044e-06	-8.517238e-10	-2.162673e+01	-5.758655e+01
1.150000e-06	-3.070197e-06	-8.497133e-10	-2.135651e+01	-5.741568e+01
1.160000e-06	-3.031218e-06	-8.461270e-10	-2.108537e+01	-5.724098e+01
1.170000e-06	-2.992095e-06	-8.430777e-10	-2.081323e+01	-5.706206e+01
1.180000e-06	-2.952695e-06	-8.407809e-10	-2.053916e+01	-5.687857e+01
1.190000e-06	-2.913046e-06	-8.396173e-10	-2.026335e+01	-5.669020e+01
1.200000e-06	-2.873242e-06	-8.358591e-10	-1.998648e+01	-5.649672e+01
1.210000e-06	-2.833358e-06	-8.301639e-10	-1.970904e+01	-5.629792e+01
1.220000e-06	-2.793371e-06	-8.238693e-10	-1.943089e+01	-5.609368e+01
1.230000e-06	-2.753234e-06	-8.165415e-10	-1.915169e+01	-5.588390e+01
1.240000e-06	-2.712953e-06	-8.129548e-10	-1.887150e+01	-5.566856e+01
1.250000e-06	-2.672523e-06	-8.141650e-10	-1.859026e+01	-5.544766e+01
1.260000e-06	-2.631897e-06	-8.165791e-10	-1.830767e+01	-5.522129e+01
1.270000e-06	-2.591086e-06	-8.162707e-10	-1.802378e+01	-5.498952e+01
1.280000e-06	-2.550080e-06	-8.118620e-10	-1.773854e+01	-5.475251e+01
1.290000e-06	-2.508791e-06	-8.061408e-10	-1.745133e+01	-5.451040e+01
1.300000e-06	-2.467232e-06	-7.994050e-10	-1.716224e+01	-5.426337e+01
1.310000e-06	-2.425295e-06	-7.927734e-10	-1.687052e+01	-5.401161e+01
1.320000e-06	-2.383033e-06	-7.891702e-10	-1.657655e+01	-5.375531e+01
1.330000e-06	-2.340499e-06	-7.867144e-10	-1.628068e+01	-5.349465e+01
1.340000e-06	-2.297642e-06	-7.839890e-10	-1.598256e+01	-5.322980e+01
1.350000e-06	-2.254602e-06	-7.811518e-10	-1.568317e+01	-5.296090e+01
1.360000e-06	-2.211355e-06	-7.757561e-10	-1.538234e+01	-5.268807e+01
1.370000e-06	-2.167940e-06	-7.696919e-10	-1.508035e+01	-5.241141e+01
1.380000e-06	-2.124363e-06	-7.650601e-10	-1.477722e+01	-5.213094e+01
1.390000e-06	-2.080585e-06	-7.598298e-10	-1.447270e+01	-5.184667e+01
1.400000e-06	-2.036673e-06	-7.550923e-10	-1.416724e+01	-5.155855e+01
1.410000e-06	-1.992704e-06	-7.508432e-10	-1.386139e+01	-5.126648e+01
1.420000e-06	-1.948689e-06	-7.467731e-10	-1.355522e+01	-5.097030e+01
1.430000e-06	-1.904588e-06	-7.423103e-10	-1.324845e+01	-5.066981e+01
1.440000e-06	-1.860459e-06	-7.377444e-10	-1.294149e+01	-5.036473e+01
1.450000e-06	-1.816291e-06	-7.335594e-10	-1.263425e+01	-5.005474e+01
1.460000e-06	-1.771983e-06	-7.278091e-10	-1.232604e+01	-4.973948e+01
1.470000e-06	-1.727468e-06	-7.206912e-10	-1.201639e+01	-4.941853e+01
1.480000e-06	-1.682809e-06	-7.140392e-10	-1.170574e+01	-4.909140e+01
1.490000e-06	-1.638084e-06	-7.076934e-10	-1.139463e+01	-4.875759e+01
1.500000e-06	-1.593283e-06	-6.997780e-10	-1.108299e+01	-4.841653e+01
1.510000e-06	-1.548273e-06	-6.937439e-10	-1.076990e+01	-4.806763e+01
1.520000e-06	-1.503124e-06	-6.900971e-10	-1.045584e+01	-4.771027e+01
1.530000e-06	-1.458008e-06	-6.875359e-10	-1.014201e+01	-4.734377e+01
1.540000e-06	-1.412832e-06	-6.821078e-10	-9.827758e+00	-4.696746e+01
1.550000e-06	-1.367514e-06	-6.725804e-10	-9.512526e+00	-4.658061e+01
1.560000e-06	-1.322081e-06	-6.610793e-10	-9.196488e+00	-4.618251e+01
1.570000e-06	-1.276537e-06	-6.511033e-10	-8.879684e+00	-4.577240e+01
1.580000e-06	-1.230905e-06	-6.435394e-10	-8.562262e+00	-4.534952e+01
1.590000e-06	-1.185278e-06	-6.382611e-10	-8.244882e+00	-4.491309e+01
1.600000e-06	-1.139553e-06	-6.379940e-10	-7.926814e+00	-4.446234e+01
1.610000e-06	-1.093645e-06	-6.369882e-10	-7.607475e+00	-4.399646e+01
1.620000e-06	-1.047660e-06	-6.312728e-10	-7.287600e+00	-4.351465e+01
1.630000e-06	-1.001592e-06	-6.212119e-10	-6.967148e+00	-4.301611e+01
1.640000e-06	-9.554782e-07	-6.090303e-10	-6.646375e+00	-4.250002e+01
1.650000e-06	-9.093567e-07	-5.975068e-10	-6.325550e+00	-4.196557e+01
1.660000e-06	-8.631267e-07	-5.852591e-10	-6.003972e+00	-4.141192e+01
1.670000e-06	-8.167936e-07	-5.742462e-10	-5.681675e+00	-4.083826e+01
1.680000e-06	-7.704064e-07	-5.653887e-10	-5.359002e+00	-4.024375e+01
1.690000e-06	-7.240585e-07	-5.554799e-10	-5.036603e+00	-3.962757e+01
1.700000e-06	-6.777623e-07	-5.439550e-10	-4.714563e+00	-3.898888e+01
1.710000e-06	-6.313995e-07	-5.302080e-10	-4.392061e+00	-3.832686e+01
1.720000e-06	-5.849435e-07	-5.164625e-10	-4.068909e+00	-3.764069e+01
1.730000e-06	-5.384516e-07	-5.036722e-10	-3.745508e+00	-3.692955e+01
1.740000e-06	-4.919074e-07	-4.905724e-10	-3.421743e+00	-3.619266e+01
1.750000e-06	-4.452791e-07	-4.767989e-10	-3.097394e+00	-3.542922e+01
1.760000e-06	-3.986100e-07	-4.619888e-10	-2.772760e+00	-3.463848e+01
1.770000e-06	-3.518871e-07	-4.485197e-10	-2.447752e+00	-3.381971e+01
1.780000e-06	-3.051353e-07	-4.367260e-10	-2.122543e+00	-3.297221e+01
1.790000e-06	-2.584284e-07	-4.244762e-10	-1.797646e+00	-3.209535e+01
1.800000e-06	-2.116887e-07	-4.126470e-10	-1.472522e+00	-3.118851e+01
1.810000e-06	-1.648752e-07	-3.990056e-10	-1.146884e+00	-3.025115e+01
1.820000e-06	-1.180350e-07	-3.834123e-10	-8.210600e-01	-2.928281e+01
1.830000e-06	-7.125438e-08	-3.675375e-10	-4.956506e-01	-2.828308e+01
1.840000e-06	-2.450953e-08	-3.522955e-10	-1.704901e-01	-2.725165e+01
1.850000e-06	2.224450e-08	-3.369965e-10	1.547343e-01	-2.618831e+01
1.860000e-06	6.896317e-08	-3.204347e-10	4.797128e-01	-2.509293e+01
1.870000e-06	1.156887e-07	-3.030230e-10	8.047391e-01	-2.396551e+01
1.880000e-06	1.624360e-07	-2.856042e-10	1.129917e+00	-2.280616e+01
1.890000e-06	2.092348e-07	-2.684022e-10	1.455452e+00	-2.161510e+01
1.900000e-06	2.560063e-07	-2.516620e-10	1.780798e+00	-2.039271e+01
1.910000e-06	3.027044e-07	-2.353262e-10	2.105634e+00	-1.913948e+01
1.920000e-06	3.494014e-07	-2.192264e-10	2.430462e+00	-1.785604e+01
1.930000e-06	3.960653e-07	-2.015598e-10	2.755059e+00	-1.654316e+01
1.940000e-06	4.427196e-07	-1.799587e-10	3.079590e+00	-1.520177e+01
1.950000e-06	4.893965e-07	-1.561763e-10	3.404277e+00	-1.383290e+01
1.960000e-06	5.359910e-07	-1.347756e-10	3.728392e+00	-1.243777e+01
1.970000e-06	5.825441e-07	-1.172581e-10	4.052219e+00	-1.101769e+01
1.980000e-06	6.290248e-07	-1.010252e-10	4.375542e+00	-9.574117e+00
1.990000e-06	6.753485e-07	-8.545991e-11	4.697773e+00	-8.108644e+00
2.000000e-06	7.216174e-07	-6.705294e-11	5.019623e+00	-6.622964e+00
2.010000e-06	7.678829e-07	-4.370921e-11	5.341449e+00	-5.118885e+00
2.020000e-06	8.141628e-07	-1.635881e-11	5.663375e+00	-3.598309e+00
2.030000e-06	8.604097e-07	9.575110e-12	5.985072e+00	-2.063229e+00
2.040000e-06	9.065249e-07	3.142950e-11	6.305852e+00	-5.157092e-01
2.050000e-06	9.525884e-07	5.112386e-11	6.626274e+00	1.042122e+00
2.060000e-06	9.986796e-07	7.024292e-11	6.946887e+00	2.608088e+00
2.070000e-06	1.044755e-06	8.872341e-11	7.267389e+00	4.179978e+00
2.080000e-06	1.090677e-06	1.077024e-10	7.586830e+00	5.755558e+00
2.090000e-06	1.136447e-06	1.297819e-10	7.905209e+00	7.332587e+00
2.100000e-06	1.182214e-06	1.543721e-10	8.223566e+00	8.908833e+00
2.110000e-06	1.227941e-06	1.797973e-10	8.541647e+00	1.048208e+01
2.120000e-06	1.273618e-06	2.062265e-10	8.859379e+00	1.205015e+01
2.130000e-06	1.319170e-06	2.306283e-10	9.176243e+00	1.361091e+01
2.140000e-06	1.364517e-06	2.503119e-10	9.491678e+00	1.516228e+01
2.150000e-06	1.409722e-06	2.675028e-10	9.806128e+00	1.670226e+01
2.160000e-06	1.454851e-06	2.841104e-10	1.012005e+01	1.822890e+01
2.170000e-06	1.499872e-06	3.013838e-10	1.043322e+01	1.974039e+01
2.180000e-06	1.544712e-06	3.219076e-10	1.074513e+01	2.123496e+01
2.190000e-06	1.589457e-06	3.466266e-10	1.105638e+01	2.271097e+01
2.200000e-06	1.634167e-06	3.713281e-10	1.136738e+01	2.416690e+01
2.210000e-06	1.678752e-06	3.930843e-10	1.167752e+01	2.560132e+01
2.220000e-06	1.723184e-06	4.109690e-10	1.198659e+01	2.701293e+01
2.230000e-06	1.767521e-06	4.273726e-10	1.229500e+01	2.840053e+01
2.240000e-06	1.811749e-06	4.426012e-10	1.260266e+01	2.976308e+01
2.250000e-06	1.855861e-06	4.575729e-10	1.290950e+01	3.109961e+01
2.260000e-06	1.899920e-06	4.755173e-10	1.321598e+01	3.240931e+01
2.270000e-06	1.943953e-06	4.962901e-10	1.352228e+01	3.369148e+01
2.280000e-06	1.987920e-06	5.186706e-10	1.382812e+01	3.494551e+01
2.290000e-06	2.031824e-06	5.401992e-10	1.413351e+01	3.617093e+01
2.300000e-06	2.075648e-06	5.574706e-10	1.443836e+01	3.736737e+01
2.310000e-06	2.119354e-06	5.706711e-10	1.474238e+01	3.853458e+01
2.320000e-06	2.163003e-06	5.823192e-10	1.504601e+01	3.967238e+01
2.330000e-06	2.206588e-06	5.947134e-10	1.534919e+01	4.078070e+01
2.340000e-06	2.250033e-06	6.091143e-10	1.565139e+01	4.185958e+01
2.350000e-06	2.293334e-06	6.259334e-10	1.595260e+01	4.290912e+01
2.360000e-06	2.336420e-06	6.427103e-10	1.625230e+01	4.392950e+01
2.370000e-06	2.379088e-06	6.576837e-10	1.654910e+01	4.492098e+01
2.380000e-06	2.421305e-06	6.714664e-10	1.684278e+01	4.588389e+01
2.390000e-06	2.463173e-06	6.833787e-10	1.713401e+01	4.681862e+01
2.400000e-06	2.504694e-06	6.939949e-10	1.742283e+01	4.772561e+01
2.410000e-06	2.545905e-06	7.049768e-10	1.770950e+01	4.860535e+01
2.420000e-06	2.586874e-06	7.164477e-10	1.799449e+01	4.945837e+01
2.430000e-06	2.627643e-06	7.289518e-10	1.827808e+01	5.028526e+01
2.440000e-06	2.668173e-06	7.421454e-10	1.856001e+01	5.108661e+01
2.450000e-06	2.708486e-06	7.545843e-10	1.884043e+01	5.186305e+01
2.460000e-06	2.748617e-06	7.654831e-10	1.911958e+01	5.261524e+01
2.470000e-06	2.788639e-06	7.753360e-10	1.939797e+01	5.334383e+01
2.480000e-06	2.828575e-06	7.844379e-10	1.967577e+01	5.404951e+01
2.490000e-06	2.868322e-06	7.931462e-10	1.995225e+01	5.473295e+01
2.500000e-06	2.907970e-06	8.027721e-10	2.022805e+01	5.539483e+01
2.510000e-06	2.947514e-06	8.125594e-10	2.050312e+01	5.603581e+01
2.520000e-06	2.986847e-06	8.207274e-10	2.077672e+01	5.665657e+01
2.530000e-06	3.025989e-06	8.283649e-10	2.104900e+01	5.725773e+01
2.540000e-06	3.064933e-06	8.376380e-10	2.131989e+01	5.783993e+01
2.550000e-06	3.103663e-06	8.462364e-10	2.158931e+01	5.840376e+01
2.560000e-06	3.142160e-06	8.530901e-10	2.185709e+01	5.894980e+01
2.570000e-06	3.180395e-06	8.592988e-10	2.212306e+01	5.947858e+01
2.580000e-06	3.218408e-06	8.642723e-10	2.238748e+01	5.999063e+01
2.590000e-06	3.256259e-06	8.682511e-10	2.265077e+01	6.048640e+01
2.600000e-06	3.293969e-06	8.736266e-10	2.291309e+01	6.096635e+01
2.610000e-06	3.331448e-06	8.817659e-10	2.317380e+01	6.143085e+01
2.620000e-06	3.368653e-06	8.899319e-10	2.343259e+01	6.188029e+01
2.630000e-06	3.405591e-06	8.964934e-10	2.368954e+01	6.231497e+01
2.640000e-06	3.442239e-06	9.027692e-10	2.394446e+01	6.273519e+01
2.650000e-06	3.478614e-06	9.087688e-10	2.419749e+01	6.314119e+01
2.660000e-06	3.514795e-06	9.130800e-10	2.444917e+01	6.353319e+01
2.670000e-06	3.550858e-06	9.159912e-10	2.470002e+01	6.391138e+01
2.680000e-06	3.586804e-06	9.183997e-10	2.495007e+01	6.427591e+01
2.690000e-06	3.622609e-06	9.211622e-10	2.519913e+01	6.462693e+01
2.700000e-06	3.658275e-06	9.247563e-10	2.544722e+01	6.496455e+01
2.710000e-06	3.693746e-06	9.281181e-10	2.569396e+01	6.528887e+01
2.720000e-06	3.728829e-06	9.335501e-10	2.593800e+01	6.560001e+01
2.730000e-06	3.763533e-06	9.406920e-10	2.617941e+01	6.589804e+01
2.740000e-06	3.797894e-06	9.459043e-10	2.641842e+01	6.618307e+01
2.750000e-06	3.831771e-06	9.489011e-10	2.665407e+01	6.645521e+01
2.760000e-06	3.865149e-06	9.512756e-10	2.688626e+01	6.671457e+01
2.770000e-06	3.898069e-06	9.542488e-10	2.711525e+01	6.696131e+01
2.780000e-06	3.930561e-06	9.578247e-10	2.734126e+01	6.719558e+01
2.790000e-06	3.962736e-06	9.620817e-10	2.756508e+01	6.741758e+01
2.800000e-06	3.994753e-06	9.665590e-10	2.778779e+01	6.762754e+01
2.810000e-06	4.026692e-06	9.704622e-10	2.800996e+01	6.782572e+01
2.820000e-06	4.058495e-06	9.738166e-10	2.823118e+01	6.801242e+01
2.830000e-06	4.090115e-06	9.762547e-10	2.845114e+01	6.818798e+01
2.840000e-06	4.121466e-06	9.767099e-10	2.866922e+01	6.835278e+01
2.850000e-06	4.152490e-06	9.776226e-10	2.888502e+01	6.850725e+01
2.860000e-06	4.183230e-06	9.812189e-10	2.909885e+01	6.865185e+01
2.870000e-06	4.213623e-06	9.866298e-10	2.931027e+01	6.878706e+01
2.880000e-06	4.243647e-06	9.923563e-10	2.951912e+01	6.891342e+01
2.890000e-06	4.273356e-06	9.966643e-10	2.972577e+01	6.903148e+01
2.900000e-06	4.302834e-06	9.995500e-10	2.993082e+01	6.914183e+01
