# Temperatura_=_-17.64
# Concentracion g/m^3_=_1620.0
# C_Vs_to_Am_M_A/Vsm_=_65563218390.804596
# pendiente_HvsI_1/m_=_3716.3
# ordenada_HvsI_A/m_=_1297.0
# frecuencia_Hz_=_135113.9398898307

Tiempo_(s)	Campo_(V.s)	Magnetizacion_(V.s)	Campo_(kA/m)	Magnetizacion_(A/m)
0.000000e+00	-5.512302e-06	-8.802576e-10	-3.836006e+01	-5.842529e+01
1.000000e-08	-5.512413e-06	-8.808855e-10	-3.836083e+01	-5.846864e+01
2.000000e-08	-5.512339e-06	-8.800994e-10	-3.836032e+01	-5.851601e+01
3.000000e-08	-5.511914e-06	-8.785374e-10	-3.835736e+01	-5.856735e+01
4.000000e-08	-5.511049e-06	-8.804875e-10	-3.835134e+01	-5.862259e+01
5.000000e-08	-5.509700e-06	-8.906687e-10	-3.834195e+01	-5.868153e+01
6.000000e-08	-5.507830e-06	-9.095553e-10	-3.832894e+01	-5.874392e+01
7.000000e-08	-5.505366e-06	-8.913267e-10	-3.831179e+01	-5.880945e+01
8.000000e-08	-5.502348e-06	-7.985329e-10	-3.829079e+01	-5.887769e+01
9.000000e-08	-5.498914e-06	-7.654255e-10	-3.826689e+01	-5.894816e+01
1.000000e-07	-5.494993e-06	-8.875576e-10	-3.823961e+01	-5.902030e+01
1.100000e-07	-5.490614e-06	-1.006153e-09	-3.820914e+01	-5.909347e+01
1.200000e-07	-5.485966e-06	-8.932440e-10	-3.817679e+01	-5.916698e+01
1.300000e-07	-5.481092e-06	-7.612862e-10	-3.814287e+01	-5.924009e+01
1.400000e-07	-5.475906e-06	-8.251855e-10	-3.810678e+01	-5.931199e+01
1.500000e-07	-5.470282e-06	-9.618796e-10	-3.806764e+01	-5.938186e+01
1.600000e-07	-5.464260e-06	-8.935891e-10	-3.802573e+01	-5.944886e+01
1.700000e-07	-5.457964e-06	-7.732829e-10	-3.798192e+01	-5.951214e+01
1.800000e-07	-5.451274e-06	-8.264535e-10	-3.793536e+01	-5.957086e+01
1.900000e-07	-5.444137e-06	-9.990524e-10	-3.788570e+01	-5.962419e+01
2.000000e-07	-5.436650e-06	-9.596299e-10	-3.783360e+01	-5.967136e+01
2.100000e-07	-5.428975e-06	-8.449811e-10	-3.778019e+01	-5.971163e+01
2.200000e-07	-5.421035e-06	-8.198780e-10	-3.772493e+01	-5.974435e+01
2.300000e-07	-5.412708e-06	-9.247120e-10	-3.766699e+01	-5.976893e+01
2.400000e-07	-5.404082e-06	-9.314879e-10	-3.760696e+01	-5.978489e+01
2.500000e-07	-5.395013e-06	-8.823515e-10	-3.754385e+01	-5.979183e+01
2.600000e-07	-5.385178e-06	-8.807191e-10	-3.747541e+01	-5.978947e+01
2.700000e-07	-5.374611e-06	-9.042444e-10	-3.740187e+01	-5.977767e+01
2.800000e-07	-5.363428e-06	-8.773580e-10	-3.732405e+01	-5.975638e+01
2.900000e-07	-5.351773e-06	-8.334504e-10	-3.724294e+01	-5.972570e+01
3.000000e-07	-5.339826e-06	-8.596203e-10	-3.715980e+01	-5.968586e+01
3.100000e-07	-5.327551e-06	-8.891135e-10	-3.707438e+01	-5.963721e+01
3.200000e-07	-5.314834e-06	-9.072789e-10	-3.698588e+01	-5.958021e+01
3.300000e-07	-5.301654e-06	-8.606734e-10	-3.689416e+01	-5.951546e+01
3.400000e-07	-5.288101e-06	-8.829127e-10	-3.679985e+01	-5.944366e+01
3.500000e-07	-5.274234e-06	-8.852681e-10	-3.670335e+01	-5.936560e+01
3.600000e-07	-5.259973e-06	-8.799158e-10	-3.660411e+01	-5.928218e+01
3.700000e-07	-5.245202e-06	-8.373599e-10	-3.650131e+01	-5.919434e+01
3.800000e-07	-5.229998e-06	-8.998504e-10	-3.639551e+01	-5.910312e+01
3.900000e-07	-5.214144e-06	-8.887002e-10	-3.628518e+01	-5.900956e+01
4.000000e-07	-5.197681e-06	-8.329999e-10	-3.617062e+01	-5.891477e+01
4.100000e-07	-5.180832e-06	-8.483188e-10	-3.605337e+01	-5.881984e+01
4.200000e-07	-5.163696e-06	-9.312226e-10	-3.593412e+01	-5.872586e+01
4.300000e-07	-5.146319e-06	-8.663180e-10	-3.581319e+01	-5.863389e+01
4.400000e-07	-5.128611e-06	-8.172006e-10	-3.568996e+01	-5.854497e+01
4.500000e-07	-5.110626e-06	-9.061326e-10	-3.556480e+01	-5.846006e+01
4.600000e-07	-5.092295e-06	-9.264811e-10	-3.543724e+01	-5.838006e+01
4.700000e-07	-5.073491e-06	-8.143995e-10	-3.530638e+01	-5.830579e+01
4.800000e-07	-5.054311e-06	-8.335937e-10	-3.517291e+01	-5.823797e+01
4.900000e-07	-5.034852e-06	-9.065417e-10	-3.503749e+01	-5.817721e+01
5.000000e-07	-5.015109e-06	-8.532272e-10	-3.490010e+01	-5.812401e+01
5.100000e-07	-4.995141e-06	-8.393227e-10	-3.476114e+01	-5.807876e+01
5.200000e-07	-4.974967e-06	-9.238833e-10	-3.462075e+01	-5.804174e+01
5.300000e-07	-4.954513e-06	-8.911019e-10	-3.447841e+01	-5.801307e+01
5.400000e-07	-4.933700e-06	-8.187551e-10	-3.433358e+01	-5.799277e+01
5.500000e-07	-4.912451e-06	-8.826343e-10	-3.418570e+01	-5.798077e+01
5.600000e-07	-4.890774e-06	-8.957125e-10	-3.403485e+01	-5.797683e+01
5.700000e-07	-4.868764e-06	-8.202894e-10	-3.388169e+01	-5.798065e+01
5.800000e-07	-4.846474e-06	-8.441747e-10	-3.372657e+01	-5.799181e+01
5.900000e-07	-4.823892e-06	-9.153851e-10	-3.356942e+01	-5.800981e+01
6.000000e-07	-4.800988e-06	-8.726590e-10	-3.341003e+01	-5.803407e+01
6.100000e-07	-4.777715e-06	-8.587965e-10	-3.324808e+01	-5.806395e+01
6.200000e-07	-4.754094e-06	-8.998010e-10	-3.308370e+01	-5.809876e+01
6.300000e-07	-4.730219e-06	-8.854562e-10	-3.291755e+01	-5.813776e+01
6.400000e-07	-4.706131e-06	-8.457737e-10	-3.274992e+01	-5.818020e+01
6.500000e-07	-4.681795e-06	-8.801323e-10	-3.258057e+01	-5.822530e+01
6.600000e-07	-4.657047e-06	-8.846226e-10	-3.240835e+01	-5.827230e+01
6.700000e-07	-4.631825e-06	-8.673533e-10	-3.223283e+01	-5.832045e+01
6.800000e-07	-4.606105e-06	-8.807755e-10	-3.205384e+01	-5.836900e+01
6.900000e-07	-4.579815e-06	-9.016802e-10	-3.187089e+01	-5.841728e+01
7.000000e-07	-4.552964e-06	-8.771503e-10	-3.168404e+01	-5.846462e+01
7.100000e-07	-4.525726e-06	-8.729453e-10	-3.149448e+01	-5.851042e+01
7.200000e-07	-4.498221e-06	-8.735230e-10	-3.130308e+01	-5.855414e+01
7.300000e-07	-4.470482e-06	-8.658598e-10	-3.111004e+01	-5.859529e+01
7.400000e-07	-4.442586e-06	-8.636917e-10	-3.091592e+01	-5.863347e+01
7.500000e-07	-4.414475e-06	-8.809658e-10	-3.072029e+01	-5.866830e+01
7.600000e-07	-4.386097e-06	-8.827769e-10	-3.052281e+01	-5.869952e+01
7.700000e-07	-4.357448e-06	-8.843301e-10	-3.032344e+01	-5.872689e+01
7.800000e-07	-4.328494e-06	-8.847027e-10	-3.012195e+01	-5.875025e+01
7.900000e-07	-4.299284e-06	-8.760749e-10	-2.991868e+01	-5.876951e+01
8.000000e-07	-4.269761e-06	-8.691572e-10	-2.971323e+01	-5.878462e+01
8.100000e-07	-4.239830e-06	-8.741835e-10	-2.950494e+01	-5.879556e+01
8.200000e-07	-4.209609e-06	-8.744993e-10	-2.929463e+01	-5.880239e+01
8.300000e-07	-4.179173e-06	-8.705531e-10	-2.908283e+01	-5.880518e+01
8.400000e-07	-4.148472e-06	-8.785391e-10	-2.886918e+01	-5.880402e+01
8.500000e-07	-4.117487e-06	-8.829804e-10	-2.865355e+01	-5.879905e+01
8.600000e-07	-4.086184e-06	-8.783262e-10	-2.843572e+01	-5.879039e+01
8.700000e-07	-4.054672e-06	-8.731658e-10	-2.821643e+01	-5.877819e+01
8.800000e-07	-4.023021e-06	-8.766679e-10	-2.799617e+01	-5.876259e+01
8.900000e-07	-3.991165e-06	-8.687795e-10	-2.777449e+01	-5.874374e+01
9.000000e-07	-3.959103e-06	-8.662895e-10	-2.755137e+01	-5.872176e+01
9.100000e-07	-3.926756e-06	-8.680759e-10	-2.732626e+01	-5.869677e+01
9.200000e-07	-3.894041e-06	-8.707846e-10	-2.709860e+01	-5.866888e+01
9.300000e-07	-3.860977e-06	-8.659190e-10	-2.686850e+01	-5.863818e+01
9.400000e-07	-3.827542e-06	-8.715679e-10	-2.663583e+01	-5.860472e+01
9.500000e-07	-3.793621e-06	-8.714209e-10	-2.639978e+01	-5.856856e+01
9.600000e-07	-3.759321e-06	-8.640715e-10	-2.616108e+01	-5.852974e+01
9.700000e-07	-3.724660e-06	-8.542495e-10	-2.591988e+01	-5.848825e+01
9.800000e-07	-3.689576e-06	-8.543055e-10	-2.567573e+01	-5.844412e+01
9.900000e-07	-3.654225e-06	-8.469933e-10	-2.542972e+01	-5.839732e+01
1.000000e-06	-3.618647e-06	-8.428562e-10	-2.518213e+01	-5.834784e+01
1.010000e-06	-3.582898e-06	-8.446168e-10	-2.493336e+01	-5.829565e+01
1.020000e-06	-3.547024e-06	-8.497488e-10	-2.468371e+01	-5.824074e+01
1.030000e-06	-3.510990e-06	-8.482354e-10	-2.443295e+01	-5.818307e+01
1.040000e-06	-3.474760e-06	-8.502363e-10	-2.418083e+01	-5.812263e+01
1.050000e-06	-3.438270e-06	-8.505622e-10	-2.392689e+01	-5.805943e+01
1.060000e-06	-3.401543e-06	-8.443060e-10	-2.367131e+01	-5.799346e+01
1.070000e-06	-3.364554e-06	-8.398988e-10	-2.341390e+01	-5.792475e+01
1.080000e-06	-3.327298e-06	-8.417473e-10	-2.315464e+01	-5.785334e+01
1.090000e-06	-3.289768e-06	-8.420008e-10	-2.289346e+01	-5.777929e+01
1.100000e-06	-3.251990e-06	-8.410335e-10	-2.263057e+01	-5.770267e+01
1.110000e-06	-3.214078e-06	-8.428171e-10	-2.236674e+01	-5.762358e+01
1.120000e-06	-3.175986e-06	-8.436943e-10	-2.210166e+01	-5.754213e+01
1.130000e-06	-3.137735e-06	-8.425553e-10	-2.183547e+01	-5.745845e+01
1.140000e-06	-3.099275e-06	-8.413777e-10	-2.156783e+01	-5.737267e+01
1.150000e-06	-3.060533e-06	-8.417034e-10	-2.129822e+01	-5.728495e+01
1.160000e-06	-3.021555e-06	-8.363492e-10	-2.102697e+01	-5.719545e+01
1.170000e-06	-2.982336e-06	-8.312615e-10	-2.075405e+01	-5.710431e+01
1.180000e-06	-2.942939e-06	-8.290208e-10	-2.047988e+01	-5.701170e+01
1.190000e-06	-2.903381e-06	-8.319489e-10	-2.020460e+01	-5.691776e+01
1.200000e-06	-2.863682e-06	-8.323066e-10	-1.992834e+01	-5.682263e+01
1.210000e-06	-2.823910e-06	-8.333107e-10	-1.965157e+01	-5.672641e+01
1.220000e-06	-2.784005e-06	-8.319148e-10	-1.937387e+01	-5.662921e+01
1.230000e-06	-2.743899e-06	-8.314476e-10	-1.909477e+01	-5.653108e+01
1.240000e-06	-2.703650e-06	-8.297579e-10	-1.881468e+01	-5.643207e+01
1.250000e-06	-2.663256e-06	-8.310343e-10	-1.853357e+01	-5.633216e+01
1.260000e-06	-2.622707e-06	-8.301158e-10	-1.825140e+01	-5.623133e+01
1.270000e-06	-2.581954e-06	-8.305540e-10	-1.796779e+01	-5.612949e+01
1.280000e-06	-2.540872e-06	-8.296411e-10	-1.768191e+01	-5.602653e+01
1.290000e-06	-2.499505e-06	-8.278636e-10	-1.739403e+01	-5.592227e+01
1.300000e-06	-2.457770e-06	-8.210325e-10	-1.710360e+01	-5.581651e+01
1.310000e-06	-2.415748e-06	-8.143936e-10	-1.681117e+01	-5.570901e+01
1.320000e-06	-2.373466e-06	-8.113146e-10	-1.651693e+01	-5.559947e+01
1.330000e-06	-2.330818e-06	-8.103804e-10	-1.622014e+01	-5.548758e+01
1.340000e-06	-2.287920e-06	-8.101740e-10	-1.592161e+01	-5.537297e+01
1.350000e-06	-2.244810e-06	-8.125033e-10	-1.562162e+01	-5.525525e+01
1.360000e-06	-2.201494e-06	-8.119314e-10	-1.532018e+01	-5.513401e+01
1.370000e-06	-2.158047e-06	-8.070453e-10	-1.501783e+01	-5.500880e+01
1.380000e-06	-2.114510e-06	-8.022956e-10	-1.471486e+01	-5.487917e+01
1.390000e-06	-2.070789e-06	-7.965708e-10	-1.441060e+01	-5.474464e+01
1.400000e-06	-2.026925e-06	-7.915201e-10	-1.410536e+01	-5.460475e+01
1.410000e-06	-1.983064e-06	-7.882562e-10	-1.380012e+01	-5.445901e+01
1.420000e-06	-1.939149e-06	-7.893002e-10	-1.349452e+01	-5.430694e+01
1.430000e-06	-1.895121e-06	-7.894172e-10	-1.318813e+01	-5.414806e+01
1.440000e-06	-1.851031e-06	-7.883342e-10	-1.288131e+01	-5.398190e+01
1.450000e-06	-1.806875e-06	-7.841024e-10	-1.257403e+01	-5.380802e+01
1.460000e-06	-1.762661e-06	-7.771540e-10	-1.226635e+01	-5.362596e+01
1.470000e-06	-1.718336e-06	-7.672991e-10	-1.195788e+01	-5.343528e+01
1.480000e-06	-1.673846e-06	-7.605059e-10	-1.164828e+01	-5.323559e+01
1.490000e-06	-1.629230e-06	-7.541663e-10	-1.133780e+01	-5.302646e+01
1.500000e-06	-1.584437e-06	-7.501826e-10	-1.102609e+01	-5.280750e+01
1.510000e-06	-1.539459e-06	-7.479517e-10	-1.071308e+01	-5.257834e+01
1.520000e-06	-1.494416e-06	-7.470458e-10	-1.039963e+01	-5.233859e+01
1.530000e-06	-1.449297e-06	-7.458248e-10	-1.008564e+01	-5.208788e+01
1.540000e-06	-1.404009e-06	-7.415830e-10	-9.770484e+00	-5.182584e+01
1.550000e-06	-1.358556e-06	-7.348137e-10	-9.454178e+00	-5.155208e+01
1.560000e-06	-1.313023e-06	-7.265747e-10	-9.137319e+00	-5.126622e+01
1.570000e-06	-1.267463e-06	-7.185703e-10	-8.820266e+00	-5.096784e+01
1.580000e-06	-1.221843e-06	-7.112799e-10	-8.502794e+00	-5.065652e+01
1.590000e-06	-1.176138e-06	-7.078173e-10	-8.184733e+00	-5.033180e+01
1.600000e-06	-1.130296e-06	-7.065519e-10	-7.865721e+00	-4.999320e+01
1.610000e-06	-1.084359e-06	-7.025822e-10	-7.546042e+00	-4.964019e+01
1.620000e-06	-1.038460e-06	-6.964732e-10	-7.226635e+00	-4.927223e+01
1.630000e-06	-9.925550e-07	-6.884828e-10	-6.907181e+00	-4.888870e+01
1.640000e-06	-9.465021e-07	-6.794308e-10	-6.586699e+00	-4.848897e+01
1.650000e-06	-9.002821e-07	-6.707546e-10	-6.265055e+00	-4.807234e+01
1.660000e-06	-8.539585e-07	-6.612648e-10	-5.942690e+00	-4.763809e+01
1.670000e-06	-8.076211e-07	-6.525837e-10	-5.620228e+00	-4.718543e+01
1.680000e-06	-7.612688e-07	-6.450629e-10	-5.297663e+00	-4.671355e+01
1.690000e-06	-7.149041e-07	-6.377389e-10	-4.975011e+00	-4.622159e+01
1.700000e-06	-6.685636e-07	-6.308101e-10	-4.652528e+00	-4.570866e+01
1.710000e-06	-6.222073e-07	-6.228995e-10	-4.329935e+00	-4.517385e+01
1.720000e-06	-5.757338e-07	-6.171022e-10	-4.006527e+00	-4.461620e+01
1.730000e-06	-5.291661e-07	-6.111747e-10	-3.682462e+00	-4.403478e+01
1.740000e-06	-4.825549e-07	-6.040373e-10	-3.358095e+00	-4.342862e+01
1.750000e-06	-4.359778e-07	-5.950183e-10	-3.033965e+00	-4.279676e+01
1.760000e-06	-3.894180e-07	-5.825834e-10	-2.709956e+00	-4.213828e+01
1.770000e-06	-3.426882e-07	-5.697547e-10	-2.384764e+00	-4.145225e+01
1.780000e-06	-2.958323e-07	-5.572068e-10	-2.058695e+00	-4.073780e+01
1.790000e-06	-2.490151e-07	-5.455761e-10	-1.732894e+00	-3.999409e+01
1.800000e-06	-2.022865e-07	-5.364597e-10	-1.407710e+00	-3.922036e+01
1.810000e-06	-1.555724e-07	-5.294026e-10	-1.082627e+00	-3.841589e+01
1.820000e-06	-1.088100e-07	-5.214369e-10	-7.572079e-01	-3.758006e+01
1.830000e-06	-6.208722e-08	-5.111912e-10	-4.320644e-01	-3.671233e+01
1.840000e-06	-1.533375e-08	-4.981841e-10	-1.067074e-01	-3.581226e+01
1.850000e-06	3.144332e-08	-4.820424e-10	2.188138e-01	-3.487951e+01
1.860000e-06	7.810933e-08	-4.644320e-10	5.435622e-01	-3.391386e+01
1.870000e-06	1.248152e-07	-4.479743e-10	8.685878e-01	-3.291522e+01
1.880000e-06	1.716491e-07	-4.341236e-10	1.194504e+00	-3.188359e+01
1.890000e-06	2.183862e-07	-4.243149e-10	1.519747e+00	-3.081914e+01
1.900000e-06	2.650078e-07	-4.129762e-10	1.844187e+00	-2.972215e+01
1.910000e-06	3.116844e-07	-3.980167e-10	2.169009e+00	-2.859304e+01
1.920000e-06	3.583098e-07	-3.818910e-10	2.493475e+00	-2.743235e+01
1.930000e-06	4.048822e-07	-3.650279e-10	2.817572e+00	-2.624078e+01
1.940000e-06	4.514074e-07	-3.442839e-10	3.141340e+00	-2.501915e+01
1.950000e-06	4.978587e-07	-3.222321e-10	3.464595e+00	-2.376839e+01
1.960000e-06	5.443315e-07	-3.052406e-10	3.787998e+00	-2.248959e+01
1.970000e-06	5.907838e-07	-2.914975e-10	4.111259e+00	-2.118393e+01
1.980000e-06	6.371729e-07	-2.762148e-10	4.434081e+00	-1.985272e+01
1.990000e-06	6.835457e-07	-2.580738e-10	4.756788e+00	-1.849738e+01
2.000000e-06	7.299303e-07	-2.356871e-10	5.079579e+00	-1.711940e+01
2.010000e-06	7.762484e-07	-2.106156e-10	5.401906e+00	-1.572041e+01
2.020000e-06	8.224634e-07	-1.854153e-10	5.723515e+00	-1.430209e+01
2.030000e-06	8.686548e-07	-1.639580e-10	6.044961e+00	-1.286621e+01
2.040000e-06	9.147882e-07	-1.459057e-10	6.366003e+00	-1.141460e+01
2.050000e-06	9.608370e-07	-1.290311e-10	6.686456e+00	-9.949146e+00
2.060000e-06	1.006792e-06	-1.111746e-10	7.006254e+00	-8.471794e+00
2.070000e-06	1.052636e-06	-9.153981e-11	7.325286e+00	-6.984522e+00
2.080000e-06	1.098515e-06	-6.976864e-11	7.644557e+00	-5.489342e+00
2.090000e-06	1.144359e-06	-4.499952e-11	7.963587e+00	-3.988286e+00
2.100000e-06	1.190080e-06	-1.834509e-11	8.281755e+00	-2.483400e+00
2.110000e-06	1.235728e-06	7.105567e-12	8.599421e+00	-9.767362e-01
2.120000e-06	1.281267e-06	2.878433e-11	8.916324e+00	5.296580e-01
2.130000e-06	1.326681e-06	4.708570e-11	9.232362e+00	2.033746e+00
2.140000e-06	1.371919e-06	6.389747e-11	9.547169e+00	3.533513e+00
2.150000e-06	1.416992e-06	8.378806e-11	9.860838e+00	5.026967e+00
2.160000e-06	1.462001e-06	1.077345e-10	1.017405e+01	6.512156e+00
2.170000e-06	1.507000e-06	1.321486e-10	1.048720e+01	7.987167e+00
2.180000e-06	1.551952e-06	1.539319e-10	1.080002e+01	9.450136e+00
2.190000e-06	1.596737e-06	1.743203e-10	1.111168e+01	1.089926e+01
2.200000e-06	1.641327e-06	1.932105e-10	1.142198e+01	1.233279e+01
2.210000e-06	1.685783e-06	2.098640e-10	1.173135e+01	1.374905e+01
2.220000e-06	1.730122e-06	2.252968e-10	1.203991e+01	1.514644e+01
2.230000e-06	1.774374e-06	2.415091e-10	1.234785e+01	1.652345e+01
2.240000e-06	1.818577e-06	2.581197e-10	1.265546e+01	1.787865e+01
2.250000e-06	1.862686e-06	2.763494e-10	1.296241e+01	1.921069e+01
2.260000e-06	1.906649e-06	2.982968e-10	1.326836e+01	2.051834e+01
2.270000e-06	1.950522e-06	3.207881e-10	1.357366e+01	2.180046e+01
2.280000e-06	1.994372e-06	3.393926e-10	1.387882e+01	2.305601e+01
2.290000e-06	2.038185e-06	3.559276e-10	1.418371e+01	2.428408e+01
2.300000e-06	2.081941e-06	3.718986e-10	1.448821e+01	2.548386e+01
2.310000e-06	2.125675e-06	3.872667e-10	1.479255e+01	2.665466e+01
2.320000e-06	2.169314e-06	4.025696e-10	1.509624e+01	2.779590e+01
2.330000e-06	2.212792e-06	4.184251e-10	1.539880e+01	2.890712e+01
2.340000e-06	2.256055e-06	4.345186e-10	1.569986e+01	2.998799e+01
2.350000e-06	2.299006e-06	4.502947e-10	1.599877e+01	3.103828e+01
2.360000e-06	2.341692e-06	4.652282e-10	1.629581e+01	3.205789e+01
2.370000e-06	2.384143e-06	4.772749e-10	1.659123e+01	3.304684e+01
2.380000e-06	2.426367e-06	4.874566e-10	1.688507e+01	3.400522e+01
2.390000e-06	2.468435e-06	4.973528e-10	1.717782e+01	3.493327e+01
2.400000e-06	2.510177e-06	5.076459e-10	1.746830e+01	3.583131e+01
2.410000e-06	2.551532e-06	5.200808e-10	1.775609e+01	3.669976e+01
2.420000e-06	2.592584e-06	5.331354e-10	1.804177e+01	3.753910e+01
2.430000e-06	2.633300e-06	5.442946e-10	1.832511e+01	3.834992e+01
2.440000e-06	2.673770e-06	5.529123e-10	1.860674e+01	3.913285e+01
2.450000e-06	2.714049e-06	5.601295e-10	1.888704e+01	3.988861e+01
2.460000e-06	2.754164e-06	5.684400e-10	1.916620e+01	4.061795e+01
2.470000e-06	2.794163e-06	5.779739e-10	1.944456e+01	4.132165e+01
2.480000e-06	2.834050e-06	5.885946e-10	1.972213e+01	4.200054e+01
2.490000e-06	2.873788e-06	5.998485e-10	1.999867e+01	4.265545e+01
2.500000e-06	2.913379e-06	6.101426e-10	2.027418e+01	4.328723e+01
2.510000e-06	2.952868e-06	6.174877e-10	2.054898e+01	4.389673e+01
2.520000e-06	2.992209e-06	6.237672e-10	2.082276e+01	4.448477e+01
2.530000e-06	3.031267e-06	6.308132e-10	2.109456e+01	4.505217e+01
2.540000e-06	3.070076e-06	6.380010e-10	2.136463e+01	4.559971e+01
2.550000e-06	3.108698e-06	6.450815e-10	2.163340e+01	4.612816e+01
2.560000e-06	3.147047e-06	6.513174e-10	2.190027e+01	4.663820e+01
2.570000e-06	3.185133e-06	6.565274e-10	2.216531e+01	4.713052e+01
2.580000e-06	3.223079e-06	6.609982e-10	2.242938e+01	4.760572e+01
2.590000e-06	3.260912e-06	6.668070e-10	2.269266e+01	4.806437e+01
2.600000e-06	3.298505e-06	6.755390e-10	2.295427e+01	4.850698e+01
2.610000e-06	3.335897e-06	6.829962e-10	2.321448e+01	4.893401e+01
2.620000e-06	3.373088e-06	6.888108e-10	2.347329e+01	4.934587e+01
2.630000e-06	3.409982e-06	6.936285e-10	2.373003e+01	4.974292e+01
2.640000e-06	3.446539e-06	6.968844e-10	2.398443e+01	5.012548e+01
2.650000e-06	3.482782e-06	7.002939e-10	2.423665e+01	5.049382e+01
2.660000e-06	3.518839e-06	7.057276e-10	2.448757e+01	5.084819e+01
2.670000e-06	3.554780e-06	7.121594e-10	2.473768e+01	5.118880e+01
2.680000e-06	3.590619e-06	7.177277e-10	2.498709e+01	5.151587e+01
2.690000e-06	3.626369e-06	7.246868e-10	2.523587e+01	5.182957e+01
2.700000e-06	3.661977e-06	7.316064e-10	2.548367e+01	5.213008e+01
2.710000e-06	3.697340e-06	7.369732e-10	2.572976e+01	5.241760e+01
2.720000e-06	3.732361e-06	7.419349e-10	2.597347e+01	5.269233e+01
2.730000e-06	3.766991e-06	7.459657e-10	2.621446e+01	5.295447e+01
2.740000e-06	3.801298e-06	7.487956e-10	2.645320e+01	5.320428e+01
2.750000e-06	3.835156e-06	7.529790e-10	2.668882e+01	5.344202e+01
2.760000e-06	3.868526e-06	7.591538e-10	2.692104e+01	5.366800e+01
2.770000e-06	3.901431e-06	7.658468e-10	2.715002e+01	5.388257e+01
2.780000e-06	3.933901e-06	7.718517e-10	2.737599e+01	5.408612e+01
2.790000e-06	3.966057e-06	7.759388e-10	2.759975e+01	5.427907e+01
2.800000e-06	3.998017e-06	7.780689e-10	2.782216e+01	5.446192e+01
2.810000e-06	4.029846e-06	7.793045e-10	2.804366e+01	5.463517e+01
2.820000e-06	4.061477e-06	7.798378e-10	2.826378e+01	5.479939e+01
2.830000e-06	4.092933e-06	7.811040e-10	2.848268e+01	5.495516e+01
2.840000e-06	4.124258e-06	7.847077e-10	2.870067e+01	5.510311e+01
2.850000e-06	4.155333e-06	7.893317e-10	2.891693e+01	5.524389e+01
2.860000e-06	4.185974e-06	7.947557e-10	2.913016e+01	5.537816e+01
2.870000e-06	4.216249e-06	7.988908e-10	2.934084e+01	5.550660e+01
2.880000e-06	4.246252e-06	8.009260e-10	2.954963e+01	5.562989e+01
2.890000e-06	4.275913e-06	8.036948e-10	2.975604e+01	5.574868e+01
2.900000e-06	4.305318e-06	8.062018e-10	2.996067e+01	5.586364e+01
