# Temperatura_=_-11.76
# Concentracion g/m^3_=_1620.0
# C_Vs_to_Am_M_A/Vsm_=_65563218390.804596
# pendiente_HvsI_1/m_=_3716.3
# ordenada_HvsI_A/m_=_1297.0
# frecuencia_Hz_=_135109.86248726945

Tiempo_(s)	Campo_(V.s)	Magnetizacion_(V.s)	Campo_(kA/m)	Magnetizacion_(A/m)
0.000000e+00	-5.522744e-06	-9.128359e-10	-3.835705e+01	-6.171533e+01
1.000000e-08	-5.522885e-06	-9.103735e-10	-3.835803e+01	-6.172601e+01
2.000000e-08	-5.522823e-06	-9.075374e-10	-3.835760e+01	-6.173798e+01
3.000000e-08	-5.522462e-06	-9.060451e-10	-3.835509e+01	-6.175064e+01
4.000000e-08	-5.521688e-06	-9.056932e-10	-3.834971e+01	-6.176335e+01
5.000000e-08	-5.520472e-06	-9.040518e-10	-3.834127e+01	-6.177543e+01
6.000000e-08	-5.518624e-06	-9.024703e-10	-3.832844e+01	-6.178621e+01
7.000000e-08	-5.516067e-06	-9.141021e-10	-3.831067e+01	-6.179500e+01
8.000000e-08	-5.512969e-06	-9.124493e-10	-3.828916e+01	-6.180109e+01
9.000000e-08	-5.509336e-06	-8.730222e-10	-3.826393e+01	-6.180381e+01
1.000000e-07	-5.505215e-06	-8.589010e-10	-3.823530e+01	-6.180250e+01
1.100000e-07	-5.500836e-06	-9.299611e-10	-3.820489e+01	-6.179653e+01
1.200000e-07	-5.496319e-06	-9.118080e-10	-3.817352e+01	-6.178530e+01
1.300000e-07	-5.491593e-06	-8.976496e-10	-3.814070e+01	-6.176828e+01
1.400000e-07	-5.486358e-06	-8.433402e-10	-3.810434e+01	-6.174499e+01
1.500000e-07	-5.480674e-06	-9.245957e-10	-3.806486e+01	-6.171500e+01
1.600000e-07	-5.474684e-06	-9.283779e-10	-3.802326e+01	-6.167796e+01
1.700000e-07	-5.468320e-06	-8.829627e-10	-3.797906e+01	-6.163360e+01
1.800000e-07	-5.461553e-06	-8.798680e-10	-3.793206e+01	-6.158173e+01
1.900000e-07	-5.454370e-06	-9.433986e-10	-3.788217e+01	-6.152226e+01
2.000000e-07	-5.446860e-06	-9.859917e-10	-3.783001e+01	-6.145516e+01
2.100000e-07	-5.439047e-06	-9.125440e-10	-3.777575e+01	-6.138052e+01
2.200000e-07	-5.430993e-06	-8.860141e-10	-3.771981e+01	-6.129849e+01
2.300000e-07	-5.422693e-06	-8.913755e-10	-3.766216e+01	-6.120934e+01
2.400000e-07	-5.413983e-06	-9.403115e-10	-3.760167e+01	-6.111338e+01
2.500000e-07	-5.404654e-06	-9.093004e-10	-3.753688e+01	-6.101106e+01
2.600000e-07	-5.394638e-06	-9.250177e-10	-3.746731e+01	-6.090284e+01
2.700000e-07	-5.384079e-06	-8.985762e-10	-3.739398e+01	-6.078930e+01
2.800000e-07	-5.373025e-06	-9.102839e-10	-3.731721e+01	-6.067106e+01
2.900000e-07	-5.361468e-06	-8.796000e-10	-3.723694e+01	-6.054879e+01
3.000000e-07	-5.349545e-06	-8.954321e-10	-3.715413e+01	-6.042320e+01
3.100000e-07	-5.337243e-06	-8.794083e-10	-3.706869e+01	-6.029505e+01
3.200000e-07	-5.324544e-06	-9.135194e-10	-3.698049e+01	-6.016509e+01
3.300000e-07	-5.311466e-06	-9.062533e-10	-3.688966e+01	-6.003412e+01
3.400000e-07	-5.298047e-06	-8.977977e-10	-3.679647e+01	-5.990290e+01
3.500000e-07	-5.284238e-06	-8.917046e-10	-3.670055e+01	-5.977222e+01
3.600000e-07	-5.270014e-06	-9.110572e-10	-3.660177e+01	-5.964281e+01
3.700000e-07	-5.255206e-06	-8.729455e-10	-3.649892e+01	-5.951539e+01
3.800000e-07	-5.239790e-06	-8.709607e-10	-3.639185e+01	-5.939062e+01
3.900000e-07	-5.223920e-06	-9.060022e-10	-3.628163e+01	-5.926914e+01
4.000000e-07	-5.207562e-06	-8.881149e-10	-3.616802e+01	-5.915151e+01
4.100000e-07	-5.190809e-06	-8.546373e-10	-3.605166e+01	-5.903821e+01
4.200000e-07	-5.173709e-06	-8.940353e-10	-3.593290e+01	-5.892967e+01
4.300000e-07	-5.156328e-06	-9.195698e-10	-3.581219e+01	-5.882623e+01
4.400000e-07	-5.138696e-06	-8.450667e-10	-3.568973e+01	-5.872817e+01
4.500000e-07	-5.120698e-06	-8.593457e-10	-3.556472e+01	-5.863566e+01
4.600000e-07	-5.102223e-06	-9.029378e-10	-3.543641e+01	-5.854882e+01
4.700000e-07	-5.083378e-06	-8.697658e-10	-3.530553e+01	-5.846764e+01
4.800000e-07	-5.064191e-06	-8.268363e-10	-3.517226e+01	-5.839208e+01
4.900000e-07	-5.044618e-06	-9.042115e-10	-3.503633e+01	-5.832201e+01
5.000000e-07	-5.024782e-06	-8.936544e-10	-3.489856e+01	-5.825720e+01
5.100000e-07	-5.004738e-06	-8.526678e-10	-3.475935e+01	-5.819738e+01
5.200000e-07	-4.984442e-06	-8.775728e-10	-3.461839e+01	-5.814223e+01
5.300000e-07	-4.963819e-06	-9.083927e-10	-3.447515e+01	-5.809135e+01
5.400000e-07	-4.942799e-06	-8.343943e-10	-3.432917e+01	-5.804432e+01
5.500000e-07	-4.921506e-06	-8.483155e-10	-3.418128e+01	-5.800068e+01
5.600000e-07	-4.899882e-06	-8.854831e-10	-3.403110e+01	-5.795993e+01
5.700000e-07	-4.877933e-06	-8.580013e-10	-3.387865e+01	-5.792157e+01
5.800000e-07	-4.855694e-06	-8.347473e-10	-3.372420e+01	-5.788510e+01
5.900000e-07	-4.833041e-06	-8.868873e-10	-3.356687e+01	-5.785001e+01
6.000000e-07	-4.810041e-06	-8.683822e-10	-3.340712e+01	-5.781579e+01
6.100000e-07	-4.786717e-06	-8.350948e-10	-3.324513e+01	-5.778198e+01
6.200000e-07	-4.763077e-06	-8.515537e-10	-3.308095e+01	-5.774813e+01
6.300000e-07	-4.739269e-06	-8.611535e-10	-3.291559e+01	-5.771381e+01
6.400000e-07	-4.715201e-06	-8.328519e-10	-3.274843e+01	-5.767866e+01
6.500000e-07	-4.690724e-06	-8.493169e-10	-3.257843e+01	-5.764235e+01
6.600000e-07	-4.665864e-06	-8.677270e-10	-3.240577e+01	-5.760460e+01
6.700000e-07	-4.640566e-06	-8.521965e-10	-3.223007e+01	-5.756517e+01
6.800000e-07	-4.614847e-06	-8.501686e-10	-3.205145e+01	-5.752390e+01
6.900000e-07	-4.588688e-06	-8.603380e-10	-3.186976e+01	-5.748065e+01
7.000000e-07	-4.561988e-06	-8.496561e-10	-3.168432e+01	-5.743535e+01
7.100000e-07	-4.534845e-06	-8.355035e-10	-3.149581e+01	-5.738799e+01
7.200000e-07	-4.507365e-06	-8.442452e-10	-3.130495e+01	-5.733858e+01
7.300000e-07	-4.479614e-06	-8.414692e-10	-3.111221e+01	-5.728720e+01
7.400000e-07	-4.451686e-06	-8.402288e-10	-3.091824e+01	-5.723394e+01
7.500000e-07	-4.423566e-06	-8.413308e-10	-3.072294e+01	-5.717894e+01
7.600000e-07	-4.395213e-06	-8.467220e-10	-3.052602e+01	-5.712237e+01
7.700000e-07	-4.366570e-06	-8.368337e-10	-3.032709e+01	-5.706440e+01
7.800000e-07	-4.337564e-06	-8.388325e-10	-3.012563e+01	-5.700524e+01
7.900000e-07	-4.308241e-06	-8.318137e-10	-2.992197e+01	-5.694507e+01
8.000000e-07	-4.278616e-06	-8.314591e-10	-2.971622e+01	-5.688411e+01
8.100000e-07	-4.248681e-06	-8.275688e-10	-2.950832e+01	-5.682253e+01
8.200000e-07	-4.218489e-06	-8.366114e-10	-2.929862e+01	-5.676052e+01
8.300000e-07	-4.188034e-06	-8.311405e-10	-2.908710e+01	-5.669824e+01
8.400000e-07	-4.157285e-06	-8.349886e-10	-2.887354e+01	-5.663581e+01
8.500000e-07	-4.126283e-06	-8.366860e-10	-2.865822e+01	-5.657335e+01
8.600000e-07	-4.095033e-06	-8.373420e-10	-2.844118e+01	-5.651092e+01
8.700000e-07	-4.063543e-06	-8.252134e-10	-2.822247e+01	-5.644856e+01
8.800000e-07	-4.031856e-06	-8.248421e-10	-2.800240e+01	-5.638628e+01
8.900000e-07	-3.999955e-06	-8.212670e-10	-2.778084e+01	-5.632404e+01
9.000000e-07	-3.967814e-06	-8.179877e-10	-2.755761e+01	-5.626177e+01
9.100000e-07	-3.935367e-06	-8.171128e-10	-2.733226e+01	-5.619937e+01
9.200000e-07	-3.902631e-06	-8.225223e-10	-2.710489e+01	-5.613669e+01
9.300000e-07	-3.869592e-06	-8.171092e-10	-2.687543e+01	-5.607357e+01
9.400000e-07	-3.836115e-06	-8.128203e-10	-2.664292e+01	-5.600983e+01
9.500000e-07	-3.802179e-06	-8.129129e-10	-2.640723e+01	-5.594524e+01
9.600000e-07	-3.767700e-06	-8.085653e-10	-2.616776e+01	-5.587957e+01
9.700000e-07	-3.732750e-06	-8.022128e-10	-2.592503e+01	-5.581261e+01
9.800000e-07	-3.697509e-06	-8.015634e-10	-2.568026e+01	-5.574409e+01
9.900000e-07	-3.662001e-06	-8.032497e-10	-2.543365e+01	-5.567378e+01
1.000000e-06	-3.626340e-06	-7.979693e-10	-2.518598e+01	-5.560145e+01
1.010000e-06	-3.590550e-06	-7.988083e-10	-2.493741e+01	-5.552687e+01
1.020000e-06	-3.554593e-06	-8.002197e-10	-2.468768e+01	-5.544985e+01
1.030000e-06	-3.518473e-06	-7.985251e-10	-2.443681e+01	-5.537020e+01
1.040000e-06	-3.482177e-06	-7.946649e-10	-2.418472e+01	-5.528777e+01
1.050000e-06	-3.445629e-06	-8.003119e-10	-2.393089e+01	-5.520245e+01
1.060000e-06	-3.408797e-06	-7.998026e-10	-2.367507e+01	-5.511412e+01
1.070000e-06	-3.371722e-06	-7.985121e-10	-2.341758e+01	-5.502275e+01
1.080000e-06	-3.334385e-06	-7.962396e-10	-2.315827e+01	-5.492831e+01
1.090000e-06	-3.296857e-06	-8.000669e-10	-2.289762e+01	-5.483080e+01
1.100000e-06	-3.259192e-06	-7.966747e-10	-2.263603e+01	-5.473027e+01
1.110000e-06	-3.221298e-06	-7.956551e-10	-2.237284e+01	-5.462681e+01
1.120000e-06	-3.183092e-06	-7.939191e-10	-2.210749e+01	-5.452050e+01
1.130000e-06	-3.144608e-06	-7.938454e-10	-2.184021e+01	-5.441149e+01
1.140000e-06	-3.105937e-06	-7.893969e-10	-2.157163e+01	-5.429990e+01
1.150000e-06	-3.067100e-06	-7.900228e-10	-2.130190e+01	-5.418591e+01
1.160000e-06	-3.028030e-06	-7.877368e-10	-2.103054e+01	-5.406969e+01
1.170000e-06	-2.988690e-06	-7.844473e-10	-2.075731e+01	-5.395139e+01
1.180000e-06	-2.949122e-06	-7.803097e-10	-2.048250e+01	-5.383118e+01
1.190000e-06	-2.909467e-06	-7.799453e-10	-2.020708e+01	-5.370923e+01
1.200000e-06	-2.869773e-06	-7.767515e-10	-1.993140e+01	-5.358566e+01
1.210000e-06	-2.829896e-06	-7.736002e-10	-1.965444e+01	-5.346058e+01
1.220000e-06	-2.789874e-06	-7.696497e-10	-1.937648e+01	-5.333409e+01
1.230000e-06	-2.749761e-06	-7.664514e-10	-1.909788e+01	-5.320622e+01
1.240000e-06	-2.709487e-06	-7.630875e-10	-1.881817e+01	-5.307700e+01
1.250000e-06	-2.669011e-06	-7.618905e-10	-1.853705e+01	-5.294637e+01
1.260000e-06	-2.628317e-06	-7.616345e-10	-1.825442e+01	-5.281428e+01
1.270000e-06	-2.587402e-06	-7.594023e-10	-1.797025e+01	-5.268059e+01
1.280000e-06	-2.546177e-06	-7.586585e-10	-1.768393e+01	-5.254512e+01
1.290000e-06	-2.504677e-06	-7.571560e-10	-1.739571e+01	-5.240766e+01
1.300000e-06	-2.463003e-06	-7.547044e-10	-1.710627e+01	-5.226794e+01
1.310000e-06	-2.421029e-06	-7.486730e-10	-1.681474e+01	-5.212563e+01
1.320000e-06	-2.378646e-06	-7.461072e-10	-1.652038e+01	-5.198039e+01
1.330000e-06	-2.335921e-06	-7.424726e-10	-1.622364e+01	-5.183182e+01
1.340000e-06	-2.292950e-06	-7.419745e-10	-1.592520e+01	-5.167949e+01
1.350000e-06	-2.249743e-06	-7.421256e-10	-1.562511e+01	-5.152295e+01
1.360000e-06	-2.206364e-06	-7.409359e-10	-1.532383e+01	-5.136172e+01
1.370000e-06	-2.162827e-06	-7.355587e-10	-1.502146e+01	-5.119532e+01
1.380000e-06	-2.119132e-06	-7.325014e-10	-1.471798e+01	-5.102324e+01
1.390000e-06	-2.075361e-06	-7.287877e-10	-1.441398e+01	-5.084499e+01
1.400000e-06	-2.031543e-06	-7.262216e-10	-1.410965e+01	-5.066007e+01
1.410000e-06	-1.987629e-06	-7.236746e-10	-1.380466e+01	-5.046799e+01
1.420000e-06	-1.943615e-06	-7.232907e-10	-1.349897e+01	-5.026828e+01
1.430000e-06	-1.899530e-06	-7.200865e-10	-1.319278e+01	-5.006051e+01
1.440000e-06	-1.855362e-06	-7.163059e-10	-1.288602e+01	-4.984426e+01
1.450000e-06	-1.811113e-06	-7.111980e-10	-1.257870e+01	-4.961913e+01
1.460000e-06	-1.766753e-06	-7.046572e-10	-1.227061e+01	-4.938478e+01
1.470000e-06	-1.722304e-06	-6.974864e-10	-1.196190e+01	-4.914087e+01
1.480000e-06	-1.677779e-06	-6.919676e-10	-1.165266e+01	-4.888713e+01
1.490000e-06	-1.633109e-06	-6.875502e-10	-1.134241e+01	-4.862330e+01
1.500000e-06	-1.588328e-06	-6.838852e-10	-1.103140e+01	-4.834915e+01
1.510000e-06	-1.543378e-06	-6.801290e-10	-1.071921e+01	-4.806448e+01
1.520000e-06	-1.498163e-06	-6.771762e-10	-1.040518e+01	-4.776913e+01
1.530000e-06	-1.452832e-06	-6.706281e-10	-1.009034e+01	-4.746293e+01
1.540000e-06	-1.407468e-06	-6.623526e-10	-9.775273e+00	-4.714574e+01
1.550000e-06	-1.362076e-06	-6.543705e-10	-9.460013e+00	-4.681740e+01
1.560000e-06	-1.316569e-06	-6.460400e-10	-9.143950e+00	-4.647777e+01
1.570000e-06	-1.270862e-06	-6.384568e-10	-8.826502e+00	-4.612667e+01
1.580000e-06	-1.225079e-06	-6.338558e-10	-8.508527e+00	-4.576392e+01
1.590000e-06	-1.179254e-06	-6.326507e-10	-8.190257e+00	-4.538929e+01
1.600000e-06	-1.133301e-06	-6.304222e-10	-7.871100e+00	-4.500251e+01
1.610000e-06	-1.087263e-06	-6.248093e-10	-7.551354e+00	-4.460326e+01
1.620000e-06	-1.041196e-06	-6.155967e-10	-7.231405e+00	-4.419116e+01
1.630000e-06	-9.950827e-07	-6.074467e-10	-6.911136e+00	-4.376578e+01
1.640000e-06	-9.489108e-07	-5.989678e-10	-6.590459e+00	-4.332659e+01
1.650000e-06	-9.026770e-07	-5.914964e-10	-6.269352e+00	-4.287299e+01
1.660000e-06	-8.564000e-07	-5.840203e-10	-5.947945e+00	-4.240433e+01
1.670000e-06	-8.101328e-07	-5.787021e-10	-5.626606e+00	-4.191982e+01
1.680000e-06	-7.638138e-07	-5.706562e-10	-5.304907e+00	-4.141865e+01
1.690000e-06	-7.174414e-07	-5.607056e-10	-4.982838e+00	-4.089988e+01
1.700000e-06	-6.710297e-07	-5.506264e-10	-4.660495e+00	-4.036251e+01
1.710000e-06	-6.244424e-07	-5.413200e-10	-4.336933e+00	-3.980547e+01
1.720000e-06	-5.778067e-07	-5.316819e-10	-4.013034e+00	-3.922762e+01
1.730000e-06	-5.312169e-07	-5.231312e-10	-3.689454e+00	-3.862775e+01
1.740000e-06	-4.845728e-07	-5.143163e-10	-3.365498e+00	-3.800464e+01
1.750000e-06	-4.379121e-07	-5.036700e-10	-3.041425e+00	-3.735699e+01
1.760000e-06	-3.912614e-07	-4.910834e-10	-2.717423e+00	-3.668352e+01
1.770000e-06	-3.445303e-07	-4.813991e-10	-2.392862e+00	-3.598292e+01
1.780000e-06	-2.977163e-07	-4.727536e-10	-2.067726e+00	-3.525389e+01
1.790000e-06	-2.508741e-07	-4.641741e-10	-1.742393e+00	-3.449518e+01
1.800000e-06	-2.040468e-07	-4.538540e-10	-1.417164e+00	-3.370557e+01
1.810000e-06	-1.571810e-07	-4.410596e-10	-1.091668e+00	-3.288391e+01
1.820000e-06	-1.103141e-07	-4.279067e-10	-7.661631e-01	-3.202913e+01
1.830000e-06	-6.343572e-08	-4.150260e-10	-4.405794e-01	-3.114026e+01
1.840000e-06	-1.645035e-08	-4.021254e-10	-1.142524e-01	-3.021645e+01
1.850000e-06	3.052452e-08	-3.884285e-10	2.120016e-01	-2.925698e+01
1.860000e-06	7.737674e-08	-3.730246e-10	5.374038e-01	-2.826129e+01
1.870000e-06	1.241568e-07	-3.557894e-10	8.623045e-01	-2.722898e+01
1.880000e-06	1.709733e-07	-3.393649e-10	1.187459e+00	-2.615982e+01
1.890000e-06	2.177643e-07	-3.262614e-10	1.512436e+00	-2.505377e+01
1.900000e-06	2.646441e-07	-3.141395e-10	1.838030e+00	-2.391100e+01
1.910000e-06	3.116206e-07	-2.999677e-10	2.164295e+00	-2.273187e+01
1.920000e-06	3.584569e-07	-2.859629e-10	2.489587e+00	-2.151693e+01
1.930000e-06	4.051751e-07	-2.708053e-10	2.814058e+00	-2.026698e+01
1.940000e-06	4.519288e-07	-2.515379e-10	3.138775e+00	-1.898299e+01
1.950000e-06	4.986575e-07	-2.289791e-10	3.463320e+00	-1.766616e+01
1.960000e-06	5.452669e-07	-2.095264e-10	3.787036e+00	-1.631788e+01
1.970000e-06	5.918176e-07	-1.925495e-10	4.110344e+00	-1.493972e+01
1.980000e-06	6.383339e-07	-1.776733e-10	4.433413e+00	-1.353346e+01
1.990000e-06	6.847807e-07	-1.616950e-10	4.755999e+00	-1.210102e+01
2.000000e-06	7.311691e-07	-1.409814e-10	5.078180e+00	-1.064449e+01
2.010000e-06	7.775177e-07	-1.154688e-10	5.400085e+00	-9.166114e+00
2.020000e-06	8.238092e-07	-8.957745e-11	5.721592e+00	-7.668226e+00
2.030000e-06	8.700167e-07	-6.651492e-11	6.042517e+00	-6.153285e+00
2.040000e-06	9.161319e-07	-4.754506e-11	6.362800e+00	-4.623829e+00
2.050000e-06	9.622022e-07	-3.005472e-11	6.682772e+00	-3.082460e+00
2.060000e-06	1.008239e-06	-1.213802e-11	7.002511e+00	-1.531822e+00
2.070000e-06	1.054221e-06	6.455145e-12	7.321871e+00	2.541900e-02
2.080000e-06	1.100121e-06	2.830283e-11	7.640661e+00	1.586594e+00
2.090000e-06	1.145943e-06	5.349702e-11	7.958906e+00	3.149054e+00
2.100000e-06	1.191700e-06	7.813984e-11	8.276697e+00	4.710190e+00
2.110000e-06	1.237393e-06	9.988649e-11	8.594051e+00	6.267447e+00
2.120000e-06	1.283035e-06	1.194325e-10	8.911049e+00	7.818347e+00
2.130000e-06	1.328547e-06	1.370501e-10	9.227143e+00	9.360502e+00
2.140000e-06	1.373899e-06	1.528115e-10	9.542126e+00	1.089163e+01
2.150000e-06	1.419169e-06	1.709675e-10	9.856539e+00	1.240956e+01
2.160000e-06	1.464363e-06	1.938143e-10	1.017042e+01	1.391226e+01
2.170000e-06	1.509527e-06	2.185822e-10	1.048410e+01	1.539783e+01
2.180000e-06	1.554595e-06	2.420916e-10	1.079711e+01	1.686452e+01
2.190000e-06	1.599555e-06	2.633521e-10	1.110937e+01	1.831072e+01
2.200000e-06	1.644356e-06	2.832265e-10	1.142053e+01	1.973499e+01
2.210000e-06	1.688895e-06	2.983445e-10	1.172986e+01	2.113602e+01
2.220000e-06	1.733322e-06	3.108633e-10	1.203842e+01	2.251267e+01
2.230000e-06	1.777661e-06	3.260895e-10	1.234637e+01	2.386396e+01
2.240000e-06	1.821884e-06	3.433128e-10	1.265351e+01	2.518903e+01
2.250000e-06	1.866009e-06	3.614364e-10	1.295997e+01	2.648718e+01
2.260000e-06	1.910054e-06	3.815178e-10	1.326587e+01	2.775786e+01
2.270000e-06	1.954043e-06	4.019855e-10	1.357140e+01	2.900061e+01
2.280000e-06	1.998020e-06	4.194023e-10	1.387682e+01	3.021513e+01
2.290000e-06	2.041921e-06	4.346935e-10	1.418173e+01	3.140119e+01
2.300000e-06	2.085727e-06	4.493944e-10	1.448597e+01	3.255868e+01
2.310000e-06	2.129504e-06	4.635779e-10	1.479002e+01	3.368759e+01
2.320000e-06	2.173226e-06	4.781980e-10	1.509368e+01	3.478797e+01
2.330000e-06	2.216836e-06	4.932060e-10	1.539656e+01	3.585994e+01
2.340000e-06	2.260309e-06	5.078662e-10	1.569850e+01	3.690368e+01
2.350000e-06	2.303661e-06	5.229399e-10	1.599959e+01	3.791944e+01
2.360000e-06	2.346785e-06	5.385514e-10	1.629910e+01	3.890747e+01
2.370000e-06	2.389491e-06	5.509652e-10	1.659570e+01	3.986808e+01
2.380000e-06	2.431835e-06	5.615874e-10	1.688980e+01	4.080160e+01
2.390000e-06	2.473915e-06	5.730387e-10	1.718205e+01	4.170836e+01
2.400000e-06	2.515572e-06	5.839767e-10	1.747137e+01	4.258872e+01
2.410000e-06	2.556851e-06	5.950625e-10	1.775807e+01	4.344303e+01
2.420000e-06	2.597891e-06	6.072311e-10	1.804310e+01	4.427166e+01
2.430000e-06	2.638661e-06	6.209556e-10	1.832626e+01	4.507496e+01
2.440000e-06	2.679127e-06	6.342258e-10	1.860731e+01	4.585328e+01
2.450000e-06	2.719401e-06	6.462431e-10	1.888703e+01	4.660696e+01
2.460000e-06	2.759564e-06	6.564455e-10	1.916597e+01	4.733636e+01
2.470000e-06	2.799611e-06	6.644944e-10	1.944411e+01	4.804180e+01
2.480000e-06	2.839597e-06	6.721055e-10	1.972182e+01	4.872362e+01
2.490000e-06	2.879462e-06	6.805509e-10	1.999869e+01	4.938214e+01
2.500000e-06	2.919157e-06	6.907587e-10	2.027439e+01	5.001769e+01
2.510000e-06	2.958705e-06	7.008406e-10	2.054906e+01	5.063059e+01
2.520000e-06	2.998094e-06	7.092852e-10	2.082263e+01	5.122118e+01
2.530000e-06	3.037257e-06	7.170141e-10	2.109462e+01	5.178980e+01
2.540000e-06	3.076115e-06	7.240991e-10	2.136451e+01	5.233679e+01
2.550000e-06	3.114668e-06	7.307847e-10	2.163227e+01	5.286250e+01
2.560000e-06	3.153044e-06	7.378431e-10	2.189880e+01	5.336730e+01
2.570000e-06	3.191254e-06	7.441997e-10	2.216418e+01	5.385159e+01
2.580000e-06	3.229262e-06	7.504662e-10	2.242815e+01	5.431577e+01
2.590000e-06	3.267121e-06	7.568640e-10	2.269110e+01	5.476027e+01
2.600000e-06	3.304835e-06	7.617972e-10	2.295303e+01	5.518552e+01
2.610000e-06	3.342299e-06	7.660172e-10	2.321323e+01	5.559200e+01
2.620000e-06	3.379458e-06	7.708862e-10	2.347131e+01	5.598019e+01
2.630000e-06	3.416384e-06	7.775249e-10	2.372777e+01	5.635060e+01
2.640000e-06	3.453000e-06	7.847867e-10	2.398208e+01	5.670376e+01
2.650000e-06	3.489304e-06	7.910384e-10	2.423422e+01	5.704022e+01
2.660000e-06	3.525409e-06	7.972726e-10	2.448498e+01	5.736055e+01
2.670000e-06	3.561370e-06	8.007562e-10	2.473474e+01	5.766531e+01
2.680000e-06	3.597227e-06	8.007641e-10	2.498378e+01	5.795511e+01
2.690000e-06	3.632984e-06	8.019497e-10	2.523212e+01	5.823055e+01
2.700000e-06	3.668664e-06	8.054191e-10	2.547993e+01	5.849223e+01
2.710000e-06	3.704246e-06	8.089377e-10	2.572706e+01	5.874077e+01
2.720000e-06	3.739436e-06	8.150972e-10	2.597146e+01	5.897677e+01
2.730000e-06	3.774161e-06	8.236475e-10	2.621264e+01	5.920085e+01
2.740000e-06	3.808642e-06	8.295832e-10	2.645212e+01	5.941360e+01
2.750000e-06	3.842683e-06	8.331431e-10	2.668854e+01	5.961562e+01
2.760000e-06	3.876132e-06	8.357402e-10	2.692086e+01	5.980748e+01
2.770000e-06	3.909083e-06	8.373298e-10	2.714971e+01	5.998975e+01
2.780000e-06	3.941601e-06	8.401709e-10	2.737556e+01	6.016296e+01
2.790000e-06	3.973806e-06	8.447326e-10	2.759923e+01	6.032764e+01
2.800000e-06	4.005803e-06	8.490739e-10	2.782146e+01	6.048429e+01
2.810000e-06	4.037699e-06	8.511154e-10	2.804298e+01	6.063339e+01
2.820000e-06	4.069505e-06	8.536054e-10	2.826389e+01	6.077537e+01
2.830000e-06	4.101150e-06	8.583758e-10	2.848367e+01	6.091067e+01
2.840000e-06	4.132498e-06	8.620771e-10	2.870139e+01	6.103968e+01
2.850000e-06	4.163564e-06	8.647173e-10	2.891715e+01	6.116276e+01
2.860000e-06	4.194351e-06	8.666929e-10	2.913098e+01	6.128025e+01
2.870000e-06	4.224744e-06	8.679773e-10	2.934206e+01	6.139248e+01
2.880000e-06	4.254757e-06	8.699943e-10	2.955051e+01	6.149972e+01
2.890000e-06	4.284536e-06	8.734574e-10	2.975734e+01	6.160225e+01
2.900000e-06	4.314091e-06	8.781395e-10	2.996261e+01	6.170031e+01
