# Temperatura_=_-12.3
# Concentracion g/m^3_=_1620.0
# C_Vs_to_Am_M_A/Vsm_=_65563218390.804596
# pendiente_HvsI_1/m_=_3716.3
# ordenada_HvsI_A/m_=_1297.0
# frecuencia_Hz_=_135111.4901895398

Tiempo_(s)	Campo_(V.s)	Magnetizacion_(V.s)	Campo_(kA/m)	Magnetizacion_(A/m)
0.000000e+00	-5.514244e-06	-9.294759e-10	-3.836198e+01	-6.194991e+01
1.000000e-08	-5.514408e-06	-9.277145e-10	-3.836312e+01	-6.195755e+01
2.000000e-08	-5.514184e-06	-9.246654e-10	-3.836156e+01	-6.196543e+01
3.000000e-08	-5.513564e-06	-9.219417e-10	-3.835725e+01	-6.197324e+01
4.000000e-08	-5.512414e-06	-9.213708e-10	-3.834925e+01	-6.198069e+01
5.000000e-08	-5.510664e-06	-9.244594e-10	-3.833708e+01	-6.198751e+01
6.000000e-08	-5.508301e-06	-9.350676e-10	-3.832063e+01	-6.199345e+01
7.000000e-08	-5.505401e-06	-9.336770e-10	-3.830046e+01	-6.199829e+01
8.000000e-08	-5.502058e-06	-8.894207e-10	-3.827720e+01	-6.200183e+01
9.000000e-08	-5.498239e-06	-8.705977e-10	-3.825063e+01	-6.200388e+01
1.000000e-07	-5.494053e-06	-9.331101e-10	-3.822152e+01	-6.200431e+01
1.100000e-07	-5.489515e-06	-9.613609e-10	-3.818994e+01	-6.200301e+01
1.200000e-07	-5.484697e-06	-8.758767e-10	-3.815643e+01	-6.199987e+01
1.300000e-07	-5.479651e-06	-8.680580e-10	-3.812132e+01	-6.199485e+01
1.400000e-07	-5.474216e-06	-9.240514e-10	-3.808351e+01	-6.198788e+01
1.500000e-07	-5.468430e-06	-9.657595e-10	-3.804326e+01	-6.197897e+01
1.600000e-07	-5.462372e-06	-8.836367e-10	-3.800111e+01	-6.196809e+01
1.700000e-07	-5.455947e-06	-8.783116e-10	-3.795642e+01	-6.195527e+01
1.800000e-07	-5.449028e-06	-9.652068e-10	-3.790828e+01	-6.194053e+01
1.900000e-07	-5.441711e-06	-1.004987e-09	-3.785737e+01	-6.192389e+01
2.000000e-07	-5.434161e-06	-9.312286e-10	-3.780485e+01	-6.190539e+01
2.100000e-07	-5.426320e-06	-8.744771e-10	-3.775030e+01	-6.188506e+01
2.200000e-07	-5.418104e-06	-9.122403e-10	-3.769315e+01	-6.186293e+01
2.300000e-07	-5.409546e-06	-9.493325e-10	-3.763361e+01	-6.183904e+01
2.400000e-07	-5.400532e-06	-9.364240e-10	-3.757090e+01	-6.181340e+01
2.500000e-07	-5.390865e-06	-9.100077e-10	-3.750364e+01	-6.178601e+01
2.600000e-07	-5.380495e-06	-9.298437e-10	-3.743150e+01	-6.175689e+01
2.700000e-07	-5.369586e-06	-9.203225e-10	-3.735561e+01	-6.172602e+01
2.800000e-07	-5.358319e-06	-8.944188e-10	-3.727723e+01	-6.169338e+01
2.900000e-07	-5.346608e-06	-8.757305e-10	-3.719576e+01	-6.165895e+01
3.000000e-07	-5.334496e-06	-9.105566e-10	-3.711149e+01	-6.162268e+01
3.100000e-07	-5.322040e-06	-9.190973e-10	-3.702484e+01	-6.158452e+01
3.200000e-07	-5.309116e-06	-9.242691e-10	-3.693493e+01	-6.154443e+01
3.300000e-07	-5.295714e-06	-9.045916e-10	-3.684169e+01	-6.150236e+01
3.400000e-07	-5.281987e-06	-9.313359e-10	-3.674619e+01	-6.145825e+01
3.500000e-07	-5.267937e-06	-9.245159e-10	-3.664845e+01	-6.141205e+01
3.600000e-07	-5.253307e-06	-8.887021e-10	-3.654667e+01	-6.136372e+01
3.700000e-07	-5.238107e-06	-8.748892e-10	-3.644092e+01	-6.131323e+01
3.800000e-07	-5.222558e-06	-9.402742e-10	-3.633276e+01	-6.126055e+01
3.900000e-07	-5.206487e-06	-9.290232e-10	-3.622095e+01	-6.120568e+01
4.000000e-07	-5.189919e-06	-8.780189e-10	-3.610569e+01	-6.114863e+01
4.100000e-07	-5.173101e-06	-9.182636e-10	-3.598869e+01	-6.108943e+01
4.200000e-07	-5.155911e-06	-9.556555e-10	-3.586910e+01	-6.102813e+01
4.300000e-07	-5.138319e-06	-8.803177e-10	-3.574671e+01	-6.096481e+01
4.400000e-07	-5.120455e-06	-8.708647e-10	-3.562243e+01	-6.089956e+01
4.500000e-07	-5.102246e-06	-9.553595e-10	-3.549575e+01	-6.083251e+01
4.600000e-07	-5.083631e-06	-9.139950e-10	-3.536626e+01	-6.076380e+01
4.700000e-07	-5.064620e-06	-8.448210e-10	-3.523400e+01	-6.069361e+01
4.800000e-07	-5.045285e-06	-9.141113e-10	-3.509949e+01	-6.062210e+01
4.900000e-07	-5.025751e-06	-9.386677e-10	-3.496359e+01	-6.054951e+01
5.000000e-07	-5.005976e-06	-8.561455e-10	-3.482601e+01	-6.047603e+01
5.100000e-07	-4.985934e-06	-8.957799e-10	-3.468659e+01	-6.040192e+01
5.200000e-07	-4.965661e-06	-9.480595e-10	-3.454555e+01	-6.032741e+01
5.300000e-07	-4.945075e-06	-8.701635e-10	-3.440234e+01	-6.025275e+01
5.400000e-07	-4.924079e-06	-8.547440e-10	-3.425627e+01	-6.017819e+01
5.500000e-07	-4.902761e-06	-9.386278e-10	-3.410796e+01	-6.010399e+01
5.600000e-07	-4.881066e-06	-8.879498e-10	-3.395703e+01	-6.003039e+01
5.700000e-07	-4.858966e-06	-8.339452e-10	-3.380328e+01	-5.995762e+01
5.800000e-07	-4.836615e-06	-9.058314e-10	-3.364779e+01	-5.988590e+01
5.900000e-07	-4.813896e-06	-9.195644e-10	-3.348974e+01	-5.981544e+01
6.000000e-07	-4.790795e-06	-8.505715e-10	-3.332902e+01	-5.974641e+01
6.100000e-07	-4.767426e-06	-8.873805e-10	-3.316645e+01	-5.967899e+01
6.200000e-07	-4.743817e-06	-9.152751e-10	-3.300221e+01	-5.961331e+01
6.300000e-07	-4.720004e-06	-8.612655e-10	-3.283654e+01	-5.954948e+01
6.400000e-07	-4.695880e-06	-8.630719e-10	-3.266871e+01	-5.948757e+01
6.500000e-07	-4.671283e-06	-9.079873e-10	-3.249759e+01	-5.942765e+01
6.600000e-07	-4.646221e-06	-8.776964e-10	-3.232324e+01	-5.936973e+01
6.700000e-07	-4.620720e-06	-8.682351e-10	-3.214583e+01	-5.931382e+01
6.800000e-07	-4.594716e-06	-9.040197e-10	-3.196493e+01	-5.925989e+01
6.900000e-07	-4.568164e-06	-8.930200e-10	-3.178021e+01	-5.920786e+01
7.000000e-07	-4.541188e-06	-8.671024e-10	-3.159254e+01	-5.915768e+01
7.100000e-07	-4.513975e-06	-8.863965e-10	-3.140322e+01	-5.910922e+01
7.200000e-07	-4.486511e-06	-8.829180e-10	-3.121215e+01	-5.906237e+01
7.300000e-07	-4.458750e-06	-8.614209e-10	-3.101903e+01	-5.901699e+01
7.400000e-07	-4.430734e-06	-8.779472e-10	-3.082412e+01	-5.897292e+01
7.500000e-07	-4.402529e-06	-8.930795e-10	-3.062791e+01	-5.892999e+01
7.600000e-07	-4.374084e-06	-8.804810e-10	-3.043002e+01	-5.888803e+01
7.700000e-07	-4.345325e-06	-8.805827e-10	-3.022994e+01	-5.884686e+01
7.800000e-07	-4.316267e-06	-8.884136e-10	-3.002779e+01	-5.880629e+01
7.900000e-07	-4.286845e-06	-8.723527e-10	-2.982310e+01	-5.876614e+01
8.000000e-07	-4.257063e-06	-8.682347e-10	-2.961591e+01	-5.872621e+01
8.100000e-07	-4.227014e-06	-8.791709e-10	-2.940687e+01	-5.868633e+01
8.200000e-07	-4.196749e-06	-8.774820e-10	-2.919631e+01	-5.864631e+01
8.300000e-07	-4.166243e-06	-8.707066e-10	-2.898408e+01	-5.860599e+01
8.400000e-07	-4.135447e-06	-8.830827e-10	-2.876984e+01	-5.856518e+01
8.500000e-07	-4.104327e-06	-8.814563e-10	-2.855334e+01	-5.852374e+01
8.600000e-07	-4.072936e-06	-8.702646e-10	-2.833496e+01	-5.848150e+01
8.700000e-07	-4.041404e-06	-8.712651e-10	-2.811560e+01	-5.843832e+01
8.800000e-07	-4.009761e-06	-8.760046e-10	-2.789546e+01	-5.839405e+01
8.900000e-07	-3.977964e-06	-8.649634e-10	-2.767425e+01	-5.834855e+01
9.000000e-07	-3.945898e-06	-8.672639e-10	-2.745117e+01	-5.830170e+01
9.100000e-07	-3.913465e-06	-8.750625e-10	-2.722554e+01	-5.825335e+01
9.200000e-07	-3.880585e-06	-8.682890e-10	-2.699680e+01	-5.820339e+01
9.300000e-07	-3.847286e-06	-8.607221e-10	-2.676514e+01	-5.815169e+01
9.400000e-07	-3.813522e-06	-8.690166e-10	-2.653025e+01	-5.809812e+01
9.500000e-07	-3.779266e-06	-8.651626e-10	-2.629193e+01	-5.804256e+01
9.600000e-07	-3.744686e-06	-8.540053e-10	-2.605136e+01	-5.798487e+01
9.700000e-07	-3.709822e-06	-8.545111e-10	-2.580882e+01	-5.792495e+01
9.800000e-07	-3.674612e-06	-8.563118e-10	-2.556386e+01	-5.786265e+01
9.900000e-07	-3.639139e-06	-8.479663e-10	-2.531708e+01	-5.779785e+01
1.000000e-06	-3.603534e-06	-8.481139e-10	-2.506938e+01	-5.773042e+01
1.010000e-06	-3.567776e-06	-8.543206e-10	-2.482062e+01	-5.766025e+01
1.020000e-06	-3.531829e-06	-8.512250e-10	-2.457054e+01	-5.758719e+01
1.030000e-06	-3.495761e-06	-8.478706e-10	-2.431962e+01	-5.751113e+01
1.040000e-06	-3.459517e-06	-8.513018e-10	-2.406747e+01	-5.743196e+01
1.050000e-06	-3.422943e-06	-8.492626e-10	-2.381303e+01	-5.734956e+01
1.060000e-06	-3.386049e-06	-8.416241e-10	-2.355637e+01	-5.726383e+01
1.070000e-06	-3.348871e-06	-8.424321e-10	-2.329772e+01	-5.717467e+01
1.080000e-06	-3.311467e-06	-8.435427e-10	-2.303750e+01	-5.708202e+01
1.090000e-06	-3.273887e-06	-8.394514e-10	-2.277607e+01	-5.698580e+01
1.100000e-06	-3.236108e-06	-8.364301e-10	-2.251324e+01	-5.688596e+01
1.110000e-06	-3.198121e-06	-8.372313e-10	-2.224897e+01	-5.678247e+01
1.120000e-06	-3.159934e-06	-8.337944e-10	-2.198331e+01	-5.667531e+01
1.130000e-06	-3.121464e-06	-8.327696e-10	-2.171568e+01	-5.656448e+01
1.140000e-06	-3.082769e-06	-8.340680e-10	-2.144648e+01	-5.645001e+01
1.150000e-06	-3.043833e-06	-8.312322e-10	-2.117560e+01	-5.633193e+01
1.160000e-06	-3.004714e-06	-8.236226e-10	-2.090346e+01	-5.621031e+01
1.170000e-06	-2.965504e-06	-8.208889e-10	-2.063068e+01	-5.608521e+01
1.180000e-06	-2.926067e-06	-8.196182e-10	-2.035632e+01	-5.595673e+01
1.190000e-06	-2.886474e-06	-8.187316e-10	-2.008088e+01	-5.582497e+01
1.200000e-06	-2.846812e-06	-8.182025e-10	-1.980495e+01	-5.569003e+01
1.210000e-06	-2.806987e-06	-8.195109e-10	-1.952790e+01	-5.555205e+01
1.220000e-06	-2.767021e-06	-8.182302e-10	-1.924986e+01	-5.541114e+01
1.230000e-06	-2.726953e-06	-8.185442e-10	-1.897110e+01	-5.526742e+01
1.240000e-06	-2.686640e-06	-8.164042e-10	-1.869065e+01	-5.512101e+01
1.250000e-06	-2.646088e-06	-8.129391e-10	-1.840854e+01	-5.497201e+01
1.260000e-06	-2.605380e-06	-8.097044e-10	-1.812534e+01	-5.482052e+01
1.270000e-06	-2.564338e-06	-8.080806e-10	-1.783982e+01	-5.466662e+01
1.280000e-06	-2.522900e-06	-8.077667e-10	-1.755153e+01	-5.451036e+01
1.290000e-06	-2.481196e-06	-8.062099e-10	-1.726141e+01	-5.435176e+01
1.300000e-06	-2.439203e-06	-8.028676e-10	-1.696926e+01	-5.419081e+01
1.310000e-06	-2.396894e-06	-7.989293e-10	-1.667493e+01	-5.402748e+01
1.320000e-06	-2.354312e-06	-7.956652e-10	-1.637868e+01	-5.386170e+01
1.330000e-06	-2.311490e-06	-7.937606e-10	-1.608078e+01	-5.369334e+01
1.340000e-06	-2.268438e-06	-7.942873e-10	-1.578127e+01	-5.352225e+01
1.350000e-06	-2.225211e-06	-7.939136e-10	-1.548055e+01	-5.334824e+01
1.360000e-06	-2.181787e-06	-7.913549e-10	-1.517845e+01	-5.317106e+01
1.370000e-06	-2.138197e-06	-7.878179e-10	-1.487520e+01	-5.299043e+01
1.380000e-06	-2.094536e-06	-7.852509e-10	-1.457145e+01	-5.280603e+01
1.390000e-06	-2.050822e-06	-7.829141e-10	-1.426734e+01	-5.261750e+01
1.400000e-06	-2.007005e-06	-7.819344e-10	-1.396251e+01	-5.242444e+01
1.410000e-06	-1.963117e-06	-7.801366e-10	-1.365718e+01	-5.222641e+01
1.420000e-06	-1.919211e-06	-7.770289e-10	-1.335174e+01	-5.202295e+01
1.430000e-06	-1.875201e-06	-7.714069e-10	-1.304556e+01	-5.181358e+01
1.440000e-06	-1.831036e-06	-7.676342e-10	-1.273831e+01	-5.159778e+01
1.450000e-06	-1.786810e-06	-7.631177e-10	-1.243064e+01	-5.137502e+01
1.460000e-06	-1.742580e-06	-7.568200e-10	-1.212293e+01	-5.114475e+01
1.470000e-06	-1.698235e-06	-7.505423e-10	-1.181443e+01	-5.090642e+01
1.480000e-06	-1.653656e-06	-7.462900e-10	-1.150430e+01	-5.065948e+01
1.490000e-06	-1.608850e-06	-7.406861e-10	-1.119259e+01	-5.040335e+01
1.500000e-06	-1.563944e-06	-7.345642e-10	-1.088019e+01	-5.013748e+01
1.510000e-06	-1.518932e-06	-7.304665e-10	-1.056704e+01	-4.986130e+01
1.520000e-06	-1.473838e-06	-7.280854e-10	-1.025333e+01	-4.957426e+01
1.530000e-06	-1.428621e-06	-7.253443e-10	-9.938754e+00	-4.927582e+01
1.540000e-06	-1.383292e-06	-7.209434e-10	-9.623411e+00	-4.896544e+01
1.550000e-06	-1.337880e-06	-7.142665e-10	-9.307480e+00	-4.864259e+01
1.560000e-06	-1.292376e-06	-7.051468e-10	-8.990918e+00	-4.830674e+01
1.570000e-06	-1.246783e-06	-6.951260e-10	-8.673728e+00	-4.795737e+01
1.580000e-06	-1.201069e-06	-6.850746e-10	-8.355703e+00	-4.759397e+01
1.590000e-06	-1.155305e-06	-6.785621e-10	-8.037326e+00	-4.721601e+01
1.600000e-06	-1.109430e-06	-6.750441e-10	-7.718183e+00	-4.682299e+01
1.610000e-06	-1.063478e-06	-6.690988e-10	-7.398498e+00	-4.641435e+01
1.620000e-06	-1.017457e-06	-6.614480e-10	-7.078337e+00	-4.598958e+01
1.630000e-06	-9.713722e-07	-6.537503e-10	-6.757728e+00	-4.554810e+01
1.640000e-06	-9.252299e-07	-6.437089e-10	-6.436721e+00	-4.508934e+01
1.650000e-06	-8.789476e-07	-6.328391e-10	-6.114740e+00	-4.461269e+01
1.660000e-06	-8.326132e-07	-6.237930e-10	-5.792397e+00	-4.411752e+01
1.670000e-06	-7.862579e-07	-6.148267e-10	-5.469909e+00	-4.360318e+01
1.680000e-06	-7.398493e-07	-6.043074e-10	-5.147049e+00	-4.306896e+01
1.690000e-06	-6.934852e-07	-5.938429e-10	-4.824499e+00	-4.251412e+01
1.700000e-06	-6.471249e-07	-5.841043e-10	-4.501976e+00	-4.193791e+01
1.710000e-06	-6.006344e-07	-5.761234e-10	-4.178547e+00	-4.133951e+01
1.720000e-06	-5.541186e-07	-5.686979e-10	-3.854941e+00	-4.071809e+01
1.730000e-06	-5.076309e-07	-5.588617e-10	-3.531532e+00	-4.007278e+01
1.740000e-06	-4.611032e-07	-5.454812e-10	-3.207844e+00	-3.940269e+01
1.750000e-06	-4.144246e-07	-5.321815e-10	-2.883106e+00	-3.870692e+01
1.760000e-06	-3.676372e-07	-5.197962e-10	-2.557611e+00	-3.798453e+01
1.770000e-06	-3.209437e-07	-5.091599e-10	-2.232769e+00	-3.723461e+01
1.780000e-06	-2.742493e-07	-5.002440e-10	-1.907922e+00	-3.645625e+01
1.790000e-06	-2.274779e-07	-4.907197e-10	-1.582539e+00	-3.564856e+01
1.800000e-06	-1.805859e-07	-4.780783e-10	-1.256316e+00	-3.481066e+01
1.810000e-06	-1.336583e-07	-4.620552e-10	-9.298459e-01	-3.394176e+01
1.820000e-06	-8.681095e-08	-4.451827e-10	-6.039341e-01	-3.304111e+01
1.830000e-06	-3.997494e-08	-4.296003e-10	-2.781012e-01	-3.210801e+01
1.840000e-06	6.832841e-09	-4.174326e-10	4.753531e-02	-3.114190e+01
1.850000e-06	5.359617e-08	-4.076898e-10	3.728626e-01	-3.014230e+01
1.860000e-06	1.003621e-07	-3.952894e-10	6.982079e-01	-2.910883e+01
1.870000e-06	1.471690e-07	-3.797048e-10	1.023838e+00	-2.804128e+01
1.880000e-06	1.939536e-07	-3.629612e-10	1.349314e+00	-2.693957e+01
1.890000e-06	2.407199e-07	-3.455528e-10	1.674661e+00	-2.580376e+01
1.900000e-06	2.874916e-07	-3.295375e-10	2.000047e+00	-2.463412e+01
1.910000e-06	3.342888e-07	-3.163466e-10	2.325610e+00	-2.343105e+01
1.920000e-06	3.810598e-07	-3.032377e-10	2.650991e+00	-2.219515e+01
1.930000e-06	4.276754e-07	-2.871764e-10	2.975290e+00	-2.092722e+01
1.940000e-06	4.742158e-07	-2.669348e-10	3.299067e+00	-1.962823e+01
1.950000e-06	5.207018e-07	-2.437313e-10	3.622464e+00	-1.829934e+01
1.960000e-06	5.671549e-07	-2.227017e-10	3.945633e+00	-1.694190e+01
1.970000e-06	6.135848e-07	-2.049975e-10	4.268641e+00	-1.555743e+01
1.980000e-06	6.599481e-07	-1.891378e-10	4.591185e+00	-1.414764e+01
1.990000e-06	7.063052e-07	-1.718682e-10	4.913686e+00	-1.271439e+01
2.000000e-06	7.525982e-07	-1.512360e-10	5.235742e+00	-1.125968e+01
2.010000e-06	7.988247e-07	-1.284995e-10	5.557334e+00	-9.785656e+00
2.020000e-06	8.449933e-07	-1.044751e-10	5.878524e+00	-8.294583e+00
2.030000e-06	8.910817e-07	-8.182704e-11	6.199156e+00	-6.788824e+00
2.040000e-06	9.371999e-07	-6.202692e-11	6.519995e+00	-5.270822e+00
2.050000e-06	9.833079e-07	-4.362230e-11	6.840764e+00	-3.743083e+00
2.060000e-06	1.029327e-06	-2.632341e-11	7.160915e+00	-2.208150e+00
2.070000e-06	1.075223e-06	-7.901285e-12	7.480205e+00	-6.685885e-01
2.080000e-06	1.120984e-06	1.535137e-11	7.798560e+00	8.730437e-01
2.090000e-06	1.166629e-06	4.094425e-11	8.116108e+00	2.414212e+00
2.100000e-06	1.212209e-06	6.493055e-11	8.433202e+00	3.952426e+00
2.110000e-06	1.257815e-06	8.710682e-11	8.750478e+00	5.485264e+00
2.120000e-06	1.303358e-06	1.077888e-10	9.067318e+00	7.010384e+00
2.130000e-06	1.348745e-06	1.256284e-10	9.383070e+00	8.525550e+00
2.140000e-06	1.394073e-06	1.431055e-10	9.698409e+00	1.002864e+01
2.150000e-06	1.439376e-06	1.650931e-10	1.001358e+01	1.151766e+01
2.160000e-06	1.484516e-06	1.894648e-10	1.032761e+01	1.299075e+01
2.170000e-06	1.529431e-06	2.130473e-10	1.064008e+01	1.444622e+01
2.180000e-06	1.574207e-06	2.346352e-10	1.095158e+01	1.588252e+01
2.190000e-06	1.618842e-06	2.545193e-10	1.126210e+01	1.729827e+01
2.200000e-06	1.663364e-06	2.716888e-10	1.157184e+01	1.869223e+01
2.210000e-06	1.707779e-06	2.863288e-10	1.188083e+01	2.006335e+01
2.220000e-06	1.752101e-06	3.010144e-10	1.218917e+01	2.141072e+01
2.230000e-06	1.796369e-06	3.172062e-10	1.249714e+01	2.273358e+01
2.240000e-06	1.840523e-06	3.351498e-10	1.280432e+01	2.403133e+01
2.250000e-06	1.884549e-06	3.543937e-10	1.311060e+01	2.530350e+01
2.260000e-06	1.928433e-06	3.753368e-10	1.341589e+01	2.654974e+01
2.270000e-06	1.972239e-06	3.950849e-10	1.372065e+01	2.776982e+01
2.280000e-06	2.016029e-06	4.127644e-10	1.402529e+01	2.896362e+01
2.290000e-06	2.059765e-06	4.290381e-10	1.432955e+01	3.013109e+01
2.300000e-06	2.103394e-06	4.441303e-10	1.463307e+01	3.127227e+01
2.310000e-06	2.146908e-06	4.590595e-10	1.493580e+01	3.238726e+01
2.320000e-06	2.190338e-06	4.742288e-10	1.523794e+01	3.347621e+01
2.330000e-06	2.233688e-06	4.896263e-10	1.553952e+01	3.453931e+01
2.340000e-06	2.276903e-06	5.048643e-10	1.584016e+01	3.557675e+01
2.350000e-06	2.319854e-06	5.197343e-10	1.613896e+01	3.658877e+01
2.360000e-06	2.362542e-06	5.341367e-10	1.643594e+01	3.757558e+01
2.370000e-06	2.404974e-06	5.472166e-10	1.673114e+01	3.853742e+01
2.380000e-06	2.447152e-06	5.584749e-10	1.702456e+01	3.947448e+01
2.390000e-06	2.489077e-06	5.681529e-10	1.731623e+01	4.038697e+01
2.400000e-06	2.530687e-06	5.798134e-10	1.760570e+01	4.127505e+01
2.410000e-06	2.571912e-06	5.935959e-10	1.789251e+01	4.213888e+01
2.420000e-06	2.612809e-06	6.081628e-10	1.817702e+01	4.297859e+01
2.430000e-06	2.653474e-06	6.204567e-10	1.845992e+01	4.379429e+01
2.440000e-06	2.693932e-06	6.281200e-10	1.874138e+01	4.458606e+01
2.450000e-06	2.734160e-06	6.359966e-10	1.902125e+01	4.535398e+01
2.460000e-06	2.774175e-06	6.458929e-10	1.929962e+01	4.609812e+01
2.470000e-06	2.814071e-06	6.576982e-10	1.957718e+01	4.681853e+01
2.480000e-06	2.853820e-06	6.701112e-10	1.985370e+01	4.751528e+01
2.490000e-06	2.893446e-06	6.829783e-10	2.012938e+01	4.818843e+01
2.500000e-06	2.932956e-06	6.935030e-10	2.040425e+01	4.883809e+01
2.510000e-06	2.972322e-06	6.987005e-10	2.067811e+01	4.946435e+01
2.520000e-06	3.011533e-06	7.010239e-10	2.095090e+01	5.006737e+01
2.530000e-06	3.050546e-06	7.051485e-10	2.122231e+01	5.064731e+01
2.540000e-06	3.089316e-06	7.126612e-10	2.149203e+01	5.120440e+01
2.550000e-06	3.127831e-06	7.220510e-10	2.175997e+01	5.173890e+01
2.560000e-06	3.166115e-06	7.306999e-10	2.202631e+01	5.225113e+01
2.570000e-06	3.204238e-06	7.367052e-10	2.229153e+01	5.274147e+01
2.580000e-06	3.242227e-06	7.395356e-10	2.255581e+01	5.321033e+01
2.590000e-06	3.279939e-06	7.411169e-10	2.281817e+01	5.365820e+01
2.600000e-06	3.317418e-06	7.429002e-10	2.307890e+01	5.408561e+01
2.610000e-06	3.354771e-06	7.462749e-10	2.333876e+01	5.449315e+01
2.620000e-06	3.391877e-06	7.539213e-10	2.359691e+01	5.488145e+01
2.630000e-06	3.428713e-06	7.634647e-10	2.385318e+01	5.525118e+01
2.640000e-06	3.465206e-06	7.692675e-10	2.410705e+01	5.560307e+01
2.650000e-06	3.501387e-06	7.723865e-10	2.435876e+01	5.593786e+01
2.660000e-06	3.537438e-06	7.758964e-10	2.460956e+01	5.625632e+01
2.670000e-06	3.573344e-06	7.788541e-10	2.485935e+01	5.655924e+01
2.680000e-06	3.609110e-06	7.811784e-10	2.510817e+01	5.684740e+01
2.690000e-06	3.644702e-06	7.840174e-10	2.535578e+01	5.712160e+01
2.700000e-06	3.680098e-06	7.883207e-10	2.560203e+01	5.738263e+01
2.710000e-06	3.715371e-06	7.908825e-10	2.584742e+01	5.763124e+01
2.720000e-06	3.750392e-06	7.934382e-10	2.609106e+01	5.786817e+01
2.730000e-06	3.784957e-06	7.970586e-10	2.633152e+01	5.809414e+01
2.740000e-06	3.818991e-06	8.015671e-10	2.656829e+01	5.830981e+01
2.750000e-06	3.852569e-06	8.077362e-10	2.680189e+01	5.851580e+01
2.760000e-06	3.885829e-06	8.132277e-10	2.703328e+01	5.871270e+01
2.770000e-06	3.918732e-06	8.177208e-10	2.726218e+01	5.890102e+01
2.780000e-06	3.951153e-06	8.191242e-10	2.748773e+01	5.908124e+01
2.790000e-06	3.983210e-06	8.192747e-10	2.771075e+01	5.925377e+01
2.800000e-06	4.015094e-06	8.190220e-10	2.793256e+01	5.941899e+01
2.810000e-06	4.046817e-06	8.220997e-10	2.815325e+01	5.957719e+01
2.820000e-06	4.078387e-06	8.290512e-10	2.837289e+01	5.972865e+01
2.830000e-06	4.109821e-06	8.358124e-10	2.859157e+01	5.987359e+01
2.840000e-06	4.140984e-06	8.407788e-10	2.880836e+01	6.001218e+01
2.850000e-06	4.171833e-06	8.431577e-10	2.902297e+01	6.014458e+01
2.860000e-06	4.202357e-06	8.437620e-10	2.923533e+01	6.027089e+01
2.870000e-06	4.232513e-06	8.437755e-10	2.944512e+01	6.039122e+01
2.880000e-06	4.262408e-06	8.471684e-10	2.965310e+01	6.050565e+01
2.890000e-06	4.292044e-06	8.541364e-10	2.985927e+01	6.061426e+01
2.900000e-06	4.321408e-06	8.612274e-10	3.006355e+01	6.071713e+01
