# Temperatura_=_-4.37
# Concentracion g/m^3_=_1620.0
# C_Vs_to_Am_M_A/Vsm_=_65563218390.804596
# pendiente_HvsI_1/m_=_3716.3
# ordenada_HvsI_A/m_=_1297.0
# frecuencia_Hz_=_135107.48077907704

Tiempo_(s)	Campo_(V.s)	Magnetizacion_(V.s)	Campo_(kA/m)	Magnetizacion_(A/m)
0.000000e+00	-5.532695e-06	-1.180230e-09	-3.836288e+01	-8.008188e+01
1.000000e-08	-5.532875e-06	-1.182105e-09	-3.836413e+01	-8.006115e+01
2.000000e-08	-5.532833e-06	-1.181876e-09	-3.836384e+01	-8.003918e+01
3.000000e-08	-5.532405e-06	-1.179652e-09	-3.836087e+01	-8.001638e+01
4.000000e-08	-5.531569e-06	-1.177516e-09	-3.835507e+01	-7.999321e+01
5.000000e-08	-5.530280e-06	-1.173817e-09	-3.834613e+01	-7.997015e+01
6.000000e-08	-5.528430e-06	-1.172667e-09	-3.833331e+01	-7.994766e+01
7.000000e-08	-5.525971e-06	-1.175171e-09	-3.831626e+01	-7.992621e+01
8.000000e-08	-5.522862e-06	-1.159903e-09	-3.829470e+01	-7.990624e+01
9.000000e-08	-5.519213e-06	-1.154934e-09	-3.826940e+01	-7.988815e+01
1.000000e-07	-5.515182e-06	-1.203690e-09	-3.824145e+01	-7.987227e+01
1.100000e-07	-5.510831e-06	-1.226549e-09	-3.821128e+01	-7.985888e+01
1.200000e-07	-5.506332e-06	-1.161614e-09	-3.818009e+01	-7.984817e+01
1.300000e-07	-5.501731e-06	-1.120729e-09	-3.814818e+01	-7.984023e+01
1.400000e-07	-5.496694e-06	-1.154360e-09	-3.811326e+01	-7.983506e+01
1.500000e-07	-5.491041e-06	-1.228907e-09	-3.807406e+01	-7.983255e+01
1.600000e-07	-5.485006e-06	-1.184131e-09	-3.803221e+01	-7.983248e+01
1.700000e-07	-5.478726e-06	-1.152346e-09	-3.798867e+01	-7.983450e+01
1.800000e-07	-5.471999e-06	-1.167087e-09	-3.794203e+01	-7.983818e+01
1.900000e-07	-5.464797e-06	-1.222978e-09	-3.789209e+01	-7.984297e+01
2.000000e-07	-5.457290e-06	-1.185584e-09	-3.784003e+01	-7.984820e+01
2.100000e-07	-5.449588e-06	-1.149564e-09	-3.778663e+01	-7.985314e+01
2.200000e-07	-5.441703e-06	-1.168720e-09	-3.773195e+01	-7.985698e+01
2.300000e-07	-5.433548e-06	-1.221839e-09	-3.767541e+01	-7.985884e+01
2.400000e-07	-5.424952e-06	-1.221369e-09	-3.761581e+01	-7.985778e+01
2.500000e-07	-5.415704e-06	-1.192303e-09	-3.755168e+01	-7.985287e+01
2.600000e-07	-5.405654e-06	-1.198025e-09	-3.748200e+01	-7.984315e+01
2.700000e-07	-5.394959e-06	-1.204773e-09	-3.740784e+01	-7.982767e+01
2.800000e-07	-5.383771e-06	-1.207118e-09	-3.733026e+01	-7.980552e+01
2.900000e-07	-5.372151e-06	-1.191470e-09	-3.724969e+01	-7.977585e+01
3.000000e-07	-5.360162e-06	-1.211246e-09	-3.716656e+01	-7.973788e+01
3.100000e-07	-5.347835e-06	-1.208176e-09	-3.708109e+01	-7.969092e+01
3.200000e-07	-5.335159e-06	-1.221224e-09	-3.699320e+01	-7.963438e+01
3.300000e-07	-5.321976e-06	-1.198730e-09	-3.690179e+01	-7.956783e+01
3.400000e-07	-5.308394e-06	-1.207222e-09	-3.680761e+01	-7.949093e+01
3.500000e-07	-5.294447e-06	-1.197855e-09	-3.671090e+01	-7.940352e+01
3.600000e-07	-5.280044e-06	-1.201778e-09	-3.661104e+01	-7.930559e+01
3.700000e-07	-5.265303e-06	-1.185925e-09	-3.650883e+01	-7.919726e+01
3.800000e-07	-5.250236e-06	-1.212250e-09	-3.640435e+01	-7.907884e+01
3.900000e-07	-5.234533e-06	-1.199071e-09	-3.629547e+01	-7.895078e+01
4.000000e-07	-5.218156e-06	-1.168519e-09	-3.618191e+01	-7.881367e+01
4.100000e-07	-5.201412e-06	-1.166960e-09	-3.606581e+01	-7.866825e+01
4.200000e-07	-5.184408e-06	-1.202458e-09	-3.594791e+01	-7.851537e+01
4.300000e-07	-5.167025e-06	-1.170847e-09	-3.582738e+01	-7.835600e+01
4.400000e-07	-5.149325e-06	-1.143762e-09	-3.570465e+01	-7.819120e+01
4.500000e-07	-5.131329e-06	-1.180420e-09	-3.557987e+01	-7.802208e+01
4.600000e-07	-5.112926e-06	-1.187556e-09	-3.545226e+01	-7.784983e+01
4.700000e-07	-5.094054e-06	-1.134244e-09	-3.532141e+01	-7.767563e+01
4.800000e-07	-5.074788e-06	-1.142580e-09	-3.518782e+01	-7.750068e+01
4.900000e-07	-5.055284e-06	-1.182952e-09	-3.505258e+01	-7.732615e+01
5.000000e-07	-5.035559e-06	-1.157348e-09	-3.491581e+01	-7.715316e+01
5.100000e-07	-5.015598e-06	-1.144244e-09	-3.477741e+01	-7.698277e+01
5.200000e-07	-4.995335e-06	-1.175008e-09	-3.463691e+01	-7.681592e+01
5.300000e-07	-4.974700e-06	-1.167892e-09	-3.449383e+01	-7.665348e+01
5.400000e-07	-4.953713e-06	-1.133328e-09	-3.434830e+01	-7.649617e+01
5.500000e-07	-4.932388e-06	-1.153510e-09	-3.420044e+01	-7.634455e+01
5.600000e-07	-4.910757e-06	-1.154710e-09	-3.405046e+01	-7.619906e+01
5.700000e-07	-4.888806e-06	-1.126272e-09	-3.389825e+01	-7.605996e+01
5.800000e-07	-4.866466e-06	-1.131694e-09	-3.374335e+01	-7.592734e+01
5.900000e-07	-4.843671e-06	-1.160793e-09	-3.358529e+01	-7.580114e+01
6.000000e-07	-4.820571e-06	-1.138494e-09	-3.342512e+01	-7.568113e+01
6.100000e-07	-4.797295e-06	-1.126093e-09	-3.326373e+01	-7.556693e+01
6.200000e-07	-4.773736e-06	-1.133145e-09	-3.310037e+01	-7.545798e+01
6.300000e-07	-4.749949e-06	-1.130573e-09	-3.293543e+01	-7.535364e+01
6.400000e-07	-4.725957e-06	-1.114648e-09	-3.276908e+01	-7.525311e+01
6.500000e-07	-4.701606e-06	-1.124722e-09	-3.260023e+01	-7.515550e+01
6.600000e-07	-4.676767e-06	-1.124846e-09	-3.242800e+01	-7.505985e+01
6.700000e-07	-4.651410e-06	-1.122126e-09	-3.225218e+01	-7.496514e+01
6.800000e-07	-4.625527e-06	-1.119832e-09	-3.207272e+01	-7.487030e+01
6.900000e-07	-4.599169e-06	-1.123241e-09	-3.188995e+01	-7.477426e+01
7.000000e-07	-4.572257e-06	-1.117175e-09	-3.170335e+01	-7.467597e+01
7.100000e-07	-4.544862e-06	-1.111851e-09	-3.151339e+01	-7.457440e+01
7.200000e-07	-4.517256e-06	-1.100951e-09	-3.132198e+01	-7.446858e+01
7.300000e-07	-4.489540e-06	-1.101533e-09	-3.112980e+01	-7.435761e+01
7.400000e-07	-4.461702e-06	-1.103892e-09	-3.093677e+01	-7.424070e+01
7.500000e-07	-4.433599e-06	-1.100005e-09	-3.074191e+01	-7.411716e+01
7.600000e-07	-4.405221e-06	-1.096185e-09	-3.054514e+01	-7.398640e+01
7.700000e-07	-4.376624e-06	-1.098616e-09	-3.034686e+01	-7.384801e+01
7.800000e-07	-4.347716e-06	-1.090762e-09	-3.014642e+01	-7.370168e+01
7.900000e-07	-4.318438e-06	-1.080047e-09	-2.994340e+01	-7.354726e+01
8.000000e-07	-4.288826e-06	-1.081770e-09	-2.973808e+01	-7.338473e+01
8.100000e-07	-4.258912e-06	-1.078041e-09	-2.953066e+01	-7.321422e+01
8.200000e-07	-4.228676e-06	-1.069677e-09	-2.932101e+01	-7.303598e+01
8.300000e-07	-4.198057e-06	-1.068917e-09	-2.910870e+01	-7.285039e+01
8.400000e-07	-4.167103e-06	-1.073844e-09	-2.889407e+01	-7.265795e+01
8.500000e-07	-4.135898e-06	-1.068339e-09	-2.867770e+01	-7.245922e+01
8.600000e-07	-4.104517e-06	-1.065418e-09	-2.846011e+01	-7.225488e+01
8.700000e-07	-4.073002e-06	-1.062139e-09	-2.824158e+01	-7.204565e+01
8.800000e-07	-4.041288e-06	-1.056850e-09	-2.802168e+01	-7.183228e+01
8.900000e-07	-4.009369e-06	-1.046332e-09	-2.780037e+01	-7.161556e+01
9.000000e-07	-3.977218e-06	-1.044878e-09	-2.757743e+01	-7.139627e+01
9.100000e-07	-3.944775e-06	-1.042019e-09	-2.735248e+01	-7.117517e+01
9.200000e-07	-3.911979e-06	-1.039739e-09	-2.712508e+01	-7.095299e+01
9.300000e-07	-3.878773e-06	-1.037479e-09	-2.689483e+01	-7.073038e+01
9.400000e-07	-3.845055e-06	-1.039756e-09	-2.666103e+01	-7.050796e+01
9.500000e-07	-3.810779e-06	-1.034208e-09	-2.642337e+01	-7.028623e+01
9.600000e-07	-3.776109e-06	-1.027401e-09	-2.618298e+01	-7.006559e+01
9.700000e-07	-3.741158e-06	-1.016567e-09	-2.594063e+01	-6.984635e+01
9.800000e-07	-3.705927e-06	-1.009102e-09	-2.569635e+01	-6.962871e+01
9.900000e-07	-3.670416e-06	-1.004917e-09	-2.545012e+01	-6.941275e+01
1.000000e-06	-3.634716e-06	-1.005674e-09	-2.520258e+01	-6.919842e+01
1.010000e-06	-3.598924e-06	-1.005004e-09	-2.495440e+01	-6.898558e+01
1.020000e-06	-3.562993e-06	-1.003499e-09	-2.470526e+01	-6.877397e+01
1.030000e-06	-3.526892e-06	-9.984672e-10	-2.445495e+01	-6.856324e+01
1.040000e-06	-3.490639e-06	-9.926772e-10	-2.420357e+01	-6.835294e+01
1.050000e-06	-3.454132e-06	-9.870271e-10	-2.395043e+01	-6.814255e+01
1.060000e-06	-3.417376e-06	-9.822485e-10	-2.369557e+01	-6.793150e+01
1.070000e-06	-3.380361e-06	-9.780088e-10	-2.343892e+01	-6.771915e+01
1.080000e-06	-3.342977e-06	-9.758683e-10	-2.317970e+01	-6.750486e+01
1.090000e-06	-3.305263e-06	-9.765974e-10	-2.291820e+01	-6.728796e+01
1.100000e-06	-3.267320e-06	-9.737656e-10	-2.265511e+01	-6.706778e+01
1.110000e-06	-3.229196e-06	-9.684233e-10	-2.239076e+01	-6.684369e+01
1.120000e-06	-3.190928e-06	-9.631034e-10	-2.212542e+01	-6.661507e+01
1.130000e-06	-3.152415e-06	-9.576046e-10	-2.185837e+01	-6.638137e+01
1.140000e-06	-3.113679e-06	-9.510403e-10	-2.158978e+01	-6.614209e+01
1.150000e-06	-3.074819e-06	-9.489423e-10	-2.132033e+01	-6.589682e+01
1.160000e-06	-3.035775e-06	-9.446303e-10	-2.104961e+01	-6.564522e+01
1.170000e-06	-2.996472e-06	-9.377769e-10	-2.077709e+01	-6.538703e+01
1.180000e-06	-2.956927e-06	-9.306196e-10	-2.050289e+01	-6.512209e+01
1.190000e-06	-2.917301e-06	-9.296043e-10	-2.022813e+01	-6.485033e+01
1.200000e-06	-2.877577e-06	-9.261114e-10	-1.995269e+01	-6.457177e+01
1.210000e-06	-2.837661e-06	-9.204844e-10	-1.967592e+01	-6.428651e+01
1.220000e-06	-2.797619e-06	-9.152348e-10	-1.939827e+01	-6.399472e+01
1.230000e-06	-2.757451e-06	-9.134944e-10	-1.911975e+01	-6.369667e+01
1.240000e-06	-2.717089e-06	-9.085985e-10	-1.883989e+01	-6.339265e+01
1.250000e-06	-2.676555e-06	-9.062112e-10	-1.855883e+01	-6.308302e+01
1.260000e-06	-2.635734e-06	-9.063144e-10	-1.827578e+01	-6.276817e+01
1.270000e-06	-2.594558e-06	-9.033397e-10	-1.799028e+01	-6.244849e+01
1.280000e-06	-2.553095e-06	-8.970810e-10	-1.770278e+01	-6.212439e+01
1.290000e-06	-2.511367e-06	-8.922010e-10	-1.741344e+01	-6.179627e+01
1.300000e-06	-2.469459e-06	-8.843039e-10	-1.712286e+01	-6.146448e+01
1.310000e-06	-2.427292e-06	-8.757012e-10	-1.683048e+01	-6.112935e+01
1.320000e-06	-2.384739e-06	-8.708525e-10	-1.653543e+01	-6.079116e+01
1.330000e-06	-2.341796e-06	-8.658142e-10	-1.623766e+01	-6.045009e+01
1.340000e-06	-2.298622e-06	-8.589369e-10	-1.593830e+01	-6.010629e+01
1.350000e-06	-2.255309e-06	-8.555777e-10	-1.563798e+01	-5.975978e+01
1.360000e-06	-2.211819e-06	-8.524625e-10	-1.533642e+01	-5.941054e+01
1.370000e-06	-2.168192e-06	-8.454127e-10	-1.503392e+01	-5.905841e+01
1.380000e-06	-2.124484e-06	-8.390921e-10	-1.473085e+01	-5.870317e+01
1.390000e-06	-2.080752e-06	-8.328584e-10	-1.442762e+01	-5.834449e+01
1.400000e-06	-2.036952e-06	-8.261961e-10	-1.412392e+01	-5.798196e+01
1.410000e-06	-1.993047e-06	-8.217038e-10	-1.381949e+01	-5.761508e+01
1.420000e-06	-1.949049e-06	-8.194378e-10	-1.351441e+01	-5.724328e+01
1.430000e-06	-1.904949e-06	-8.140646e-10	-1.320863e+01	-5.686592e+01
1.440000e-06	-1.860733e-06	-8.041817e-10	-1.290204e+01	-5.648230e+01
1.450000e-06	-1.816403e-06	-7.932234e-10	-1.259466e+01	-5.609168e+01
1.460000e-06	-1.771972e-06	-7.844263e-10	-1.228659e+01	-5.569330e+01
1.470000e-06	-1.727460e-06	-7.741164e-10	-1.197795e+01	-5.528636e+01
1.480000e-06	-1.682827e-06	-7.663029e-10	-1.166847e+01	-5.487007e+01
1.490000e-06	-1.638040e-06	-7.603116e-10	-1.135792e+01	-5.444363e+01
1.500000e-06	-1.593037e-06	-7.551256e-10	-1.104588e+01	-5.400627e+01
1.510000e-06	-1.547825e-06	-7.507184e-10	-1.073239e+01	-5.355726e+01
1.520000e-06	-1.502576e-06	-7.475034e-10	-1.041864e+01	-5.309588e+01
1.530000e-06	-1.457326e-06	-7.425031e-10	-1.010488e+01	-5.262148e+01
1.540000e-06	-1.411985e-06	-7.338208e-10	-9.790491e+00	-5.213344e+01
1.550000e-06	-1.366476e-06	-7.233787e-10	-9.474944e+00	-5.163121e+01
1.560000e-06	-1.320914e-06	-7.125085e-10	-9.159024e+00	-5.111429e+01
1.570000e-06	-1.275302e-06	-7.009864e-10	-8.842753e+00	-5.058222e+01
1.580000e-06	-1.229538e-06	-6.927903e-10	-8.525433e+00	-5.003463e+01
1.590000e-06	-1.183663e-06	-6.888872e-10	-8.207345e+00	-4.947115e+01
1.600000e-06	-1.137718e-06	-6.860056e-10	-7.888769e+00	-4.889148e+01
1.610000e-06	-1.091724e-06	-6.806098e-10	-7.569851e+00	-4.829533e+01
1.620000e-06	-1.045669e-06	-6.717014e-10	-7.250515e+00	-4.768245e+01
1.630000e-06	-9.995398e-07	-6.601067e-10	-6.930660e+00	-4.705258e+01
1.640000e-06	-9.533230e-07	-6.484988e-10	-6.610199e+00	-4.640548e+01
1.650000e-06	-9.070354e-07	-6.369898e-10	-6.289248e+00	-4.574086e+01
1.660000e-06	-8.607059e-07	-6.252892e-10	-5.968006e+00	-4.505844e+01
1.670000e-06	-8.143348e-07	-6.145801e-10	-5.646476e+00	-4.435787e+01
1.680000e-06	-7.678781e-07	-6.034535e-10	-5.324352e+00	-4.363876e+01
1.690000e-06	-7.212793e-07	-5.910860e-10	-5.001243e+00	-4.290066e+01
1.700000e-06	-6.746573e-07	-5.766147e-10	-4.677973e+00	-4.214306e+01
1.710000e-06	-6.280575e-07	-5.627137e-10	-4.354857e+00	-4.136536e+01
1.720000e-06	-5.813716e-07	-5.511011e-10	-4.031144e+00	-4.056689e+01
1.730000e-06	-5.346290e-07	-5.390432e-10	-3.707038e+00	-3.974689e+01
1.740000e-06	-4.878387e-07	-5.252904e-10	-3.382600e+00	-3.890454e+01
1.750000e-06	-4.410056e-07	-5.100073e-10	-3.057867e+00	-3.803894e+01
1.760000e-06	-3.941981e-07	-4.922537e-10	-2.733311e+00	-3.714912e+01
1.770000e-06	-3.473740e-07	-4.756780e-10	-2.408640e+00	-3.623404e+01
1.780000e-06	-3.004921e-07	-4.621452e-10	-2.083567e+00	-3.529266e+01
1.790000e-06	-2.535828e-07	-4.508229e-10	-1.758305e+00	-3.432387e+01
1.800000e-06	-2.066278e-07	-4.387061e-10	-1.432726e+00	-3.332656e+01
1.810000e-06	-1.596461e-07	-4.241746e-10	-1.106962e+00	-3.229966e+01
1.820000e-06	-1.126506e-07	-4.085807e-10	-7.811024e-01	-3.124209e+01
1.830000e-06	-6.572439e-08	-3.930552e-10	-4.557231e-01	-3.015285e+01
1.840000e-06	-1.883740e-08	-3.774234e-10	-1.306157e-01	-2.903102e+01
1.850000e-06	2.813936e-08	-3.612299e-10	1.951141e-01	-2.787577e+01
1.860000e-06	7.515663e-08	-3.429360e-10	5.211248e-01	-2.668640e+01
1.870000e-06	1.220649e-07	-3.228148e-10	8.463797e-01	-2.546235e+01
1.880000e-06	1.688896e-07	-3.043782e-10	1.171055e+00	-2.420326e+01
1.890000e-06	2.157597e-07	-2.878769e-10	1.496046e+00	-2.290893e+01
1.900000e-06	2.627248e-07	-2.700663e-10	1.821695e+00	-2.157937e+01
1.910000e-06	3.097064e-07	-2.526199e-10	2.147458e+00	-2.021482e+01
1.920000e-06	3.565101e-07	-2.367724e-10	2.471988e+00	-1.881576e+01
1.930000e-06	4.033079e-07	-2.186540e-10	2.796477e+00	-1.738289e+01
1.940000e-06	4.501790e-07	-1.968056e-10	3.121474e+00	-1.591717e+01
1.950000e-06	4.969359e-07	-1.732504e-10	3.445679e+00	-1.441981e+01
1.960000e-06	5.436179e-07	-1.515990e-10	3.769365e+00	-1.289225e+01
1.970000e-06	5.903298e-07	-1.332141e-10	4.093259e+00	-1.133619e+01
1.980000e-06	6.369966e-07	-1.155908e-10	4.416839e+00	-9.753531e+00
1.990000e-06	6.835274e-07	-9.694517e-11	4.739476e+00	-8.146401e+00
2.000000e-06	7.300088e-07	-7.479458e-11	5.061772e+00	-6.517117e+00
2.010000e-06	7.764396e-07	-4.778360e-11	5.383716e+00	-4.868169e+00
2.020000e-06	8.228319e-07	-1.978217e-11	5.705393e+00	-3.202198e+00
2.030000e-06	8.691751e-07	4.782337e-12	6.026730e+00	-1.521966e+00
2.040000e-06	9.154496e-07	2.574596e-11	6.347591e+00	1.696685e-01
2.050000e-06	9.616252e-07	4.785989e-11	6.667765e+00	1.869783e+00
2.060000e-06	1.007676e-06	7.087011e-11	6.987075e+00	3.575417e+00
2.070000e-06	1.053644e-06	9.415331e-11	7.305809e+00	5.283606e+00
2.080000e-06	1.099567e-06	1.187361e-10	7.624235e+00	6.991411e+00
2.090000e-06	1.145491e-06	1.437380e-10	7.942663e+00	8.695945e+00
2.100000e-06	1.191357e-06	1.704997e-10	8.260691e+00	1.039440e+01
2.110000e-06	1.237110e-06	1.949127e-10	8.577933e+00	1.208409e+01
2.120000e-06	1.282754e-06	2.168419e-10	8.894428e+00	1.376244e+01
2.130000e-06	1.328314e-06	2.380925e-10	9.210331e+00	1.542703e+01
2.140000e-06	1.373862e-06	2.597575e-10	9.526152e+00	1.707563e+01
2.150000e-06	1.419342e-06	2.812907e-10	9.841505e+00	1.870617e+01
2.160000e-06	1.464646e-06	3.041217e-10	1.015563e+01	2.031678e+01
2.170000e-06	1.509831e-06	3.273256e-10	1.046894e+01	2.190581e+01
2.180000e-06	1.554897e-06	3.464076e-10	1.078142e+01	2.347179e+01
2.190000e-06	1.599832e-06	3.663756e-10	1.109299e+01	2.501348e+01
2.200000e-06	1.644724e-06	3.890034e-10	1.140427e+01	2.652983e+01
2.210000e-06	1.689482e-06	4.096920e-10	1.171461e+01	2.801999e+01
2.220000e-06	1.733972e-06	4.274582e-10	1.202310e+01	2.948331e+01
2.230000e-06	1.778301e-06	4.453962e-10	1.233048e+01	3.091929e+01
2.240000e-06	1.822558e-06	4.632868e-10	1.263735e+01	3.232761e+01
2.250000e-06	1.866712e-06	4.798915e-10	1.294350e+01	3.370811e+01
2.260000e-06	1.910749e-06	4.984971e-10	1.324885e+01	3.506071e+01
2.270000e-06	1.954682e-06	5.197016e-10	1.355347e+01	3.638550e+01
2.280000e-06	1.998558e-06	5.403529e-10	1.385770e+01	3.768262e+01
2.290000e-06	2.042400e-06	5.607675e-10	1.416170e+01	3.895229e+01
2.300000e-06	2.086207e-06	5.767422e-10	1.446545e+01	4.019479e+01
2.310000e-06	2.129966e-06	5.889769e-10	1.476886e+01	4.141043e+01
2.320000e-06	2.173611e-06	6.006131e-10	1.507150e+01	4.259955e+01
2.330000e-06	2.217223e-06	6.139260e-10	1.537389e+01	4.376248e+01
2.340000e-06	2.260762e-06	6.297242e-10	1.567579e+01	4.489955e+01
2.350000e-06	2.304081e-06	6.481396e-10	1.597615e+01	4.601107e+01
2.360000e-06	2.347132e-06	6.667526e-10	1.627466e+01	4.709733e+01
2.370000e-06	2.390005e-06	6.811397e-10	1.657194e+01	4.815855e+01
2.380000e-06	2.432651e-06	6.922780e-10	1.686764e+01	4.919497e+01
2.390000e-06	2.474862e-06	7.023365e-10	1.716032e+01	5.020673e+01
2.400000e-06	2.516733e-06	7.133190e-10	1.745065e+01	5.119398e+01
2.410000e-06	2.558340e-06	7.273323e-10	1.773914e+01	5.215680e+01
2.420000e-06	2.599680e-06	7.430329e-10	1.802579e+01	5.309526e+01
2.430000e-06	2.640684e-06	7.585039e-10	1.831011e+01	5.400939e+01
2.440000e-06	2.681280e-06	7.727203e-10	1.859159e+01	5.489921e+01
2.450000e-06	2.721644e-06	7.846257e-10	1.887147e+01	5.576473e+01
2.460000e-06	2.761882e-06	7.940127e-10	1.915047e+01	5.660596e+01
2.470000e-06	2.801959e-06	8.028444e-10	1.942837e+01	5.742292e+01
2.480000e-06	2.841890e-06	8.124755e-10	1.970524e+01	5.821567e+01
2.490000e-06	2.881728e-06	8.231182e-10	1.998147e+01	5.898426e+01
2.500000e-06	2.921489e-06	8.355333e-10	2.025717e+01	5.972883e+01
2.510000e-06	2.961153e-06	8.472512e-10	2.053219e+01	6.044953e+01
2.520000e-06	3.000597e-06	8.568356e-10	2.080569e+01	6.114659e+01
2.530000e-06	3.039791e-06	8.643289e-10	2.107745e+01	6.182028e+01
2.540000e-06	3.078832e-06	8.725037e-10	2.134816e+01	6.247094e+01
2.550000e-06	3.117653e-06	8.817189e-10	2.161734e+01	6.309900e+01
2.560000e-06	3.156190e-06	8.917568e-10	2.188455e+01	6.370492e+01
2.570000e-06	3.194501e-06	9.003774e-10	2.215019e+01	6.428926e+01
2.580000e-06	3.232602e-06	9.062158e-10	2.241438e+01	6.485263e+01
2.590000e-06	3.270473e-06	9.102919e-10	2.267697e+01	6.539567e+01
2.600000e-06	3.308132e-06	9.166376e-10	2.293809e+01	6.591913e+01
2.610000e-06	3.345559e-06	9.250702e-10	2.319761e+01	6.642374e+01
2.620000e-06	3.382796e-06	9.335278e-10	2.345580e+01	6.691032e+01
2.630000e-06	3.419848e-06	9.426240e-10	2.371271e+01	6.737966e+01
2.640000e-06	3.456588e-06	9.489028e-10	2.396746e+01	6.783262e+01
2.650000e-06	3.493003e-06	9.523727e-10	2.421996e+01	6.827001e+01
2.660000e-06	3.529261e-06	9.577170e-10	2.447137e+01	6.869266e+01
2.670000e-06	3.565347e-06	9.640575e-10	2.472158e+01	6.910138e+01
2.680000e-06	3.601236e-06	9.717409e-10	2.497043e+01	6.949694e+01
2.690000e-06	3.637036e-06	9.802107e-10	2.521867e+01	6.988007e+01
2.700000e-06	3.672764e-06	9.847130e-10	2.546640e+01	7.025146e+01
2.710000e-06	3.708333e-06	9.852877e-10	2.571303e+01	7.061174e+01
2.720000e-06	3.743624e-06	9.857486e-10	2.595773e+01	7.096149e+01
2.730000e-06	3.778576e-06	9.897506e-10	2.620008e+01	7.130120e+01
2.740000e-06	3.813153e-06	9.945466e-10	2.643983e+01	7.163132e+01
2.750000e-06	3.847308e-06	1.002357e-09	2.667666e+01	7.195221e+01
2.760000e-06	3.880941e-06	1.011080e-09	2.690986e+01	7.226419e+01
2.770000e-06	3.914110e-06	1.017763e-09	2.713985e+01	7.256749e+01
2.780000e-06	3.946829e-06	1.020651e-09	2.736672e+01	7.286229e+01
2.790000e-06	3.979139e-06	1.021370e-09	2.759076e+01	7.314872e+01
2.800000e-06	4.011205e-06	1.023498e-09	2.781310e+01	7.342687e+01
2.810000e-06	4.043129e-06	1.026542e-09	2.803445e+01	7.369679e+01
2.820000e-06	4.074926e-06	1.031538e-09	2.825493e+01	7.395848e+01
2.830000e-06	4.106500e-06	1.038959e-09	2.847385e+01	7.421195e+01
2.840000e-06	4.137874e-06	1.047004e-09	2.869140e+01	7.445719e+01
2.850000e-06	4.169029e-06	1.052489e-09	2.890742e+01	7.469419e+01
2.860000e-06	4.199852e-06	1.055922e-09	2.912115e+01	7.492295e+01
2.870000e-06	4.230298e-06	1.058358e-09	2.933225e+01	7.514349e+01
2.880000e-06	4.260431e-06	1.060320e-09	2.954119e+01	7.535586e+01
2.890000e-06	4.290257e-06	1.063524e-09	2.974800e+01	7.556013e+01
2.900000e-06	4.319801e-06	1.069501e-09	2.995285e+01	7.575644e+01
