# Temperatura_=_-7.6
# Concentracion g/m^3_=_1620.0
# C_Vs_to_Am_M_A/Vsm_=_65563218390.804596
# pendiente_HvsI_1/m_=_3716.3
# ordenada_HvsI_A/m_=_1297.0
# frecuencia_Hz_=_135109.94863284982

Tiempo_(s)	Campo_(V.s)	Magnetizacion_(V.s)	Campo_(kA/m)	Magnetizacion_(A/m)
0.000000e+00	-5.528114e-06	-1.011868e-09	-3.836707e+01	-6.876416e+01
1.000000e-08	-5.528268e-06	-1.007248e-09	-3.836814e+01	-6.875135e+01
2.000000e-08	-5.528118e-06	-1.001333e-09	-3.836710e+01	-6.874066e+01
3.000000e-08	-5.527527e-06	-1.000107e-09	-3.836300e+01	-6.873178e+01
4.000000e-08	-5.526340e-06	-9.990601e-10	-3.835476e+01	-6.872439e+01
5.000000e-08	-5.524526e-06	-9.947606e-10	-3.834217e+01	-6.871807e+01
6.000000e-08	-5.522163e-06	-9.841739e-10	-3.832577e+01	-6.871242e+01
7.000000e-08	-5.519312e-06	-9.864647e-10	-3.830598e+01	-6.870697e+01
8.000000e-08	-5.516030e-06	-1.020696e-09	-3.828321e+01	-6.870123e+01
9.000000e-08	-5.512245e-06	-1.055447e-09	-3.825693e+01	-6.869469e+01
1.000000e-07	-5.508021e-06	-1.032612e-09	-3.822762e+01	-6.868682e+01
1.100000e-07	-5.503643e-06	-9.912978e-10	-3.819723e+01	-6.867707e+01
1.200000e-07	-5.499119e-06	-9.583752e-10	-3.816584e+01	-6.866489e+01
1.300000e-07	-5.494232e-06	-1.000379e-09	-3.813192e+01	-6.864974e+01
1.400000e-07	-5.488844e-06	-1.009635e-09	-3.809452e+01	-6.863107e+01
1.500000e-07	-5.483040e-06	-9.913064e-10	-3.805424e+01	-6.860836e+01
1.600000e-07	-5.476938e-06	-9.837713e-10	-3.801189e+01	-6.858111e+01
1.700000e-07	-5.470433e-06	-1.009574e-09	-3.796674e+01	-6.854884e+01
1.800000e-07	-5.463425e-06	-1.033246e-09	-3.791811e+01	-6.851112e+01
1.900000e-07	-5.456073e-06	-1.023381e-09	-3.786708e+01	-6.846757e+01
2.000000e-07	-5.448535e-06	-1.000264e-09	-3.781476e+01	-6.841784e+01
2.100000e-07	-5.440738e-06	-1.004028e-09	-3.776065e+01	-6.836166e+01
2.200000e-07	-5.432676e-06	-1.024075e-09	-3.770470e+01	-6.829882e+01
2.300000e-07	-5.424320e-06	-1.018943e-09	-3.764670e+01	-6.822915e+01
2.400000e-07	-5.415451e-06	-1.011791e-09	-3.758515e+01	-6.815260e+01
2.500000e-07	-5.405799e-06	-1.013427e-09	-3.751816e+01	-6.806914e+01
2.600000e-07	-5.395373e-06	-1.014380e-09	-3.744580e+01	-6.797887e+01
2.700000e-07	-5.384545e-06	-9.839399e-10	-3.737065e+01	-6.788191e+01
2.800000e-07	-5.373284e-06	-9.759367e-10	-3.729250e+01	-6.777851e+01
2.900000e-07	-5.361493e-06	-9.897535e-10	-3.721066e+01	-6.766894e+01
3.000000e-07	-5.349311e-06	-1.000307e-09	-3.712612e+01	-6.755358e+01
3.100000e-07	-5.336758e-06	-9.862650e-10	-3.703900e+01	-6.743286e+01
3.200000e-07	-5.323822e-06	-1.003271e-09	-3.694921e+01	-6.730726e+01
3.300000e-07	-5.310507e-06	-1.005219e-09	-3.685681e+01	-6.717733e+01
3.400000e-07	-5.296817e-06	-9.865501e-10	-3.676179e+01	-6.704365e+01
3.500000e-07	-5.282648e-06	-9.650966e-10	-3.666345e+01	-6.690685e+01
3.600000e-07	-5.268051e-06	-9.828923e-10	-3.656214e+01	-6.676756e+01
3.700000e-07	-5.252995e-06	-9.735098e-10	-3.645765e+01	-6.662647e+01
3.800000e-07	-5.237369e-06	-9.665704e-10	-3.634920e+01	-6.648423e+01
3.900000e-07	-5.221202e-06	-9.814010e-10	-3.623699e+01	-6.634151e+01
4.000000e-07	-5.204604e-06	-9.933705e-10	-3.612180e+01	-6.619897e+01
4.100000e-07	-5.187684e-06	-9.732437e-10	-3.600437e+01	-6.605723e+01
4.200000e-07	-5.170466e-06	-9.688923e-10	-3.588487e+01	-6.591689e+01
4.300000e-07	-5.152949e-06	-9.777243e-10	-3.576329e+01	-6.577849e+01
4.400000e-07	-5.135084e-06	-9.629109e-10	-3.563930e+01	-6.564252e+01
4.500000e-07	-5.116865e-06	-9.553450e-10	-3.551286e+01	-6.550942e+01
4.600000e-07	-5.098224e-06	-9.646367e-10	-3.538348e+01	-6.537956e+01
4.700000e-07	-5.079109e-06	-9.581862e-10	-3.525082e+01	-6.525323e+01
4.800000e-07	-5.059708e-06	-9.536666e-10	-3.511617e+01	-6.513065e+01
4.900000e-07	-5.040089e-06	-9.764697e-10	-3.498001e+01	-6.501197e+01
5.000000e-07	-5.020240e-06	-9.750678e-10	-3.484225e+01	-6.489725e+01
5.100000e-07	-5.000171e-06	-9.558851e-10	-3.470296e+01	-6.478646e+01
5.200000e-07	-4.979838e-06	-9.597998e-10	-3.456184e+01	-6.467953e+01
5.300000e-07	-4.959129e-06	-9.695283e-10	-3.441811e+01	-6.457628e+01
5.400000e-07	-4.937941e-06	-9.494385e-10	-3.427106e+01	-6.447649e+01
5.500000e-07	-4.916377e-06	-9.446284e-10	-3.412140e+01	-6.437987e+01
5.600000e-07	-4.894569e-06	-9.481900e-10	-3.397004e+01	-6.428606e+01
5.700000e-07	-4.872510e-06	-9.387284e-10	-3.381695e+01	-6.419470e+01
5.800000e-07	-4.850053e-06	-9.355822e-10	-3.366109e+01	-6.410534e+01
5.900000e-07	-4.827229e-06	-9.545638e-10	-3.350268e+01	-6.401754e+01
6.000000e-07	-4.804049e-06	-9.485829e-10	-3.334181e+01	-6.393084e+01
6.100000e-07	-4.780543e-06	-9.377815e-10	-3.317866e+01	-6.384478e+01
6.200000e-07	-4.756836e-06	-9.421637e-10	-3.301413e+01	-6.375888e+01
6.300000e-07	-4.732921e-06	-9.408011e-10	-3.284815e+01	-6.367271e+01
6.400000e-07	-4.708730e-06	-9.270400e-10	-3.268026e+01	-6.358584e+01
6.500000e-07	-4.684143e-06	-9.307775e-10	-3.250962e+01	-6.349788e+01
6.600000e-07	-4.659109e-06	-9.350805e-10	-3.233587e+01	-6.340851e+01
6.700000e-07	-4.633564e-06	-9.317350e-10	-3.215858e+01	-6.331741e+01
6.800000e-07	-4.607386e-06	-9.365008e-10	-3.197690e+01	-6.322436e+01
6.900000e-07	-4.580632e-06	-9.448781e-10	-3.179121e+01	-6.312917e+01
7.000000e-07	-4.553481e-06	-9.357907e-10	-3.160278e+01	-6.303172e+01
7.100000e-07	-4.526014e-06	-9.243816e-10	-3.141214e+01	-6.293194e+01
7.200000e-07	-4.498311e-06	-9.219583e-10	-3.121987e+01	-6.282985e+01
7.300000e-07	-4.470487e-06	-9.206114e-10	-3.102676e+01	-6.272550e+01
7.400000e-07	-4.442503e-06	-9.167837e-10	-3.083254e+01	-6.261901e+01
7.500000e-07	-4.414290e-06	-9.203970e-10	-3.063674e+01	-6.251054e+01
7.600000e-07	-4.385796e-06	-9.208061e-10	-3.043898e+01	-6.240029e+01
7.700000e-07	-4.356959e-06	-9.083437e-10	-3.023884e+01	-6.228852e+01
7.800000e-07	-4.327810e-06	-9.020433e-10	-3.003653e+01	-6.217549e+01
7.900000e-07	-4.298404e-06	-9.021427e-10	-2.983245e+01	-6.206150e+01
8.000000e-07	-4.268727e-06	-8.980001e-10	-2.962648e+01	-6.194683e+01
8.100000e-07	-4.238712e-06	-8.935489e-10	-2.941816e+01	-6.183178e+01
8.200000e-07	-4.208423e-06	-9.008927e-10	-2.920795e+01	-6.171664e+01
8.300000e-07	-4.177851e-06	-9.035956e-10	-2.899577e+01	-6.160167e+01
8.400000e-07	-4.146842e-06	-8.980562e-10	-2.878055e+01	-6.148710e+01
8.500000e-07	-4.115508e-06	-8.946071e-10	-2.856308e+01	-6.137312e+01
8.600000e-07	-4.084037e-06	-8.922750e-10	-2.834467e+01	-6.125987e+01
8.700000e-07	-4.052434e-06	-8.816192e-10	-2.812533e+01	-6.114744e+01
8.800000e-07	-4.020643e-06	-8.793604e-10	-2.790469e+01	-6.103588e+01
8.900000e-07	-3.988656e-06	-8.834562e-10	-2.768269e+01	-6.092515e+01
9.000000e-07	-3.956445e-06	-8.842063e-10	-2.745913e+01	-6.081515e+01
9.100000e-07	-3.923853e-06	-8.830535e-10	-2.723293e+01	-6.070573e+01
9.200000e-07	-3.890828e-06	-8.862200e-10	-2.700373e+01	-6.059668e+01
9.300000e-07	-3.857467e-06	-8.816083e-10	-2.677219e+01	-6.048769e+01
9.400000e-07	-3.823698e-06	-8.724888e-10	-2.653782e+01	-6.037845e+01
9.500000e-07	-3.789411e-06	-8.668810e-10	-2.629986e+01	-6.026856e+01
9.600000e-07	-3.754614e-06	-8.619270e-10	-2.605835e+01	-6.015759e+01
9.700000e-07	-3.719432e-06	-8.542697e-10	-2.581418e+01	-6.004507e+01
9.800000e-07	-3.684070e-06	-8.536266e-10	-2.556875e+01	-5.993052e+01
9.900000e-07	-3.648565e-06	-8.566700e-10	-2.532233e+01	-5.981342e+01
1.000000e-06	-3.612873e-06	-8.565873e-10	-2.507462e+01	-5.969328e+01
1.010000e-06	-3.577021e-06	-8.560234e-10	-2.482579e+01	-5.956958e+01
1.020000e-06	-3.541031e-06	-8.563651e-10	-2.457601e+01	-5.944184e+01
1.030000e-06	-3.504888e-06	-8.511944e-10	-2.432517e+01	-5.930960e+01
1.040000e-06	-3.468500e-06	-8.428560e-10	-2.407262e+01	-5.917245e+01
1.050000e-06	-3.431795e-06	-8.371653e-10	-2.381787e+01	-5.903002e+01
1.060000e-06	-3.394774e-06	-8.344794e-10	-2.356093e+01	-5.888199e+01
1.070000e-06	-3.357489e-06	-8.348547e-10	-2.330216e+01	-5.872811e+01
1.080000e-06	-3.319975e-06	-8.389831e-10	-2.304180e+01	-5.856821e+01
1.090000e-06	-3.282241e-06	-8.426738e-10	-2.277992e+01	-5.840217e+01
1.100000e-06	-3.244303e-06	-8.380937e-10	-2.251661e+01	-5.822998e+01
1.110000e-06	-3.206117e-06	-8.326131e-10	-2.225159e+01	-5.805166e+01
1.120000e-06	-3.167683e-06	-8.304169e-10	-2.198484e+01	-5.786735e+01
1.130000e-06	-3.129039e-06	-8.280045e-10	-2.171664e+01	-5.767723e+01
1.140000e-06	-3.090157e-06	-8.236919e-10	-2.144678e+01	-5.748157e+01
1.150000e-06	-3.051083e-06	-8.219888e-10	-2.117560e+01	-5.728068e+01
1.160000e-06	-3.011897e-06	-8.190619e-10	-2.090363e+01	-5.707495e+01
1.170000e-06	-2.972562e-06	-8.156639e-10	-2.063064e+01	-5.686478e+01
1.180000e-06	-2.933037e-06	-8.145628e-10	-2.035632e+01	-5.665062e+01
1.190000e-06	-2.893381e-06	-8.147051e-10	-2.008109e+01	-5.643295e+01
1.200000e-06	-2.853627e-06	-8.100740e-10	-1.980518e+01	-5.621224e+01
1.210000e-06	-2.813719e-06	-8.053667e-10	-1.952821e+01	-5.598897e+01
1.220000e-06	-2.773636e-06	-8.030516e-10	-1.925002e+01	-5.576360e+01
1.230000e-06	-2.733361e-06	-8.004771e-10	-1.897050e+01	-5.553656e+01
1.240000e-06	-2.692847e-06	-7.967159e-10	-1.868931e+01	-5.530825e+01
1.250000e-06	-2.652108e-06	-7.946773e-10	-1.840657e+01	-5.507900e+01
1.260000e-06	-2.611139e-06	-7.904944e-10	-1.812223e+01	-5.484909e+01
1.270000e-06	-2.569895e-06	-7.854278e-10	-1.783598e+01	-5.461873e+01
1.280000e-06	-2.528402e-06	-7.827235e-10	-1.754801e+01	-5.438806e+01
1.290000e-06	-2.486639e-06	-7.804353e-10	-1.725815e+01	-5.415711e+01
1.300000e-06	-2.444523e-06	-7.746921e-10	-1.696585e+01	-5.392585e+01
1.310000e-06	-2.402092e-06	-7.696496e-10	-1.667137e+01	-5.369416e+01
1.320000e-06	-2.359429e-06	-7.671278e-10	-1.637528e+01	-5.346180e+01
1.330000e-06	-2.316479e-06	-7.641276e-10	-1.607718e+01	-5.322847e+01
1.340000e-06	-2.273242e-06	-7.627340e-10	-1.577710e+01	-5.299379e+01
1.350000e-06	-2.229795e-06	-7.619240e-10	-1.547557e+01	-5.275728e+01
1.360000e-06	-2.186238e-06	-7.564143e-10	-1.517327e+01	-5.251839e+01
1.370000e-06	-2.142650e-06	-7.486977e-10	-1.487075e+01	-5.227653e+01
1.380000e-06	-2.098986e-06	-7.449862e-10	-1.456771e+01	-5.203102e+01
1.390000e-06	-2.055233e-06	-7.430292e-10	-1.426404e+01	-5.178117e+01
1.400000e-06	-2.011371e-06	-7.392639e-10	-1.395963e+01	-5.152624e+01
1.410000e-06	-1.967385e-06	-7.343098e-10	-1.365435e+01	-5.126546e+01
1.420000e-06	-1.923355e-06	-7.322611e-10	-1.334877e+01	-5.099808e+01
1.430000e-06	-1.879231e-06	-7.278350e-10	-1.304253e+01	-5.072333e+01
1.440000e-06	-1.834969e-06	-7.192934e-10	-1.273534e+01	-5.044045e+01
1.450000e-06	-1.790649e-06	-7.110972e-10	-1.242774e+01	-5.014871e+01
1.460000e-06	-1.746270e-06	-7.047590e-10	-1.211973e+01	-4.984744e+01
1.470000e-06	-1.701748e-06	-6.997528e-10	-1.181073e+01	-4.953596e+01
1.480000e-06	-1.657017e-06	-6.975839e-10	-1.150029e+01	-4.921368e+01
1.490000e-06	-1.612092e-06	-6.940265e-10	-1.118849e+01	-4.888004e+01
1.500000e-06	-1.567036e-06	-6.867210e-10	-1.087579e+01	-4.853454e+01
1.510000e-06	-1.521841e-06	-6.782229e-10	-1.056212e+01	-4.817675e+01
1.520000e-06	-1.476535e-06	-6.708443e-10	-1.024767e+01	-4.780628e+01
1.530000e-06	-1.431175e-06	-6.626780e-10	-9.932864e+00	-4.742279e+01
1.540000e-06	-1.385729e-06	-6.558056e-10	-9.617449e+00	-4.702601e+01
1.550000e-06	-1.340214e-06	-6.492962e-10	-9.301560e+00	-4.661568e+01
1.560000e-06	-1.294680e-06	-6.424197e-10	-8.985539e+00	-4.619160e+01
1.570000e-06	-1.249074e-06	-6.338571e-10	-8.669014e+00	-4.575358e+01
1.580000e-06	-1.203342e-06	-6.255978e-10	-8.351617e+00	-4.530146e+01
1.590000e-06	-1.157529e-06	-6.199245e-10	-8.033664e+00	-4.483505e+01
1.600000e-06	-1.111608e-06	-6.115894e-10	-7.714956e+00	-4.435419e+01
1.610000e-06	-1.065567e-06	-6.025068e-10	-7.395413e+00	-4.385868e+01
1.620000e-06	-1.019417e-06	-5.961529e-10	-7.075117e+00	-4.334827e+01
1.630000e-06	-9.731722e-07	-5.912055e-10	-6.754160e+00	-4.282270e+01
1.640000e-06	-9.269278e-07	-5.843500e-10	-6.433208e+00	-4.228162e+01
1.650000e-06	-8.806429e-07	-5.734019e-10	-6.111974e+00	-4.172463e+01
1.660000e-06	-8.342931e-07	-5.602331e-10	-5.790290e+00	-4.115126e+01
1.670000e-06	-7.879162e-07	-5.467892e-10	-5.468418e+00	-4.056096e+01
1.680000e-06	-7.414891e-07	-5.342426e-10	-5.146197e+00	-3.995308e+01
1.690000e-06	-6.949776e-07	-5.214005e-10	-4.823391e+00	-3.932690e+01
1.700000e-06	-6.483395e-07	-5.094771e-10	-4.499706e+00	-3.868161e+01
1.710000e-06	-6.016592e-07	-5.017642e-10	-4.175728e+00	-3.801630e+01
1.720000e-06	-5.550314e-07	-4.959408e-10	-3.852115e+00	-3.733000e+01
1.730000e-06	-5.083911e-07	-4.877516e-10	-3.528415e+00	-3.662167e+01
1.740000e-06	-4.616944e-07	-4.755321e-10	-3.204323e+00	-3.589019e+01
1.750000e-06	-4.149704e-07	-4.603983e-10	-2.880042e+00	-3.513441e+01
1.760000e-06	-3.682269e-07	-4.446058e-10	-2.555626e+00	-3.435313e+01
1.770000e-06	-3.213947e-07	-4.319405e-10	-2.230593e+00	-3.354514e+01
1.780000e-06	-2.744931e-07	-4.207221e-10	-1.905080e+00	-3.270924e+01
1.790000e-06	-2.276311e-07	-4.106238e-10	-1.579841e+00	-3.184424e+01
1.800000e-06	-1.807690e-07	-4.004220e-10	-1.254601e+00	-3.094898e+01
1.810000e-06	-1.338906e-07	-3.886232e-10	-9.292480e-01	-3.002239e+01
1.820000e-06	-8.699489e-08	-3.759733e-10	-6.037754e-01	-2.906346e+01
1.830000e-06	-4.012180e-08	-3.630428e-10	-2.784595e-01	-2.807130e+01
1.840000e-06	6.659513e-09	-3.494131e-10	4.621938e-02	-2.704513e+01
1.850000e-06	5.348533e-08	-3.330436e-10	3.712072e-01	-2.598434e+01
1.860000e-06	1.003997e-07	-3.143390e-10	6.968092e-01	-2.488845e+01
1.870000e-06	1.472964e-07	-2.956734e-10	1.022289e+00	-2.375719e+01
1.880000e-06	1.941630e-07	-2.790134e-10	1.347560e+00	-2.259048e+01
1.890000e-06	2.410247e-07	-2.641831e-10	1.672797e+00	-2.138843e+01
1.900000e-06	2.878766e-07	-2.493622e-10	1.997966e+00	-2.015138e+01
1.910000e-06	3.346563e-07	-2.360435e-10	2.322633e+00	-1.887989e+01
1.920000e-06	3.813902e-07	-2.218368e-10	2.646984e+00	-1.757475e+01
1.930000e-06	4.280936e-07	-2.027729e-10	2.971122e+00	-1.623696e+01
1.940000e-06	4.748678e-07	-1.802058e-10	3.295751e+00	-1.486776e+01
1.950000e-06	5.217248e-07	-1.575398e-10	3.620955e+00	-1.346860e+01
1.960000e-06	5.683906e-07	-1.395374e-10	3.944833e+00	-1.204113e+01
1.970000e-06	6.149206e-07	-1.247593e-10	4.267767e+00	-1.058720e+01
1.980000e-06	6.614961e-07	-1.087601e-10	4.591017e+00	-9.108848e+00
1.990000e-06	7.080545e-07	-8.955127e-11	4.914150e+00	-7.608253e+00
2.000000e-06	7.545197e-07	-6.596215e-11	5.236634e+00	-6.087753e+00
2.010000e-06	8.009306e-07	-3.932297e-11	5.558742e+00	-4.549799e+00
2.020000e-06	8.472800e-07	-1.338869e-11	5.880424e+00	-2.996943e+00
2.030000e-06	8.935276e-07	8.482460e-12	6.201399e+00	-1.431805e+00
2.040000e-06	9.397631e-07	2.651029e-11	6.522289e+00	1.429430e-01
2.050000e-06	9.859893e-07	4.496353e-11	6.843116e+00	1.724607e+00
2.060000e-06	1.032126e-06	6.532891e-11	7.163320e+00	3.310496e+00
2.070000e-06	1.078084e-06	8.705359e-11	7.482289e+00	4.897943e+00
2.080000e-06	1.123937e-06	1.121867e-10	7.800519e+00	6.484332e+00
2.090000e-06	1.169801e-06	1.396182e-10	8.118836e+00	8.067119e+00
2.100000e-06	1.215632e-06	1.652054e-10	8.436915e+00	9.643849e+00
2.110000e-06	1.261373e-06	1.866621e-10	8.754377e+00	1.121218e+01
2.120000e-06	1.306954e-06	2.043253e-10	9.070722e+00	1.276989e+01
2.130000e-06	1.352413e-06	2.207439e-10	9.386226e+00	1.431491e+01
2.140000e-06	1.397876e-06	2.387639e-10	9.701756e+00	1.584529e+01
2.150000e-06	1.443283e-06	2.598926e-10	1.001689e+01	1.735928e+01
2.160000e-06	1.488504e-06	2.840645e-10	1.033074e+01	1.885527e+01
2.170000e-06	1.533568e-06	3.092125e-10	1.064351e+01	2.033181e+01
2.180000e-06	1.578528e-06	3.321874e-10	1.095554e+01	2.178764e+01
2.190000e-06	1.623366e-06	3.528608e-10	1.126673e+01	2.322163e+01
2.200000e-06	1.668089e-06	3.695761e-10	1.157713e+01	2.463285e+01
2.210000e-06	1.712661e-06	3.825225e-10	1.188648e+01	2.602049e+01
2.220000e-06	1.757069e-06	3.962623e-10	1.219468e+01	2.738390e+01
2.230000e-06	1.801390e-06	4.137704e-10	1.250229e+01	2.872256e+01
2.240000e-06	1.845613e-06	4.312353e-10	1.280921e+01	3.003607e+01
2.250000e-06	1.889704e-06	4.502464e-10	1.311521e+01	3.132414e+01
2.260000e-06	1.933675e-06	4.733820e-10	1.342039e+01	3.258657e+01
2.270000e-06	1.977511e-06	4.957777e-10	1.372463e+01	3.382324e+01
2.280000e-06	2.021294e-06	5.153103e-10	1.402850e+01	3.503413e+01
2.290000e-06	2.065096e-06	5.317719e-10	1.433250e+01	3.621922e+01
2.300000e-06	2.108821e-06	5.435248e-10	1.463597e+01	3.737858e+01
2.310000e-06	2.152431e-06	5.513627e-10	1.493863e+01	3.851229e+01
2.320000e-06	2.195959e-06	5.605516e-10	1.524074e+01	3.962043e+01
2.330000e-06	2.239378e-06	5.744014e-10	1.554207e+01	4.070313e+01
2.340000e-06	2.282639e-06	5.916198e-10	1.584232e+01	4.176049e+01
2.350000e-06	2.325703e-06	6.097573e-10	1.614120e+01	4.279262e+01
2.360000e-06	2.368477e-06	6.262588e-10	1.643807e+01	4.379960e+01
2.370000e-06	2.411038e-06	6.394271e-10	1.673346e+01	4.478152e+01
2.380000e-06	2.453377e-06	6.509316e-10	1.702731e+01	4.573844e+01
2.390000e-06	2.495328e-06	6.604112e-10	1.731846e+01	4.667040e+01
2.400000e-06	2.536959e-06	6.696786e-10	1.760740e+01	4.757745e+01
2.410000e-06	2.578290e-06	6.811995e-10	1.789425e+01	4.845959e+01
2.420000e-06	2.619335e-06	6.948633e-10	1.817911e+01	4.931685e+01
2.430000e-06	2.660093e-06	7.075987e-10	1.846199e+01	5.014923e+01
2.440000e-06	2.700571e-06	7.179808e-10	1.874292e+01	5.095674e+01
2.450000e-06	2.740842e-06	7.283199e-10	1.902242e+01	5.173941e+01
2.460000e-06	2.780922e-06	7.381522e-10	1.930058e+01	5.249726e+01
2.470000e-06	2.820868e-06	7.466237e-10	1.957783e+01	5.323037e+01
2.480000e-06	2.860745e-06	7.564301e-10	1.985459e+01	5.393881e+01
2.490000e-06	2.900535e-06	7.676939e-10	2.013074e+01	5.462270e+01
2.500000e-06	2.940198e-06	7.783456e-10	2.040602e+01	5.528222e+01
2.510000e-06	2.979690e-06	7.880274e-10	2.068011e+01	5.591758e+01
2.520000e-06	3.019004e-06	7.966472e-10	2.095296e+01	5.652902e+01
2.530000e-06	3.058108e-06	8.032682e-10	2.122436e+01	5.711688e+01
2.540000e-06	3.096972e-06	8.088418e-10	2.149409e+01	5.768151e+01
2.550000e-06	3.135632e-06	8.147678e-10	2.176240e+01	5.822334e+01
2.560000e-06	3.174026e-06	8.228934e-10	2.202887e+01	5.874287e+01
2.570000e-06	3.212235e-06	8.331705e-10	2.229405e+01	5.924062e+01
2.580000e-06	3.250280e-06	8.422533e-10	2.255810e+01	5.971719e+01
2.590000e-06	3.288082e-06	8.471352e-10	2.282046e+01	6.017322e+01
2.600000e-06	3.325769e-06	8.491586e-10	2.308202e+01	6.060940e+01
2.610000e-06	3.363304e-06	8.514874e-10	2.334252e+01	6.102644e+01
2.620000e-06	3.400471e-06	8.543004e-10	2.360048e+01	6.142510e+01
2.630000e-06	3.437245e-06	8.595006e-10	2.385570e+01	6.180616e+01
2.640000e-06	3.473751e-06	8.671738e-10	2.410906e+01	6.217041e+01
2.650000e-06	3.510046e-06	8.752693e-10	2.436096e+01	6.251865e+01
2.660000e-06	3.546140e-06	8.819990e-10	2.461147e+01	6.285168e+01
2.670000e-06	3.582046e-06	8.857295e-10	2.486067e+01	6.317031e+01
2.680000e-06	3.617776e-06	8.864916e-10	2.510865e+01	6.347530e+01
2.690000e-06	3.653382e-06	8.882003e-10	2.535576e+01	6.376743e+01
2.700000e-06	3.688900e-06	8.909265e-10	2.560227e+01	6.404741e+01
2.710000e-06	3.724238e-06	8.974232e-10	2.584753e+01	6.431593e+01
2.720000e-06	3.759232e-06	9.054326e-10	2.609040e+01	6.457366e+01
2.730000e-06	3.793932e-06	9.097097e-10	2.633123e+01	6.482119e+01
2.740000e-06	3.828246e-06	9.132527e-10	2.656938e+01	6.505909e+01
2.750000e-06	3.862081e-06	9.176103e-10	2.680421e+01	6.528786e+01
2.760000e-06	3.895518e-06	9.224264e-10	2.703627e+01	6.550798e+01
2.770000e-06	3.928353e-06	9.268024e-10	2.726416e+01	6.571984e+01
2.780000e-06	3.960714e-06	9.318905e-10	2.748876e+01	6.592381e+01
2.790000e-06	3.992861e-06	9.350626e-10	2.771187e+01	6.612021e+01
2.800000e-06	4.024798e-06	9.360972e-10	2.793352e+01	6.630929e+01
2.810000e-06	4.056583e-06	9.367719e-10	2.815412e+01	6.649131e+01
2.820000e-06	4.088245e-06	9.395779e-10	2.837387e+01	6.666644e+01
2.830000e-06	4.119752e-06	9.430341e-10	2.859254e+01	6.683486e+01
2.840000e-06	4.150997e-06	9.468428e-10	2.880939e+01	6.699671e+01
2.850000e-06	4.181949e-06	9.517610e-10	2.902421e+01	6.715211e+01
2.860000e-06	4.212511e-06	9.568020e-10	2.923632e+01	6.730118e+01
2.870000e-06	4.242712e-06	9.628093e-10	2.944593e+01	6.744400e+01
2.880000e-06	4.272646e-06	9.679338e-10	2.965368e+01	6.758070e+01
2.890000e-06	4.302309e-06	9.716468e-10	2.985955e+01	6.771137e+01
2.900000e-06	4.331724e-06	9.755482e-10	3.006370e+01	6.783613e+01
