# Temperatura_=_8.67
# Concentracion g/m^3_=_1620.0
# C_Vs_to_Am_M_A/Vsm_=_65563218390.804596
# pendiente_HvsI_1/m_=_3716.3
# ordenada_HvsI_A/m_=_1297.0
# frecuencia_Hz_=_135104.31414606393

Tiempo_(s)	Campo_(V.s)	Magnetizacion_(V.s)	Campo_(kA/m)	Magnetizacion_(A/m)
0.000000e+00	-5.528966e-06	-1.363228e-09	-3.837136e+01	-9.086033e+01
1.000000e-08	-5.529173e-06	-1.364151e-09	-3.837280e+01	-9.083968e+01
2.000000e-08	-5.529157e-06	-1.365048e-09	-3.837269e+01	-9.081982e+01
3.000000e-08	-5.528818e-06	-1.365103e-09	-3.837034e+01	-9.080115e+01
4.000000e-08	-5.528014e-06	-1.363209e-09	-3.836476e+01	-9.078406e+01
5.000000e-08	-5.526615e-06	-1.356774e-09	-3.835505e+01	-9.076894e+01
6.000000e-08	-5.524574e-06	-1.343166e-09	-3.834089e+01	-9.075610e+01
7.000000e-08	-5.521970e-06	-1.326151e-09	-3.832281e+01	-9.074584e+01
8.000000e-08	-5.518821e-06	-1.337733e-09	-3.830096e+01	-9.073836e+01
9.000000e-08	-5.515180e-06	-1.392087e-09	-3.827569e+01	-9.073383e+01
1.000000e-07	-5.511101e-06	-1.433979e-09	-3.824738e+01	-9.073229e+01
1.100000e-07	-5.506729e-06	-1.383472e-09	-3.821704e+01	-9.073373e+01
1.200000e-07	-5.502230e-06	-1.292174e-09	-3.818582e+01	-9.073800e+01
1.300000e-07	-5.497477e-06	-1.286598e-09	-3.815283e+01	-9.074489e+01
1.400000e-07	-5.492314e-06	-1.376299e-09	-3.811699e+01	-9.075405e+01
1.500000e-07	-5.486691e-06	-1.376122e-09	-3.807798e+01	-9.076505e+01
1.600000e-07	-5.480695e-06	-1.323796e-09	-3.803636e+01	-9.077735e+01
1.700000e-07	-5.474334e-06	-1.295470e-09	-3.799221e+01	-9.079031e+01
1.800000e-07	-5.467488e-06	-1.381649e-09	-3.794470e+01	-9.080321e+01
1.900000e-07	-5.460208e-06	-1.410387e-09	-3.789418e+01	-9.081527e+01
2.000000e-07	-5.452671e-06	-1.365779e-09	-3.784187e+01	-9.082560e+01
2.100000e-07	-5.444889e-06	-1.326269e-09	-3.778787e+01	-9.083329e+01
2.200000e-07	-5.436807e-06	-1.371828e-09	-3.773177e+01	-9.083740e+01
2.300000e-07	-5.428505e-06	-1.408250e-09	-3.767416e+01	-9.083695e+01
2.400000e-07	-5.419951e-06	-1.386695e-09	-3.761479e+01	-9.083096e+01
2.500000e-07	-5.410756e-06	-1.373762e-09	-3.755098e+01	-9.081850e+01
2.600000e-07	-5.400789e-06	-1.383921e-09	-3.748181e+01	-9.079862e+01
2.700000e-07	-5.390208e-06	-1.392288e-09	-3.740837e+01	-9.077047e+01
2.800000e-07	-5.379139e-06	-1.351950e-09	-3.733156e+01	-9.073324e+01
2.900000e-07	-5.367628e-06	-1.342514e-09	-3.725167e+01	-9.068623e+01
3.000000e-07	-5.355722e-06	-1.349062e-09	-3.716904e+01	-9.062883e+01
3.100000e-07	-5.343468e-06	-1.367788e-09	-3.708400e+01	-9.056053e+01
3.200000e-07	-5.330714e-06	-1.344499e-09	-3.699548e+01	-9.048096e+01
3.300000e-07	-5.317518e-06	-1.356859e-09	-3.690390e+01	-9.038988e+01
3.400000e-07	-5.304021e-06	-1.360795e-09	-3.681023e+01	-9.028719e+01
3.500000e-07	-5.290076e-06	-1.368271e-09	-3.671345e+01	-9.017293e+01
3.600000e-07	-5.275575e-06	-1.344079e-09	-3.661282e+01	-9.004729e+01
3.700000e-07	-5.260721e-06	-1.346667e-09	-3.650972e+01	-8.991057e+01
3.800000e-07	-5.245487e-06	-1.334594e-09	-3.640400e+01	-8.976323e+01
3.900000e-07	-5.229596e-06	-1.324241e-09	-3.629372e+01	-8.960585e+01
4.000000e-07	-5.213157e-06	-1.318422e-09	-3.617963e+01	-8.943913e+01
4.100000e-07	-5.196414e-06	-1.344686e-09	-3.606343e+01	-8.926385e+01
4.200000e-07	-5.179378e-06	-1.340540e-09	-3.594520e+01	-8.908089e+01
4.300000e-07	-5.162021e-06	-1.317107e-09	-3.582474e+01	-8.889121e+01
4.400000e-07	-5.144377e-06	-1.320443e-09	-3.570229e+01	-8.869580e+01
4.500000e-07	-5.126339e-06	-1.342650e-09	-3.557711e+01	-8.849570e+01
4.600000e-07	-5.107739e-06	-1.322053e-09	-3.544802e+01	-8.829195e+01
4.700000e-07	-5.088718e-06	-1.288126e-09	-3.531602e+01	-8.808558e+01
4.800000e-07	-5.069404e-06	-1.303963e-09	-3.518198e+01	-8.787761e+01
4.900000e-07	-5.049875e-06	-1.319526e-09	-3.504644e+01	-8.766899e+01
5.000000e-07	-5.030171e-06	-1.302250e-09	-3.490970e+01	-8.746064e+01
5.100000e-07	-5.010223e-06	-1.300568e-09	-3.477125e+01	-8.725336e+01
5.200000e-07	-4.989971e-06	-1.322968e-09	-3.463071e+01	-8.704790e+01
5.300000e-07	-4.969317e-06	-1.306658e-09	-3.448736e+01	-8.684486e+01
5.400000e-07	-4.948305e-06	-1.292952e-09	-3.434154e+01	-8.664475e+01
5.500000e-07	-4.926965e-06	-1.303271e-09	-3.419344e+01	-8.644796e+01
5.600000e-07	-4.905292e-06	-1.297794e-09	-3.404303e+01	-8.625474e+01
5.700000e-07	-4.883343e-06	-1.262473e-09	-3.389070e+01	-8.606523e+01
5.800000e-07	-4.861070e-06	-1.272361e-09	-3.373612e+01	-8.587941e+01
5.900000e-07	-4.838450e-06	-1.290153e-09	-3.357914e+01	-8.569716e+01
6.000000e-07	-4.815492e-06	-1.279680e-09	-3.341981e+01	-8.551825e+01
6.100000e-07	-4.792201e-06	-1.267509e-09	-3.325817e+01	-8.534231e+01
6.200000e-07	-4.768672e-06	-1.282128e-09	-3.309488e+01	-8.516891e+01
6.300000e-07	-4.744881e-06	-1.271915e-09	-3.292976e+01	-8.499750e+01
6.400000e-07	-4.720828e-06	-1.258754e-09	-3.276283e+01	-8.482748e+01
6.500000e-07	-4.696464e-06	-1.260339e-09	-3.259375e+01	-8.465820e+01
6.600000e-07	-4.671725e-06	-1.265555e-09	-3.242206e+01	-8.448895e+01
6.700000e-07	-4.646561e-06	-1.255300e-09	-3.224742e+01	-8.431900e+01
6.800000e-07	-4.620823e-06	-1.256689e-09	-3.206880e+01	-8.414764e+01
6.900000e-07	-4.594471e-06	-1.257998e-09	-3.188591e+01	-8.397414e+01
7.000000e-07	-4.567513e-06	-1.254526e-09	-3.169882e+01	-8.379782e+01
7.100000e-07	-4.540131e-06	-1.246447e-09	-3.150879e+01	-8.361801e+01
7.200000e-07	-4.512553e-06	-1.242711e-09	-3.131740e+01	-8.343413e+01
7.300000e-07	-4.484846e-06	-1.238016e-09	-3.112511e+01	-8.324565e+01
7.400000e-07	-4.456964e-06	-1.233874e-09	-3.093160e+01	-8.305210e+01
7.500000e-07	-4.428906e-06	-1.231262e-09	-3.073688e+01	-8.285310e+01
7.600000e-07	-4.400621e-06	-1.233408e-09	-3.054058e+01	-8.264838e+01
7.700000e-07	-4.371917e-06	-1.232104e-09	-3.034137e+01	-8.243771e+01
7.800000e-07	-4.342784e-06	-1.220777e-09	-3.013919e+01	-8.222099e+01
7.900000e-07	-4.313364e-06	-1.213554e-09	-2.993501e+01	-8.199819e+01
8.000000e-07	-4.283683e-06	-1.212348e-09	-2.972902e+01	-8.176937e+01
8.100000e-07	-4.253754e-06	-1.207790e-09	-2.952132e+01	-8.153465e+01
8.200000e-07	-4.223562e-06	-1.200590e-09	-2.931178e+01	-8.129423e+01
8.300000e-07	-4.193033e-06	-1.205586e-09	-2.909991e+01	-8.104838e+01
8.400000e-07	-4.162186e-06	-1.206277e-09	-2.888583e+01	-8.079738e+01
8.500000e-07	-4.131067e-06	-1.200745e-09	-2.866986e+01	-8.054159e+01
8.600000e-07	-4.099724e-06	-1.193494e-09	-2.845233e+01	-8.028136e+01
8.700000e-07	-4.068167e-06	-1.188255e-09	-2.823333e+01	-8.001706e+01
8.800000e-07	-4.036436e-06	-1.176510e-09	-2.801311e+01	-7.974907e+01
8.900000e-07	-4.004581e-06	-1.170187e-09	-2.779204e+01	-7.947772e+01
9.000000e-07	-3.972531e-06	-1.166865e-09	-2.756961e+01	-7.920335e+01
9.100000e-07	-3.940210e-06	-1.166816e-09	-2.734530e+01	-7.892624e+01
9.200000e-07	-3.907513e-06	-1.162766e-09	-2.711838e+01	-7.864663e+01
9.300000e-07	-3.874368e-06	-1.162102e-09	-2.688835e+01	-7.836471e+01
9.400000e-07	-3.840770e-06	-1.157570e-09	-2.665518e+01	-7.808059e+01
9.500000e-07	-3.806710e-06	-1.150208e-09	-2.641880e+01	-7.779435e+01
9.600000e-07	-3.772165e-06	-1.138019e-09	-2.617906e+01	-7.750597e+01
9.700000e-07	-3.737254e-06	-1.127144e-09	-2.593677e+01	-7.721538e+01
9.800000e-07	-3.702034e-06	-1.116855e-09	-2.569235e+01	-7.692244e+01
9.900000e-07	-3.666498e-06	-1.110267e-09	-2.544572e+01	-7.662695e+01
1.000000e-06	-3.630802e-06	-1.106043e-09	-2.519799e+01	-7.632864e+01
1.010000e-06	-3.595006e-06	-1.105438e-09	-2.494956e+01	-7.602723e+01
1.020000e-06	-3.559062e-06	-1.104671e-09	-2.470011e+01	-7.572235e+01
1.030000e-06	-3.522972e-06	-1.102605e-09	-2.444964e+01	-7.541365e+01
1.040000e-06	-3.486723e-06	-1.099499e-09	-2.419807e+01	-7.510072e+01
1.050000e-06	-3.450233e-06	-1.094056e-09	-2.394483e+01	-7.478317e+01
1.060000e-06	-3.413406e-06	-1.084127e-09	-2.368925e+01	-7.446060e+01
1.070000e-06	-3.376303e-06	-1.073681e-09	-2.343175e+01	-7.413263e+01
1.080000e-06	-3.338904e-06	-1.067126e-09	-2.317220e+01	-7.379890e+01
1.090000e-06	-3.301257e-06	-1.064099e-09	-2.291093e+01	-7.345910e+01
1.100000e-06	-3.263436e-06	-1.060803e-09	-2.264845e+01	-7.311296e+01
1.110000e-06	-3.225357e-06	-1.056665e-09	-2.238417e+01	-7.276026e+01
1.120000e-06	-3.187082e-06	-1.055932e-09	-2.211855e+01	-7.240086e+01
1.130000e-06	-3.148646e-06	-1.050641e-09	-2.185180e+01	-7.203466e+01
1.140000e-06	-3.109968e-06	-1.042188e-09	-2.158337e+01	-7.166165e+01
1.150000e-06	-3.071010e-06	-1.031477e-09	-2.131300e+01	-7.128189e+01
1.160000e-06	-3.031891e-06	-1.020927e-09	-2.104151e+01	-7.089551e+01
1.170000e-06	-2.992583e-06	-1.009462e-09	-2.076871e+01	-7.050270e+01
1.180000e-06	-2.953097e-06	-1.004828e-09	-2.049467e+01	-7.010374e+01
1.190000e-06	-2.913515e-06	-1.003973e-09	-2.021998e+01	-6.969893e+01
1.200000e-06	-2.873786e-06	-1.001614e-09	-1.994425e+01	-6.928867e+01
1.210000e-06	-2.833915e-06	-9.955911e-10	-1.966754e+01	-6.887336e+01
1.220000e-06	-2.793931e-06	-9.899216e-10	-1.939005e+01	-6.845345e+01
1.230000e-06	-2.753778e-06	-9.826053e-10	-1.911139e+01	-6.802941e+01
1.240000e-06	-2.713375e-06	-9.756941e-10	-1.883099e+01	-6.760173e+01
1.250000e-06	-2.672766e-06	-9.697835e-10	-1.854916e+01	-6.717087e+01
1.260000e-06	-2.632009e-06	-9.668972e-10	-1.826631e+01	-6.673730e+01
1.270000e-06	-2.591031e-06	-9.626322e-10	-1.798192e+01	-6.630144e+01
1.280000e-06	-2.549750e-06	-9.583653e-10	-1.769542e+01	-6.586369e+01
1.290000e-06	-2.508208e-06	-9.532007e-10	-1.740712e+01	-6.542438e+01
1.300000e-06	-2.466344e-06	-9.454094e-10	-1.711658e+01	-6.498379e+01
1.310000e-06	-2.424131e-06	-9.355952e-10	-1.682362e+01	-6.454213e+01
1.320000e-06	-2.381602e-06	-9.280956e-10	-1.652847e+01	-6.409952e+01
1.330000e-06	-2.338687e-06	-9.205240e-10	-1.623063e+01	-6.365603e+01
1.340000e-06	-2.295485e-06	-9.126398e-10	-1.593081e+01	-6.321160e+01
1.350000e-06	-2.252103e-06	-9.068223e-10	-1.562974e+01	-6.276612e+01
1.360000e-06	-2.208589e-06	-9.001248e-10	-1.532774e+01	-6.231937e+01
1.370000e-06	-2.164977e-06	-8.919453e-10	-1.502507e+01	-6.187104e+01
1.380000e-06	-2.121280e-06	-8.830636e-10	-1.472181e+01	-6.142076e+01
1.390000e-06	-2.077522e-06	-8.745583e-10	-1.441813e+01	-6.096805e+01
1.400000e-06	-2.033716e-06	-8.665530e-10	-1.411411e+01	-6.051239e+01
1.410000e-06	-1.989881e-06	-8.587991e-10	-1.380990e+01	-6.005317e+01
1.420000e-06	-1.945952e-06	-8.506063e-10	-1.350503e+01	-5.958974e+01
1.430000e-06	-1.901872e-06	-8.444722e-10	-1.319911e+01	-5.912138e+01
1.440000e-06	-1.857727e-06	-8.389346e-10	-1.289274e+01	-5.864736e+01
1.450000e-06	-1.813530e-06	-8.314574e-10	-1.258601e+01	-5.816690e+01
1.460000e-06	-1.769143e-06	-8.202251e-10	-1.227796e+01	-5.767922e+01
1.470000e-06	-1.724622e-06	-8.074621e-10	-1.196898e+01	-5.718351e+01
1.480000e-06	-1.679997e-06	-7.968588e-10	-1.165928e+01	-5.667897e+01
1.490000e-06	-1.635213e-06	-7.877988e-10	-1.134848e+01	-5.616481e+01
1.500000e-06	-1.590304e-06	-7.790507e-10	-1.103681e+01	-5.564025e+01
1.510000e-06	-1.545307e-06	-7.725506e-10	-1.072453e+01	-5.510453e+01
1.520000e-06	-1.500191e-06	-7.657372e-10	-1.041142e+01	-5.455691e+01
1.530000e-06	-1.454948e-06	-7.588421e-10	-1.009743e+01	-5.399667e+01
1.540000e-06	-1.409543e-06	-7.488861e-10	-9.782314e+00	-5.342312e+01
1.550000e-06	-1.363944e-06	-7.379147e-10	-9.465857e+00	-5.283561e+01
1.560000e-06	-1.318245e-06	-7.247404e-10	-9.148699e+00	-5.223348e+01
1.570000e-06	-1.272478e-06	-7.115260e-10	-8.831076e+00	-5.161613e+01
1.580000e-06	-1.226713e-06	-6.999319e-10	-8.513464e+00	-5.098294e+01
1.590000e-06	-1.180948e-06	-6.913051e-10	-8.195850e+00	-5.033332e+01
1.600000e-06	-1.135093e-06	-6.834930e-10	-7.877617e+00	-4.966667e+01
1.610000e-06	-1.089154e-06	-6.738205e-10	-7.558794e+00	-4.898240e+01
1.620000e-06	-1.043129e-06	-6.637865e-10	-7.239382e+00	-4.827989e+01
1.630000e-06	-9.970199e-07	-6.545827e-10	-6.919379e+00	-4.755852e+01
1.640000e-06	-9.508482e-07	-6.445656e-10	-6.598945e+00	-4.681763e+01
1.650000e-06	-9.046093e-07	-6.317693e-10	-6.278044e+00	-4.605652e+01
1.660000e-06	-8.582531e-07	-6.170859e-10	-5.956329e+00	-4.527448e+01
1.670000e-06	-8.118189e-07	-6.011145e-10	-5.634073e+00	-4.447074e+01
1.680000e-06	-7.654341e-07	-5.857863e-10	-5.312160e+00	-4.364447e+01
1.690000e-06	-7.189947e-07	-5.707864e-10	-4.989867e+00	-4.279482e+01
1.700000e-06	-6.724417e-07	-5.561328e-10	-4.666787e+00	-4.192088e+01
1.710000e-06	-6.259301e-07	-5.420642e-10	-4.343993e+00	-4.102170e+01
1.720000e-06	-5.793894e-07	-5.293743e-10	-4.020998e+00	-4.009629e+01
1.730000e-06	-5.327717e-07	-5.161344e-10	-3.697468e+00	-3.914364e+01
1.740000e-06	-4.861110e-07	-5.004050e-10	-3.373640e+00	-3.816269e+01
1.750000e-06	-4.393710e-07	-4.819545e-10	-3.049262e+00	-3.715240e+01
1.760000e-06	-3.925807e-07	-4.628782e-10	-2.724534e+00	-3.611172e+01
1.770000e-06	-3.457784e-07	-4.448578e-10	-2.399724e+00	-3.503959e+01
1.780000e-06	-2.989551e-07	-4.293029e-10	-2.074767e+00	-3.393503e+01
1.790000e-06	-2.520367e-07	-4.152081e-10	-1.749150e+00	-3.279708e+01
1.800000e-06	-2.050624e-07	-4.002635e-10	-1.423145e+00	-3.162485e+01
1.810000e-06	-1.581567e-07	-3.837444e-10	-1.097617e+00	-3.041754e+01
1.820000e-06	-1.112889e-07	-3.672393e-10	-7.723517e-01	-2.917446e+01
1.830000e-06	-6.440659e-08	-3.508559e-10	-4.469857e-01	-2.789504e+01
1.840000e-06	-1.753726e-08	-3.345515e-10	-1.217096e-01	-2.657885e+01
1.850000e-06	2.926454e-08	-3.163498e-10	2.030977e-01	-2.522563e+01
1.860000e-06	7.601095e-08	-2.954173e-10	5.275207e-01	-2.383529e+01
1.870000e-06	1.227879e-07	-2.722813e-10	8.521555e-01	-2.240793e+01
1.880000e-06	1.696486e-07	-2.504028e-10	1.177372e+00	-2.094385e+01
1.890000e-06	2.165415e-07	-2.321410e-10	1.502811e+00	-1.944357e+01
1.900000e-06	2.633826e-07	-2.142813e-10	1.827892e+00	-1.790783e+01
1.910000e-06	3.102692e-07	-1.960880e-10	2.153287e+00	-1.633759e+01
1.920000e-06	3.571396e-07	-1.774793e-10	2.478571e+00	-1.473403e+01
1.930000e-06	4.039120e-07	-1.556126e-10	2.803174e+00	-1.309856e+01
1.940000e-06	4.506116e-07	-1.301199e-10	3.127272e+00	-1.143280e+01
1.950000e-06	4.972339e-07	-1.037009e-10	3.450834e+00	-9.738601e+00
1.960000e-06	5.438309e-07	-8.001250e-11	3.774220e+00	-8.017986e+00
1.970000e-06	5.904388e-07	-5.929787e-11	4.097682e+00	-6.273181e+00
1.980000e-06	6.369726e-07	-3.902773e-11	4.420629e+00	-4.506576e+00
1.990000e-06	6.834569e-07	-1.686087e-11	4.743233e+00	-2.720712e+00
2.000000e-06	7.299370e-07	9.029944e-12	5.065808e+00	-9.182568e-01
2.010000e-06	7.763411e-07	3.909566e-11	5.387855e+00	8.980135e-01
2.020000e-06	8.226645e-07	7.028951e-11	5.709342e+00	2.725242e+00
2.030000e-06	8.689205e-07	9.774620e-11	6.030362e+00	4.560516e+00
2.040000e-06	9.150701e-07	1.210095e-10	6.350642e+00	6.400889e+00
2.050000e-06	9.611448e-07	1.425963e-10	6.670404e+00	8.243412e+00
2.060000e-06	1.007295e-06	1.658619e-10	6.990693e+00	1.008515e+01
2.070000e-06	1.053393e-06	1.917227e-10	7.310613e+00	1.192323e+01
2.080000e-06	1.099298e-06	2.201843e-10	7.629196e+00	1.375483e+01
2.090000e-06	1.145136e-06	2.499710e-10	7.947314e+00	1.557722e+01
2.100000e-06	1.190914e-06	2.786248e-10	8.265014e+00	1.738779e+01
2.110000e-06	1.236586e-06	3.040774e-10	8.581983e+00	1.918406e+01
2.120000e-06	1.282151e-06	3.266433e-10	8.898204e+00	2.096368e+01
2.130000e-06	1.327676e-06	3.463001e-10	9.214150e+00	2.272448e+01
2.140000e-06	1.373117e-06	3.642494e-10	9.529516e+00	2.446446e+01
2.150000e-06	1.418440e-06	3.843145e-10	9.844060e+00	2.618177e+01
2.160000e-06	1.463733e-06	4.081777e-10	1.015840e+01	2.787478e+01
2.170000e-06	1.508927e-06	4.336143e-10	1.047205e+01	2.954201e+01
2.180000e-06	1.553977e-06	4.591246e-10	1.078469e+01	3.118220e+01
2.190000e-06	1.598916e-06	4.845970e-10	1.109657e+01	3.279426e+01
2.200000e-06	1.643724e-06	5.075892e-10	1.140755e+01	3.437727e+01
2.210000e-06	1.688348e-06	5.258362e-10	1.171724e+01	3.593050e+01
2.220000e-06	1.732835e-06	5.407694e-10	1.202598e+01	3.745336e+01
2.230000e-06	1.777232e-06	5.569155e-10	1.233410e+01	3.894543e+01
2.240000e-06	1.821504e-06	5.755701e-10	1.264135e+01	4.040643e+01
2.250000e-06	1.865666e-06	5.946639e-10	1.294784e+01	4.183619e+01
2.260000e-06	1.909770e-06	6.160650e-10	1.325392e+01	4.323469e+01
2.270000e-06	1.953781e-06	6.385101e-10	1.355936e+01	4.460198e+01
2.280000e-06	1.997701e-06	6.585186e-10	1.386417e+01	4.593822e+01
2.290000e-06	2.041564e-06	6.783014e-10	1.416858e+01	4.724362e+01
2.300000e-06	2.085352e-06	6.968841e-10	1.447247e+01	4.851847e+01
2.310000e-06	2.129076e-06	7.120365e-10	1.477592e+01	4.976312e+01
2.320000e-06	2.172725e-06	7.263831e-10	1.507885e+01	5.097793e+01
2.330000e-06	2.216321e-06	7.409737e-10	1.538140e+01	5.216331e+01
2.340000e-06	2.259798e-06	7.560653e-10	1.568314e+01	5.331968e+01
2.350000e-06	2.303030e-06	7.711962e-10	1.598317e+01	5.444749e+01
2.360000e-06	2.346063e-06	7.859320e-10	1.628182e+01	5.554717e+01
2.370000e-06	2.388845e-06	8.003358e-10	1.657873e+01	5.661918e+01
2.380000e-06	2.431310e-06	8.150012e-10	1.687344e+01	5.766395e+01
2.390000e-06	2.473511e-06	8.302016e-10	1.716632e+01	5.868192e+01
2.400000e-06	2.515378e-06	8.440553e-10	1.745688e+01	5.967355e+01
2.410000e-06	2.556853e-06	8.562753e-10	1.774472e+01	6.063924e+01
2.420000e-06	2.597974e-06	8.684844e-10	1.803010e+01	6.157944e+01
2.430000e-06	2.638808e-06	8.813285e-10	1.831349e+01	6.249457e+01
2.440000e-06	2.679431e-06	8.947135e-10	1.859542e+01	6.338505e+01
2.450000e-06	2.719899e-06	9.077777e-10	1.887627e+01	6.425132e+01
2.460000e-06	2.760180e-06	9.192497e-10	1.915582e+01	6.509379e+01
2.470000e-06	2.800251e-06	9.306571e-10	1.943391e+01	6.591292e+01
2.480000e-06	2.840156e-06	9.436257e-10	1.971086e+01	6.670914e+01
2.490000e-06	2.879892e-06	9.570526e-10	1.998663e+01	6.748292e+01
2.500000e-06	2.919532e-06	9.689411e-10	2.026173e+01	6.823473e+01
2.510000e-06	2.959098e-06	9.793951e-10	2.053632e+01	6.896503e+01
2.520000e-06	2.998473e-06	9.884068e-10	2.080958e+01	6.967434e+01
2.530000e-06	3.037629e-06	9.967980e-10	2.108133e+01	7.036316e+01
2.540000e-06	3.076614e-06	1.005168e-09	2.135189e+01	7.103200e+01
2.550000e-06	3.115378e-06	1.013577e-09	2.162092e+01	7.168139e+01
2.560000e-06	3.153830e-06	1.023287e-09	2.188777e+01	7.231187e+01
2.570000e-06	3.192047e-06	1.033773e-09	2.215301e+01	7.292397e+01
2.580000e-06	3.230105e-06	1.043404e-09	2.241713e+01	7.351823e+01
2.590000e-06	3.267971e-06	1.051953e-09	2.267992e+01	7.409517e+01
2.600000e-06	3.305610e-06	1.058751e-09	2.294114e+01	7.465533e+01
2.610000e-06	3.343027e-06	1.064543e-09	2.320081e+01	7.519920e+01
2.620000e-06	3.380306e-06	1.070657e-09	2.345953e+01	7.572729e+01
2.630000e-06	3.417381e-06	1.078140e-09	2.371683e+01	7.624007e+01
2.640000e-06	3.454093e-06	1.084955e-09	2.397162e+01	7.673799e+01
2.650000e-06	3.490499e-06	1.091174e-09	2.422428e+01	7.722146e+01
2.660000e-06	3.526696e-06	1.097360e-09	2.447549e+01	7.769088e+01
2.670000e-06	3.562660e-06	1.102468e-09	2.472508e+01	7.814662e+01
2.680000e-06	3.598470e-06	1.107278e-09	2.497360e+01	7.858900e+01
2.690000e-06	3.634222e-06	1.113261e-09	2.522172e+01	7.901832e+01
2.700000e-06	3.669868e-06	1.120211e-09	2.546911e+01	7.943485e+01
2.710000e-06	3.705353e-06	1.127285e-09	2.571538e+01	7.983883e+01
2.720000e-06	3.740581e-06	1.135076e-09	2.595986e+01	8.023049e+01
2.730000e-06	3.775451e-06	1.142808e-09	2.620186e+01	8.061001e+01
2.740000e-06	3.809986e-06	1.147637e-09	2.644153e+01	8.097757e+01
2.750000e-06	3.844084e-06	1.150614e-09	2.667818e+01	8.133334e+01
2.760000e-06	3.877624e-06	1.154283e-09	2.691095e+01	8.167748e+01
2.770000e-06	3.910633e-06	1.158139e-09	2.714003e+01	8.201016e+01
2.780000e-06	3.943204e-06	1.163953e-09	2.736608e+01	8.233154e+01
2.790000e-06	3.975434e-06	1.172000e-09	2.758976e+01	8.264180e+01
2.800000e-06	4.007441e-06	1.179700e-09	2.781188e+01	8.294115e+01
2.810000e-06	4.039318e-06	1.185498e-09	2.803311e+01	8.322980e+01
2.820000e-06	4.071104e-06	1.191223e-09	2.825371e+01	8.350801e+01
2.830000e-06	4.102814e-06	1.196183e-09	2.847378e+01	8.377607e+01
2.840000e-06	4.134292e-06	1.199618e-09	2.869224e+01	8.403429e+01
2.850000e-06	4.165421e-06	1.202801e-09	2.890828e+01	8.428305e+01
2.860000e-06	4.196276e-06	1.207761e-09	2.912241e+01	8.452273e+01
2.870000e-06	4.226780e-06	1.214363e-09	2.933411e+01	8.475378e+01
2.880000e-06	4.256859e-06	1.221180e-09	2.954286e+01	8.497667e+01
2.890000e-06	4.286693e-06	1.228331e-09	2.974991e+01	8.519192e+01
2.900000e-06	4.316347e-06	1.235527e-09	2.995572e+01	8.540008e+01
