# Temperatura_=_-39.79
# Concentracion g/m^3_=_1620.0
# C_Vs_to_Am_M_A/Vsm_=_65563218390.804596
# pendiente_HvsI_1/m_=_3716.3
# ordenada_HvsI_A/m_=_1297.0
# frecuencia_Hz_=_135111.38081070562

Tiempo_(s)	Campo_(V.s)	Magnetizacion_(V.s)	Campo_(kA/m)	Magnetizacion_(A/m)
0.000000e+00	-5.510902e-06	-9.716115e-10	-3.836469e+01	-6.482651e+01
1.000000e-08	-5.511029e-06	-9.712789e-10	-3.836557e+01	-6.482750e+01
2.000000e-08	-5.510886e-06	-9.738026e-10	-3.836457e+01	-6.482650e+01
3.000000e-08	-5.510354e-06	-9.757216e-10	-3.836087e+01	-6.482331e+01
4.000000e-08	-5.509278e-06	-9.777901e-10	-3.835338e+01	-6.481778e+01
5.000000e-08	-5.507661e-06	-9.833603e-10	-3.834213e+01	-6.480977e+01
6.000000e-08	-5.505460e-06	-9.742146e-10	-3.832681e+01	-6.479919e+01
7.000000e-08	-5.502652e-06	-9.372286e-10	-3.830725e+01	-6.478596e+01
8.000000e-08	-5.499359e-06	-9.038329e-10	-3.828433e+01	-6.477005e+01
9.000000e-08	-5.495644e-06	-9.458528e-10	-3.825847e+01	-6.475145e+01
1.000000e-07	-5.491499e-06	-1.032786e-09	-3.822961e+01	-6.473017e+01
1.100000e-07	-5.486927e-06	-1.048644e-09	-3.819778e+01	-6.470627e+01
1.200000e-07	-5.482170e-06	-9.154177e-10	-3.816467e+01	-6.467982e+01
1.300000e-07	-5.477298e-06	-8.985857e-10	-3.813075e+01	-6.465090e+01
1.400000e-07	-5.471998e-06	-9.709031e-10	-3.809385e+01	-6.461964e+01
1.500000e-07	-5.466227e-06	-1.019118e-09	-3.805368e+01	-6.458615e+01
1.600000e-07	-5.460078e-06	-9.208879e-10	-3.801087e+01	-6.455059e+01
1.700000e-07	-5.453581e-06	-8.793072e-10	-3.796565e+01	-6.451309e+01
1.800000e-07	-5.446699e-06	-1.001165e-09	-3.791773e+01	-6.447381e+01
1.900000e-07	-5.439433e-06	-1.065884e-09	-3.786715e+01	-6.443292e+01
2.000000e-07	-5.431896e-06	-9.911940e-10	-3.781468e+01	-6.439057e+01
2.100000e-07	-5.424096e-06	-8.981122e-10	-3.776038e+01	-6.434693e+01
2.200000e-07	-5.415959e-06	-9.393789e-10	-3.770374e+01	-6.430214e+01
2.300000e-07	-5.407457e-06	-9.781420e-10	-3.764455e+01	-6.425638e+01
2.400000e-07	-5.398530e-06	-9.656425e-10	-3.758240e+01	-6.420978e+01
2.500000e-07	-5.389043e-06	-9.226836e-10	-3.751636e+01	-6.416248e+01
2.600000e-07	-5.378811e-06	-9.537703e-10	-3.744512e+01	-6.411463e+01
2.700000e-07	-5.367851e-06	-9.536861e-10	-3.736883e+01	-6.406634e+01
2.800000e-07	-5.356428e-06	-9.399029e-10	-3.728931e+01	-6.401775e+01
2.900000e-07	-5.344689e-06	-9.152545e-10	-3.720758e+01	-6.396898e+01
3.000000e-07	-5.332681e-06	-9.476793e-10	-3.712399e+01	-6.392013e+01
3.100000e-07	-5.320328e-06	-9.650777e-10	-3.703799e+01	-6.387133e+01
3.200000e-07	-5.307474e-06	-9.613043e-10	-3.694851e+01	-6.382267e+01
3.300000e-07	-5.294176e-06	-9.282668e-10	-3.685593e+01	-6.377427e+01
3.400000e-07	-5.280539e-06	-9.363042e-10	-3.676099e+01	-6.372624e+01
3.500000e-07	-5.266481e-06	-9.562384e-10	-3.666313e+01	-6.367867e+01
3.600000e-07	-5.251972e-06	-9.496902e-10	-3.656212e+01	-6.363169e+01
3.700000e-07	-5.236948e-06	-9.282400e-10	-3.645753e+01	-6.358540e+01
3.800000e-07	-5.221394e-06	-9.509995e-10	-3.634925e+01	-6.353991e+01
3.900000e-07	-5.205282e-06	-9.563791e-10	-3.623708e+01	-6.349532e+01
4.000000e-07	-5.188718e-06	-9.194137e-10	-3.612177e+01	-6.345176e+01
4.100000e-07	-5.171889e-06	-9.354157e-10	-3.600462e+01	-6.340933e+01
4.200000e-07	-5.154705e-06	-9.685368e-10	-3.588499e+01	-6.336812e+01
4.300000e-07	-5.137140e-06	-9.270068e-10	-3.576271e+01	-6.332826e+01
4.400000e-07	-5.119301e-06	-8.909058e-10	-3.563852e+01	-6.328982e+01
4.500000e-07	-5.101132e-06	-9.612088e-10	-3.551203e+01	-6.325289e+01
4.600000e-07	-5.082553e-06	-9.586568e-10	-3.538269e+01	-6.321753e+01
4.700000e-07	-5.063577e-06	-8.899998e-10	-3.525059e+01	-6.318382e+01
4.800000e-07	-5.044281e-06	-9.127875e-10	-3.511626e+01	-6.315178e+01
4.900000e-07	-5.024785e-06	-9.752476e-10	-3.498054e+01	-6.312143e+01
5.000000e-07	-5.005050e-06	-9.196623e-10	-3.484315e+01	-6.309277e+01
5.100000e-07	-4.985036e-06	-9.118438e-10	-3.470382e+01	-6.306577e+01
5.200000e-07	-4.964727e-06	-9.621484e-10	-3.456243e+01	-6.304037e+01
5.300000e-07	-4.944063e-06	-9.328247e-10	-3.441858e+01	-6.301649e+01
5.400000e-07	-4.923018e-06	-8.826831e-10	-3.427208e+01	-6.299402e+01
5.500000e-07	-4.901605e-06	-9.447131e-10	-3.412301e+01	-6.297280e+01
5.600000e-07	-4.879821e-06	-9.465612e-10	-3.397136e+01	-6.295268e+01
5.700000e-07	-4.857722e-06	-8.878399e-10	-3.381751e+01	-6.293346e+01
5.800000e-07	-4.835285e-06	-9.164385e-10	-3.366132e+01	-6.291490e+01
5.900000e-07	-4.812547e-06	-9.632234e-10	-3.350302e+01	-6.289676e+01
6.000000e-07	-4.789526e-06	-9.102157e-10	-3.334276e+01	-6.287878e+01
6.100000e-07	-4.766155e-06	-9.015750e-10	-3.318006e+01	-6.286067e+01
6.200000e-07	-4.742536e-06	-9.389478e-10	-3.301564e+01	-6.284213e+01
6.300000e-07	-4.718682e-06	-9.134996e-10	-3.284957e+01	-6.282285e+01
6.400000e-07	-4.694561e-06	-8.890167e-10	-3.268165e+01	-6.280254e+01
6.500000e-07	-4.670070e-06	-9.233155e-10	-3.251115e+01	-6.278089e+01
6.600000e-07	-4.645048e-06	-9.223632e-10	-3.233696e+01	-6.275760e+01
6.700000e-07	-4.619593e-06	-9.019015e-10	-3.215975e+01	-6.273240e+01
6.800000e-07	-4.593713e-06	-9.251563e-10	-3.197959e+01	-6.270502e+01
6.900000e-07	-4.567269e-06	-9.320741e-10	-3.179549e+01	-6.267525e+01
7.000000e-07	-4.540286e-06	-9.114012e-10	-3.160765e+01	-6.264287e+01
7.100000e-07	-4.512970e-06	-9.145525e-10	-3.141748e+01	-6.260772e+01
7.200000e-07	-4.485457e-06	-9.229942e-10	-3.122595e+01	-6.256969e+01
7.300000e-07	-4.457707e-06	-9.064537e-10	-3.103277e+01	-6.252869e+01
7.400000e-07	-4.429788e-06	-9.083307e-10	-3.083840e+01	-6.248469e+01
7.500000e-07	-4.401673e-06	-9.177425e-10	-3.064268e+01	-6.243771e+01
7.600000e-07	-4.373285e-06	-9.164675e-10	-3.044505e+01	-6.238780e+01
7.700000e-07	-4.344613e-06	-9.120326e-10	-3.024545e+01	-6.233508e+01
7.800000e-07	-4.315589e-06	-9.191566e-10	-3.004340e+01	-6.227971e+01
7.900000e-07	-4.286212e-06	-9.124895e-10	-2.983889e+01	-6.222188e+01
8.000000e-07	-4.256534e-06	-9.110634e-10	-2.963228e+01	-6.216184e+01
8.100000e-07	-4.226653e-06	-9.131806e-10	-2.942426e+01	-6.209986e+01
8.200000e-07	-4.196533e-06	-9.137076e-10	-2.921458e+01	-6.203625e+01
8.300000e-07	-4.166124e-06	-9.075196e-10	-2.900289e+01	-6.197133e+01
8.400000e-07	-4.135397e-06	-9.155782e-10	-2.878898e+01	-6.190545e+01
8.500000e-07	-4.104360e-06	-9.190228e-10	-2.857291e+01	-6.183896e+01
8.600000e-07	-4.073073e-06	-9.146809e-10	-2.835510e+01	-6.177222e+01
8.700000e-07	-4.041572e-06	-9.099417e-10	-2.813581e+01	-6.170556e+01
8.800000e-07	-4.009916e-06	-9.129987e-10	-2.791542e+01	-6.163932e+01
8.900000e-07	-3.978116e-06	-9.055317e-10	-2.769405e+01	-6.157380e+01
9.000000e-07	-3.946105e-06	-9.012769e-10	-2.747120e+01	-6.150927e+01
9.100000e-07	-3.913754e-06	-9.050711e-10	-2.724599e+01	-6.144596e+01
9.200000e-07	-3.881006e-06	-9.043475e-10	-2.701801e+01	-6.138405e+01
9.300000e-07	-3.847790e-06	-8.989424e-10	-2.678677e+01	-6.132367e+01
9.400000e-07	-3.814060e-06	-9.047672e-10	-2.655196e+01	-6.126490e+01
9.500000e-07	-3.779852e-06	-9.084790e-10	-2.631382e+01	-6.120775e+01
9.600000e-07	-3.745255e-06	-8.983789e-10	-2.607296e+01	-6.115217e+01
9.700000e-07	-3.710428e-06	-8.927789e-10	-2.583051e+01	-6.109804e+01
9.800000e-07	-3.675297e-06	-8.933494e-10	-2.558594e+01	-6.104517e+01
9.900000e-07	-3.639889e-06	-8.884234e-10	-2.533945e+01	-6.099333e+01
1.000000e-06	-3.604339e-06	-8.859159e-10	-2.509196e+01	-6.094221e+01
1.010000e-06	-3.568612e-06	-8.942709e-10	-2.484325e+01	-6.089145e+01
1.020000e-06	-3.532718e-06	-8.955156e-10	-2.459336e+01	-6.084062e+01
1.030000e-06	-3.496585e-06	-8.935881e-10	-2.434182e+01	-6.078928e+01
1.040000e-06	-3.460289e-06	-8.949083e-10	-2.408915e+01	-6.073694e+01
1.050000e-06	-3.423846e-06	-8.963650e-10	-2.383544e+01	-6.068305e+01
1.060000e-06	-3.387011e-06	-8.882784e-10	-2.357901e+01	-6.062709e+01
1.070000e-06	-3.349828e-06	-8.851149e-10	-2.332016e+01	-6.056850e+01
1.080000e-06	-3.312422e-06	-8.875099e-10	-2.305975e+01	-6.050673e+01
1.090000e-06	-3.274850e-06	-8.907725e-10	-2.279819e+01	-6.044123e+01
1.100000e-06	-3.237097e-06	-8.889006e-10	-2.253537e+01	-6.037148e+01
1.110000e-06	-3.199113e-06	-8.910250e-10	-2.227094e+01	-6.029699e+01
1.120000e-06	-3.160918e-06	-8.892206e-10	-2.200504e+01	-6.021730e+01
1.130000e-06	-3.122471e-06	-8.836591e-10	-2.173739e+01	-6.013201e+01
1.140000e-06	-3.083784e-06	-8.816919e-10	-2.146806e+01	-6.004076e+01
1.150000e-06	-3.044820e-06	-8.830251e-10	-2.119682e+01	-5.994326e+01
1.160000e-06	-3.005681e-06	-8.779822e-10	-2.092434e+01	-5.983928e+01
1.170000e-06	-2.966475e-06	-8.754837e-10	-2.065141e+01	-5.972866e+01
1.180000e-06	-2.927100e-06	-8.772240e-10	-2.037730e+01	-5.961132e+01
1.190000e-06	-2.887521e-06	-8.768172e-10	-2.010176e+01	-5.948725e+01
1.200000e-06	-2.847816e-06	-8.710711e-10	-1.982535e+01	-5.935650e+01
1.210000e-06	-2.807989e-06	-8.677485e-10	-1.954810e+01	-5.921920e+01
1.220000e-06	-2.768030e-06	-8.639935e-10	-1.926992e+01	-5.907555e+01
1.230000e-06	-2.727901e-06	-8.620431e-10	-1.899055e+01	-5.892580e+01
1.240000e-06	-2.687607e-06	-8.638052e-10	-1.871004e+01	-5.877027e+01
1.250000e-06	-2.647139e-06	-8.654046e-10	-1.842832e+01	-5.860931e+01
1.260000e-06	-2.606390e-06	-8.641438e-10	-1.814464e+01	-5.844333e+01
1.270000e-06	-2.565411e-06	-8.610539e-10	-1.785936e+01	-5.827274e+01
1.280000e-06	-2.524201e-06	-8.603994e-10	-1.757248e+01	-5.809800e+01
1.290000e-06	-2.482530e-06	-8.569803e-10	-1.728238e+01	-5.791957e+01
1.300000e-06	-2.440499e-06	-8.518106e-10	-1.698978e+01	-5.773790e+01
1.310000e-06	-2.398367e-06	-8.478191e-10	-1.669647e+01	-5.755344e+01
1.320000e-06	-2.356020e-06	-8.470305e-10	-1.640166e+01	-5.736661e+01
1.330000e-06	-2.313378e-06	-8.435943e-10	-1.610481e+01	-5.717781e+01
1.340000e-06	-2.270426e-06	-8.416900e-10	-1.580579e+01	-5.698739e+01
1.350000e-06	-2.227222e-06	-8.421762e-10	-1.550503e+01	-5.679564e+01
1.360000e-06	-2.183881e-06	-8.413606e-10	-1.520331e+01	-5.660282e+01
1.370000e-06	-2.140421e-06	-8.375541e-10	-1.490075e+01	-5.640910e+01
1.380000e-06	-2.096883e-06	-8.347279e-10	-1.459766e+01	-5.621460e+01
1.390000e-06	-2.053200e-06	-8.296689e-10	-1.429356e+01	-5.601934e+01
1.400000e-06	-2.009389e-06	-8.259651e-10	-1.398856e+01	-5.582329e+01
1.410000e-06	-1.965560e-06	-8.222934e-10	-1.368344e+01	-5.562634e+01
1.420000e-06	-1.921668e-06	-8.194361e-10	-1.337788e+01	-5.542827e+01
1.430000e-06	-1.877634e-06	-8.178626e-10	-1.307133e+01	-5.522882e+01
1.440000e-06	-1.833505e-06	-8.173952e-10	-1.276412e+01	-5.502763e+01
1.450000e-06	-1.789271e-06	-8.161872e-10	-1.245619e+01	-5.482427e+01
1.460000e-06	-1.744880e-06	-8.143484e-10	-1.214715e+01	-5.461824e+01
1.470000e-06	-1.700408e-06	-8.110899e-10	-1.183756e+01	-5.440900e+01
1.480000e-06	-1.655729e-06	-8.080223e-10	-1.152652e+01	-5.419592e+01
1.490000e-06	-1.610833e-06	-8.028225e-10	-1.121397e+01	-5.397833e+01
1.500000e-06	-1.565942e-06	-7.950478e-10	-1.090146e+01	-5.375552e+01
1.510000e-06	-1.520969e-06	-7.883160e-10	-1.058837e+01	-5.352673e+01
1.520000e-06	-1.475802e-06	-7.859557e-10	-1.027394e+01	-5.329118e+01
1.530000e-06	-1.430564e-06	-7.858870e-10	-9.959014e+00	-5.304806e+01
1.540000e-06	-1.385298e-06	-7.841646e-10	-9.643885e+00	-5.279655e+01
1.550000e-06	-1.339939e-06	-7.808189e-10	-9.328120e+00	-5.253580e+01
1.560000e-06	-1.294467e-06	-7.744063e-10	-9.011557e+00	-5.226498e+01
1.570000e-06	-1.248896e-06	-7.662452e-10	-8.694310e+00	-5.198325e+01
1.580000e-06	-1.203238e-06	-7.567375e-10	-8.376462e+00	-5.168975e+01
1.590000e-06	-1.157516e-06	-7.492281e-10	-8.058160e+00	-5.138366e+01
1.600000e-06	-1.111699e-06	-7.434798e-10	-7.739200e+00	-5.106416e+01
1.610000e-06	-1.065775e-06	-7.404736e-10	-7.419495e+00	-5.073044e+01
1.620000e-06	-1.019811e-06	-7.395133e-10	-7.099513e+00	-5.038170e+01
1.630000e-06	-9.737792e-07	-7.374188e-10	-6.779060e+00	-5.001716e+01
1.640000e-06	-9.276626e-07	-7.321816e-10	-6.458015e+00	-4.963606e+01
1.650000e-06	-8.814812e-07	-7.233489e-10	-6.136519e+00	-4.923765e+01
1.660000e-06	-8.352642e-07	-7.099911e-10	-5.814774e+00	-4.882119e+01
1.670000e-06	-7.890356e-07	-6.960658e-10	-5.492949e+00	-4.838595e+01
1.680000e-06	-7.427269e-07	-6.840464e-10	-5.170567e+00	-4.793122e+01
1.690000e-06	-6.963736e-07	-6.758733e-10	-4.847874e+00	-4.745629e+01
1.700000e-06	-6.500128e-07	-6.702214e-10	-4.525128e+00	-4.696046e+01
1.710000e-06	-6.036162e-07	-6.688457e-10	-4.202134e+00	-4.644304e+01
1.720000e-06	-5.571483e-07	-6.682899e-10	-3.878643e+00	-4.590334e+01
1.730000e-06	-5.104505e-07	-6.617595e-10	-3.553552e+00	-4.534068e+01
1.740000e-06	-4.637163e-07	-6.476420e-10	-3.228207e+00	-4.475437e+01
1.750000e-06	-4.170600e-07	-6.270112e-10	-2.903405e+00	-4.414375e+01
1.760000e-06	-3.704081e-07	-6.065036e-10	-2.578633e+00	-4.350815e+01
1.770000e-06	-3.236942e-07	-5.932700e-10	-2.253429e+00	-4.284692e+01
1.780000e-06	-2.769553e-07	-5.872592e-10	-1.928052e+00	-4.215941e+01
1.790000e-06	-2.302662e-07	-5.854535e-10	-1.603021e+00	-4.144501e+01
1.800000e-06	-1.834835e-07	-5.824548e-10	-1.277339e+00	-4.070311e+01
1.810000e-06	-1.366231e-07	-5.735291e-10	-9.511152e-01	-3.993315e+01
1.820000e-06	-8.976600e-08	-5.580098e-10	-6.249149e-01	-3.913458e+01
1.830000e-06	-4.303266e-08	-5.388660e-10	-2.995761e-01	-3.830691e+01
1.840000e-06	3.645728e-09	-5.214445e-10	2.538010e-02	-3.744970e+01
1.850000e-06	5.038917e-08	-5.068633e-10	3.507892e-01	-3.656257e+01
1.860000e-06	9.708507e-08	-4.954915e-10	6.758673e-01	-3.564520e+01
1.870000e-06	1.437772e-07	-4.877330e-10	1.000919e+00	-3.469735e+01
1.880000e-06	1.905559e-07	-4.812204e-10	1.326574e+00	-3.371887e+01
1.890000e-06	2.372941e-07	-4.699586e-10	1.651946e+00	-3.270968e+01
1.900000e-06	2.838938e-07	-4.522577e-10	1.976355e+00	-3.166983e+01
1.910000e-06	3.304503e-07	-4.330611e-10	2.300462e+00	-3.059946e+01
1.920000e-06	3.770163e-07	-4.163018e-10	2.624636e+00	-2.949881e+01
1.930000e-06	4.235275e-07	-4.004156e-10	2.948428e+00	-2.836827e+01
1.940000e-06	4.700519e-07	-3.838503e-10	3.272313e+00	-2.720833e+01
1.950000e-06	5.165267e-07	-3.673012e-10	3.595851e+00	-2.601961e+01
1.960000e-06	5.628803e-07	-3.526706e-10	3.918546e+00	-2.480286e+01
1.970000e-06	6.091685e-07	-3.386003e-10	4.240787e+00	-2.355894e+01
1.980000e-06	6.554626e-07	-3.241553e-10	4.563068e+00	-2.228886e+01
1.990000e-06	7.016975e-07	-3.078844e-10	4.884937e+00	-2.099373e+01
2.000000e-06	7.478925e-07	-2.881212e-10	5.206527e+00	-1.967479e+01
2.010000e-06	7.941230e-07	-2.636580e-10	5.528366e+00	-1.833340e+01
2.020000e-06	8.403796e-07	-2.384891e-10	5.850386e+00	-1.697101e+01
2.030000e-06	8.866066e-07	-2.186909e-10	6.172199e+00	-1.558916e+01
2.040000e-06	9.326275e-07	-2.042027e-10	6.492578e+00	-1.418949e+01
2.050000e-06	9.784960e-07	-1.902669e-10	6.811897e+00	-1.277373e+01
2.060000e-06	1.024336e-06	-1.743032e-10	7.131015e+00	-1.134364e+01
2.070000e-06	1.070162e-06	-1.554898e-10	7.450035e+00	-9.901070e+00
2.080000e-06	1.115897e-06	-1.313226e-10	7.768427e+00	-8.447879e+00
2.090000e-06	1.161566e-06	-1.054907e-10	8.086356e+00	-6.985971e+00
2.100000e-06	1.207230e-06	-8.327927e-11	8.404253e+00	-5.517261e+00
2.110000e-06	1.252841e-06	-6.388777e-11	8.721779e+00	-4.043666e+00
2.120000e-06	1.298362e-06	-4.723636e-11	9.038673e+00	-2.567091e+00
2.130000e-06	1.343787e-06	-3.272267e-11	9.354904e+00	-1.089419e+00
2.140000e-06	1.389089e-06	-1.727084e-11	9.670281e+00	3.874998e-01
2.150000e-06	1.434235e-06	2.248471e-12	9.984569e+00	1.861862e+00
2.160000e-06	1.479340e-06	2.616689e-11	1.029857e+01	3.331918e+00
2.170000e-06	1.524486e-06	5.055088e-11	1.061286e+01	4.795980e+00
2.180000e-06	1.569468e-06	7.241161e-11	1.092601e+01	6.252431e+00
2.190000e-06	1.614183e-06	9.209234e-11	1.123729e+01	7.699731e+00
2.200000e-06	1.658753e-06	1.098162e-10	1.154757e+01	9.136421e+00
2.210000e-06	1.703192e-06	1.255916e-10	1.185694e+01	1.056113e+01
2.220000e-06	1.747481e-06	1.436012e-10	1.216526e+01	1.197257e+01
2.230000e-06	1.791606e-06	1.639095e-10	1.247244e+01	1.336954e+01
2.240000e-06	1.835627e-06	1.831795e-10	1.277890e+01	1.475093e+01
2.250000e-06	1.879597e-06	2.026987e-10	1.308500e+01	1.611573e+01
2.260000e-06	1.923475e-06	2.251939e-10	1.339046e+01	1.746300e+01
2.270000e-06	1.967258e-06	2.481879e-10	1.369526e+01	1.879189e+01
2.280000e-06	2.010970e-06	2.686724e-10	1.399957e+01	2.010164e+01
2.290000e-06	2.054654e-06	2.868651e-10	1.430367e+01	2.139154e+01
2.300000e-06	2.098323e-06	3.038376e-10	1.460768e+01	2.266097e+01
2.310000e-06	2.141898e-06	3.194915e-10	1.491104e+01	2.390938e+01
2.320000e-06	2.185358e-06	3.353336e-10	1.521359e+01	2.513627e+01
2.330000e-06	2.228778e-06	3.522628e-10	1.551586e+01	2.634122e+01
2.340000e-06	2.272091e-06	3.701164e-10	1.581738e+01	2.752382e+01
2.350000e-06	2.315212e-06	3.889720e-10	1.611757e+01	2.868375e+01
2.360000e-06	2.358140e-06	4.069669e-10	1.641643e+01	2.982072e+01
2.370000e-06	2.400800e-06	4.210627e-10	1.671341e+01	3.093447e+01
2.380000e-06	2.443040e-06	4.327979e-10	1.700747e+01	3.202479e+01
2.390000e-06	2.484822e-06	4.444049e-10	1.729833e+01	3.309149e+01
2.400000e-06	2.526167e-06	4.571692e-10	1.758616e+01	3.413443e+01
2.410000e-06	2.567232e-06	4.729141e-10	1.787204e+01	3.515347e+01
2.420000e-06	2.608111e-06	4.894827e-10	1.815662e+01	3.614854e+01
2.430000e-06	2.648706e-06	5.052486e-10	1.843923e+01	3.711956e+01
2.440000e-06	2.689035e-06	5.191869e-10	1.871998e+01	3.806650e+01
2.450000e-06	2.729143e-06	5.313195e-10	1.899920e+01	3.898935e+01
2.460000e-06	2.769109e-06	5.434744e-10	1.927743e+01	3.988813e+01
2.470000e-06	2.808949e-06	5.556814e-10	1.955477e+01	4.076289e+01
2.480000e-06	2.848664e-06	5.673995e-10	1.983126e+01	4.161370e+01
2.490000e-06	2.888300e-06	5.790237e-10	2.010718e+01	4.244068e+01
2.500000e-06	2.927836e-06	5.902877e-10	2.038242e+01	4.324397e+01
2.510000e-06	2.967266e-06	6.016611e-10	2.065692e+01	4.402373e+01
2.520000e-06	3.006506e-06	6.113960e-10	2.093009e+01	4.478018e+01
2.530000e-06	3.045517e-06	6.222416e-10	2.120166e+01	4.551356e+01
2.540000e-06	3.084327e-06	6.323733e-10	2.147185e+01	4.622414e+01
2.550000e-06	3.122861e-06	6.401176e-10	2.174010e+01	4.691223e+01
2.560000e-06	3.161128e-06	6.485875e-10	2.200650e+01	4.757816e+01
2.570000e-06	3.199235e-06	6.580061e-10	2.227179e+01	4.822231e+01
2.580000e-06	3.237132e-06	6.697147e-10	2.253562e+01	4.884507e+01
2.590000e-06	3.274812e-06	6.788712e-10	2.279793e+01	4.944688e+01
2.600000e-06	3.312318e-06	6.862953e-10	2.305903e+01	5.002817e+01
2.610000e-06	3.349590e-06	6.930868e-10	2.331850e+01	5.058943e+01
2.620000e-06	3.386555e-06	6.990591e-10	2.357584e+01	5.113113e+01
2.630000e-06	3.423252e-06	7.053108e-10	2.383131e+01	5.165379e+01
2.640000e-06	3.459747e-06	7.120222e-10	2.408537e+01	5.215791e+01
2.650000e-06	3.495992e-06	7.176876e-10	2.433769e+01	5.264401e+01
2.660000e-06	3.532013e-06	7.246081e-10	2.458846e+01	5.311261e+01
2.670000e-06	3.567880e-06	7.316907e-10	2.483815e+01	5.356424e+01
2.680000e-06	3.603615e-06	7.359508e-10	2.508692e+01	5.399941e+01
2.690000e-06	3.639242e-06	7.402496e-10	2.533494e+01	5.441862e+01
2.700000e-06	3.674735e-06	7.448380e-10	2.558203e+01	5.482237e+01
2.710000e-06	3.710046e-06	7.506523e-10	2.582785e+01	5.521114e+01
2.720000e-06	3.745172e-06	7.583959e-10	2.607238e+01	5.558540e+01
2.730000e-06	3.779986e-06	7.667008e-10	2.631475e+01	5.594559e+01
2.740000e-06	3.814299e-06	7.736263e-10	2.655362e+01	5.629215e+01
2.750000e-06	3.848028e-06	7.783171e-10	2.678843e+01	5.662548e+01
2.760000e-06	3.881319e-06	7.826446e-10	2.702018e+01	5.694597e+01
2.770000e-06	3.914205e-06	7.858421e-10	2.724913e+01	5.725399e+01
2.780000e-06	3.946618e-06	7.901892e-10	2.747477e+01	5.754992e+01
2.790000e-06	3.978676e-06	7.962848e-10	2.769795e+01	5.783408e+01
2.800000e-06	4.010484e-06	8.022070e-10	2.791938e+01	5.810681e+01
2.810000e-06	4.042156e-06	8.062471e-10	2.813987e+01	5.836843e+01
2.820000e-06	4.073688e-06	8.096677e-10	2.835938e+01	5.861926e+01
2.830000e-06	4.105061e-06	8.163174e-10	2.857779e+01	5.885961e+01
2.840000e-06	4.136262e-06	8.209617e-10	2.879499e+01	5.908979e+01
2.850000e-06	4.167131e-06	8.244573e-10	2.900989e+01	5.931013e+01
2.860000e-06	4.197582e-06	8.277682e-10	2.922188e+01	5.952094e+01
2.870000e-06	4.227674e-06	8.310325e-10	2.943137e+01	5.972257e+01
2.880000e-06	4.257491e-06	8.353276e-10	2.963895e+01	5.991535e+01
2.890000e-06	4.287078e-06	8.412210e-10	2.984491e+01	6.009966e+01
2.900000e-06	4.316399e-06	8.477275e-10	3.004904e+01	6.027586e+01
