# Temperatura_=_-5.8
# Concentracion g/m^3_=_1620.0
# C_Vs_to_Am_M_A/Vsm_=_65563218390.804596
# pendiente_HvsI_1/m_=_3716.3
# ordenada_HvsI_A/m_=_1297.0
# frecuencia_Hz_=_135107.86437169847

Tiempo_(s)	Campo_(V.s)	Magnetizacion_(V.s)	Campo_(kA/m)	Magnetizacion_(A/m)
0.000000e+00	-5.501711e-06	-1.123927e-09	-3.837333e+01	-7.470248e+01
1.000000e-08	-5.501842e-06	-1.123299e-09	-3.837424e+01	-7.469404e+01
2.000000e-08	-5.501679e-06	-1.123840e-09	-3.837310e+01	-7.468962e+01
3.000000e-08	-5.501251e-06	-1.125415e-09	-3.837011e+01	-7.468910e+01
4.000000e-08	-5.500411e-06	-1.126150e-09	-3.836426e+01	-7.469225e+01
5.000000e-08	-5.498968e-06	-1.124595e-09	-3.835419e+01	-7.469878e+01
6.000000e-08	-5.496914e-06	-1.124362e-09	-3.833987e+01	-7.470829e+01
7.000000e-08	-5.494276e-06	-1.141005e-09	-3.832146e+01	-7.472031e+01
8.000000e-08	-5.491096e-06	-1.156355e-09	-3.829928e+01	-7.473429e+01
9.000000e-08	-5.487373e-06	-1.107168e-09	-3.827332e+01	-7.474959e+01
1.000000e-07	-5.483229e-06	-1.048260e-09	-3.824441e+01	-7.476552e+01
1.100000e-07	-5.478973e-06	-1.107686e-09	-3.821473e+01	-7.478134e+01
1.200000e-07	-5.474585e-06	-1.165937e-09	-3.818412e+01	-7.479624e+01
1.300000e-07	-5.469803e-06	-1.152624e-09	-3.815077e+01	-7.480939e+01
1.400000e-07	-5.464551e-06	-1.085202e-09	-3.811414e+01	-7.481993e+01
1.500000e-07	-5.458911e-06	-1.099118e-09	-3.807480e+01	-7.482700e+01
1.600000e-07	-5.452969e-06	-1.183879e-09	-3.803335e+01	-7.482972e+01
1.700000e-07	-5.446640e-06	-1.152412e-09	-3.798921e+01	-7.482726e+01
1.800000e-07	-5.439862e-06	-1.125788e-09	-3.794194e+01	-7.481880e+01
1.900000e-07	-5.432717e-06	-1.129901e-09	-3.789210e+01	-7.480357e+01
2.000000e-07	-5.425223e-06	-1.192550e-09	-3.783984e+01	-7.478086e+01
2.100000e-07	-5.417457e-06	-1.176986e-09	-3.778567e+01	-7.475004e+01
2.200000e-07	-5.409497e-06	-1.146874e-09	-3.773015e+01	-7.471054e+01
2.300000e-07	-5.401293e-06	-1.136020e-09	-3.767293e+01	-7.466192e+01
2.400000e-07	-5.392670e-06	-1.168066e-09	-3.761278e+01	-7.460381e+01
2.500000e-07	-5.383353e-06	-1.179730e-09	-3.754780e+01	-7.453597e+01
2.600000e-07	-5.373324e-06	-1.163997e-09	-3.747785e+01	-7.445828e+01
2.700000e-07	-5.362643e-06	-1.136143e-09	-3.740335e+01	-7.437071e+01
2.800000e-07	-5.351513e-06	-1.135985e-09	-3.732572e+01	-7.427339e+01
2.900000e-07	-5.340005e-06	-1.144668e-09	-3.724545e+01	-7.416655e+01
3.000000e-07	-5.328090e-06	-1.116444e-09	-3.716235e+01	-7.405053e+01
3.100000e-07	-5.315784e-06	-1.110265e-09	-3.707652e+01	-7.392581e+01
3.200000e-07	-5.303058e-06	-1.144671e-09	-3.698776e+01	-7.379294e+01
3.300000e-07	-5.289940e-06	-1.174533e-09	-3.689627e+01	-7.365260e+01
3.400000e-07	-5.276430e-06	-1.124716e-09	-3.680203e+01	-7.350554e+01
3.500000e-07	-5.262587e-06	-1.121788e-09	-3.670548e+01	-7.335258e+01
3.600000e-07	-5.248428e-06	-1.146656e-09	-3.660672e+01	-7.319461e+01
3.700000e-07	-5.233803e-06	-1.124608e-09	-3.650472e+01	-7.303257e+01
3.800000e-07	-5.218491e-06	-1.080232e-09	-3.639792e+01	-7.286740e+01
3.900000e-07	-5.202659e-06	-1.131416e-09	-3.628750e+01	-7.270010e+01
4.000000e-07	-5.186426e-06	-1.131346e-09	-3.617427e+01	-7.253163e+01
4.100000e-07	-5.169743e-06	-1.073035e-09	-3.605791e+01	-7.236294e+01
4.200000e-07	-5.152731e-06	-1.092029e-09	-3.593926e+01	-7.219496e+01
4.300000e-07	-5.135406e-06	-1.154061e-09	-3.581842e+01	-7.202855e+01
4.400000e-07	-5.117773e-06	-1.082832e-09	-3.569543e+01	-7.186451e+01
4.500000e-07	-5.099867e-06	-1.046650e-09	-3.557054e+01	-7.170357e+01
4.600000e-07	-5.081582e-06	-1.117591e-09	-3.544301e+01	-7.154637e+01
4.700000e-07	-5.062838e-06	-1.105978e-09	-3.531227e+01	-7.139344e+01
4.800000e-07	-5.043652e-06	-1.030856e-09	-3.517846e+01	-7.124523e+01
4.900000e-07	-5.024113e-06	-1.087925e-09	-3.504217e+01	-7.110206e+01
5.000000e-07	-5.004353e-06	-1.124521e-09	-3.490435e+01	-7.096413e+01
5.100000e-07	-4.984402e-06	-1.050632e-09	-3.476519e+01	-7.083154e+01
5.200000e-07	-4.964186e-06	-1.063259e-09	-3.462420e+01	-7.070428e+01
5.300000e-07	-4.943677e-06	-1.129288e-09	-3.448115e+01	-7.058221e+01
5.400000e-07	-4.922816e-06	-1.063530e-09	-3.433564e+01	-7.046511e+01
5.500000e-07	-4.901568e-06	-1.019784e-09	-3.418745e+01	-7.035264e+01
5.600000e-07	-4.879994e-06	-1.091224e-09	-3.403697e+01	-7.024440e+01
5.700000e-07	-4.858156e-06	-1.082562e-09	-3.388466e+01	-7.013990e+01
5.800000e-07	-4.836010e-06	-1.026852e-09	-3.373019e+01	-7.003858e+01
5.900000e-07	-4.813447e-06	-1.068679e-09	-3.357282e+01	-6.993985e+01
6.000000e-07	-4.790467e-06	-1.093506e-09	-3.341254e+01	-6.984307e+01
6.100000e-07	-4.767155e-06	-1.037181e-09	-3.324994e+01	-6.974759e+01
6.200000e-07	-4.743638e-06	-1.046338e-09	-3.308591e+01	-6.965275e+01
6.300000e-07	-4.719950e-06	-1.078665e-09	-3.292070e+01	-6.955791e+01
6.400000e-07	-4.696028e-06	-1.050806e-09	-3.275385e+01	-6.946244e+01
6.500000e-07	-4.671773e-06	-1.039541e-09	-3.258467e+01	-6.936576e+01
6.600000e-07	-4.647120e-06	-1.072360e-09	-3.241272e+01	-6.926734e+01
6.700000e-07	-4.621930e-06	-1.057185e-09	-3.223703e+01	-6.916670e+01
6.800000e-07	-4.596154e-06	-1.040057e-09	-3.205724e+01	-6.906344e+01
6.900000e-07	-4.569795e-06	-1.056172e-09	-3.187340e+01	-6.895724e+01
7.000000e-07	-4.542884e-06	-1.058734e-09	-3.168570e+01	-6.884785e+01
7.100000e-07	-4.515575e-06	-1.034205e-09	-3.149523e+01	-6.873512e+01
7.200000e-07	-4.488041e-06	-1.037214e-09	-3.130318e+01	-6.861897e+01
7.300000e-07	-4.460354e-06	-1.040003e-09	-3.111007e+01	-6.849942e+01
7.400000e-07	-4.432518e-06	-1.030083e-09	-3.091591e+01	-6.837657e+01
7.500000e-07	-4.404561e-06	-1.027418e-09	-3.072092e+01	-6.825059e+01
7.600000e-07	-4.376385e-06	-1.035431e-09	-3.052440e+01	-6.812172e+01
7.700000e-07	-4.347881e-06	-1.028766e-09	-3.032559e+01	-6.799026e+01
7.800000e-07	-4.318983e-06	-1.023394e-09	-3.012403e+01	-6.785657e+01
7.900000e-07	-4.289768e-06	-1.022269e-09	-2.992026e+01	-6.772104e+01
8.000000e-07	-4.260327e-06	-1.015810e-09	-2.971492e+01	-6.758407e+01
8.100000e-07	-4.230575e-06	-1.006554e-09	-2.950740e+01	-6.744610e+01
8.200000e-07	-4.200553e-06	-1.009565e-09	-2.929801e+01	-6.730755e+01
8.300000e-07	-4.170300e-06	-1.011070e-09	-2.908700e+01	-6.716883e+01
8.400000e-07	-4.139736e-06	-1.005236e-09	-2.887382e+01	-6.703031e+01
8.500000e-07	-4.108793e-06	-1.007623e-09	-2.865800e+01	-6.689234e+01
8.600000e-07	-4.077528e-06	-1.010311e-09	-2.843993e+01	-6.675519e+01
8.700000e-07	-4.046067e-06	-1.001534e-09	-2.822050e+01	-6.661910e+01
8.800000e-07	-4.014460e-06	-9.957343e-10	-2.800005e+01	-6.648420e+01
8.900000e-07	-3.982660e-06	-9.987039e-10	-2.777825e+01	-6.635057e+01
9.000000e-07	-3.950666e-06	-9.902280e-10	-2.755510e+01	-6.621819e+01
9.100000e-07	-3.918492e-06	-9.849571e-10	-2.733069e+01	-6.608695e+01
9.200000e-07	-3.885998e-06	-9.905339e-10	-2.710405e+01	-6.595667e+01
9.300000e-07	-3.853098e-06	-9.897625e-10	-2.687458e+01	-6.582707e+01
9.400000e-07	-3.819736e-06	-9.784071e-10	-2.664189e+01	-6.569777e+01
9.500000e-07	-3.785879e-06	-9.802200e-10	-2.640574e+01	-6.556835e+01
9.600000e-07	-3.751611e-06	-9.778897e-10	-2.616673e+01	-6.543828e+01
9.700000e-07	-3.716945e-06	-9.645098e-10	-2.592494e+01	-6.530700e+01
9.800000e-07	-3.681880e-06	-9.570272e-10	-2.568037e+01	-6.517387e+01
9.900000e-07	-3.646522e-06	-9.609853e-10	-2.543375e+01	-6.503824e+01
1.000000e-06	-3.611001e-06	-9.557971e-10	-2.518600e+01	-6.489941e+01
1.010000e-06	-3.575333e-06	-9.536582e-10	-2.493723e+01	-6.475669e+01
1.020000e-06	-3.539472e-06	-9.590975e-10	-2.468710e+01	-6.460938e+01
1.030000e-06	-3.503453e-06	-9.586034e-10	-2.443588e+01	-6.445680e+01
1.040000e-06	-3.467298e-06	-9.496992e-10	-2.418370e+01	-6.429830e+01
1.050000e-06	-3.430949e-06	-9.476957e-10	-2.393018e+01	-6.413330e+01
1.060000e-06	-3.394308e-06	-9.432015e-10	-2.367461e+01	-6.396124e+01
1.070000e-06	-3.357387e-06	-9.340733e-10	-2.341710e+01	-6.378166e+01
1.080000e-06	-3.320212e-06	-9.317765e-10	-2.315781e+01	-6.359418e+01
1.090000e-06	-3.282776e-06	-9.356858e-10	-2.289670e+01	-6.339850e+01
1.100000e-06	-3.245106e-06	-9.306543e-10	-2.263396e+01	-6.319441e+01
1.110000e-06	-3.207241e-06	-9.233208e-10	-2.236986e+01	-6.298182e+01
1.120000e-06	-3.169207e-06	-9.232884e-10	-2.210458e+01	-6.276073e+01
1.130000e-06	-3.130947e-06	-9.198167e-10	-2.183773e+01	-6.253126e+01
1.140000e-06	-3.092442e-06	-9.117606e-10	-2.156915e+01	-6.229360e+01
1.150000e-06	-3.053713e-06	-9.091642e-10	-2.129903e+01	-6.204807e+01
1.160000e-06	-3.014714e-06	-9.082428e-10	-2.102702e+01	-6.179505e+01
1.170000e-06	-2.975431e-06	-9.020732e-10	-2.075303e+01	-6.153503e+01
1.180000e-06	-2.936004e-06	-8.989737e-10	-2.047803e+01	-6.126855e+01
1.190000e-06	-2.896477e-06	-8.982687e-10	-2.020234e+01	-6.099621e+01
1.200000e-06	-2.856792e-06	-8.939369e-10	-1.992555e+01	-6.071866e+01
1.210000e-06	-2.816922e-06	-8.874744e-10	-1.964746e+01	-6.043658e+01
1.220000e-06	-2.776945e-06	-8.846242e-10	-1.936863e+01	-6.015066e+01
1.230000e-06	-2.736964e-06	-8.809161e-10	-1.908977e+01	-5.986158e+01
1.240000e-06	-2.696857e-06	-8.756438e-10	-1.881003e+01	-5.957003e+01
1.250000e-06	-2.656533e-06	-8.723397e-10	-1.852878e+01	-5.927665e+01
1.260000e-06	-2.616036e-06	-8.727923e-10	-1.824633e+01	-5.898201e+01
1.270000e-06	-2.575328e-06	-8.685180e-10	-1.796239e+01	-5.868667e+01
1.280000e-06	-2.534388e-06	-8.637189e-10	-1.767684e+01	-5.839107e+01
1.290000e-06	-2.493205e-06	-8.612406e-10	-1.738960e+01	-5.809558e+01
1.300000e-06	-2.451817e-06	-8.573018e-10	-1.710093e+01	-5.780048e+01
1.310000e-06	-2.410090e-06	-8.494297e-10	-1.680989e+01	-5.750594e+01
1.320000e-06	-2.367864e-06	-8.439794e-10	-1.651537e+01	-5.721203e+01
1.330000e-06	-2.325189e-06	-8.392629e-10	-1.621772e+01	-5.691870e+01
1.340000e-06	-2.282291e-06	-8.345501e-10	-1.591852e+01	-5.662580e+01
1.350000e-06	-2.239267e-06	-8.327992e-10	-1.561843e+01	-5.633305e+01
1.360000e-06	-2.196007e-06	-8.321846e-10	-1.531670e+01	-5.604008e+01
1.370000e-06	-2.152545e-06	-8.270395e-10	-1.501356e+01	-5.574640e+01
1.380000e-06	-2.108905e-06	-8.196835e-10	-1.470919e+01	-5.545145e+01
1.390000e-06	-2.065175e-06	-8.128017e-10	-1.440418e+01	-5.515456e+01
1.400000e-06	-2.021399e-06	-8.070119e-10	-1.409885e+01	-5.485500e+01
1.410000e-06	-1.977549e-06	-8.028921e-10	-1.379300e+01	-5.455197e+01
1.420000e-06	-1.933630e-06	-8.023619e-10	-1.348668e+01	-5.424461e+01
1.430000e-06	-1.889653e-06	-7.995587e-10	-1.317994e+01	-5.393205e+01
1.440000e-06	-1.845625e-06	-7.920814e-10	-1.287286e+01	-5.361336e+01
1.450000e-06	-1.801520e-06	-7.852268e-10	-1.256524e+01	-5.328763e+01
1.460000e-06	-1.757275e-06	-7.780861e-10	-1.225664e+01	-5.295393e+01
1.470000e-06	-1.712899e-06	-7.692246e-10	-1.194713e+01	-5.261137e+01
1.480000e-06	-1.668393e-06	-7.620781e-10	-1.163671e+01	-5.225905e+01
1.490000e-06	-1.623712e-06	-7.575853e-10	-1.132506e+01	-5.189614e+01
1.500000e-06	-1.578906e-06	-7.509090e-10	-1.101255e+01	-5.152183e+01
1.510000e-06	-1.534031e-06	-7.440433e-10	-1.069956e+01	-5.113539e+01
1.520000e-06	-1.489072e-06	-7.374070e-10	-1.038598e+01	-5.073611e+01
1.530000e-06	-1.443993e-06	-7.296737e-10	-1.007156e+01	-5.032338e+01
1.540000e-06	-1.398751e-06	-7.210879e-10	-9.756007e+00	-4.989661e+01
1.550000e-06	-1.353380e-06	-7.129749e-10	-9.439552e+00	-4.945531e+01
1.560000e-06	-1.307931e-06	-7.044838e-10	-9.122554e+00	-4.899902e+01
1.570000e-06	-1.262383e-06	-6.954906e-10	-8.804864e+00	-4.852735e+01
1.580000e-06	-1.216768e-06	-6.857806e-10	-8.486712e+00	-4.803995e+01
1.590000e-06	-1.171125e-06	-6.786630e-10	-8.168362e+00	-4.753649e+01
1.600000e-06	-1.125421e-06	-6.716809e-10	-7.849581e+00	-4.701672e+01
1.610000e-06	-1.079671e-06	-6.634759e-10	-7.530485e+00	-4.648035e+01
1.620000e-06	-1.033901e-06	-6.550637e-10	-7.211251e+00	-4.592715e+01
1.630000e-06	-9.880837e-07	-6.457493e-10	-6.891685e+00	-4.535685e+01
1.640000e-06	-9.421642e-07	-6.356015e-10	-6.571405e+00	-4.476919e+01
1.650000e-06	-8.961854e-07	-6.258470e-10	-6.250712e+00	-4.416389e+01
1.660000e-06	-8.501419e-07	-6.147776e-10	-5.929568e+00	-4.354060e+01
1.670000e-06	-8.039880e-07	-6.030036e-10	-5.607654e+00	-4.289897e+01
1.680000e-06	-7.577385e-07	-5.904759e-10	-5.285073e+00	-4.223857e+01
1.690000e-06	-7.114709e-07	-5.785117e-10	-4.962366e+00	-4.155891e+01
1.700000e-06	-6.651911e-07	-5.670667e-10	-4.639573e+00	-4.085945e+01
1.710000e-06	-6.189340e-07	-5.561683e-10	-4.316940e+00	-4.013958e+01
1.720000e-06	-5.726703e-07	-5.459114e-10	-3.994260e+00	-3.939862e+01
1.730000e-06	-5.262407e-07	-5.346446e-10	-3.670423e+00	-3.863581e+01
1.740000e-06	-4.797160e-07	-5.211835e-10	-3.345922e+00	-3.785034e+01
1.750000e-06	-4.331961e-07	-5.049561e-10	-3.021455e+00	-3.704134e+01
1.760000e-06	-3.866696e-07	-4.887591e-10	-2.696942e+00	-3.620790e+01
1.770000e-06	-3.401087e-07	-4.745173e-10	-2.372190e+00	-3.534905e+01
1.780000e-06	-2.935093e-07	-4.624043e-10	-2.047168e+00	-3.446381e+01
1.790000e-06	-2.468732e-07	-4.515646e-10	-1.721891e+00	-3.355118e+01
1.800000e-06	-2.002697e-07	-4.392045e-10	-1.396841e+00	-3.261017e+01
1.810000e-06	-1.536738e-07	-4.239159e-10	-1.071844e+00	-3.163981e+01
1.820000e-06	-1.070757e-07	-4.087227e-10	-7.468312e-01	-3.063917e+01
1.830000e-06	-6.051793e-08	-3.947020e-10	-4.221003e-01	-2.960737e+01
1.840000e-06	-1.386687e-08	-3.821877e-10	-9.671861e-02	-2.854363e+01
1.850000e-06	3.274774e-08	-3.689181e-10	2.284088e-01	-2.744724e+01
1.860000e-06	7.926678e-08	-3.534438e-10	5.528698e-01	-2.631762e+01
1.870000e-06	1.258695e-07	-3.349650e-10	8.779146e-01	-2.515433e+01
1.880000e-06	1.725497e-07	-3.166821e-10	1.203499e+00	-2.395707e+01
1.890000e-06	2.192332e-07	-3.012459e-10	1.529107e+00	-2.272572e+01
1.900000e-06	2.658294e-07	-2.861633e-10	1.854106e+00	-2.146033e+01
1.910000e-06	3.123615e-07	-2.698060e-10	2.178658e+00	-2.016113e+01
1.920000e-06	3.589045e-07	-2.534799e-10	2.503287e+00	-1.882858e+01
1.930000e-06	4.054186e-07	-2.350562e-10	2.827713e+00	-1.746333e+01
1.940000e-06	4.519132e-07	-2.134256e-10	3.152003e+00	-1.606624e+01
1.950000e-06	4.983933e-07	-1.919512e-10	3.476193e+00	-1.463837e+01
1.960000e-06	5.447691e-07	-1.745909e-10	3.799654e+00	-1.318102e+01
1.970000e-06	5.910671e-07	-1.590329e-10	4.122574e+00	-1.169567e+01
1.980000e-06	6.373079e-07	-1.428393e-10	4.445094e+00	-1.018400e+01
1.990000e-06	6.835129e-07	-1.242486e-10	4.767365e+00	-8.647878e+00
2.000000e-06	7.297097e-07	-1.010275e-10	5.089577e+00	-7.089337e+00
2.010000e-06	7.758795e-07	-7.394968e-11	5.411603e+00	-5.510575e+00
2.020000e-06	8.219939e-07	-4.719988e-11	5.733241e+00	-3.913922e+00
2.030000e-06	8.680821e-07	-2.344777e-11	6.054697e+00	-2.301829e+00
2.040000e-06	9.141023e-07	-3.124510e-12	6.375679e+00	-6.768411e-01
2.050000e-06	9.600185e-07	1.585859e-11	6.695935e+00	9.584205e-01
2.060000e-06	1.005894e-06	3.599833e-11	7.015911e+00	2.601284e+00
2.070000e-06	1.051665e-06	5.818697e-11	7.335151e+00	4.249052e+00
2.080000e-06	1.097359e-06	8.304963e-11	7.653856e+00	5.899022e+00
2.090000e-06	1.143063e-06	1.093640e-10	7.972635e+00	7.548512e+00
2.100000e-06	1.188707e-06	1.359514e-10	8.290994e+00	9.194883e+00
2.110000e-06	1.234229e-06	1.592670e-10	8.608496e+00	1.083556e+01
2.120000e-06	1.279680e-06	1.783403e-10	8.925510e+00	1.246806e+01
2.130000e-06	1.325044e-06	1.956935e-10	9.241914e+00	1.408999e+01
2.140000e-06	1.370245e-06	2.147578e-10	9.557183e+00	1.569910e+01
2.150000e-06	1.415330e-06	2.374625e-10	9.871639e+00	1.729325e+01
2.160000e-06	1.460375e-06	2.639512e-10	1.018582e+01	1.887046e+01
2.170000e-06	1.505335e-06	2.901214e-10	1.049940e+01	2.042892e+01
2.180000e-06	1.550172e-06	3.128987e-10	1.081214e+01	2.196697e+01
2.190000e-06	1.594847e-06	3.331247e-10	1.112374e+01	2.348311e+01
2.200000e-06	1.639333e-06	3.521448e-10	1.143401e+01	2.497606e+01
2.210000e-06	1.683718e-06	3.696459e-10	1.174359e+01	2.644465e+01
2.220000e-06	1.727971e-06	3.876100e-10	1.205225e+01	2.788794e+01
2.230000e-06	1.772077e-06	4.070790e-10	1.235988e+01	2.930511e+01
2.240000e-06	1.816138e-06	4.260486e-10	1.266720e+01	3.069553e+01
2.250000e-06	1.860175e-06	4.433699e-10	1.297434e+01	3.205870e+01
2.260000e-06	1.904142e-06	4.617249e-10	1.328101e+01	3.339429e+01
2.270000e-06	1.947988e-06	4.826091e-10	1.358682e+01	3.470207e+01
2.280000e-06	1.991786e-06	5.036069e-10	1.389230e+01	3.598193e+01
2.290000e-06	2.035611e-06	5.235942e-10	1.419798e+01	3.723390e+01
2.300000e-06	2.079372e-06	5.418960e-10	1.450320e+01	3.845804e+01
2.310000e-06	2.123029e-06	5.565045e-10	1.480770e+01	3.965455e+01
2.320000e-06	2.166575e-06	5.698575e-10	1.511142e+01	4.082365e+01
2.330000e-06	2.209967e-06	5.850654e-10	1.541407e+01	4.196562e+01
2.340000e-06	2.253202e-06	6.015757e-10	1.571563e+01	4.308079e+01
2.350000e-06	2.296296e-06	6.184343e-10	1.601620e+01	4.416948e+01
2.360000e-06	2.339097e-06	6.351941e-10	1.631473e+01	4.523207e+01
2.370000e-06	2.381418e-06	6.506997e-10	1.660991e+01	4.626890e+01
2.380000e-06	2.423379e-06	6.639303e-10	1.690258e+01	4.728033e+01
2.390000e-06	2.465079e-06	6.757663e-10	1.719343e+01	4.826669e+01
2.400000e-06	2.506447e-06	6.871231e-10	1.748196e+01	4.922831e+01
2.410000e-06	2.547603e-06	7.001562e-10	1.776902e+01	5.016547e+01
2.420000e-06	2.588571e-06	7.146396e-10	1.805476e+01	5.107845e+01
2.430000e-06	2.629239e-06	7.290611e-10	1.833841e+01	5.196747e+01
2.440000e-06	2.669660e-06	7.422944e-10	1.862034e+01	5.283276e+01
2.450000e-06	2.709901e-06	7.535306e-10	1.890101e+01	5.367449e+01
2.460000e-06	2.750004e-06	7.624406e-10	1.918072e+01	5.449281e+01
2.470000e-06	2.789974e-06	7.705696e-10	1.945951e+01	5.528787e+01
2.480000e-06	2.829816e-06	7.803340e-10	1.973739e+01	5.605977e+01
2.490000e-06	2.869563e-06	7.922533e-10	2.001462e+01	5.680863e+01
2.500000e-06	2.909217e-06	8.053101e-10	2.029120e+01	5.753453e+01
2.510000e-06	2.948660e-06	8.174154e-10	2.056631e+01	5.823758e+01
2.520000e-06	2.987877e-06	8.274696e-10	2.083984e+01	5.891787e+01
2.530000e-06	3.026933e-06	8.363915e-10	2.111225e+01	5.957552e+01
2.540000e-06	3.065708e-06	8.436283e-10	2.138269e+01	6.021066e+01
2.550000e-06	3.104192e-06	8.500656e-10	2.165111e+01	6.082343e+01
2.560000e-06	3.142461e-06	8.574601e-10	2.191803e+01	6.141403e+01
2.570000e-06	3.180542e-06	8.646749e-10	2.218364e+01	6.198266e+01
2.580000e-06	3.218467e-06	8.707299e-10	2.244816e+01	6.252958e+01
2.590000e-06	3.256146e-06	8.773972e-10	2.271096e+01	6.305508e+01
2.600000e-06	3.293566e-06	8.846490e-10	2.297196e+01	6.355951e+01
2.610000e-06	3.330752e-06	8.909427e-10	2.323132e+01	6.404325e+01
2.620000e-06	3.367686e-06	8.967381e-10	2.348893e+01	6.450672e+01
2.630000e-06	3.404460e-06	9.010446e-10	2.374542e+01	6.495042e+01
2.640000e-06	3.441010e-06	9.044778e-10	2.400035e+01	6.537486e+01
2.650000e-06	3.477280e-06	9.093169e-10	2.425332e+01	6.578060e+01
2.660000e-06	3.513363e-06	9.152428e-10	2.450500e+01	6.616827e+01
2.670000e-06	3.549300e-06	9.196868e-10	2.475565e+01	6.653851e+01
2.680000e-06	3.585126e-06	9.226912e-10	2.500553e+01	6.689199e+01
2.690000e-06	3.620786e-06	9.274297e-10	2.525425e+01	6.722943e+01
2.700000e-06	3.656222e-06	9.329756e-10	2.550141e+01	6.755157e+01
2.710000e-06	3.691512e-06	9.377582e-10	2.574755e+01	6.785916e+01
2.720000e-06	3.726520e-06	9.441632e-10	2.599172e+01	6.815296e+01
2.730000e-06	3.761095e-06	9.508453e-10	2.623287e+01	6.843375e+01
2.740000e-06	3.795164e-06	9.562863e-10	2.647050e+01	6.870230e+01
2.750000e-06	3.828728e-06	9.618359e-10	2.670461e+01	6.895939e+01
2.760000e-06	3.861897e-06	9.666309e-10	2.693595e+01	6.920576e+01
2.770000e-06	3.894666e-06	9.700527e-10	2.716451e+01	6.944215e+01
2.780000e-06	3.927052e-06	9.729032e-10	2.739039e+01	6.966930e+01
2.790000e-06	3.959145e-06	9.767453e-10	2.761424e+01	6.988788e+01
2.800000e-06	3.991076e-06	9.813146e-10	2.783695e+01	7.009856e+01
2.810000e-06	4.022879e-06	9.853730e-10	2.805877e+01	7.030196e+01
2.820000e-06	4.054527e-06	9.902530e-10	2.827951e+01	7.049866e+01
2.830000e-06	4.085985e-06	9.959281e-10	2.849892e+01	7.068922e+01
2.840000e-06	4.117127e-06	1.001120e-09	2.871613e+01	7.087412e+01
2.850000e-06	4.147947e-06	1.004986e-09	2.893109e+01	7.105383e+01
2.860000e-06	4.178478e-06	1.008463e-09	2.914404e+01	7.122874e+01
2.870000e-06	4.208763e-06	1.011151e-09	2.935527e+01	7.139923e+01
2.880000e-06	4.238832e-06	1.013199e-09	2.956500e+01	7.156561e+01
2.890000e-06	4.268594e-06	1.017727e-09	2.977258e+01	7.172814e+01
2.900000e-06	4.298036e-06	1.023238e-09	2.997793e+01	7.188705e+01
