# Temperatura_=_13.8
# Concentracion g/m^3_=_1620.0
# C_Vs_to_Am_M_A/Vsm_=_65563218390.804596
# pendiente_HvsI_1/m_=_3716.3
# ordenada_HvsI_A/m_=_1297.0
# frecuencia_Hz_=_135101.8149292554

Tiempo_(s)	Campo_(V.s)	Magnetizacion_(V.s)	Campo_(kA/m)	Magnetizacion_(A/m)
0.000000e+00	-5.531467e-06	-1.513805e-09	-3.836680e+01	-1.013409e+02
1.000000e-08	-5.531666e-06	-1.514257e-09	-3.836818e+01	-1.013077e+02
2.000000e-08	-5.531585e-06	-1.514872e-09	-3.836762e+01	-1.012752e+02
3.000000e-08	-5.531234e-06	-1.514556e-09	-3.836518e+01	-1.012439e+02
4.000000e-08	-5.530536e-06	-1.512383e-09	-3.836035e+01	-1.012144e+02
5.000000e-08	-5.529280e-06	-1.508830e-09	-3.835163e+01	-1.011868e+02
6.000000e-08	-5.527407e-06	-1.510081e-09	-3.833864e+01	-1.011616e+02
7.000000e-08	-5.525004e-06	-1.530919e-09	-3.832197e+01	-1.011389e+02
8.000000e-08	-5.522022e-06	-1.532550e-09	-3.830129e+01	-1.011188e+02
9.000000e-08	-5.518460e-06	-1.459025e-09	-3.827658e+01	-1.011013e+02
1.000000e-07	-5.514479e-06	-1.424378e-09	-3.824897e+01	-1.010863e+02
1.100000e-07	-5.510185e-06	-1.545737e-09	-3.821919e+01	-1.010734e+02
1.200000e-07	-5.505634e-06	-1.593872e-09	-3.818762e+01	-1.010624e+02
1.300000e-07	-5.500805e-06	-1.492216e-09	-3.815413e+01	-1.010527e+02
1.400000e-07	-5.495687e-06	-1.404406e-09	-3.811863e+01	-1.010437e+02
1.500000e-07	-5.490224e-06	-1.509999e-09	-3.808074e+01	-1.010347e+02
1.600000e-07	-5.484306e-06	-1.603519e-09	-3.803969e+01	-1.010251e+02
1.700000e-07	-5.477954e-06	-1.496715e-09	-3.799563e+01	-1.010138e+02
1.800000e-07	-5.471167e-06	-1.428687e-09	-3.794855e+01	-1.010000e+02
1.900000e-07	-5.463921e-06	-1.522132e-09	-3.789829e+01	-1.009828e+02
2.000000e-07	-5.456376e-06	-1.611954e-09	-3.784596e+01	-1.009612e+02
2.100000e-07	-5.448613e-06	-1.533522e-09	-3.779211e+01	-1.009341e+02
2.200000e-07	-5.440629e-06	-1.476127e-09	-3.773674e+01	-1.009007e+02
2.300000e-07	-5.432366e-06	-1.518936e-09	-3.767942e+01	-1.008600e+02
2.400000e-07	-5.423675e-06	-1.582151e-09	-3.761914e+01	-1.008111e+02
2.500000e-07	-5.414434e-06	-1.551146e-09	-3.755505e+01	-1.007532e+02
2.600000e-07	-5.404713e-06	-1.516186e-09	-3.748763e+01	-1.006855e+02
2.700000e-07	-5.394290e-06	-1.515472e-09	-3.741533e+01	-1.006074e+02
2.800000e-07	-5.383180e-06	-1.532784e-09	-3.733827e+01	-1.005185e+02
2.900000e-07	-5.371719e-06	-1.514846e-09	-3.725878e+01	-1.004182e+02
3.000000e-07	-5.359827e-06	-1.493307e-09	-3.717629e+01	-1.003064e+02
3.100000e-07	-5.347469e-06	-1.505664e-09	-3.709057e+01	-1.001829e+02
3.200000e-07	-5.334733e-06	-1.549445e-09	-3.700223e+01	-1.000477e+02
3.300000e-07	-5.321604e-06	-1.548747e-09	-3.691117e+01	-9.990100e+01
3.400000e-07	-5.308067e-06	-1.497403e-09	-3.681728e+01	-9.974307e+01
3.500000e-07	-5.294118e-06	-1.507270e-09	-3.672052e+01	-9.957435e+01
3.600000e-07	-5.279740e-06	-1.537482e-09	-3.662080e+01	-9.939539e+01
3.700000e-07	-5.264948e-06	-1.487537e-09	-3.651820e+01	-9.920687e+01
3.800000e-07	-5.249564e-06	-1.460910e-09	-3.641149e+01	-9.900955e+01
3.900000e-07	-5.233618e-06	-1.540907e-09	-3.630089e+01	-9.880428e+01
4.000000e-07	-5.217265e-06	-1.520111e-09	-3.618746e+01	-9.859201e+01
4.100000e-07	-5.200494e-06	-1.428040e-09	-3.607114e+01	-9.837370e+01
4.200000e-07	-5.183437e-06	-1.487875e-09	-3.595283e+01	-9.815037e+01
4.300000e-07	-5.166133e-06	-1.563800e-09	-3.583281e+01	-9.792305e+01
4.400000e-07	-5.148461e-06	-1.440594e-09	-3.571023e+01	-9.769275e+01
4.500000e-07	-5.130397e-06	-1.410430e-09	-3.558494e+01	-9.746046e+01
4.600000e-07	-5.111948e-06	-1.537590e-09	-3.545697e+01	-9.722714e+01
4.700000e-07	-5.093140e-06	-1.495756e-09	-3.532652e+01	-9.699367e+01
4.800000e-07	-5.073954e-06	-1.374881e-09	-3.519344e+01	-9.676085e+01
4.900000e-07	-5.054427e-06	-1.474644e-09	-3.505801e+01	-9.652940e+01
5.000000e-07	-5.034676e-06	-1.521327e-09	-3.492101e+01	-9.629994e+01
5.100000e-07	-5.014657e-06	-1.402482e-09	-3.478216e+01	-9.607295e+01
5.200000e-07	-4.994339e-06	-1.431006e-09	-3.464122e+01	-9.584880e+01
5.300000e-07	-4.973733e-06	-1.525970e-09	-3.449830e+01	-9.562775e+01
5.400000e-07	-4.952832e-06	-1.419325e-09	-3.435333e+01	-9.540991e+01
5.500000e-07	-4.931584e-06	-1.375775e-09	-3.420595e+01	-9.519526e+01
5.600000e-07	-4.909989e-06	-1.482281e-09	-3.405617e+01	-9.498369e+01
5.700000e-07	-4.888020e-06	-1.442502e-09	-3.390379e+01	-9.477492e+01
5.800000e-07	-4.865673e-06	-1.353725e-09	-3.374879e+01	-9.456861e+01
5.900000e-07	-4.843026e-06	-1.436015e-09	-3.359170e+01	-9.436428e+01
6.000000e-07	-4.820014e-06	-1.463943e-09	-3.343209e+01	-9.416139e+01
6.100000e-07	-4.796705e-06	-1.377365e-09	-3.327042e+01	-9.395932e+01
6.200000e-07	-4.773192e-06	-1.400852e-09	-3.310733e+01	-9.375738e+01
6.300000e-07	-4.749428e-06	-1.448091e-09	-3.294250e+01	-9.355487e+01
6.400000e-07	-4.725404e-06	-1.388769e-09	-3.277587e+01	-9.335103e+01
6.500000e-07	-4.701082e-06	-1.375809e-09	-3.260717e+01	-9.314511e+01
6.600000e-07	-4.676350e-06	-1.423109e-09	-3.243563e+01	-9.293637e+01
6.700000e-07	-4.651172e-06	-1.393745e-09	-3.226099e+01	-9.272409e+01
6.800000e-07	-4.625567e-06	-1.366726e-09	-3.208339e+01	-9.250759e+01
6.900000e-07	-4.599397e-06	-1.398784e-09	-3.190187e+01	-9.228626e+01
7.000000e-07	-4.572630e-06	-1.396657e-09	-3.171621e+01	-9.205951e+01
7.100000e-07	-4.545482e-06	-1.364834e-09	-3.152791e+01	-9.182688e+01
7.200000e-07	-4.518053e-06	-1.375348e-09	-3.133766e+01	-9.158796e+01
7.300000e-07	-4.490327e-06	-1.375878e-09	-3.114535e+01	-9.134242e+01
7.400000e-07	-4.462371e-06	-1.356179e-09	-3.095145e+01	-9.109007e+01
7.500000e-07	-4.434240e-06	-1.356157e-09	-3.075633e+01	-9.083075e+01
7.600000e-07	-4.405901e-06	-1.362470e-09	-3.055977e+01	-9.056444e+01
7.700000e-07	-4.377296e-06	-1.345940e-09	-3.036136e+01	-9.029120e+01
7.800000e-07	-4.348342e-06	-1.340891e-09	-3.016053e+01	-9.001116e+01
7.900000e-07	-4.319059e-06	-1.339593e-09	-2.995742e+01	-8.972453e+01
8.000000e-07	-4.289489e-06	-1.325025e-09	-2.975232e+01	-8.943160e+01
8.100000e-07	-4.259601e-06	-1.317116e-09	-2.954501e+01	-8.913270e+01
8.200000e-07	-4.229400e-06	-1.325564e-09	-2.933554e+01	-8.882823e+01
8.300000e-07	-4.198887e-06	-1.317906e-09	-2.912389e+01	-8.851861e+01
8.400000e-07	-4.168060e-06	-1.306508e-09	-2.891007e+01	-8.820426e+01
8.500000e-07	-4.137000e-06	-1.309667e-09	-2.869464e+01	-8.788565e+01
8.600000e-07	-4.105699e-06	-1.307218e-09	-2.847753e+01	-8.756322e+01
8.700000e-07	-4.074088e-06	-1.290352e-09	-2.825827e+01	-8.723740e+01
8.800000e-07	-4.042287e-06	-1.288409e-09	-2.803770e+01	-8.690859e+01
8.900000e-07	-4.010344e-06	-1.292297e-09	-2.781614e+01	-8.657714e+01
9.000000e-07	-3.978202e-06	-1.281129e-09	-2.759320e+01	-8.624338e+01
9.100000e-07	-3.945797e-06	-1.277563e-09	-2.736843e+01	-8.590756e+01
9.200000e-07	-3.913143e-06	-1.284084e-09	-2.714195e+01	-8.556988e+01
9.300000e-07	-3.880177e-06	-1.274338e-09	-2.691329e+01	-8.523047e+01
9.400000e-07	-3.846659e-06	-1.260247e-09	-2.668081e+01	-8.488940e+01
9.500000e-07	-3.812693e-06	-1.262306e-09	-2.644522e+01	-8.454666e+01
9.600000e-07	-3.778316e-06	-1.255173e-09	-2.620677e+01	-8.420219e+01
9.700000e-07	-3.743404e-06	-1.235488e-09	-2.596462e+01	-8.385585e+01
9.800000e-07	-3.708127e-06	-1.226360e-09	-2.571994e+01	-8.350744e+01
9.900000e-07	-3.672653e-06	-1.224611e-09	-2.547388e+01	-8.315673e+01
1.000000e-06	-3.637031e-06	-1.210479e-09	-2.522681e+01	-8.280343e+01
1.010000e-06	-3.601203e-06	-1.204242e-09	-2.497830e+01	-8.244720e+01
1.020000e-06	-3.565179e-06	-1.209232e-09	-2.472843e+01	-8.208769e+01
1.030000e-06	-3.529041e-06	-1.206048e-09	-2.447778e+01	-8.172453e+01
1.040000e-06	-3.492755e-06	-1.194556e-09	-2.422609e+01	-8.135735e+01
1.050000e-06	-3.456277e-06	-1.190079e-09	-2.397308e+01	-8.098577e+01
1.060000e-06	-3.419594e-06	-1.180221e-09	-2.371864e+01	-8.060943e+01
1.070000e-06	-3.382658e-06	-1.164405e-09	-2.346245e+01	-8.022797e+01
1.080000e-06	-3.345418e-06	-1.156931e-09	-2.320415e+01	-7.984111e+01
1.090000e-06	-3.307887e-06	-1.156941e-09	-2.294383e+01	-7.944855e+01
1.100000e-06	-3.270103e-06	-1.147996e-09	-2.268176e+01	-7.905008e+01
1.110000e-06	-3.232094e-06	-1.139898e-09	-2.241812e+01	-7.864550e+01
1.120000e-06	-3.193826e-06	-1.135713e-09	-2.215270e+01	-7.823470e+01
1.130000e-06	-3.155271e-06	-1.127721e-09	-2.188527e+01	-7.781759e+01
1.140000e-06	-3.116585e-06	-1.118572e-09	-2.161694e+01	-7.739414e+01
1.150000e-06	-3.077751e-06	-1.114715e-09	-2.134758e+01	-7.696440e+01
1.160000e-06	-3.038685e-06	-1.109262e-09	-2.107662e+01	-7.652842e+01
1.170000e-06	-2.999381e-06	-1.095502e-09	-2.080400e+01	-7.608635e+01
1.180000e-06	-2.959948e-06	-1.085091e-09	-2.053049e+01	-7.563832e+01
1.190000e-06	-2.920387e-06	-1.078216e-09	-2.025609e+01	-7.518455e+01
1.200000e-06	-2.880587e-06	-1.069087e-09	-1.998004e+01	-7.472524e+01
1.210000e-06	-2.840679e-06	-1.061453e-09	-1.970323e+01	-7.426063e+01
1.220000e-06	-2.800706e-06	-1.059723e-09	-1.942598e+01	-7.379095e+01
1.230000e-06	-2.760630e-06	-1.054091e-09	-1.914800e+01	-7.331645e+01
1.240000e-06	-2.720394e-06	-1.045522e-09	-1.886892e+01	-7.283734e+01
1.250000e-06	-2.679879e-06	-1.037851e-09	-1.858791e+01	-7.235384e+01
1.260000e-06	-2.639100e-06	-1.029313e-09	-1.830506e+01	-7.186613e+01
1.270000e-06	-2.598146e-06	-1.018796e-09	-1.802100e+01	-7.137434e+01
1.280000e-06	-2.556926e-06	-1.009251e-09	-1.773509e+01	-7.087859e+01
1.290000e-06	-2.515344e-06	-1.004526e-09	-1.744667e+01	-7.037891e+01
1.300000e-06	-2.473385e-06	-1.000739e-09	-1.715564e+01	-6.987532e+01
1.310000e-06	-2.431177e-06	-9.937231e-10	-1.686288e+01	-6.936777e+01
1.320000e-06	-2.388748e-06	-9.883461e-10	-1.656859e+01	-6.885614e+01
1.330000e-06	-2.345942e-06	-9.805142e-10	-1.627169e+01	-6.834026e+01
1.340000e-06	-2.302910e-06	-9.706578e-10	-1.597321e+01	-6.781993e+01
1.350000e-06	-2.259697e-06	-9.597401e-10	-1.567348e+01	-6.729486e+01
1.360000e-06	-2.216202e-06	-9.479631e-10	-1.537180e+01	-6.676473e+01
1.370000e-06	-2.172578e-06	-9.354585e-10	-1.506921e+01	-6.622918e+01
1.380000e-06	-2.128824e-06	-9.256728e-10	-1.476573e+01	-6.568780e+01
1.390000e-06	-2.084946e-06	-9.191372e-10	-1.446139e+01	-6.514015e+01
1.400000e-06	-2.041038e-06	-9.125792e-10	-1.415684e+01	-6.458578e+01
1.410000e-06	-1.997082e-06	-9.066872e-10	-1.385195e+01	-6.402421e+01
1.420000e-06	-1.953099e-06	-9.014980e-10	-1.354689e+01	-6.345493e+01
1.430000e-06	-1.909020e-06	-8.916870e-10	-1.324115e+01	-6.287747e+01
1.440000e-06	-1.864853e-06	-8.770571e-10	-1.293480e+01	-6.229132e+01
1.450000e-06	-1.820593e-06	-8.624354e-10	-1.262781e+01	-6.169600e+01
1.460000e-06	-1.776138e-06	-8.497008e-10	-1.231947e+01	-6.109105e+01
1.470000e-06	-1.731558e-06	-8.397302e-10	-1.201025e+01	-6.047601e+01
1.480000e-06	-1.686875e-06	-8.344150e-10	-1.170033e+01	-5.985045e+01
1.490000e-06	-1.642110e-06	-8.314903e-10	-1.138983e+01	-5.921396e+01
1.500000e-06	-1.597290e-06	-8.252991e-10	-1.107896e+01	-5.856616e+01
1.510000e-06	-1.552305e-06	-8.157482e-10	-1.076694e+01	-5.790667e+01
1.520000e-06	-1.507141e-06	-8.043548e-10	-1.045368e+01	-5.723515e+01
1.530000e-06	-1.461843e-06	-7.919452e-10	-1.013949e+01	-5.655127e+01
1.540000e-06	-1.416437e-06	-7.791198e-10	-9.824544e+00	-5.585471e+01
1.550000e-06	-1.370960e-06	-7.679102e-10	-9.509111e+00	-5.514513e+01
1.560000e-06	-1.325409e-06	-7.562433e-10	-9.193167e+00	-5.442222e+01
1.570000e-06	-1.279734e-06	-7.440339e-10	-8.876362e+00	-5.368564e+01
1.580000e-06	-1.233903e-06	-7.327765e-10	-8.558472e+00	-5.293502e+01
1.590000e-06	-1.187956e-06	-7.229066e-10	-8.239778e+00	-5.216998e+01
1.600000e-06	-1.141956e-06	-7.124046e-10	-7.920718e+00	-5.139010e+01
1.610000e-06	-1.096025e-06	-7.005855e-10	-7.602135e+00	-5.059489e+01
1.620000e-06	-1.050082e-06	-6.873286e-10	-7.283469e+00	-4.978383e+01
1.630000e-06	-1.003957e-06	-6.756812e-10	-6.963543e+00	-4.895633e+01
1.640000e-06	-9.577293e-07	-6.654701e-10	-6.642905e+00	-4.811172e+01
1.650000e-06	-9.114148e-07	-6.539947e-10	-6.321663e+00	-4.724929e+01
1.660000e-06	-8.649880e-07	-6.393654e-10	-5.999642e+00	-4.636823e+01
1.670000e-06	-8.185066e-07	-6.244620e-10	-5.677243e+00	-4.546765e+01
1.680000e-06	-7.720014e-07	-6.097594e-10	-5.354678e+00	-4.454660e+01
1.690000e-06	-7.254719e-07	-5.948412e-10	-5.031945e+00	-4.360406e+01
1.700000e-06	-6.789195e-07	-5.799018e-10	-4.709052e+00	-4.263894e+01
1.710000e-06	-6.324067e-07	-5.650508e-10	-4.386435e+00	-4.165010e+01
1.720000e-06	-5.858108e-07	-5.522908e-10	-4.063242e+00	-4.063632e+01
1.730000e-06	-5.390515e-07	-5.389382e-10	-3.738914e+00	-3.959639e+01
1.740000e-06	-4.922283e-07	-5.224470e-10	-3.414144e+00	-3.852905e+01
1.750000e-06	-4.454238e-07	-5.034171e-10	-3.089504e+00	-3.743304e+01
1.760000e-06	-3.986624e-07	-4.827445e-10	-2.765162e+00	-3.630710e+01
1.770000e-06	-3.518298e-07	-4.625238e-10	-2.440326e+00	-3.515000e+01
1.780000e-06	-3.049316e-07	-4.445296e-10	-2.115036e+00	-3.396059e+01
1.790000e-06	-2.579910e-07	-4.271073e-10	-1.789451e+00	-3.273774e+01
1.800000e-06	-2.110584e-07	-4.104806e-10	-1.463922e+00	-3.148043e+01
1.810000e-06	-1.641323e-07	-3.931923e-10	-1.138438e+00	-3.018776e+01
1.820000e-06	-1.172133e-07	-3.740411e-10	-8.130032e-01	-2.885895e+01
1.830000e-06	-7.031236e-08	-3.544123e-10	-4.876935e-01	-2.749334e+01
1.840000e-06	-2.338172e-08	-3.341757e-10	-1.621779e-01	-2.609049e+01
1.850000e-06	2.351320e-08	-3.136047e-10	1.630899e-01	-2.465009e+01
1.860000e-06	7.044136e-08	-2.924386e-10	4.885882e-01	-2.317205e+01
1.870000e-06	1.174628e-07	-2.696097e-10	8.147335e-01	-2.165650e+01
1.880000e-06	1.643881e-07	-2.468704e-10	1.140212e+00	-2.010375e+01
1.890000e-06	2.111818e-07	-2.257998e-10	1.464778e+00	-1.851437e+01
1.900000e-06	2.578842e-07	-2.055201e-10	1.788710e+00	-1.688915e+01
1.910000e-06	3.045590e-07	-1.845383e-10	2.112451e+00	-1.522911e+01
1.920000e-06	3.513213e-07	-1.644476e-10	2.436799e+00	-1.353550e+01
1.930000e-06	3.980529e-07	-1.416302e-10	2.760934e+00	-1.180981e+01
1.940000e-06	4.447982e-07	-1.136657e-10	3.085164e+00	-1.005372e+01
1.950000e-06	4.916130e-07	-8.504599e-11	3.409876e+00	-8.269145e+00
1.960000e-06	5.383741e-07	-5.853738e-11	3.734216e+00	-6.458192e+00
1.970000e-06	5.850060e-07	-3.495446e-11	4.057659e+00	-4.623144e+00
1.980000e-06	6.315717e-07	-1.324062e-11	4.380644e+00	-2.766453e+00
1.990000e-06	6.780924e-07	8.975290e-12	4.703315e+00	-8.907126e-01
2.000000e-06	7.246181e-07	3.505116e-11	5.026022e+00	1.001358e+00
2.010000e-06	7.711699e-07	6.548452e-11	5.348910e+00	2.906937e+00
2.020000e-06	8.176527e-07	9.694419e-11	5.671320e+00	4.823127e+00
2.030000e-06	8.639480e-07	1.245014e-10	5.992429e+00	6.746976e+00
2.040000e-06	9.101719e-07	1.469297e-10	6.313042e+00	8.675500e+00
2.050000e-06	9.564304e-07	1.682824e-10	6.633895e+00	1.060571e+01
2.060000e-06	1.002606e-06	1.915053e-10	6.954176e+00	1.253464e+01
2.070000e-06	1.048696e-06	2.165038e-10	7.273862e+00	1.445936e+01
2.080000e-06	1.094665e-06	2.441627e-10	7.592704e+00	1.637701e+01
2.090000e-06	1.140586e-06	2.742910e-10	7.911213e+00	1.828480e+01
2.100000e-06	1.186543e-06	3.035303e-10	8.229977e+00	2.018006e+01
2.110000e-06	1.232371e-06	3.296994e-10	8.547846e+00	2.206024e+01
2.120000e-06	1.278011e-06	3.533880e-10	8.864408e+00	2.392290e+01
2.130000e-06	1.323534e-06	3.739414e-10	9.180165e+00	2.576578e+01
2.140000e-06	1.368917e-06	3.921594e-10	9.494945e+00	2.758677e+01
2.150000e-06	1.414195e-06	4.141803e-10	9.808999e+00	2.938391e+01
2.160000e-06	1.459415e-06	4.413505e-10	1.012264e+01	3.115545e+01
2.170000e-06	1.504576e-06	4.693165e-10	1.043589e+01	3.289979e+01
2.180000e-06	1.549661e-06	4.963054e-10	1.074860e+01	3.461552e+01
2.190000e-06	1.594615e-06	5.215209e-10	1.106041e+01	3.630142e+01
2.200000e-06	1.639438e-06	5.431201e-10	1.137130e+01	3.795643e+01
2.210000e-06	1.684176e-06	5.611983e-10	1.168161e+01	3.957967e+01
2.220000e-06	1.728728e-06	5.774024e-10	1.199063e+01	4.117045e+01
2.230000e-06	1.773080e-06	5.937418e-10	1.229826e+01	4.272823e+01
2.240000e-06	1.817359e-06	6.118384e-10	1.260538e+01	4.425261e+01
2.250000e-06	1.861570e-06	6.319450e-10	1.291204e+01	4.574337e+01
2.260000e-06	1.905683e-06	6.542804e-10	1.321800e+01	4.720039e+01
2.270000e-06	1.949714e-06	6.780925e-10	1.352341e+01	4.862370e+01
2.280000e-06	1.993678e-06	7.004519e-10	1.382835e+01	5.001345e+01
2.290000e-06	2.037602e-06	7.203951e-10	1.413301e+01	5.136989e+01
2.300000e-06	2.081487e-06	7.377467e-10	1.443740e+01	5.269334e+01
2.310000e-06	2.125287e-06	7.525911e-10	1.474120e+01	5.398424e+01
2.320000e-06	2.168991e-06	7.669925e-10	1.504433e+01	5.524309e+01
2.330000e-06	2.212537e-06	7.823623e-10	1.534637e+01	5.647045e+01
2.340000e-06	2.255939e-06	7.998283e-10	1.564742e+01	5.766694e+01
2.350000e-06	2.299229e-06	8.188924e-10	1.594768e+01	5.883322e+01
2.360000e-06	2.342271e-06	8.379876e-10	1.624622e+01	5.996999e+01
2.370000e-06	2.385025e-06	8.545943e-10	1.654277e+01	6.107797e+01
2.380000e-06	2.427492e-06	8.681414e-10	1.683733e+01	6.215791e+01
2.390000e-06	2.469591e-06	8.801967e-10	1.712933e+01	6.321059e+01
2.400000e-06	2.511437e-06	8.922741e-10	1.741958e+01	6.423676e+01
2.410000e-06	2.552945e-06	9.070243e-10	1.770748e+01	6.523721e+01
2.420000e-06	2.594093e-06	9.235053e-10	1.799288e+01	6.621271e+01
2.430000e-06	2.634975e-06	9.382188e-10	1.827645e+01	6.716401e+01
2.440000e-06	2.675602e-06	9.513940e-10	1.855824e+01	6.809188e+01
2.450000e-06	2.716089e-06	9.646550e-10	1.883906e+01	6.899705e+01
2.460000e-06	2.756418e-06	9.766614e-10	1.911878e+01	6.988025e+01
2.470000e-06	2.796574e-06	9.882789e-10	1.939731e+01	7.074216e+01
2.480000e-06	2.836566e-06	1.000400e-09	1.967470e+01	7.158345e+01
2.490000e-06	2.876520e-06	1.013217e-09	1.995183e+01	7.240478e+01
2.500000e-06	2.916360e-06	1.026586e-09	2.022816e+01	7.320675e+01
2.510000e-06	2.955955e-06	1.039173e-09	2.050279e+01	7.398994e+01
2.520000e-06	2.995407e-06	1.049685e-09	2.077643e+01	7.475490e+01
2.530000e-06	3.034676e-06	1.058876e-09	2.104881e+01	7.550212e+01
2.540000e-06	3.073709e-06	1.068596e-09	2.131955e+01	7.623208e+01
2.550000e-06	3.112543e-06	1.077543e-09	2.158891e+01	7.694520e+01
2.560000e-06	3.151112e-06	1.086475e-09	2.185642e+01	7.764188e+01
2.570000e-06	3.189374e-06	1.097016e-09	2.212181e+01	7.832245e+01
2.580000e-06	3.227454e-06	1.107789e-09	2.238594e+01	7.898723e+01
2.590000e-06	3.265350e-06	1.117901e-09	2.264879e+01	7.963648e+01
2.600000e-06	3.302989e-06	1.127516e-09	2.290986e+01	8.027043e+01
2.610000e-06	3.340477e-06	1.135389e-09	2.316987e+01	8.088927e+01
2.620000e-06	3.377778e-06	1.141354e-09	2.342860e+01	8.149316e+01
2.630000e-06	3.414806e-06	1.147072e-09	2.368543e+01	8.208224e+01
2.640000e-06	3.451506e-06	1.152747e-09	2.393998e+01	8.265660e+01
2.650000e-06	3.487919e-06	1.160071e-09	2.419255e+01	8.321632e+01
2.660000e-06	3.524171e-06	1.169910e-09	2.444400e+01	8.376147e+01
2.670000e-06	3.560262e-06	1.179011e-09	2.469433e+01	8.429210e+01
2.680000e-06	3.596221e-06	1.185669e-09	2.494374e+01	8.480824e+01
2.690000e-06	3.632053e-06	1.192355e-09	2.519228e+01	8.530994e+01
2.700000e-06	3.667763e-06	1.200116e-09	2.543996e+01	8.579726e+01
2.710000e-06	3.703304e-06	1.206079e-09	2.568648e+01	8.627024e+01
2.720000e-06	3.738542e-06	1.211050e-09	2.593090e+01	8.672897e+01
2.730000e-06	3.773345e-06	1.219273e-09	2.617229e+01	8.717355e+01
2.740000e-06	3.807752e-06	1.227498e-09	2.641094e+01	8.760411e+01
2.750000e-06	3.841746e-06	1.235518e-09	2.664673e+01	8.802082e+01
2.760000e-06	3.875188e-06	1.241953e-09	2.687869e+01	8.842387e+01
2.770000e-06	3.908110e-06	1.247527e-09	2.710704e+01	8.881352e+01
2.780000e-06	3.940700e-06	1.253475e-09	2.733308e+01	8.919006e+01
2.790000e-06	3.973098e-06	1.261000e-09	2.755780e+01	8.955383e+01
2.800000e-06	4.005280e-06	1.269939e-09	2.778102e+01	8.990521e+01
2.810000e-06	4.037295e-06	1.276793e-09	2.800308e+01	9.024465e+01
2.820000e-06	4.069149e-06	1.283395e-09	2.822402e+01	9.057261e+01
2.830000e-06	4.100806e-06	1.287321e-09	2.844359e+01	9.088964e+01
2.840000e-06	4.132224e-06	1.289312e-09	2.866151e+01	9.119629e+01
2.850000e-06	4.163348e-06	1.290430e-09	2.887739e+01	9.149317e+01
2.860000e-06	4.194156e-06	1.294746e-09	2.909108e+01	9.178091e+01
2.870000e-06	4.224721e-06	1.301700e-09	2.930308e+01	9.206017e+01
2.880000e-06	4.255043e-06	1.309529e-09	2.951340e+01	9.233161e+01
2.890000e-06	4.284989e-06	1.319158e-09	2.972111e+01	9.259591e+01
2.900000e-06	4.314622e-06	1.327654e-09	2.992664e+01	9.285375e+01
