# Temperatura_=_13.84
# Concentracion g/m^3_=_1620.0
# C_Vs_to_Am_M_A/Vsm_=_65563218390.804596
# pendiente_HvsI_1/m_=_3716.3
# ordenada_HvsI_A/m_=_1297.0
# frecuencia_Hz_=_135102.94947799557

Tiempo_(s)	Campo_(V.s)	Magnetizacion_(V.s)	Campo_(kA/m)	Magnetizacion_(A/m)
0.000000e+00	-5.531175e-06	-1.498854e-09	-3.837800e+01	-9.947185e+01
1.000000e-08	-5.531304e-06	-1.494396e-09	-3.837890e+01	-9.946958e+01
2.000000e-08	-5.531223e-06	-1.493075e-09	-3.837833e+01	-9.946777e+01
3.000000e-08	-5.530678e-06	-1.494837e-09	-3.837455e+01	-9.946668e+01
4.000000e-08	-5.529605e-06	-1.495867e-09	-3.836711e+01	-9.946653e+01
5.000000e-08	-5.528082e-06	-1.493934e-09	-3.835654e+01	-9.946750e+01
6.000000e-08	-5.526031e-06	-1.486726e-09	-3.834231e+01	-9.946970e+01
7.000000e-08	-5.523372e-06	-1.490587e-09	-3.832386e+01	-9.947318e+01
8.000000e-08	-5.520114e-06	-1.528543e-09	-3.830125e+01	-9.947793e+01
9.000000e-08	-5.516394e-06	-1.541810e-09	-3.827544e+01	-9.948383e+01
1.000000e-07	-5.512372e-06	-1.456268e-09	-3.824754e+01	-9.949070e+01
1.100000e-07	-5.508080e-06	-1.440663e-09	-3.821776e+01	-9.949826e+01
1.200000e-07	-5.503491e-06	-1.503308e-09	-3.818591e+01	-9.950615e+01
1.300000e-07	-5.498433e-06	-1.547313e-09	-3.815082e+01	-9.951392e+01
1.400000e-07	-5.492919e-06	-1.480503e-09	-3.811256e+01	-9.952103e+01
1.500000e-07	-5.487162e-06	-1.429300e-09	-3.807261e+01	-9.952685e+01
1.600000e-07	-5.481183e-06	-1.507377e-09	-3.803113e+01	-9.953071e+01
1.700000e-07	-5.474743e-06	-1.547131e-09	-3.798644e+01	-9.953183e+01
1.800000e-07	-5.467708e-06	-1.509194e-09	-3.793763e+01	-9.952942e+01
1.900000e-07	-5.460361e-06	-1.488061e-09	-3.788666e+01	-9.952262e+01
2.000000e-07	-5.452804e-06	-1.527593e-09	-3.783422e+01	-9.951054e+01
2.100000e-07	-5.444964e-06	-1.552190e-09	-3.777982e+01	-9.949230e+01
2.200000e-07	-5.436906e-06	-1.515223e-09	-3.772392e+01	-9.946700e+01
2.300000e-07	-5.428643e-06	-1.494375e-09	-3.766658e+01	-9.943377e+01
2.400000e-07	-5.419867e-06	-1.521378e-09	-3.760569e+01	-9.939177e+01
2.500000e-07	-5.410366e-06	-1.555059e-09	-3.753976e+01	-9.934020e+01
2.600000e-07	-5.400243e-06	-1.537157e-09	-3.746953e+01	-9.927836e+01
2.700000e-07	-5.389558e-06	-1.502595e-09	-3.739539e+01	-9.920559e+01
2.800000e-07	-5.378313e-06	-1.504058e-09	-3.731737e+01	-9.912136e+01
2.900000e-07	-5.366665e-06	-1.526496e-09	-3.723655e+01	-9.902522e+01
3.000000e-07	-5.354753e-06	-1.508025e-09	-3.715389e+01	-9.891686e+01
3.100000e-07	-5.342470e-06	-1.469131e-09	-3.706867e+01	-9.879609e+01
3.200000e-07	-5.329585e-06	-1.497615e-09	-3.697927e+01	-9.866285e+01
3.300000e-07	-5.316264e-06	-1.533559e-09	-3.688684e+01	-9.851721e+01
3.400000e-07	-5.302702e-06	-1.508479e-09	-3.679274e+01	-9.835939e+01
3.500000e-07	-5.288622e-06	-1.472176e-09	-3.669505e+01	-9.818975e+01
3.600000e-07	-5.274094e-06	-1.519041e-09	-3.659425e+01	-9.800877e+01
3.700000e-07	-5.259197e-06	-1.509405e-09	-3.649088e+01	-9.781706e+01
3.800000e-07	-5.243646e-06	-1.443880e-09	-3.638298e+01	-9.761536e+01
3.900000e-07	-5.227460e-06	-1.457958e-09	-3.627067e+01	-9.740449e+01
4.000000e-07	-5.211005e-06	-1.517476e-09	-3.615650e+01	-9.718539e+01
4.100000e-07	-5.194268e-06	-1.455368e-09	-3.604037e+01	-9.695906e+01
4.200000e-07	-5.177083e-06	-1.421116e-09	-3.592113e+01	-9.672657e+01
4.300000e-07	-5.159661e-06	-1.510675e-09	-3.580025e+01	-9.648902e+01
4.400000e-07	-5.142063e-06	-1.503146e-09	-3.567815e+01	-9.624754e+01
4.500000e-07	-5.123959e-06	-1.400218e-09	-3.555254e+01	-9.600326e+01
4.600000e-07	-5.105247e-06	-1.440459e-09	-3.542270e+01	-9.575730e+01
4.700000e-07	-5.086205e-06	-1.496684e-09	-3.529058e+01	-9.551074e+01
4.800000e-07	-5.066861e-06	-1.409509e-09	-3.515636e+01	-9.526461e+01
4.900000e-07	-5.047199e-06	-1.401850e-09	-3.501994e+01	-9.501985e+01
5.000000e-07	-5.027379e-06	-1.496864e-09	-3.488242e+01	-9.477734e+01
5.100000e-07	-5.007379e-06	-1.452123e-09	-3.474365e+01	-9.453782e+01
5.200000e-07	-4.987014e-06	-1.385340e-09	-3.460235e+01	-9.430196e+01
5.300000e-07	-4.966243e-06	-1.467146e-09	-3.445822e+01	-9.407025e+01
5.400000e-07	-4.945187e-06	-1.466845e-09	-3.431213e+01	-9.384310e+01
5.500000e-07	-4.923792e-06	-1.367298e-09	-3.416368e+01	-9.362074e+01
5.600000e-07	-4.901985e-06	-1.403616e-09	-3.401237e+01	-9.340329e+01
5.700000e-07	-4.879916e-06	-1.460753e-09	-3.385924e+01	-9.319071e+01
5.800000e-07	-4.857537e-06	-1.384035e-09	-3.370397e+01	-9.298283e+01
5.900000e-07	-4.834823e-06	-1.376116e-09	-3.354637e+01	-9.277934e+01
6.000000e-07	-4.811774e-06	-1.443306e-09	-3.338644e+01	-9.257983e+01
6.100000e-07	-4.788316e-06	-1.402879e-09	-3.322368e+01	-9.238375e+01
6.200000e-07	-4.764563e-06	-1.355375e-09	-3.305887e+01	-9.219048e+01
6.300000e-07	-4.740649e-06	-1.405454e-09	-3.289294e+01	-9.199929e+01
6.400000e-07	-4.716537e-06	-1.397185e-09	-3.272564e+01	-9.180939e+01
6.500000e-07	-4.692087e-06	-1.346936e-09	-3.255600e+01	-9.161995e+01
6.600000e-07	-4.667234e-06	-1.374653e-09	-3.238356e+01	-9.143009e+01
6.700000e-07	-4.641863e-06	-1.396608e-09	-3.220752e+01	-9.123893e+01
6.800000e-07	-4.615945e-06	-1.356635e-09	-3.202769e+01	-9.104559e+01
6.900000e-07	-4.589541e-06	-1.362753e-09	-3.184448e+01	-9.084919e+01
7.000000e-07	-4.562582e-06	-1.386911e-09	-3.165742e+01	-9.064892e+01
7.100000e-07	-4.535169e-06	-1.354755e-09	-3.146722e+01	-9.044401e+01
7.200000e-07	-4.507535e-06	-1.331832e-09	-3.127549e+01	-9.023374e+01
7.300000e-07	-4.479712e-06	-1.348967e-09	-3.108243e+01	-9.001749e+01
7.400000e-07	-4.451718e-06	-1.339759e-09	-3.088820e+01	-8.979474e+01
7.500000e-07	-4.423541e-06	-1.327733e-09	-3.069269e+01	-8.956503e+01
7.600000e-07	-4.395091e-06	-1.345541e-09	-3.049529e+01	-8.932805e+01
7.700000e-07	-4.366278e-06	-1.344566e-09	-3.029537e+01	-8.908357e+01
7.800000e-07	-4.337115e-06	-1.321730e-09	-3.009302e+01	-8.883147e+01
7.900000e-07	-4.307673e-06	-1.321344e-09	-2.988874e+01	-8.857174e+01
8.000000e-07	-4.277967e-06	-1.320851e-09	-2.968263e+01	-8.830447e+01
8.100000e-07	-4.247987e-06	-1.299033e-09	-2.947461e+01	-8.802986e+01
8.200000e-07	-4.217691e-06	-1.299418e-09	-2.926441e+01	-8.774819e+01
8.300000e-07	-4.187132e-06	-1.311629e-09	-2.905237e+01	-8.745981e+01
8.400000e-07	-4.156285e-06	-1.299356e-09	-2.883834e+01	-8.716514e+01
8.500000e-07	-4.125095e-06	-1.290469e-09	-2.862193e+01	-8.686466e+01
8.600000e-07	-4.093689e-06	-1.300995e-09	-2.840402e+01	-8.655888e+01
8.700000e-07	-4.062145e-06	-1.288784e-09	-2.818515e+01	-8.624835e+01
8.800000e-07	-4.030409e-06	-1.268082e-09	-2.796495e+01	-8.593361e+01
8.900000e-07	-3.998420e-06	-1.268552e-09	-2.774300e+01	-8.561522e+01
9.000000e-07	-3.966216e-06	-1.264902e-09	-2.751955e+01	-8.529369e+01
9.100000e-07	-3.933776e-06	-1.248425e-09	-2.729446e+01	-8.496953e+01
9.200000e-07	-3.901016e-06	-1.252853e-09	-2.706716e+01	-8.464318e+01
9.300000e-07	-3.867828e-06	-1.257853e-09	-2.683688e+01	-8.431504e+01
9.400000e-07	-3.834152e-06	-1.242758e-09	-2.660322e+01	-8.398544e+01
9.500000e-07	-3.800075e-06	-1.235902e-09	-2.636678e+01	-8.365463e+01
9.600000e-07	-3.765514e-06	-1.239876e-09	-2.612698e+01	-8.332279e+01
9.700000e-07	-3.730477e-06	-1.222291e-09	-2.588387e+01	-8.299001e+01
9.800000e-07	-3.695161e-06	-1.203216e-09	-2.563884e+01	-8.265631e+01
9.900000e-07	-3.659591e-06	-1.204547e-09	-2.539203e+01	-8.232162e+01
1.000000e-06	-3.623809e-06	-1.202013e-09	-2.514376e+01	-8.198577e+01
1.010000e-06	-3.587953e-06	-1.189268e-09	-2.489497e+01	-8.164853e+01
1.020000e-06	-3.552011e-06	-1.190717e-09	-2.464559e+01	-8.130961e+01
1.030000e-06	-3.515862e-06	-1.193345e-09	-2.439477e+01	-8.096864e+01
1.040000e-06	-3.479436e-06	-1.181458e-09	-2.414203e+01	-8.062519e+01
1.050000e-06	-3.442778e-06	-1.172552e-09	-2.388768e+01	-8.027880e+01
1.060000e-06	-3.405875e-06	-1.170640e-09	-2.363163e+01	-7.992899e+01
1.070000e-06	-3.368636e-06	-1.159961e-09	-2.337324e+01	-7.957523e+01
1.080000e-06	-3.331084e-06	-1.150683e-09	-2.311269e+01	-7.921700e+01
1.090000e-06	-3.293417e-06	-1.152981e-09	-2.285134e+01	-7.885377e+01
1.100000e-06	-3.255586e-06	-1.148621e-09	-2.258885e+01	-7.848506e+01
1.110000e-06	-3.217424e-06	-1.138038e-09	-2.232406e+01	-7.811037e+01
1.120000e-06	-3.178977e-06	-1.135545e-09	-2.205730e+01	-7.772927e+01
1.130000e-06	-3.140375e-06	-1.133284e-09	-2.178946e+01	-7.734137e+01
1.140000e-06	-3.101569e-06	-1.121379e-09	-2.152021e+01	-7.694633e+01
1.150000e-06	-3.062369e-06	-1.114018e-09	-2.124822e+01	-7.654387e+01
1.160000e-06	-3.022953e-06	-1.111269e-09	-2.097473e+01	-7.613380e+01
1.170000e-06	-2.983471e-06	-1.101805e-09	-2.070078e+01	-7.571596e+01
1.180000e-06	-2.943907e-06	-1.092420e-09	-2.042627e+01	-7.529029e+01
1.190000e-06	-2.904237e-06	-1.089772e-09	-2.015102e+01	-7.485679e+01
1.200000e-06	-2.864414e-06	-1.081945e-09	-1.987471e+01	-7.441554e+01
1.210000e-06	-2.824469e-06	-1.071115e-09	-1.959755e+01	-7.396668e+01
1.220000e-06	-2.784394e-06	-1.064251e-09	-1.931949e+01	-7.351040e+01
1.230000e-06	-2.744217e-06	-1.059040e-09	-1.904072e+01	-7.304696e+01
1.240000e-06	-2.703947e-06	-1.051912e-09	-1.876131e+01	-7.257664e+01
1.250000e-06	-2.663436e-06	-1.049193e-09	-1.848022e+01	-7.209979e+01
1.260000e-06	-2.622637e-06	-1.045837e-09	-1.819714e+01	-7.161677e+01
1.270000e-06	-2.581605e-06	-1.036511e-09	-1.791244e+01	-7.112794e+01
1.280000e-06	-2.540364e-06	-1.025857e-09	-1.762629e+01	-7.063369e+01
1.290000e-06	-2.498869e-06	-1.017037e-09	-1.733838e+01	-7.013439e+01
1.300000e-06	-2.456937e-06	-1.005228e-09	-1.704743e+01	-6.963040e+01
1.310000e-06	-2.414590e-06	-9.923393e-10	-1.675361e+01	-6.912205e+01
1.320000e-06	-2.371987e-06	-9.854842e-10	-1.645800e+01	-6.860964e+01
1.330000e-06	-2.329020e-06	-9.806330e-10	-1.615988e+01	-6.809342e+01
1.340000e-06	-2.285825e-06	-9.742817e-10	-1.586017e+01	-6.757357e+01
1.350000e-06	-2.242576e-06	-9.675883e-10	-1.556009e+01	-6.705024e+01
1.360000e-06	-2.199128e-06	-9.590968e-10	-1.525862e+01	-6.652349e+01
1.370000e-06	-2.155507e-06	-9.472445e-10	-1.495596e+01	-6.599332e+01
1.380000e-06	-2.111784e-06	-9.323195e-10	-1.465259e+01	-6.545965e+01
1.390000e-06	-2.067967e-06	-9.185682e-10	-1.434857e+01	-6.492232e+01
1.400000e-06	-2.024084e-06	-9.088175e-10	-1.404408e+01	-6.438111e+01
1.410000e-06	-1.980118e-06	-9.020253e-10	-1.373903e+01	-6.383572e+01
1.420000e-06	-1.936059e-06	-8.979548e-10	-1.343332e+01	-6.328575e+01
1.430000e-06	-1.891944e-06	-8.945029e-10	-1.312723e+01	-6.273078e+01
1.440000e-06	-1.847733e-06	-8.888377e-10	-1.282048e+01	-6.217027e+01
1.450000e-06	-1.803351e-06	-8.780380e-10	-1.251253e+01	-6.160365e+01
1.460000e-06	-1.758888e-06	-8.629302e-10	-1.220403e+01	-6.103028e+01
1.470000e-06	-1.714339e-06	-8.464843e-10	-1.189493e+01	-6.044949e+01
1.480000e-06	-1.669577e-06	-8.349534e-10	-1.158434e+01	-5.986054e+01
1.490000e-06	-1.624709e-06	-8.275355e-10	-1.127302e+01	-5.926266e+01
1.500000e-06	-1.579785e-06	-8.217577e-10	-1.096132e+01	-5.865505e+01
1.510000e-06	-1.534753e-06	-8.161126e-10	-1.064887e+01	-5.803689e+01
1.520000e-06	-1.489581e-06	-8.097141e-10	-1.033544e+01	-5.740731e+01
1.530000e-06	-1.444269e-06	-8.001431e-10	-1.002104e+01	-5.676546e+01
1.540000e-06	-1.398835e-06	-7.846400e-10	-9.705802e+00	-5.611045e+01
1.550000e-06	-1.353235e-06	-7.685071e-10	-9.389409e+00	-5.544141e+01
1.560000e-06	-1.307561e-06	-7.550378e-10	-9.072500e+00	-5.475743e+01
1.570000e-06	-1.261852e-06	-7.448987e-10	-8.755344e+00	-5.405762e+01
1.580000e-06	-1.216132e-06	-7.393413e-10	-8.438117e+00	-5.334109e+01
1.590000e-06	-1.170360e-06	-7.352032e-10	-8.120531e+00	-5.260693e+01
1.600000e-06	-1.124465e-06	-7.286843e-10	-7.802087e+00	-5.185426e+01
1.610000e-06	-1.078423e-06	-7.152572e-10	-7.482625e+00	-5.108217e+01
1.620000e-06	-1.032281e-06	-6.968148e-10	-7.162471e+00	-5.028978e+01
1.630000e-06	-9.861050e-07	-6.773785e-10	-6.842079e+00	-4.947620e+01
1.640000e-06	-9.398450e-07	-6.599572e-10	-6.521104e+00	-4.864053e+01
1.650000e-06	-8.934791e-07	-6.472979e-10	-6.199396e+00	-4.778188e+01
1.660000e-06	-8.470442e-07	-6.373323e-10	-5.877207e+00	-4.689936e+01
1.670000e-06	-8.005712e-07	-6.280233e-10	-5.554755e+00	-4.599209e+01
1.680000e-06	-7.541170e-07	-6.177118e-10	-5.232433e+00	-4.505917e+01
1.690000e-06	-7.076332e-07	-6.025529e-10	-4.909906e+00	-4.409974e+01
1.700000e-06	-6.610494e-07	-5.814271e-10	-4.586684e+00	-4.311291e+01
1.710000e-06	-6.144582e-07	-5.610742e-10	-4.263412e+00	-4.209782e+01
1.720000e-06	-5.678782e-07	-5.445215e-10	-3.940217e+00	-4.105363e+01
1.730000e-06	-5.212705e-07	-5.295240e-10	-3.616830e+00	-3.997952e+01
1.740000e-06	-4.745406e-07	-5.146296e-10	-3.292595e+00	-3.887468e+01
1.750000e-06	-4.276915e-07	-4.988824e-10	-2.967533e+00	-3.773836e+01
1.760000e-06	-3.808373e-07	-4.814951e-10	-2.642436e+00	-3.656985e+01
1.770000e-06	-3.339747e-07	-4.625651e-10	-2.317280e+00	-3.536848e+01
1.780000e-06	-2.870598e-07	-4.421794e-10	-1.991761e+00	-3.413366e+01
1.790000e-06	-2.401545e-07	-4.236174e-10	-1.666309e+00	-3.286487e+01
1.800000e-06	-1.932853e-07	-4.055483e-10	-1.341108e+00	-3.156168e+01
1.810000e-06	-1.463569e-07	-3.857828e-10	-1.015496e+00	-3.022374e+01
1.820000e-06	-9.938954e-08	-3.674036e-10	-6.896133e-01	-2.885084e+01
1.830000e-06	-5.253610e-08	-3.508584e-10	-3.645212e-01	-2.744287e+01
1.840000e-06	-5.648963e-09	-3.348085e-10	-3.919527e-02	-2.599986e+01
1.850000e-06	4.135004e-08	-3.171161e-10	2.869068e-01	-2.452197e+01
1.860000e-06	8.826683e-08	-2.961830e-10	6.124384e-01	-2.300953e+01
1.870000e-06	1.351947e-07	-2.705327e-10	9.380468e-01	-2.146300e+01
1.880000e-06	1.822115e-07	-2.444322e-10	1.264272e+00	-1.988304e+01
1.890000e-06	2.292240e-07	-2.224666e-10	1.590468e+00	-1.827046e+01
1.900000e-06	2.761381e-07	-2.010982e-10	1.915981e+00	-1.662624e+01
1.910000e-06	3.230115e-07	-1.806137e-10	2.241212e+00	-1.495155e+01
1.920000e-06	3.698754e-07	-1.616704e-10	2.566376e+00	-1.324771e+01
1.930000e-06	4.166264e-07	-1.392930e-10	2.890758e+00	-1.151623e+01
1.940000e-06	4.633402e-07	-1.122672e-10	3.214881e+00	-9.758791e+00
1.950000e-06	5.101315e-07	-8.291047e-11	3.539542e+00	-7.977213e+00
1.960000e-06	5.568938e-07	-5.570951e-11	3.864002e+00	-6.173479e+00
1.970000e-06	6.035317e-07	-3.039544e-11	4.187598e+00	-4.349710e+00
1.980000e-06	6.500585e-07	-7.807925e-12	4.510424e+00	-2.508150e+00
1.990000e-06	6.964963e-07	1.418087e-11	4.832632e+00	-6.511567e-01
2.000000e-06	7.429168e-07	4.025399e-11	5.154720e+00	1.218817e+00
2.010000e-06	7.892911e-07	6.953881e-11	5.476488e+00	3.099238e+00
2.020000e-06	8.356160e-07	9.933010e-11	5.797913e+00	4.987517e+00
2.030000e-06	8.819306e-07	1.279243e-10	6.119266e+00	6.881021e+00
2.040000e-06	9.282136e-07	1.532308e-10	6.440400e+00	8.777094e+00
2.050000e-06	9.743701e-07	1.773220e-10	6.760657e+00	1.067308e+01
2.060000e-06	1.020406e-06	2.010652e-10	7.080077e+00	1.256635e+01
2.070000e-06	1.066434e-06	2.243839e-10	7.399443e+00	1.445429e+01
2.080000e-06	1.112456e-06	2.509677e-10	7.718763e+00	1.633435e+01
2.090000e-06	1.158402e-06	2.809065e-10	8.037557e+00	1.820408e+01
2.100000e-06	1.204208e-06	3.111550e-10	8.355382e+00	2.006109e+01
2.110000e-06	1.249817e-06	3.389736e-10	8.671843e+00	2.190309e+01
2.120000e-06	1.295366e-06	3.643816e-10	8.987880e+00	2.372793e+01
2.130000e-06	1.340869e-06	3.865305e-10	9.303606e+00	2.553358e+01
2.140000e-06	1.386233e-06	4.069643e-10	9.618366e+00	2.731816e+01
2.150000e-06	1.431599e-06	4.290242e-10	9.933136e+00	2.907992e+01
2.160000e-06	1.476944e-06	4.535831e-10	1.024776e+01	3.081728e+01
2.170000e-06	1.522158e-06	4.789118e-10	1.056148e+01	3.252880e+01
2.180000e-06	1.567214e-06	5.043653e-10	1.087410e+01	3.421322e+01
2.190000e-06	1.612103e-06	5.293762e-10	1.118556e+01	3.586943e+01
2.200000e-06	1.656848e-06	5.522697e-10	1.149602e+01	3.749648e+01
2.210000e-06	1.701455e-06	5.713087e-10	1.180552e+01	3.909358e+01
2.220000e-06	1.745888e-06	5.885470e-10	1.211383e+01	4.066007e+01
2.230000e-06	1.790225e-06	6.067820e-10	1.242146e+01	4.219545e+01
2.240000e-06	1.834482e-06	6.255662e-10	1.272853e+01	4.369935e+01
2.250000e-06	1.878626e-06	6.447791e-10	1.303482e+01	4.517154e+01
2.260000e-06	1.922645e-06	6.673711e-10	1.334025e+01	4.661189e+01
2.270000e-06	1.966568e-06	6.912337e-10	1.364501e+01	4.802037e+01
2.280000e-06	2.010490e-06	7.136437e-10	1.394976e+01	4.939707e+01
2.290000e-06	2.054399e-06	7.332884e-10	1.425442e+01	5.074216e+01
2.300000e-06	2.098256e-06	7.492623e-10	1.455873e+01	5.205587e+01
2.310000e-06	2.142027e-06	7.627036e-10	1.486243e+01	5.333852e+01
2.320000e-06	2.185705e-06	7.773500e-10	1.516549e+01	5.459046e+01
2.330000e-06	2.229296e-06	7.943591e-10	1.546795e+01	5.581210e+01
2.340000e-06	2.272823e-06	8.123440e-10	1.576996e+01	5.700389e+01
2.350000e-06	2.316147e-06	8.320089e-10	1.607056e+01	5.816632e+01
2.360000e-06	2.359051e-06	8.500969e-10	1.636825e+01	5.929987e+01
2.370000e-06	2.401676e-06	8.635788e-10	1.666401e+01	6.040506e+01
2.380000e-06	2.444043e-06	8.756457e-10	1.695797e+01	6.148243e+01
2.390000e-06	2.486084e-06	8.886366e-10	1.724967e+01	6.253251e+01
2.400000e-06	2.527819e-06	9.017971e-10	1.753925e+01	6.355583e+01
2.410000e-06	2.569258e-06	9.153302e-10	1.782677e+01	6.455295e+01
2.420000e-06	2.610388e-06	9.299225e-10	1.811215e+01	6.552439e+01
2.430000e-06	2.651228e-06	9.450351e-10	1.839552e+01	6.647070e+01
2.440000e-06	2.691834e-06	9.589099e-10	1.867726e+01	6.739240e+01
2.450000e-06	2.732204e-06	9.707698e-10	1.895737e+01	6.829004e+01
2.460000e-06	2.772410e-06	9.804154e-10	1.923634e+01	6.916413e+01
2.470000e-06	2.812527e-06	9.900655e-10	1.951469e+01	7.001520e+01
2.480000e-06	2.852518e-06	1.001674e-09	1.979217e+01	7.084377e+01
2.490000e-06	2.892359e-06	1.014875e-09	2.006860e+01	7.165037e+01
2.500000e-06	2.932030e-06	1.028130e-09	2.034386e+01	7.243550e+01
2.510000e-06	2.971485e-06	1.040098e-09	2.061762e+01	7.319969e+01
2.520000e-06	3.010799e-06	1.049563e-09	2.089040e+01	7.394345e+01
2.530000e-06	3.049947e-06	1.058816e-09	2.116203e+01	7.466729e+01
2.540000e-06	3.088875e-06	1.068776e-09	2.143213e+01	7.537173e+01
2.550000e-06	3.127604e-06	1.077820e-09	2.170084e+01	7.605728e+01
2.560000e-06	3.166095e-06	1.086050e-09	2.196791e+01	7.672445e+01
2.570000e-06	3.204345e-06	1.094186e-09	2.223331e+01	7.737373e+01
2.580000e-06	3.242402e-06	1.101737e-09	2.249737e+01	7.800564e+01
2.590000e-06	3.280226e-06	1.111000e-09	2.275981e+01	7.862066e+01
2.600000e-06	3.317806e-06	1.122635e-09	2.302056e+01	7.921928e+01
2.610000e-06	3.355216e-06	1.133289e-09	2.328013e+01	7.980197e+01
2.620000e-06	3.392416e-06	1.141953e-09	2.353824e+01	8.036919e+01
2.630000e-06	3.429366e-06	1.149431e-09	2.379462e+01	8.092140e+01
2.640000e-06	3.466051e-06	1.155718e-09	2.404916e+01	8.145901e+01
2.650000e-06	3.502459e-06	1.162027e-09	2.430178e+01	8.198246e+01
2.660000e-06	3.538640e-06	1.168967e-09	2.455282e+01	8.249215e+01
2.670000e-06	3.574650e-06	1.175762e-09	2.480267e+01	8.298844e+01
2.680000e-06	3.610545e-06	1.181821e-09	2.505173e+01	8.347172e+01
2.690000e-06	3.646339e-06	1.189361e-09	2.530009e+01	8.394231e+01
2.700000e-06	3.682005e-06	1.197214e-09	2.554755e+01	8.440055e+01
2.710000e-06	3.717477e-06	1.203542e-09	2.579368e+01	8.484675e+01
2.720000e-06	3.752583e-06	1.212516e-09	2.603726e+01	8.528121e+01
2.730000e-06	3.787238e-06	1.219040e-09	2.627771e+01	8.570419e+01
2.740000e-06	3.821516e-06	1.223736e-09	2.651555e+01	8.611597e+01
2.750000e-06	3.855370e-06	1.228641e-09	2.675044e+01	8.651681e+01
2.760000e-06	3.888782e-06	1.234071e-09	2.698227e+01	8.690695e+01
2.770000e-06	3.921769e-06	1.239753e-09	2.721115e+01	8.728665e+01
2.780000e-06	3.954363e-06	1.247567e-09	2.743731e+01	8.765614e+01
2.790000e-06	3.986666e-06	1.257369e-09	2.766144e+01	8.801566e+01
2.800000e-06	4.018821e-06	1.263546e-09	2.788454e+01	8.836547e+01
2.810000e-06	4.050846e-06	1.265788e-09	2.810675e+01	8.870582e+01
2.820000e-06	4.082648e-06	1.268636e-09	2.832741e+01	8.903697e+01
2.830000e-06	4.114167e-06	1.273253e-09	2.854611e+01	8.935919e+01
2.840000e-06	4.145361e-06	1.277868e-09	2.876254e+01	8.967277e+01
2.850000e-06	4.176291e-06	1.283662e-09	2.897715e+01	8.997798e+01
2.860000e-06	4.206933e-06	1.290616e-09	2.918976e+01	9.027515e+01
2.870000e-06	4.237234e-06	1.297567e-09	2.940000e+01	9.056460e+01
2.880000e-06	4.267243e-06	1.303852e-09	2.960822e+01	9.084663e+01
2.890000e-06	4.297027e-06	1.310754e-09	2.981488e+01	9.112161e+01
2.900000e-06	4.326562e-06	1.317529e-09	3.001981e+01	9.138986e+01
