# Temperatura_=_-1.17
# Concentracion g/m^3_=_1620.0
# C_Vs_to_Am_M_A/Vsm_=_65563218390.804596
# pendiente_HvsI_1/m_=_3716.3
# ordenada_HvsI_A/m_=_1297.0
# frecuencia_Hz_=_135109.616045344

Tiempo_(s)	Campo_(V.s)	Magnetizacion_(V.s)	Campo_(kA/m)	Magnetizacion_(A/m)
0.000000e+00	-5.524165e-06	-1.094895e-09	-3.836789e+01	-7.611997e+01
1.000000e-08	-5.524341e-06	-1.097129e-09	-3.836911e+01	-7.613104e+01
2.000000e-08	-5.524244e-06	-1.101589e-09	-3.836843e+01	-7.614160e+01
3.000000e-08	-5.523610e-06	-1.105685e-09	-3.836403e+01	-7.615152e+01
4.000000e-08	-5.522444e-06	-1.106121e-09	-3.835593e+01	-7.616065e+01
5.000000e-08	-5.520778e-06	-1.097915e-09	-3.834436e+01	-7.616887e+01
6.000000e-08	-5.518529e-06	-1.083527e-09	-3.832874e+01	-7.617606e+01
7.000000e-08	-5.515692e-06	-1.073499e-09	-3.830904e+01	-7.618208e+01
8.000000e-08	-5.512307e-06	-1.085630e-09	-3.828552e+01	-7.618680e+01
9.000000e-08	-5.508527e-06	-1.136043e-09	-3.825927e+01	-7.619010e+01
1.000000e-07	-5.504415e-06	-1.155722e-09	-3.823071e+01	-7.619182e+01
1.100000e-07	-5.499944e-06	-1.079893e-09	-3.819966e+01	-7.619181e+01
1.200000e-07	-5.495268e-06	-1.031002e-09	-3.816718e+01	-7.618991e+01
1.300000e-07	-5.490307e-06	-1.082259e-09	-3.813272e+01	-7.618593e+01
1.400000e-07	-5.484809e-06	-1.139573e-09	-3.809454e+01	-7.617968e+01
1.500000e-07	-5.478891e-06	-1.094239e-09	-3.805343e+01	-7.617094e+01
1.600000e-07	-5.472768e-06	-1.035766e-09	-3.801091e+01	-7.615948e+01
1.700000e-07	-5.466309e-06	-1.108023e-09	-3.796605e+01	-7.614507e+01
1.800000e-07	-5.459340e-06	-1.172903e-09	-3.791764e+01	-7.612743e+01
1.900000e-07	-5.452003e-06	-1.150936e-09	-3.786668e+01	-7.610631e+01
2.000000e-07	-5.444425e-06	-1.055663e-09	-3.781405e+01	-7.608141e+01
2.100000e-07	-5.436616e-06	-1.083323e-09	-3.775982e+01	-7.605246e+01
2.200000e-07	-5.428519e-06	-1.130835e-09	-3.770358e+01	-7.601917e+01
2.300000e-07	-5.420131e-06	-1.146842e-09	-3.764532e+01	-7.598126e+01
2.400000e-07	-5.411304e-06	-1.100518e-09	-3.758401e+01	-7.593846e+01
2.500000e-07	-5.401693e-06	-1.122426e-09	-3.751726e+01	-7.589051e+01
2.600000e-07	-5.391221e-06	-1.141363e-09	-3.744453e+01	-7.583719e+01
2.700000e-07	-5.380222e-06	-1.120393e-09	-3.736813e+01	-7.577828e+01
2.800000e-07	-5.368809e-06	-1.092212e-09	-3.728886e+01	-7.571361e+01
2.900000e-07	-5.357025e-06	-1.119860e-09	-3.720702e+01	-7.564306e+01
3.000000e-07	-5.344968e-06	-1.150882e-09	-3.712328e+01	-7.556653e+01
3.100000e-07	-5.332510e-06	-1.132690e-09	-3.703675e+01	-7.548399e+01
3.200000e-07	-5.319583e-06	-1.131404e-09	-3.694697e+01	-7.539546e+01
3.300000e-07	-5.306295e-06	-1.137321e-09	-3.685467e+01	-7.530100e+01
3.400000e-07	-5.292678e-06	-1.156622e-09	-3.676010e+01	-7.520075e+01
3.500000e-07	-5.278632e-06	-1.121484e-09	-3.666255e+01	-7.509489e+01
3.600000e-07	-5.264156e-06	-1.115449e-09	-3.656200e+01	-7.498369e+01
3.700000e-07	-5.249218e-06	-1.127997e-09	-3.645825e+01	-7.486744e+01
3.800000e-07	-5.233713e-06	-1.152502e-09	-3.635056e+01	-7.474650e+01
3.900000e-07	-5.217599e-06	-1.114584e-09	-3.623864e+01	-7.462130e+01
4.000000e-07	-5.201110e-06	-1.116383e-09	-3.612412e+01	-7.449230e+01
4.100000e-07	-5.184386e-06	-1.134006e-09	-3.600796e+01	-7.435999e+01
4.200000e-07	-5.167299e-06	-1.119092e-09	-3.588929e+01	-7.422492e+01
4.300000e-07	-5.149853e-06	-1.078753e-09	-3.576811e+01	-7.408763e+01
4.400000e-07	-5.132152e-06	-1.121623e-09	-3.564517e+01	-7.394871e+01
4.500000e-07	-5.113984e-06	-1.133039e-09	-3.551898e+01	-7.380873e+01
4.600000e-07	-5.095217e-06	-1.084707e-09	-3.538864e+01	-7.366829e+01
4.700000e-07	-5.076059e-06	-1.072783e-09	-3.525558e+01	-7.352794e+01
4.800000e-07	-5.056682e-06	-1.123601e-09	-3.512100e+01	-7.338824e+01
4.900000e-07	-5.037096e-06	-1.099701e-09	-3.498496e+01	-7.324969e+01
5.000000e-07	-5.017282e-06	-1.077328e-09	-3.484735e+01	-7.311276e+01
5.100000e-07	-4.997283e-06	-1.105829e-09	-3.470844e+01	-7.297788e+01
5.200000e-07	-4.976943e-06	-1.101789e-09	-3.456718e+01	-7.284542e+01
5.300000e-07	-4.956218e-06	-1.067166e-09	-3.442323e+01	-7.271567e+01
5.400000e-07	-4.935172e-06	-1.099531e-09	-3.427705e+01	-7.258887e+01
5.500000e-07	-4.913690e-06	-1.106452e-09	-3.412785e+01	-7.246518e+01
5.600000e-07	-4.891881e-06	-1.053802e-09	-3.397638e+01	-7.234468e+01
5.700000e-07	-4.869880e-06	-1.059938e-09	-3.382357e+01	-7.222737e+01
5.800000e-07	-4.847575e-06	-1.097516e-09	-3.366866e+01	-7.211319e+01
5.900000e-07	-4.824882e-06	-1.074515e-09	-3.351104e+01	-7.200199e+01
6.000000e-07	-4.801825e-06	-1.061021e-09	-3.335090e+01	-7.189354e+01
6.100000e-07	-4.778470e-06	-1.090519e-09	-3.318868e+01	-7.178758e+01
6.200000e-07	-4.754874e-06	-1.071263e-09	-3.302480e+01	-7.168374e+01
6.300000e-07	-4.731051e-06	-1.049005e-09	-3.285934e+01	-7.158163e+01
6.400000e-07	-4.706973e-06	-1.066311e-09	-3.269211e+01	-7.148080e+01
6.500000e-07	-4.682490e-06	-1.070708e-09	-3.252206e+01	-7.138077e+01
6.600000e-07	-4.657527e-06	-1.048846e-09	-3.234868e+01	-7.128102e+01
6.700000e-07	-4.632149e-06	-1.064243e-09	-3.217242e+01	-7.118102e+01
6.800000e-07	-4.606195e-06	-1.063261e-09	-3.199216e+01	-7.108024e+01
6.900000e-07	-4.579657e-06	-1.047361e-09	-3.180784e+01	-7.097813e+01
7.000000e-07	-4.552624e-06	-1.047626e-09	-3.162008e+01	-7.087419e+01
7.100000e-07	-4.525203e-06	-1.055076e-09	-3.142963e+01	-7.076790e+01
7.200000e-07	-4.497579e-06	-1.034680e-09	-3.123777e+01	-7.065880e+01
7.300000e-07	-4.469786e-06	-1.038888e-09	-3.104473e+01	-7.054645e+01
7.400000e-07	-4.441810e-06	-1.046026e-09	-3.085043e+01	-7.043047e+01
7.500000e-07	-4.413592e-06	-1.038986e-09	-3.065444e+01	-7.031052e+01
7.600000e-07	-4.385038e-06	-1.031423e-09	-3.045612e+01	-7.018633e+01
7.700000e-07	-4.356155e-06	-1.037081e-09	-3.025551e+01	-7.005767e+01
7.800000e-07	-4.326987e-06	-1.022218e-09	-3.005293e+01	-6.992437e+01
7.900000e-07	-4.297542e-06	-1.014607e-09	-2.984842e+01	-6.978635e+01
8.000000e-07	-4.267829e-06	-1.020993e-09	-2.964205e+01	-6.964356e+01
8.100000e-07	-4.237837e-06	-1.018398e-09	-2.943374e+01	-6.949602e+01
8.200000e-07	-4.207549e-06	-1.007837e-09	-2.922338e+01	-6.934379e+01
8.300000e-07	-4.176940e-06	-1.014220e-09	-2.901078e+01	-6.918700e+01
8.400000e-07	-4.145984e-06	-1.014728e-09	-2.879578e+01	-6.902580e+01
8.500000e-07	-4.114745e-06	-1.002792e-09	-2.857881e+01	-6.886040e+01
8.600000e-07	-4.083281e-06	-1.001225e-09	-2.836028e+01	-6.869101e+01
8.700000e-07	-4.051620e-06	-1.003683e-09	-2.814038e+01	-6.851788e+01
8.800000e-07	-4.019824e-06	-9.964239e-10	-2.791954e+01	-6.834128e+01
8.900000e-07	-3.987864e-06	-9.920731e-10	-2.769756e+01	-6.816147e+01
9.000000e-07	-3.955653e-06	-9.975720e-10	-2.747384e+01	-6.797871e+01
9.100000e-07	-3.923123e-06	-9.923601e-10	-2.724790e+01	-6.779325e+01
9.200000e-07	-3.890260e-06	-9.880889e-10	-2.701966e+01	-6.760533e+01
9.300000e-07	-3.856979e-06	-9.911640e-10	-2.678850e+01	-6.741515e+01
9.400000e-07	-3.823133e-06	-9.913777e-10	-2.655343e+01	-6.722290e+01
9.500000e-07	-3.788709e-06	-9.796654e-10	-2.631434e+01	-6.702872e+01
9.600000e-07	-3.753891e-06	-9.764900e-10	-2.607251e+01	-6.683273e+01
9.700000e-07	-3.718851e-06	-9.707556e-10	-2.582914e+01	-6.663501e+01
9.800000e-07	-3.683525e-06	-9.631854e-10	-2.558379e+01	-6.643559e+01
9.900000e-07	-3.647958e-06	-9.597862e-10	-2.533676e+01	-6.623445e+01
1.000000e-06	-3.612254e-06	-9.647943e-10	-2.508877e+01	-6.603157e+01
1.010000e-06	-3.576432e-06	-9.618482e-10	-2.483998e+01	-6.582686e+01
1.020000e-06	-3.540505e-06	-9.590976e-10	-2.459045e+01	-6.562022e+01
1.030000e-06	-3.504382e-06	-9.567035e-10	-2.433956e+01	-6.541150e+01
1.040000e-06	-3.467962e-06	-9.532174e-10	-2.408660e+01	-6.520056e+01
1.050000e-06	-3.431273e-06	-9.432561e-10	-2.383178e+01	-6.498721e+01
1.060000e-06	-3.394433e-06	-9.386633e-10	-2.357591e+01	-6.477126e+01
1.070000e-06	-3.357342e-06	-9.360046e-10	-2.331830e+01	-6.455253e+01
1.080000e-06	-3.319910e-06	-9.359660e-10	-2.305831e+01	-6.433084e+01
1.090000e-06	-3.282245e-06	-9.364992e-10	-2.279671e+01	-6.410598e+01
1.100000e-06	-3.244402e-06	-9.342762e-10	-2.253387e+01	-6.387781e+01
1.110000e-06	-3.206388e-06	-9.257277e-10	-2.226985e+01	-6.364618e+01
1.120000e-06	-3.168180e-06	-9.187106e-10	-2.200448e+01	-6.341094e+01
1.130000e-06	-3.129642e-06	-9.136351e-10	-2.173681e+01	-6.317202e+01
1.140000e-06	-3.090773e-06	-9.070966e-10	-2.146685e+01	-6.292933e+01
1.150000e-06	-3.051808e-06	-9.006257e-10	-2.119622e+01	-6.268285e+01
1.160000e-06	-3.012753e-06	-8.961600e-10	-2.092496e+01	-6.243256e+01
1.170000e-06	-2.973477e-06	-8.941359e-10	-2.065217e+01	-6.217849e+01
1.180000e-06	-2.933970e-06	-8.928517e-10	-2.037778e+01	-6.192070e+01
1.190000e-06	-2.894273e-06	-8.924542e-10	-2.010207e+01	-6.165926e+01
1.200000e-06	-2.854478e-06	-8.874014e-10	-1.982567e+01	-6.139430e+01
1.210000e-06	-2.814591e-06	-8.802163e-10	-1.954863e+01	-6.112591e+01
1.220000e-06	-2.774586e-06	-8.735095e-10	-1.927078e+01	-6.085426e+01
1.230000e-06	-2.734371e-06	-8.700810e-10	-1.899148e+01	-6.057948e+01
1.240000e-06	-2.693848e-06	-8.652097e-10	-1.871002e+01	-6.030171e+01
1.250000e-06	-2.653098e-06	-8.652172e-10	-1.842699e+01	-6.002110e+01
1.260000e-06	-2.612179e-06	-8.650110e-10	-1.814279e+01	-5.973777e+01
1.270000e-06	-2.571013e-06	-8.620321e-10	-1.785688e+01	-5.945183e+01
1.280000e-06	-2.529552e-06	-8.562928e-10	-1.756891e+01	-5.916335e+01
1.290000e-06	-2.487753e-06	-8.502656e-10	-1.727859e+01	-5.887239e+01
1.300000e-06	-2.445554e-06	-8.407236e-10	-1.698550e+01	-5.857893e+01
1.310000e-06	-2.403069e-06	-8.316318e-10	-1.669043e+01	-5.828296e+01
1.320000e-06	-2.360323e-06	-8.252939e-10	-1.639353e+01	-5.798437e+01
1.330000e-06	-2.317338e-06	-8.223122e-10	-1.609499e+01	-5.768304e+01
1.340000e-06	-2.274214e-06	-8.192918e-10	-1.579547e+01	-5.737876e+01
1.350000e-06	-2.230898e-06	-8.172092e-10	-1.549462e+01	-5.707129e+01
1.360000e-06	-2.187373e-06	-8.134709e-10	-1.519232e+01	-5.676034e+01
1.370000e-06	-2.143705e-06	-8.076198e-10	-1.488902e+01	-5.644555e+01
1.380000e-06	-2.100018e-06	-8.006733e-10	-1.458560e+01	-5.612650e+01
1.390000e-06	-2.056307e-06	-7.943838e-10	-1.428200e+01	-5.580277e+01
1.400000e-06	-2.012530e-06	-7.878374e-10	-1.397796e+01	-5.547385e+01
1.410000e-06	-1.968704e-06	-7.828926e-10	-1.367356e+01	-5.513920e+01
1.420000e-06	-1.924752e-06	-7.801829e-10	-1.336829e+01	-5.479829e+01
1.430000e-06	-1.880674e-06	-7.760436e-10	-1.306215e+01	-5.445051e+01
1.440000e-06	-1.836525e-06	-7.702582e-10	-1.275552e+01	-5.409527e+01
1.450000e-06	-1.792318e-06	-7.626743e-10	-1.244848e+01	-5.373195e+01
1.460000e-06	-1.747978e-06	-7.527397e-10	-1.214052e+01	-5.335995e+01
1.470000e-06	-1.703459e-06	-7.415524e-10	-1.183131e+01	-5.297864e+01
1.480000e-06	-1.658784e-06	-7.332673e-10	-1.152102e+01	-5.258741e+01
1.490000e-06	-1.613965e-06	-7.271670e-10	-1.120973e+01	-5.218569e+01
1.500000e-06	-1.568984e-06	-7.219754e-10	-1.089732e+01	-5.177289e+01
1.510000e-06	-1.523884e-06	-7.177772e-10	-1.058408e+01	-5.134846e+01
1.520000e-06	-1.478672e-06	-7.143065e-10	-1.027006e+01	-5.091189e+01
1.530000e-06	-1.433305e-06	-7.077809e-10	-9.954964e+00	-5.046265e+01
1.540000e-06	-1.387883e-06	-6.981501e-10	-9.639491e+00	-5.000029e+01
1.550000e-06	-1.342447e-06	-6.874952e-10	-9.323915e+00	-4.952434e+01
1.560000e-06	-1.296913e-06	-6.768815e-10	-9.007663e+00	-4.903438e+01
1.570000e-06	-1.251288e-06	-6.678904e-10	-8.690772e+00	-4.853000e+01
1.580000e-06	-1.205548e-06	-6.621153e-10	-8.373088e+00	-4.801081e+01
1.590000e-06	-1.159735e-06	-6.595001e-10	-8.054895e+00	-4.747641e+01
1.600000e-06	-1.113883e-06	-6.586535e-10	-7.736431e+00	-4.692641e+01
1.610000e-06	-1.067931e-06	-6.537533e-10	-7.417275e+00	-4.636044e+01
1.620000e-06	-1.021949e-06	-6.444662e-10	-7.097910e+00	-4.577808e+01
1.630000e-06	-9.758865e-07	-6.333781e-10	-6.777983e+00	-4.517892e+01
1.640000e-06	-9.296468e-07	-6.223061e-10	-6.456827e+00	-4.456250e+01
1.650000e-06	-8.833104e-07	-6.096752e-10	-6.135000e+00	-4.392835e+01
1.660000e-06	-8.369045e-07	-5.968408e-10	-5.812689e+00	-4.327595e+01
1.670000e-06	-7.904860e-07	-5.869483e-10	-5.490291e+00	-4.260473e+01
1.680000e-06	-7.441012e-07	-5.796271e-10	-5.168127e+00	-4.191408e+01
1.690000e-06	-6.976732e-07	-5.709830e-10	-4.845663e+00	-4.120334e+01
1.700000e-06	-6.511487e-07	-5.593372e-10	-4.522529e+00	-4.047178e+01
1.710000e-06	-6.045578e-07	-5.445910e-10	-4.198934e+00	-3.971863e+01
1.720000e-06	-5.579742e-07	-5.291581e-10	-3.875389e+00	-3.894307e+01
1.730000e-06	-5.113921e-07	-5.135639e-10	-3.551855e+00	-3.814422e+01
1.740000e-06	-4.647610e-07	-4.997701e-10	-3.227981e+00	-3.732118e+01
1.750000e-06	-4.180312e-07	-4.863597e-10	-2.903420e+00	-3.647300e+01
1.760000e-06	-3.713099e-07	-4.734640e-10	-2.578919e+00	-3.559870e+01
1.770000e-06	-3.245498e-07	-4.634704e-10	-2.254148e+00	-3.469730e+01
1.780000e-06	-2.776912e-07	-4.528566e-10	-1.928694e+00	-3.376781e+01
1.790000e-06	-2.308014e-07	-4.400823e-10	-1.603023e+00	-3.280927e+01
1.800000e-06	-1.838865e-07	-4.235584e-10	-1.277177e+00	-3.182071e+01
1.810000e-06	-1.370754e-07	-4.045616e-10	-9.520518e-01	-3.080126e+01
1.820000e-06	-9.037883e-08	-3.866477e-10	-6.277229e-01	-2.975007e+01
1.830000e-06	-4.362576e-08	-3.719594e-10	-3.030011e-01	-2.866638e+01
1.840000e-06	3.212117e-09	-3.591905e-10	2.230964e-02	-2.754955e+01
1.850000e-06	5.008706e-08	-3.460972e-10	3.478778e-01	-2.639902e+01
1.860000e-06	9.698206e-08	-3.296652e-10	6.735853e-01	-2.521439e+01
1.870000e-06	1.438618e-07	-3.096002e-10	9.991871e-01	-2.399539e+01
1.880000e-06	1.907013e-07	-2.887591e-10	1.324509e+00	-2.274192e+01
1.890000e-06	2.374878e-07	-2.694092e-10	1.649463e+00	-2.145406e+01
1.900000e-06	2.843253e-07	-2.508681e-10	1.974771e+00	-2.013207e+01
1.910000e-06	3.312069e-07	-2.348433e-10	2.300385e+00	-1.877640e+01
1.920000e-06	3.779621e-07	-2.191952e-10	2.625122e+00	-1.738770e+01
1.930000e-06	4.246553e-07	-2.003082e-10	2.949428e+00	-1.596683e+01
1.940000e-06	4.714233e-07	-1.779983e-10	3.274253e+00	-1.451487e+01
1.950000e-06	5.181229e-07	-1.548869e-10	3.598603e+00	-1.303307e+01
1.960000e-06	5.646890e-07	-1.347938e-10	3.922026e+00	-1.152291e+01
1.970000e-06	6.112736e-07	-1.152467e-10	4.245578e+00	-9.986056e+00
1.980000e-06	6.578476e-07	-9.420445e-11	4.569056e+00	-8.424351e+00
1.990000e-06	7.043081e-07	-7.217008e-11	4.891746e+00	-6.839816e+00
2.000000e-06	7.506424e-07	-4.701509e-11	5.213559e+00	-5.234627e+00
2.010000e-06	7.968880e-07	-1.991966e-11	5.534756e+00	-3.611102e+00
2.020000e-06	8.430918e-07	5.225061e-12	5.855663e+00	-1.971681e+00
2.030000e-06	8.892869e-07	2.778568e-11	6.176509e+00	-3.189050e-01
2.040000e-06	9.354499e-07	4.816512e-11	6.497133e+00	1.344602e+00
2.050000e-06	9.815304e-07	6.896356e-11	6.817183e+00	3.016156e+00
2.060000e-06	1.027553e-06	9.294914e-11	7.136834e+00	4.693040e+00
2.070000e-06	1.073564e-06	1.183229e-10	7.456402e+00	6.372519e+00
2.080000e-06	1.119497e-06	1.439545e-10	7.775428e+00	8.051871e+00
2.090000e-06	1.165333e-06	1.698212e-10	8.093780e+00	9.728400e+00
2.100000e-06	1.211106e-06	1.947048e-10	8.411694e+00	1.139947e+01
2.110000e-06	1.256801e-06	2.162969e-10	8.729061e+00	1.306250e+01
2.120000e-06	1.302366e-06	2.355983e-10	9.045538e+00	1.471503e+01
2.130000e-06	1.347814e-06	2.547973e-10	9.361194e+00	1.635467e+01
2.140000e-06	1.393172e-06	2.745835e-10	9.676227e+00	1.797919e+01
2.150000e-06	1.438426e-06	2.971461e-10	9.990535e+00	1.958646e+01
2.160000e-06	1.483585e-06	3.222455e-10	1.030419e+01	2.117451e+01
2.170000e-06	1.528641e-06	3.467193e-10	1.061712e+01	2.274155e+01
2.180000e-06	1.573592e-06	3.675247e-10	1.092932e+01	2.428590e+01
2.190000e-06	1.618389e-06	3.869225e-10	1.124046e+01	2.580608e+01
2.200000e-06	1.663068e-06	4.045169e-10	1.155078e+01	2.730076e+01
2.210000e-06	1.707708e-06	4.198150e-10	1.186082e+01	2.876877e+01
2.220000e-06	1.752201e-06	4.363950e-10	1.216985e+01	3.020912e+01
2.230000e-06	1.796465e-06	4.555161e-10	1.247728e+01	3.162096e+01
2.240000e-06	1.840606e-06	4.722353e-10	1.278386e+01	3.300358e+01
2.250000e-06	1.884649e-06	4.876300e-10	1.308976e+01	3.435643e+01
2.260000e-06	1.928600e-06	5.070169e-10	1.339502e+01	3.567909e+01
2.270000e-06	1.972495e-06	5.277496e-10	1.369989e+01	3.697125e+01
2.280000e-06	2.016295e-06	5.468094e-10	1.400410e+01	3.823273e+01
2.290000e-06	2.060052e-06	5.646897e-10	1.430801e+01	3.946343e+01
2.300000e-06	2.103776e-06	5.812231e-10	1.461170e+01	4.066337e+01
2.310000e-06	2.147437e-06	5.939805e-10	1.491495e+01	4.183262e+01
2.320000e-06	2.191040e-06	6.053556e-10	1.521779e+01	4.297133e+01
2.330000e-06	2.234559e-06	6.190183e-10	1.552005e+01	4.407973e+01
2.340000e-06	2.277942e-06	6.340944e-10	1.582136e+01	4.515805e+01
2.350000e-06	2.321006e-06	6.511115e-10	1.612046e+01	4.620662e+01
2.360000e-06	2.363855e-06	6.675962e-10	1.641807e+01	4.722577e+01
2.370000e-06	2.406645e-06	6.795594e-10	1.671526e+01	4.821586e+01
2.380000e-06	2.449133e-06	6.895447e-10	1.701036e+01	4.917728e+01
2.390000e-06	2.491242e-06	6.996275e-10	1.730283e+01	5.011045e+01
2.400000e-06	2.532934e-06	7.105534e-10	1.759240e+01	5.101578e+01
2.410000e-06	2.574276e-06	7.240055e-10	1.787954e+01	5.189373e+01
2.420000e-06	2.615390e-06	7.404570e-10	1.816509e+01	5.274473e+01
2.430000e-06	2.656245e-06	7.562529e-10	1.844885e+01	5.356925e+01
2.440000e-06	2.696794e-06	7.687287e-10	1.873048e+01	5.436778e+01
2.450000e-06	2.737068e-06	7.785327e-10	1.901020e+01	5.514081e+01
2.460000e-06	2.777217e-06	7.854473e-10	1.928906e+01	5.588885e+01
2.470000e-06	2.817212e-06	7.919150e-10	1.956684e+01	5.661243e+01
2.480000e-06	2.856981e-06	8.018779e-10	1.984306e+01	5.731209e+01
2.490000e-06	2.896631e-06	8.150163e-10	2.011845e+01	5.798840e+01
2.500000e-06	2.936285e-06	8.283506e-10	2.039386e+01	5.864194e+01
2.510000e-06	2.975808e-06	8.389444e-10	2.066836e+01	5.927334e+01
2.520000e-06	3.015107e-06	8.474580e-10	2.094132e+01	5.988322e+01
2.530000e-06	3.054194e-06	8.539039e-10	2.121279e+01	6.047224e+01
2.540000e-06	3.092996e-06	8.585880e-10	2.148229e+01	6.104108e+01
2.550000e-06	3.131521e-06	8.649192e-10	2.174986e+01	6.159043e+01
2.560000e-06	3.169856e-06	8.741448e-10	2.201612e+01	6.212100e+01
2.570000e-06	3.208016e-06	8.838652e-10	2.228115e+01	6.263352e+01
2.580000e-06	3.245935e-06	8.913466e-10	2.254452e+01	6.312873e+01
2.590000e-06	3.283663e-06	8.986455e-10	2.280656e+01	6.360736e+01
2.600000e-06	3.321263e-06	9.064888e-10	2.306771e+01	6.407015e+01
2.610000e-06	3.358659e-06	9.123052e-10	2.332745e+01	6.451783e+01
2.620000e-06	3.395774e-06	9.172734e-10	2.358523e+01	6.495111e+01
2.630000e-06	3.432577e-06	9.239756e-10	2.384083e+01	6.537071e+01
2.640000e-06	3.469024e-06	9.311798e-10	2.409398e+01	6.577728e+01
2.650000e-06	3.505221e-06	9.376093e-10	2.434539e+01	6.617148e+01
2.660000e-06	3.541261e-06	9.448029e-10	2.459570e+01	6.655391e+01
2.670000e-06	3.577152e-06	9.514591e-10	2.484498e+01	6.692512e+01
2.680000e-06	3.612927e-06	9.559912e-10	2.509345e+01	6.728564e+01
2.690000e-06	3.648637e-06	9.610770e-10	2.534147e+01	6.763593e+01
2.700000e-06	3.684244e-06	9.674057e-10	2.558878e+01	6.797639e+01
2.710000e-06	3.719615e-06	9.730100e-10	2.583445e+01	6.830740e+01
2.720000e-06	3.754760e-06	9.792834e-10	2.607855e+01	6.862924e+01
2.730000e-06	3.789532e-06	9.861218e-10	2.632006e+01	6.894215e+01
2.740000e-06	3.823771e-06	9.923083e-10	2.655786e+01	6.924633e+01
2.750000e-06	3.857568e-06	9.980359e-10	2.679260e+01	6.954192e+01
2.760000e-06	3.890934e-06	1.002453e-09	2.702434e+01	6.982899e+01
2.770000e-06	3.923853e-06	1.005674e-09	2.725298e+01	7.010760e+01
2.780000e-06	3.956337e-06	1.008524e-09	2.747859e+01	7.037774e+01
2.790000e-06	3.988477e-06	1.013043e-09	2.770182e+01	7.063940e+01
2.800000e-06	4.020418e-06	1.017475e-09	2.792367e+01	7.089252e+01
2.810000e-06	4.052177e-06	1.018970e-09	2.814425e+01	7.113704e+01
2.820000e-06	4.083803e-06	1.021385e-09	2.836390e+01	7.137288e+01
2.830000e-06	4.115283e-06	1.025665e-09	2.858255e+01	7.159996e+01
2.840000e-06	4.146510e-06	1.028676e-09	2.879944e+01	7.181821e+01
2.850000e-06	4.177440e-06	1.031685e-09	2.901426e+01	7.202758e+01
2.860000e-06	4.208057e-06	1.037236e-09	2.922690e+01	7.222804e+01
2.870000e-06	4.238347e-06	1.042774e-09	2.943728e+01	7.241958e+01
2.880000e-06	4.268380e-06	1.046080e-09	2.964587e+01	7.260225e+01
2.890000e-06	4.298147e-06	1.048767e-09	2.985262e+01	7.277610e+01
2.900000e-06	4.327585e-06	1.050094e-09	3.005708e+01	7.294127e+01
