# Temperatura_=_12.3
# Concentracion g/m^3_=_1620.0
# C_Vs_to_Am_M_A/Vsm_=_65563218390.804596
# pendiente_HvsI_1/m_=_3716.3
# ordenada_HvsI_A/m_=_1297.0
# frecuencia_Hz_=_135102.9568556506

Tiempo_(s)	Campo_(V.s)	Magnetizacion_(V.s)	Campo_(kA/m)	Magnetizacion_(A/m)
0.000000e+00	-5.520974e-06	-1.434128e-09	-3.837103e+01	-9.580070e+01
1.000000e-08	-5.521222e-06	-1.434145e-09	-3.837276e+01	-9.579105e+01
2.000000e-08	-5.521263e-06	-1.435088e-09	-3.837304e+01	-9.578110e+01
3.000000e-08	-5.521036e-06	-1.434292e-09	-3.837146e+01	-9.577103e+01
4.000000e-08	-5.520427e-06	-1.432533e-09	-3.836723e+01	-9.576104e+01
5.000000e-08	-5.519285e-06	-1.429841e-09	-3.835929e+01	-9.575131e+01
6.000000e-08	-5.517513e-06	-1.423883e-09	-3.834698e+01	-9.574201e+01
7.000000e-08	-5.515058e-06	-1.417528e-09	-3.832992e+01	-9.573329e+01
8.000000e-08	-5.511982e-06	-1.414960e-09	-3.830854e+01	-9.572526e+01
9.000000e-08	-5.508444e-06	-1.439111e-09	-3.828395e+01	-9.571802e+01
1.000000e-07	-5.504511e-06	-1.477360e-09	-3.825662e+01	-9.571158e+01
1.100000e-07	-5.500260e-06	-1.467657e-09	-3.822707e+01	-9.570592e+01
1.200000e-07	-5.495855e-06	-1.391815e-09	-3.819646e+01	-9.570097e+01
1.300000e-07	-5.491303e-06	-1.361436e-09	-3.816482e+01	-9.569658e+01
1.400000e-07	-5.486386e-06	-1.413292e-09	-3.813064e+01	-9.569255e+01
1.500000e-07	-5.480946e-06	-1.463294e-09	-3.809284e+01	-9.568860e+01
1.600000e-07	-5.475108e-06	-1.410482e-09	-3.805227e+01	-9.568438e+01
1.700000e-07	-5.468937e-06	-1.380290e-09	-3.800938e+01	-9.567949e+01
1.800000e-07	-5.462305e-06	-1.427022e-09	-3.796328e+01	-9.567346e+01
1.900000e-07	-5.455236e-06	-1.505609e-09	-3.791415e+01	-9.566574e+01
2.000000e-07	-5.447806e-06	-1.467391e-09	-3.786251e+01	-9.565577e+01
2.100000e-07	-5.440127e-06	-1.403320e-09	-3.780914e+01	-9.564290e+01
2.200000e-07	-5.432232e-06	-1.412575e-09	-3.775428e+01	-9.562647e+01
2.300000e-07	-5.424116e-06	-1.475795e-09	-3.769787e+01	-9.560581e+01
2.400000e-07	-5.415653e-06	-1.477557e-09	-3.763905e+01	-9.558019e+01
2.500000e-07	-5.406538e-06	-1.437107e-09	-3.757570e+01	-9.554892e+01
2.600000e-07	-5.396595e-06	-1.448257e-09	-3.750660e+01	-9.551131e+01
2.700000e-07	-5.386019e-06	-1.462698e-09	-3.743309e+01	-9.546669e+01
2.800000e-07	-5.375021e-06	-1.431238e-09	-3.735665e+01	-9.541441e+01
2.900000e-07	-5.363586e-06	-1.386614e-09	-3.727718e+01	-9.535391e+01
3.000000e-07	-5.351804e-06	-1.416638e-09	-3.719530e+01	-9.528465e+01
3.100000e-07	-5.339689e-06	-1.435472e-09	-3.711109e+01	-9.520619e+01
3.200000e-07	-5.327144e-06	-1.427473e-09	-3.702391e+01	-9.511815e+01
3.300000e-07	-5.314072e-06	-1.411409e-09	-3.693306e+01	-9.502025e+01
3.400000e-07	-5.300589e-06	-1.443260e-09	-3.683935e+01	-9.491232e+01
3.500000e-07	-5.286795e-06	-1.441121e-09	-3.674348e+01	-9.479426e+01
3.600000e-07	-5.272602e-06	-1.420647e-09	-3.664484e+01	-9.466611e+01
3.700000e-07	-5.257991e-06	-1.401524e-09	-3.654329e+01	-9.452800e+01
3.800000e-07	-5.242966e-06	-1.417263e-09	-3.643887e+01	-9.438015e+01
3.900000e-07	-5.227443e-06	-1.411263e-09	-3.633098e+01	-9.422290e+01
4.000000e-07	-5.211398e-06	-1.402764e-09	-3.621947e+01	-9.405669e+01
4.100000e-07	-5.194872e-06	-1.407352e-09	-3.610461e+01	-9.388204e+01
4.200000e-07	-5.177960e-06	-1.416381e-09	-3.598707e+01	-9.369955e+01
4.300000e-07	-5.160781e-06	-1.393914e-09	-3.586767e+01	-9.350990e+01
4.400000e-07	-5.143340e-06	-1.385644e-09	-3.574646e+01	-9.331381e+01
4.500000e-07	-5.125527e-06	-1.401601e-09	-3.562266e+01	-9.311207e+01
4.600000e-07	-5.107236e-06	-1.393559e-09	-3.549553e+01	-9.290549e+01
4.700000e-07	-5.088404e-06	-1.363516e-09	-3.536465e+01	-9.269488e+01
4.800000e-07	-5.069146e-06	-1.365562e-09	-3.523081e+01	-9.248107e+01
4.900000e-07	-5.049667e-06	-1.380522e-09	-3.509543e+01	-9.226489e+01
5.000000e-07	-5.030009e-06	-1.372135e-09	-3.495880e+01	-9.204711e+01
5.100000e-07	-5.010173e-06	-1.374670e-09	-3.482094e+01	-9.182847e+01
5.200000e-07	-4.990081e-06	-1.382252e-09	-3.468130e+01	-9.160967e+01
5.300000e-07	-4.969619e-06	-1.366051e-09	-3.453909e+01	-9.139133e+01
5.400000e-07	-4.948779e-06	-1.355016e-09	-3.439425e+01	-9.117399e+01
5.500000e-07	-4.927614e-06	-1.370975e-09	-3.424715e+01	-9.095811e+01
5.600000e-07	-4.906096e-06	-1.358837e-09	-3.409760e+01	-9.074405e+01
5.700000e-07	-4.884226e-06	-1.335811e-09	-3.394561e+01	-9.053209e+01
5.800000e-07	-4.862051e-06	-1.342748e-09	-3.379149e+01	-9.032239e+01
5.900000e-07	-4.839552e-06	-1.358074e-09	-3.363512e+01	-9.011502e+01
6.000000e-07	-4.816621e-06	-1.344473e-09	-3.347574e+01	-8.990995e+01
6.100000e-07	-4.793331e-06	-1.342477e-09	-3.331388e+01	-8.970705e+01
6.200000e-07	-4.769830e-06	-1.343595e-09	-3.315055e+01	-8.950610e+01
6.300000e-07	-4.746084e-06	-1.334589e-09	-3.298551e+01	-8.930681e+01
6.400000e-07	-4.722107e-06	-1.328821e-09	-3.281887e+01	-8.910880e+01
6.500000e-07	-4.697781e-06	-1.335813e-09	-3.264980e+01	-8.891164e+01
6.600000e-07	-4.672980e-06	-1.327826e-09	-3.247743e+01	-8.871482e+01
6.700000e-07	-4.647892e-06	-1.328129e-09	-3.230308e+01	-8.851783e+01
6.800000e-07	-4.622367e-06	-1.332724e-09	-3.212567e+01	-8.832012e+01
6.900000e-07	-4.596169e-06	-1.326671e-09	-3.194359e+01	-8.812110e+01
7.000000e-07	-4.569405e-06	-1.319749e-09	-3.175759e+01	-8.792021e+01
7.100000e-07	-4.542284e-06	-1.323925e-09	-3.156909e+01	-8.771691e+01
7.200000e-07	-4.514881e-06	-1.310963e-09	-3.137864e+01	-8.751064e+01
7.300000e-07	-4.487182e-06	-1.297513e-09	-3.118613e+01	-8.730093e+01
7.400000e-07	-4.459336e-06	-1.299381e-09	-3.099260e+01	-8.708731e+01
7.500000e-07	-4.431342e-06	-1.296983e-09	-3.079804e+01	-8.686939e+01
7.600000e-07	-4.403095e-06	-1.287691e-09	-3.060172e+01	-8.664684e+01
7.700000e-07	-4.374533e-06	-1.288815e-09	-3.040321e+01	-8.641938e+01
7.800000e-07	-4.345619e-06	-1.283571e-09	-3.020226e+01	-8.618683e+01
7.900000e-07	-4.316345e-06	-1.269027e-09	-2.999880e+01	-8.594905e+01
8.000000e-07	-4.286783e-06	-1.268293e-09	-2.979334e+01	-8.570598e+01
8.100000e-07	-4.257013e-06	-1.268962e-09	-2.958645e+01	-8.545764e+01
8.200000e-07	-4.227077e-06	-1.257108e-09	-2.937839e+01	-8.520411e+01
8.300000e-07	-4.196801e-06	-1.250704e-09	-2.916797e+01	-8.494552e+01
8.400000e-07	-4.166155e-06	-1.255663e-09	-2.895498e+01	-8.468206e+01
8.500000e-07	-4.135278e-06	-1.250022e-09	-2.874038e+01	-8.441396e+01
8.600000e-07	-4.104125e-06	-1.243071e-09	-2.852387e+01	-8.414150e+01
8.700000e-07	-4.072682e-06	-1.242878e-09	-2.830534e+01	-8.386495e+01
8.800000e-07	-4.041010e-06	-1.238054e-09	-2.808521e+01	-8.358463e+01
8.900000e-07	-4.009189e-06	-1.223531e-09	-2.786406e+01	-8.330085e+01
9.000000e-07	-3.977187e-06	-1.218767e-09	-2.764164e+01	-8.301389e+01
9.100000e-07	-3.944894e-06	-1.214908e-09	-2.741720e+01	-8.272405e+01
9.200000e-07	-3.912231e-06	-1.206220e-09	-2.719020e+01	-8.243157e+01
9.300000e-07	-3.879234e-06	-1.200155e-09	-2.696086e+01	-8.213667e+01
9.400000e-07	-3.845818e-06	-1.201207e-09	-2.672862e+01	-8.183950e+01
9.500000e-07	-3.811934e-06	-1.192912e-09	-2.649312e+01	-8.154020e+01
9.600000e-07	-3.777684e-06	-1.181177e-09	-2.625509e+01	-8.123882e+01
9.700000e-07	-3.742979e-06	-1.173783e-09	-2.601388e+01	-8.093535e+01
9.800000e-07	-3.707825e-06	-1.166293e-09	-2.576956e+01	-8.062974e+01
9.900000e-07	-3.672460e-06	-1.154716e-09	-2.552377e+01	-8.032185e+01
1.000000e-06	-3.636964e-06	-1.151859e-09	-2.527707e+01	-8.001150e+01
1.010000e-06	-3.601284e-06	-1.151302e-09	-2.502910e+01	-7.969844e+01
1.020000e-06	-3.565413e-06	-1.144139e-09	-2.477979e+01	-7.938237e+01
1.030000e-06	-3.529378e-06	-1.137946e-09	-2.452935e+01	-7.906295e+01
1.040000e-06	-3.493217e-06	-1.136511e-09	-2.427803e+01	-7.873980e+01
1.050000e-06	-3.456850e-06	-1.129724e-09	-2.402528e+01	-7.841248e+01
1.060000e-06	-3.420123e-06	-1.119957e-09	-2.377002e+01	-7.808058e+01
1.070000e-06	-3.383075e-06	-1.112676e-09	-2.351253e+01	-7.774363e+01
1.080000e-06	-3.345789e-06	-1.104245e-09	-2.325339e+01	-7.740120e+01
1.090000e-06	-3.308214e-06	-1.097099e-09	-2.299225e+01	-7.705283e+01
1.100000e-06	-3.270440e-06	-1.094182e-09	-2.272972e+01	-7.669811e+01
1.110000e-06	-3.232583e-06	-1.091619e-09	-2.246661e+01	-7.633665e+01
1.120000e-06	-3.194516e-06	-1.085115e-09	-2.220204e+01	-7.596810e+01
1.130000e-06	-3.156198e-06	-1.080614e-09	-2.193573e+01	-7.559214e+01
1.140000e-06	-3.117634e-06	-1.077434e-09	-2.166770e+01	-7.520852e+01
1.150000e-06	-3.078845e-06	-1.070676e-09	-2.139812e+01	-7.481706e+01
1.160000e-06	-3.039871e-06	-1.060232e-09	-2.112725e+01	-7.441761e+01
1.170000e-06	-3.000714e-06	-1.049685e-09	-2.085511e+01	-7.401011e+01
1.180000e-06	-2.961385e-06	-1.040104e-09	-2.058177e+01	-7.359455e+01
1.190000e-06	-2.921861e-06	-1.035347e-09	-2.030707e+01	-7.317101e+01
1.200000e-06	-2.882216e-06	-1.034478e-09	-2.003154e+01	-7.273961e+01
1.210000e-06	-2.842483e-06	-1.032222e-09	-1.975540e+01	-7.230054e+01
1.220000e-06	-2.802577e-06	-1.024785e-09	-1.947804e+01	-7.185403e+01
1.230000e-06	-2.762485e-06	-1.017752e-09	-1.919941e+01	-7.140037e+01
1.240000e-06	-2.722224e-06	-1.009971e-09	-1.891959e+01	-7.093989e+01
1.250000e-06	-2.681746e-06	-1.000460e-09	-1.863826e+01	-7.047293e+01
1.260000e-06	-2.641043e-06	-9.949144e-10	-1.835538e+01	-6.999987e+01
1.270000e-06	-2.600136e-06	-9.940256e-10	-1.807107e+01	-6.952109e+01
1.280000e-06	-2.559046e-06	-9.905520e-10	-1.778549e+01	-6.903697e+01
1.290000e-06	-2.517658e-06	-9.857718e-10	-1.749784e+01	-6.854787e+01
1.300000e-06	-2.475950e-06	-9.797613e-10	-1.720797e+01	-6.805415e+01
1.310000e-06	-2.433982e-06	-9.705424e-10	-1.691629e+01	-6.755611e+01
1.320000e-06	-2.391640e-06	-9.585990e-10	-1.662201e+01	-6.705402e+01
1.330000e-06	-2.349015e-06	-9.494371e-10	-1.632577e+01	-6.654812e+01
1.340000e-06	-2.306191e-06	-9.424588e-10	-1.602814e+01	-6.603855e+01
1.350000e-06	-2.263074e-06	-9.359933e-10	-1.572847e+01	-6.552542e+01
1.360000e-06	-2.219743e-06	-9.305529e-10	-1.542732e+01	-6.500876e+01
1.370000e-06	-2.176281e-06	-9.231837e-10	-1.512526e+01	-6.448854e+01
1.380000e-06	-2.132688e-06	-9.107218e-10	-1.482228e+01	-6.396465e+01
1.390000e-06	-2.088992e-06	-8.967340e-10	-1.451860e+01	-6.343690e+01
1.400000e-06	-2.045239e-06	-8.849618e-10	-1.421451e+01	-6.290504e+01
1.410000e-06	-2.001383e-06	-8.758526e-10	-1.390971e+01	-6.236874e+01
1.420000e-06	-1.957381e-06	-8.693183e-10	-1.360389e+01	-6.182762e+01
1.430000e-06	-1.913353e-06	-8.646562e-10	-1.329790e+01	-6.128122e+01
1.440000e-06	-1.869276e-06	-8.591186e-10	-1.299156e+01	-6.072905e+01
1.450000e-06	-1.825108e-06	-8.487830e-10	-1.268459e+01	-6.017054e+01
1.460000e-06	-1.780847e-06	-8.358525e-10	-1.237697e+01	-5.960511e+01
1.470000e-06	-1.736434e-06	-8.216960e-10	-1.206830e+01	-5.903213e+01
1.480000e-06	-1.691910e-06	-8.068129e-10	-1.175886e+01	-5.845094e+01
1.490000e-06	-1.647269e-06	-7.947487e-10	-1.144860e+01	-5.786088e+01
1.500000e-06	-1.602506e-06	-7.859999e-10	-1.113749e+01	-5.726124e+01
1.510000e-06	-1.557560e-06	-7.784495e-10	-1.082512e+01	-5.665135e+01
1.520000e-06	-1.512511e-06	-7.729085e-10	-1.051202e+01	-5.603051e+01
1.530000e-06	-1.467492e-06	-7.669111e-10	-1.019914e+01	-5.539803e+01
1.540000e-06	-1.422367e-06	-7.575423e-10	-9.885516e+00	-5.475323e+01
1.550000e-06	-1.377077e-06	-7.449368e-10	-9.570748e+00	-5.409544e+01
1.560000e-06	-1.331717e-06	-7.328835e-10	-9.255498e+00	-5.342399e+01
1.570000e-06	-1.286279e-06	-7.212789e-10	-8.939702e+00	-5.273825e+01
1.580000e-06	-1.240687e-06	-7.106136e-10	-8.622835e+00	-5.203757e+01
1.590000e-06	-1.194966e-06	-7.024018e-10	-8.305072e+00	-5.132133e+01
1.600000e-06	-1.149141e-06	-6.962311e-10	-7.986585e+00	-5.058890e+01
1.610000e-06	-1.103205e-06	-6.867917e-10	-7.667327e+00	-4.983966e+01
1.620000e-06	-1.057166e-06	-6.746870e-10	-7.347352e+00	-4.907298e+01
1.630000e-06	-1.011119e-06	-6.616013e-10	-7.027326e+00	-4.828825e+01
1.640000e-06	-9.650777e-07	-6.466788e-10	-6.707336e+00	-4.748480e+01
1.650000e-06	-9.189206e-07	-6.324635e-10	-6.386542e+00	-4.666199e+01
1.660000e-06	-8.726679e-07	-6.187776e-10	-6.065084e+00	-4.581912e+01
1.670000e-06	-8.263293e-07	-6.032450e-10	-5.743028e+00	-4.495548e+01
1.680000e-06	-7.799886e-07	-5.854673e-10	-5.420958e+00	-4.407033e+01
1.690000e-06	-7.336361e-07	-5.702356e-10	-5.098806e+00	-4.316290e+01
1.700000e-06	-6.872419e-07	-5.560838e-10	-4.776364e+00	-4.223236e+01
1.710000e-06	-6.407835e-07	-5.396933e-10	-4.453476e+00	-4.127788e+01
1.720000e-06	-5.941670e-07	-5.248256e-10	-4.129489e+00	-4.029857e+01
1.730000e-06	-5.474976e-07	-5.125298e-10	-3.805135e+00	-3.929353e+01
1.740000e-06	-5.008748e-07	-4.988586e-10	-3.481104e+00	-3.826182e+01
1.750000e-06	-4.542351e-07	-4.817951e-10	-3.156956e+00	-3.720248e+01
1.760000e-06	-4.075025e-07	-4.633471e-10	-2.832162e+00	-3.611455e+01
1.770000e-06	-3.606906e-07	-4.458000e-10	-2.506817e+00	-3.499708e+01
1.780000e-06	-3.138052e-07	-4.293253e-10	-2.180961e+00	-3.384910e+01
1.790000e-06	-2.668547e-07	-4.144684e-10	-1.854653e+00	-3.266971e+01
1.800000e-06	-2.198656e-07	-4.003953e-10	-1.528076e+00	-3.145801e+01
1.810000e-06	-1.729039e-07	-3.838432e-10	-1.201690e+00	-3.021320e+01
1.820000e-06	-1.261079e-07	-3.638762e-10	-8.764557e-01	-2.893452e+01
1.830000e-06	-7.936452e-08	-3.438983e-10	-5.515872e-01	-2.762132e+01
1.840000e-06	-3.254185e-08	-3.261556e-10	-2.261674e-01	-2.627307e+01
1.850000e-06	1.427198e-08	-3.089667e-10	9.919097e-02	-2.488933e+01
1.860000e-06	6.114606e-08	-2.894457e-10	4.249681e-01	-2.346986e+01
1.870000e-06	1.080144e-07	-2.677789e-10	7.507054e-01	-2.201453e+01
1.880000e-06	1.547790e-07	-2.465509e-10	1.075722e+00	-2.052343e+01
1.890000e-06	2.014685e-07	-2.276971e-10	1.400216e+00	-1.899681e+01
1.900000e-06	2.482063e-07	-2.086788e-10	1.725045e+00	-1.743514e+01
1.910000e-06	2.950546e-07	-1.879382e-10	2.050644e+00	-1.583909e+01
1.920000e-06	3.418750e-07	-1.688873e-10	2.376048e+00	-1.420954e+01
1.930000e-06	3.886349e-07	-1.504065e-10	2.701031e+00	-1.254762e+01
1.940000e-06	4.353327e-07	-1.277288e-10	3.025583e+00	-1.085467e+01
1.950000e-06	4.820072e-07	-1.019600e-10	3.349973e+00	-9.132234e+00
1.960000e-06	5.286663e-07	-7.702830e-11	3.674256e+00	-7.382100e+00
1.970000e-06	5.752177e-07	-5.398622e-11	3.997790e+00	-5.606252e+00
1.980000e-06	6.217806e-07	-3.116672e-11	4.321405e+00	-3.806875e+00
1.990000e-06	6.683045e-07	-7.914716e-12	4.644748e+00	-1.986340e+00
2.000000e-06	7.146887e-07	1.694879e-11	4.967121e+00	-1.471861e-01
2.010000e-06	7.610003e-07	4.553316e-11	5.288989e+00	1.707898e+00
2.020000e-06	8.072274e-07	7.747610e-11	5.610269e+00	3.576094e+00
2.030000e-06	8.533883e-07	1.070232e-10	5.931090e+00	5.454479e+00
2.040000e-06	8.995626e-07	1.332555e-10	6.252003e+00	7.340051e+00
2.050000e-06	9.457042e-07	1.544511e-10	6.572690e+00	9.229748e+00
2.060000e-06	9.917718e-07	1.746493e-10	6.892862e+00	1.112049e+01
2.070000e-06	1.037809e-06	1.978493e-10	7.212825e+00	1.300918e+01
2.080000e-06	1.083775e-06	2.254064e-10	7.532289e+00	1.489276e+01
2.090000e-06	1.129672e-06	2.571173e-10	7.851275e+00	1.676823e+01
2.100000e-06	1.175444e-06	2.885660e-10	8.169393e+00	1.863265e+01
2.110000e-06	1.221072e-06	3.171720e-10	8.486508e+00	2.048319e+01
2.120000e-06	1.266566e-06	3.418756e-10	8.802693e+00	2.231717e+01
2.130000e-06	1.311926e-06	3.631139e-10	9.117950e+00	2.413202e+01
2.140000e-06	1.357221e-06	3.804035e-10	9.432752e+00	2.592535e+01
2.150000e-06	1.402480e-06	3.996208e-10	9.747306e+00	2.769497e+01
2.160000e-06	1.447746e-06	4.266112e-10	1.006190e+01	2.943885e+01
2.170000e-06	1.492941e-06	4.557734e-10	1.037601e+01	3.115520e+01
2.180000e-06	1.537898e-06	4.820204e-10	1.068847e+01	3.284242e+01
2.190000e-06	1.582732e-06	5.064943e-10	1.100006e+01	3.449914e+01
2.200000e-06	1.627468e-06	5.276117e-10	1.131098e+01	3.612419e+01
2.210000e-06	1.672038e-06	5.445807e-10	1.162074e+01	3.771665e+01
2.220000e-06	1.716545e-06	5.580903e-10	1.193007e+01	3.927577e+01
2.230000e-06	1.760953e-06	5.750046e-10	1.223871e+01	4.080105e+01
2.240000e-06	1.805207e-06	5.945600e-10	1.254627e+01	4.229216e+01
2.250000e-06	1.849335e-06	6.158877e-10	1.285296e+01	4.374895e+01
2.260000e-06	1.893353e-06	6.394690e-10	1.315889e+01	4.517146e+01
2.270000e-06	1.937281e-06	6.653455e-10	1.346420e+01	4.655988e+01
2.280000e-06	1.981162e-06	6.888758e-10	1.376917e+01	4.791453e+01
2.290000e-06	2.025023e-06	7.069398e-10	1.407401e+01	4.923586e+01
2.300000e-06	2.068849e-06	7.222522e-10	1.437860e+01	5.052443e+01
2.310000e-06	2.112579e-06	7.361332e-10	1.468252e+01	5.178088e+01
2.320000e-06	2.156207e-06	7.504518e-10	1.498574e+01	5.300592e+01
2.330000e-06	2.199740e-06	7.673337e-10	1.528830e+01	5.420032e+01
2.340000e-06	2.243170e-06	7.846245e-10	1.559014e+01	5.536487e+01
2.350000e-06	2.286369e-06	8.017312e-10	1.589037e+01	5.650038e+01
2.360000e-06	2.329260e-06	8.194007e-10	1.618847e+01	5.760769e+01
2.370000e-06	2.371923e-06	8.337744e-10	1.648498e+01	5.868761e+01
2.380000e-06	2.414434e-06	8.433295e-10	1.678043e+01	5.974092e+01
2.390000e-06	2.456672e-06	8.529587e-10	1.707399e+01	6.076840e+01
2.400000e-06	2.498479e-06	8.653201e-10	1.736455e+01	6.177078e+01
2.410000e-06	2.539881e-06	8.808064e-10	1.765230e+01	6.274874e+01
2.420000e-06	2.581035e-06	9.001543e-10	1.793832e+01	6.370291e+01
2.430000e-06	2.621952e-06	9.193684e-10	1.822269e+01	6.463389e+01
2.440000e-06	2.662566e-06	9.344177e-10	1.850496e+01	6.554220e+01
2.450000e-06	2.702941e-06	9.435175e-10	1.878557e+01	6.642834e+01
2.460000e-06	2.743070e-06	9.498338e-10	1.906447e+01	6.729274e+01
2.470000e-06	2.783039e-06	9.564577e-10	1.934225e+01	6.813578e+01
2.480000e-06	2.822943e-06	9.669159e-10	1.961959e+01	6.895781e+01
2.490000e-06	2.862749e-06	9.820972e-10	1.989624e+01	6.975915e+01
2.500000e-06	2.902409e-06	9.985792e-10	2.017188e+01	7.054005e+01
2.510000e-06	2.941973e-06	1.013302e-09	2.044685e+01	7.130079e+01
2.520000e-06	2.981459e-06	1.024657e-09	2.072128e+01	7.204159e+01
2.530000e-06	3.020765e-06	1.030845e-09	2.099446e+01	7.276266e+01
2.540000e-06	3.059820e-06	1.034010e-09	2.126590e+01	7.346422e+01
2.550000e-06	3.098620e-06	1.038060e-09	2.153556e+01	7.414648e+01
2.560000e-06	3.137124e-06	1.045950e-09	2.180316e+01	7.480966e+01
2.570000e-06	3.175420e-06	1.058068e-09	2.206932e+01	7.545396e+01
2.580000e-06	3.213564e-06	1.072436e-09	2.233443e+01	7.607964e+01
2.590000e-06	3.251535e-06	1.084805e-09	2.259832e+01	7.668694e+01
2.600000e-06	3.289311e-06	1.093336e-09	2.286087e+01	7.727613e+01
2.610000e-06	3.326801e-06	1.099675e-09	2.312142e+01	7.784752e+01
2.620000e-06	3.364003e-06	1.103893e-09	2.337998e+01	7.840140e+01
2.630000e-06	3.400990e-06	1.106885e-09	2.363704e+01	7.893812e+01
2.640000e-06	3.437704e-06	1.111795e-09	2.389220e+01	7.945805e+01
2.650000e-06	3.474126e-06	1.118081e-09	2.414534e+01	7.996155e+01
2.660000e-06	3.510296e-06	1.127562e-09	2.439673e+01	8.044905e+01
2.670000e-06	3.546240e-06	1.136375e-09	2.464654e+01	8.092095e+01
2.680000e-06	3.582101e-06	1.141178e-09	2.489577e+01	8.137770e+01
2.690000e-06	3.617904e-06	1.143873e-09	2.514461e+01	8.181974e+01
2.700000e-06	3.653579e-06	1.147405e-09	2.539255e+01	8.224755e+01
2.710000e-06	3.689105e-06	1.153682e-09	2.563946e+01	8.266159e+01
2.720000e-06	3.724423e-06	1.161934e-09	2.588492e+01	8.306235e+01
2.730000e-06	3.759431e-06	1.172240e-09	2.612823e+01	8.345030e+01
2.740000e-06	3.794047e-06	1.180770e-09	2.636881e+01	8.382593e+01
2.750000e-06	3.828195e-06	1.187219e-09	2.660614e+01	8.418972e+01
2.760000e-06	3.861848e-06	1.190970e-09	2.684003e+01	8.454216e+01
2.770000e-06	3.894956e-06	1.193334e-09	2.707013e+01	8.488372e+01
2.780000e-06	3.927587e-06	1.198943e-09	2.729692e+01	8.521488e+01
2.790000e-06	3.959897e-06	1.207681e-09	2.752147e+01	8.553610e+01
2.800000e-06	3.991947e-06	1.216995e-09	2.774423e+01	8.584785e+01
2.810000e-06	4.023829e-06	1.226227e-09	2.796580e+01	8.615057e+01
2.820000e-06	4.055562e-06	1.232695e-09	2.818635e+01	8.644473e+01
2.830000e-06	4.087120e-06	1.234712e-09	2.840568e+01	8.673075e+01
2.840000e-06	4.118486e-06	1.235277e-09	2.862367e+01	8.700908e+01
2.850000e-06	4.149620e-06	1.239204e-09	2.884006e+01	8.728014e+01
2.860000e-06	4.180435e-06	1.244861e-09	2.905423e+01	8.754435e+01
2.870000e-06	4.210881e-06	1.252686e-09	2.926583e+01	8.780214e+01
2.880000e-06	4.240980e-06	1.261981e-09	2.947502e+01	8.805391e+01
2.890000e-06	4.270854e-06	1.271861e-09	2.968264e+01	8.830006e+01
2.900000e-06	4.300544e-06	1.280862e-09	2.988899e+01	8.854098e+01
