# Temperatura_=_5.78
# Concentracion g/m^3_=_1620.0
# C_Vs_to_Am_M_A/Vsm_=_65563218390.804596
# pendiente_HvsI_1/m_=_3716.3
# ordenada_HvsI_A/m_=_1297.0
# frecuencia_Hz_=_135104.95650968712

Tiempo_(s)	Campo_(V.s)	Magnetizacion_(V.s)	Campo_(kA/m)	Magnetizacion_(A/m)
0.000000e+00	-5.536506e-06	-1.233397e-09	-3.837475e+01	-8.288320e+01
1.000000e-08	-5.536632e-06	-1.230120e-09	-3.837562e+01	-8.285909e+01
2.000000e-08	-5.536512e-06	-1.226507e-09	-3.837479e+01	-8.283737e+01
3.000000e-08	-5.535911e-06	-1.223793e-09	-3.837063e+01	-8.281824e+01
4.000000e-08	-5.534813e-06	-1.222868e-09	-3.836302e+01	-8.280188e+01
5.000000e-08	-5.533238e-06	-1.221584e-09	-3.835210e+01	-8.278841e+01
6.000000e-08	-5.531006e-06	-1.231197e-09	-3.833663e+01	-8.277789e+01
7.000000e-08	-5.528128e-06	-1.254514e-09	-3.831668e+01	-8.277033e+01
8.000000e-08	-5.524681e-06	-1.217911e-09	-3.829279e+01	-8.276566e+01
9.000000e-08	-5.520748e-06	-1.147887e-09	-3.826553e+01	-8.276375e+01
1.000000e-07	-5.516582e-06	-1.216709e-09	-3.823666e+01	-8.276440e+01
1.100000e-07	-5.512177e-06	-1.298653e-09	-3.820613e+01	-8.276733e+01
1.200000e-07	-5.507412e-06	-1.231634e-09	-3.817310e+01	-8.277218e+01
1.300000e-07	-5.502322e-06	-1.145586e-09	-3.813781e+01	-8.277854e+01
1.400000e-07	-5.496878e-06	-1.178699e-09	-3.810008e+01	-8.278592e+01
1.500000e-07	-5.490977e-06	-1.315574e-09	-3.805918e+01	-8.279377e+01
1.600000e-07	-5.484659e-06	-1.237278e-09	-3.801539e+01	-8.280149e+01
1.700000e-07	-5.478003e-06	-1.149277e-09	-3.796926e+01	-8.280843e+01
1.800000e-07	-5.470896e-06	-1.191643e-09	-3.792000e+01	-8.281390e+01
1.900000e-07	-5.463433e-06	-1.308273e-09	-3.786827e+01	-8.281717e+01
2.000000e-07	-5.455772e-06	-1.275686e-09	-3.781517e+01	-8.281752e+01
2.100000e-07	-5.447874e-06	-1.196651e-09	-3.776043e+01	-8.281421e+01
2.200000e-07	-5.439684e-06	-1.206945e-09	-3.770365e+01	-8.280650e+01
2.300000e-07	-5.431105e-06	-1.270110e-09	-3.764420e+01	-8.279368e+01
2.400000e-07	-5.421983e-06	-1.265791e-09	-3.758097e+01	-8.277507e+01
2.500000e-07	-5.412223e-06	-1.221675e-09	-3.751332e+01	-8.275002e+01
2.600000e-07	-5.401808e-06	-1.236417e-09	-3.744113e+01	-8.271796e+01
2.700000e-07	-5.390753e-06	-1.260178e-09	-3.736450e+01	-8.267836e+01
2.800000e-07	-5.379287e-06	-1.269465e-09	-3.728503e+01	-8.263078e+01
2.900000e-07	-5.367527e-06	-1.229610e-09	-3.720352e+01	-8.257486e+01
3.000000e-07	-5.355381e-06	-1.235334e-09	-3.711933e+01	-8.251032e+01
3.100000e-07	-5.342802e-06	-1.251259e-09	-3.703215e+01	-8.243699e+01
3.200000e-07	-5.329802e-06	-1.281187e-09	-3.694204e+01	-8.235479e+01
3.300000e-07	-5.316387e-06	-1.228449e-09	-3.684906e+01	-8.226373e+01
3.400000e-07	-5.302599e-06	-1.230297e-09	-3.675349e+01	-8.216393e+01
3.500000e-07	-5.288520e-06	-1.269433e-09	-3.665591e+01	-8.205561e+01
3.600000e-07	-5.274005e-06	-1.265191e-09	-3.655530e+01	-8.193907e+01
3.700000e-07	-5.258905e-06	-1.199530e-09	-3.645064e+01	-8.181471e+01
3.800000e-07	-5.243245e-06	-1.253802e-09	-3.634209e+01	-8.168301e+01
3.900000e-07	-5.226989e-06	-1.276178e-09	-3.622942e+01	-8.154450e+01
4.000000e-07	-5.210282e-06	-1.188235e-09	-3.611362e+01	-8.139979e+01
4.100000e-07	-5.193252e-06	-1.186865e-09	-3.599558e+01	-8.124953e+01
4.200000e-07	-5.175991e-06	-1.298243e-09	-3.587594e+01	-8.109441e+01
4.300000e-07	-5.158409e-06	-1.232671e-09	-3.575407e+01	-8.093515e+01
4.400000e-07	-5.140327e-06	-1.143480e-09	-3.562875e+01	-8.077246e+01
4.500000e-07	-5.121904e-06	-1.253936e-09	-3.550105e+01	-8.060706e+01
4.600000e-07	-5.103221e-06	-1.283051e-09	-3.537156e+01	-8.043966e+01
4.700000e-07	-5.084157e-06	-1.144695e-09	-3.523942e+01	-8.027093e+01
4.800000e-07	-5.064710e-06	-1.179416e-09	-3.510463e+01	-8.010152e+01
4.900000e-07	-5.045022e-06	-1.279213e-09	-3.496816e+01	-7.993199e+01
5.000000e-07	-5.025134e-06	-1.171886e-09	-3.483032e+01	-7.976288e+01
5.100000e-07	-5.005035e-06	-1.141660e-09	-3.469101e+01	-7.959465e+01
5.200000e-07	-4.984598e-06	-1.264676e-09	-3.454936e+01	-7.942767e+01
5.300000e-07	-4.963733e-06	-1.216619e-09	-3.440473e+01	-7.926226e+01
5.400000e-07	-4.942477e-06	-1.113259e-09	-3.425740e+01	-7.909864e+01
5.500000e-07	-4.920927e-06	-1.216186e-09	-3.410804e+01	-7.893694e+01
5.600000e-07	-4.899109e-06	-1.235659e-09	-3.395681e+01	-7.877723e+01
5.700000e-07	-4.876895e-06	-1.121170e-09	-3.380284e+01	-7.861949e+01
5.800000e-07	-4.854304e-06	-1.156052e-09	-3.364626e+01	-7.846361e+01
5.900000e-07	-4.831389e-06	-1.232587e-09	-3.348743e+01	-7.830944e+01
6.000000e-07	-4.808203e-06	-1.142394e-09	-3.332672e+01	-7.815674e+01
6.100000e-07	-4.784790e-06	-1.128187e-09	-3.316444e+01	-7.800524e+01
6.200000e-07	-4.761112e-06	-1.202157e-09	-3.300032e+01	-7.785460e+01
6.300000e-07	-4.737111e-06	-1.164935e-09	-3.283397e+01	-7.770446e+01
6.400000e-07	-4.712785e-06	-1.111955e-09	-3.266536e+01	-7.755443e+01
6.500000e-07	-4.688100e-06	-1.167921e-09	-3.249426e+01	-7.740411e+01
6.600000e-07	-4.663005e-06	-1.160761e-09	-3.232032e+01	-7.725309e+01
6.700000e-07	-4.637376e-06	-1.114056e-09	-3.214268e+01	-7.710096e+01
6.800000e-07	-4.611138e-06	-1.143074e-09	-3.196082e+01	-7.694733e+01
6.900000e-07	-4.584381e-06	-1.168162e-09	-3.177536e+01	-7.679185e+01
7.000000e-07	-4.557197e-06	-1.126416e-09	-3.158694e+01	-7.663416e+01
7.100000e-07	-4.529759e-06	-1.125943e-09	-3.139676e+01	-7.647399e+01
7.200000e-07	-4.502124e-06	-1.142316e-09	-3.120522e+01	-7.631107e+01
7.300000e-07	-4.474291e-06	-1.117029e-09	-3.101230e+01	-7.614519e+01
7.400000e-07	-4.446294e-06	-1.102478e-09	-3.081825e+01	-7.597619e+01
7.500000e-07	-4.418026e-06	-1.120846e-09	-3.062232e+01	-7.580397e+01
7.600000e-07	-4.389386e-06	-1.115377e-09	-3.042381e+01	-7.562846e+01
7.700000e-07	-4.360448e-06	-1.102103e-09	-3.022323e+01	-7.544964e+01
7.800000e-07	-4.331252e-06	-1.110214e-09	-3.002087e+01	-7.526754e+01
7.900000e-07	-4.301735e-06	-1.103456e-09	-2.981628e+01	-7.508222e+01
8.000000e-07	-4.271878e-06	-1.084144e-09	-2.960933e+01	-7.489377e+01
8.100000e-07	-4.241688e-06	-1.084014e-09	-2.940008e+01	-7.470233e+01
8.200000e-07	-4.211185e-06	-1.088621e-09	-2.918865e+01	-7.450801e+01
8.300000e-07	-4.180415e-06	-1.074974e-09	-2.897538e+01	-7.431099e+01
8.400000e-07	-4.149392e-06	-1.079052e-09	-2.876036e+01	-7.411139e+01
8.500000e-07	-4.118081e-06	-1.089291e-09	-2.854333e+01	-7.390937e+01
8.600000e-07	-4.086498e-06	-1.080459e-09	-2.832443e+01	-7.370505e+01
8.700000e-07	-4.054744e-06	-1.069985e-09	-2.810433e+01	-7.349854e+01
8.800000e-07	-4.022896e-06	-1.079134e-09	-2.788358e+01	-7.328994e+01
8.900000e-07	-3.990893e-06	-1.070296e-09	-2.766176e+01	-7.307927e+01
9.000000e-07	-3.958617e-06	-1.058012e-09	-2.743806e+01	-7.286656e+01
9.100000e-07	-3.926023e-06	-1.060829e-09	-2.721214e+01	-7.265177e+01
9.200000e-07	-3.892996e-06	-1.062511e-09	-2.698322e+01	-7.243483e+01
9.300000e-07	-3.859427e-06	-1.047952e-09	-2.675054e+01	-7.221563e+01
9.400000e-07	-3.825368e-06	-1.050783e-09	-2.651448e+01	-7.199399e+01
9.500000e-07	-3.790925e-06	-1.054467e-09	-2.627574e+01	-7.176974e+01
9.600000e-07	-3.756202e-06	-1.040173e-09	-2.603507e+01	-7.154262e+01
9.700000e-07	-3.721175e-06	-1.028893e-09	-2.579229e+01	-7.131238e+01
9.800000e-07	-3.685776e-06	-1.034952e-09	-2.554693e+01	-7.107871e+01
9.900000e-07	-3.650144e-06	-1.028737e-09	-2.529996e+01	-7.084130e+01
1.000000e-06	-3.614404e-06	-1.019490e-09	-2.505224e+01	-7.059983e+01
1.010000e-06	-3.578551e-06	-1.024366e-09	-2.480373e+01	-7.035397e+01
1.020000e-06	-3.542546e-06	-1.026854e-09	-2.455418e+01	-7.010339e+01
1.030000e-06	-3.506315e-06	-1.016348e-09	-2.430304e+01	-6.984778e+01
1.040000e-06	-3.469812e-06	-1.013996e-09	-2.405004e+01	-6.958685e+01
1.050000e-06	-3.433044e-06	-1.014425e-09	-2.379519e+01	-6.932034e+01
1.060000e-06	-3.396021e-06	-1.003888e-09	-2.353858e+01	-6.904804e+01
1.070000e-06	-3.358757e-06	-9.969319e-10	-2.328029e+01	-6.876977e+01
1.080000e-06	-3.321241e-06	-9.995270e-10	-2.302026e+01	-6.848539e+01
1.090000e-06	-3.283431e-06	-9.975377e-10	-2.275819e+01	-6.819483e+01
1.100000e-06	-3.245356e-06	-9.872167e-10	-2.249428e+01	-6.789808e+01
1.110000e-06	-3.207104e-06	-9.841673e-10	-2.222915e+01	-6.759519e+01
1.120000e-06	-3.168771e-06	-9.796494e-10	-2.196345e+01	-6.728624e+01
1.130000e-06	-3.130242e-06	-9.693280e-10	-2.169640e+01	-6.697141e+01
1.140000e-06	-3.091379e-06	-9.631572e-10	-2.142703e+01	-6.665089e+01
1.150000e-06	-3.052328e-06	-9.632998e-10	-2.115636e+01	-6.632496e+01
1.160000e-06	-3.013174e-06	-9.558775e-10	-2.088498e+01	-6.599391e+01
1.170000e-06	-2.973796e-06	-9.494246e-10	-2.061204e+01	-6.565810e+01
1.180000e-06	-2.934192e-06	-9.475816e-10	-2.033754e+01	-6.531788e+01
1.190000e-06	-2.894458e-06	-9.430109e-10	-2.006213e+01	-6.497364e+01
1.200000e-06	-2.854640e-06	-9.329221e-10	-1.978614e+01	-6.462578e+01
1.210000e-06	-2.814705e-06	-9.281157e-10	-1.950935e+01	-6.427470e+01
1.220000e-06	-2.774537e-06	-9.225852e-10	-1.923093e+01	-6.392076e+01
1.230000e-06	-2.734163e-06	-9.166692e-10	-1.895109e+01	-6.356432e+01
1.240000e-06	-2.693602e-06	-9.134870e-10	-1.866995e+01	-6.320571e+01
1.250000e-06	-2.652786e-06	-9.133504e-10	-1.838705e+01	-6.284520e+01
1.260000e-06	-2.611792e-06	-9.088675e-10	-1.810291e+01	-6.248302e+01
1.270000e-06	-2.570585e-06	-9.013629e-10	-1.781730e+01	-6.211933e+01
1.280000e-06	-2.529034e-06	-8.954746e-10	-1.752929e+01	-6.175422e+01
1.290000e-06	-2.487167e-06	-8.894006e-10	-1.723910e+01	-6.138771e+01
1.300000e-06	-2.445036e-06	-8.793532e-10	-1.694708e+01	-6.101975e+01
1.310000e-06	-2.402606e-06	-8.712834e-10	-1.665300e+01	-6.065020e+01
1.320000e-06	-2.359838e-06	-8.645067e-10	-1.635656e+01	-6.027886e+01
1.330000e-06	-2.316792e-06	-8.567530e-10	-1.605820e+01	-5.990542e+01
1.340000e-06	-2.273564e-06	-8.527555e-10	-1.575857e+01	-5.952953e+01
1.350000e-06	-2.230176e-06	-8.516816e-10	-1.545784e+01	-5.915073e+01
1.360000e-06	-2.186647e-06	-8.465054e-10	-1.515614e+01	-5.876854e+01
1.370000e-06	-2.142980e-06	-8.405180e-10	-1.485347e+01	-5.838238e+01
1.380000e-06	-2.099228e-06	-8.348936e-10	-1.455021e+01	-5.799165e+01
1.390000e-06	-2.055430e-06	-8.270084e-10	-1.424664e+01	-5.759570e+01
1.400000e-06	-2.011481e-06	-8.186505e-10	-1.394202e+01	-5.719385e+01
1.410000e-06	-1.967450e-06	-8.119321e-10	-1.363683e+01	-5.678539e+01
1.420000e-06	-1.923400e-06	-8.071354e-10	-1.333151e+01	-5.636962e+01
1.430000e-06	-1.879197e-06	-8.010093e-10	-1.302513e+01	-5.594584e+01
1.440000e-06	-1.834835e-06	-7.948235e-10	-1.271765e+01	-5.551333e+01
1.450000e-06	-1.790375e-06	-7.877671e-10	-1.240949e+01	-5.507142e+01
1.460000e-06	-1.745773e-06	-7.786104e-10	-1.210034e+01	-5.461947e+01
1.470000e-06	-1.701015e-06	-7.675575e-10	-1.179011e+01	-5.415685e+01
1.480000e-06	-1.656165e-06	-7.594442e-10	-1.147925e+01	-5.368298e+01
1.490000e-06	-1.611187e-06	-7.515507e-10	-1.116750e+01	-5.319733e+01
1.500000e-06	-1.566052e-06	-7.427328e-10	-1.085465e+01	-5.269942e+01
1.510000e-06	-1.520793e-06	-7.350157e-10	-1.054095e+01	-5.218879e+01
1.520000e-06	-1.475477e-06	-7.306473e-10	-1.022686e+01	-5.166505e+01
1.530000e-06	-1.430147e-06	-7.242029e-10	-9.912665e+00	-5.112783e+01
1.540000e-06	-1.384683e-06	-7.162387e-10	-9.597547e+00	-5.057683e+01
1.550000e-06	-1.339084e-06	-7.084937e-10	-9.281490e+00	-5.001174e+01
1.560000e-06	-1.293377e-06	-7.007901e-10	-8.964682e+00	-4.943229e+01
1.570000e-06	-1.247555e-06	-6.902268e-10	-8.647082e+00	-4.883823e+01
1.580000e-06	-1.201718e-06	-6.805328e-10	-8.329377e+00	-4.822930e+01
1.590000e-06	-1.155848e-06	-6.746151e-10	-8.011440e+00	-4.760525e+01
1.600000e-06	-1.109918e-06	-6.696486e-10	-7.693087e+00	-4.696579e+01
1.610000e-06	-1.063959e-06	-6.602738e-10	-7.374539e+00	-4.631062e+01
1.620000e-06	-1.017981e-06	-6.483066e-10	-7.055850e+00	-4.563939e+01
1.630000e-06	-9.718834e-07	-6.365775e-10	-6.736340e+00	-4.495169e+01
1.640000e-06	-9.256155e-07	-6.276344e-10	-6.415646e+00	-4.424708e+01
1.650000e-06	-8.792233e-07	-6.187393e-10	-6.094092e+00	-4.352503e+01
1.660000e-06	-8.327295e-07	-6.072262e-10	-5.771833e+00	-4.278494e+01
1.670000e-06	-7.861695e-07	-5.953315e-10	-5.449116e+00	-4.202616e+01
1.680000e-06	-7.395955e-07	-5.823310e-10	-5.126301e+00	-4.124791e+01
1.690000e-06	-6.929922e-07	-5.694657e-10	-4.803283e+00	-4.044938e+01
1.700000e-06	-6.463098e-07	-5.568266e-10	-4.479717e+00	-3.962966e+01
1.710000e-06	-5.995865e-07	-5.432464e-10	-4.155867e+00	-3.878777e+01
1.720000e-06	-5.528499e-07	-5.280988e-10	-3.831926e+00	-3.792266e+01
1.730000e-06	-5.061143e-07	-5.125921e-10	-3.507990e+00	-3.703324e+01
1.740000e-06	-4.593297e-07	-4.955326e-10	-3.183716e+00	-3.611838e+01
1.750000e-06	-4.125435e-07	-4.784259e-10	-2.859431e+00	-3.517689e+01
1.760000e-06	-3.657456e-07	-4.628466e-10	-2.535064e+00	-3.420759e+01
1.770000e-06	-3.188362e-07	-4.509813e-10	-2.209924e+00	-3.320932e+01
1.780000e-06	-2.717913e-07	-4.394109e-10	-1.883846e+00	-3.218091e+01
1.790000e-06	-2.247445e-07	-4.267944e-10	-1.557754e+00	-3.112126e+01
1.800000e-06	-1.778803e-07	-4.114226e-10	-1.232928e+00	-3.002932e+01
1.810000e-06	-1.311249e-07	-3.927949e-10	-9.088558e-01	-2.890415e+01
1.820000e-06	-8.425347e-08	-3.734710e-10	-5.839795e-01	-2.774490e+01
1.830000e-06	-3.726354e-08	-3.556256e-10	-2.582818e-01	-2.655084e+01
1.840000e-06	9.639923e-09	-3.391406e-10	6.681645e-02	-2.532142e+01
1.850000e-06	5.654976e-08	-3.228748e-10	3.919589e-01	-2.405622e+01
1.860000e-06	1.035012e-07	-3.056242e-10	7.173897e-01	-2.275505e+01
1.870000e-06	1.504360e-07	-2.878851e-10	1.042706e+00	-2.141787e+01
1.880000e-06	1.973675e-07	-2.689486e-10	1.367998e+00	-2.004489e+01
1.890000e-06	2.442121e-07	-2.497550e-10	1.692688e+00	-1.863652e+01
1.900000e-06	2.909810e-07	-2.290132e-10	2.016854e+00	-1.719340e+01
1.910000e-06	3.377588e-07	-2.069486e-10	2.341081e+00	-1.571641e+01
1.920000e-06	3.845598e-07	-1.868328e-10	2.665469e+00	-1.420666e+01
1.930000e-06	4.313616e-07	-1.658218e-10	2.989863e+00	-1.266547e+01
1.940000e-06	4.781403e-07	-1.412873e-10	3.314096e+00	-1.109441e+01
1.950000e-06	5.249089e-07	-1.164322e-10	3.638260e+00	-9.495236e+00
1.960000e-06	5.716727e-07	-9.630137e-11	3.962390e+00	-7.869932e+00
1.970000e-06	6.183930e-07	-7.787925e-11	4.286219e+00	-6.220647e+00
1.980000e-06	6.650338e-07	-5.803079e-11	4.609497e+00	-4.549705e+00
1.990000e-06	7.116026e-07	-3.523805e-11	4.932275e+00	-2.859578e+00
2.000000e-06	7.580945e-07	-8.527314e-12	5.254521e+00	-1.152862e+00
2.010000e-06	8.044789e-07	2.236648e-11	5.576021e+00	5.677439e-01
2.020000e-06	8.508169e-07	5.216565e-11	5.897200e+00	2.299464e+00
2.030000e-06	8.970996e-07	7.660109e-11	6.217996e+00	4.039469e+00
2.040000e-06	9.433119e-07	9.804705e-11	6.538304e+00	5.784906e+00
2.050000e-06	9.895189e-07	1.193466e-10	6.858575e+00	7.532921e+00
2.060000e-06	1.035672e-06	1.405482e-10	7.178474e+00	9.280684e+00
2.070000e-06	1.081680e-06	1.636667e-10	7.497361e+00	1.102542e+01
2.080000e-06	1.127634e-06	1.911316e-10	7.815883e+00	1.276441e+01
2.090000e-06	1.173481e-06	2.195909e-10	8.133660e+00	1.449504e+01
2.100000e-06	1.219150e-06	2.450188e-10	8.450200e+00	1.621482e+01
2.110000e-06	1.264782e-06	2.680514e-10	8.766483e+00	1.792138e+01
2.120000e-06	1.310340e-06	2.895869e-10	9.082256e+00	1.961247e+01
2.130000e-06	1.355842e-06	3.099497e-10	9.397639e+00	2.128604e+01
2.140000e-06	1.401322e-06	3.307143e-10	9.712876e+00	2.294017e+01
2.150000e-06	1.446700e-06	3.541638e-10	1.002740e+01	2.457313e+01
2.160000e-06	1.492016e-06	3.793161e-10	1.034149e+01	2.618336e+01
2.170000e-06	1.537319e-06	4.020890e-10	1.065550e+01	2.776948e+01
2.180000e-06	1.582460e-06	4.233350e-10	1.096838e+01	2.933029e+01
2.190000e-06	1.627345e-06	4.447219e-10	1.127949e+01	3.086474e+01
2.200000e-06	1.672048e-06	4.653416e-10	1.158933e+01	3.237196e+01
2.210000e-06	1.716603e-06	4.844997e-10	1.189815e+01	3.385125e+01
2.220000e-06	1.761063e-06	5.024471e-10	1.220632e+01	3.530203e+01
2.230000e-06	1.805475e-06	5.194954e-10	1.251414e+01	3.672388e+01
2.240000e-06	1.849757e-06	5.365243e-10	1.282107e+01	3.811648e+01
2.250000e-06	1.893906e-06	5.547656e-10	1.312708e+01	3.947964e+01
2.260000e-06	1.937958e-06	5.746670e-10	1.343242e+01	4.081326e+01
2.270000e-06	1.981906e-06	5.938530e-10	1.373703e+01	4.211733e+01
2.280000e-06	2.025799e-06	6.115324e-10	1.404126e+01	4.339189e+01
2.290000e-06	2.069628e-06	6.283614e-10	1.434505e+01	4.463707e+01
2.300000e-06	2.113363e-06	6.441326e-10	1.464819e+01	4.585303e+01
2.310000e-06	2.157034e-06	6.587804e-10	1.495088e+01	4.703995e+01
2.320000e-06	2.200658e-06	6.738723e-10	1.525325e+01	4.819806e+01
2.330000e-06	2.244223e-06	6.900238e-10	1.555521e+01	4.932760e+01
2.340000e-06	2.287656e-06	7.074292e-10	1.585625e+01	5.042881e+01
2.350000e-06	2.330847e-06	7.250778e-10	1.615562e+01	5.150194e+01
2.360000e-06	2.373754e-06	7.397707e-10	1.645301e+01	5.254724e+01
2.370000e-06	2.416398e-06	7.506837e-10	1.674859e+01	5.356496e+01
2.380000e-06	2.458798e-06	7.620118e-10	1.704248e+01	5.455535e+01
2.390000e-06	2.500890e-06	7.737622e-10	1.733422e+01	5.551865e+01
2.400000e-06	2.542564e-06	7.862354e-10	1.762307e+01	5.645511e+01
2.410000e-06	2.583863e-06	8.020533e-10	1.790933e+01	5.736495e+01
2.420000e-06	2.624965e-06	8.172616e-10	1.819422e+01	5.824844e+01
2.430000e-06	2.665891e-06	8.313491e-10	1.847788e+01	5.910583e+01
2.440000e-06	2.706541e-06	8.429002e-10	1.875964e+01	5.993738e+01
2.450000e-06	2.746874e-06	8.541312e-10	1.903919e+01	6.074339e+01
2.460000e-06	2.786976e-06	8.643596e-10	1.931715e+01	6.152416e+01
2.470000e-06	2.826957e-06	8.751142e-10	1.959427e+01	6.228004e+01
2.480000e-06	2.866831e-06	8.839016e-10	1.987064e+01	6.301140e+01
2.490000e-06	2.906608e-06	8.931998e-10	2.014634e+01	6.371864e+01
2.500000e-06	2.946253e-06	9.044996e-10	2.042113e+01	6.440221e+01
2.510000e-06	2.985701e-06	9.153716e-10	2.069456e+01	6.506259e+01
2.520000e-06	3.025031e-06	9.273442e-10	2.096716e+01	6.570033e+01
2.530000e-06	3.064140e-06	9.394855e-10	2.123824e+01	6.631598e+01
2.540000e-06	3.103059e-06	9.490279e-10	2.150799e+01	6.691016e+01
2.550000e-06	3.141780e-06	9.529321e-10	2.177638e+01	6.748353e+01
2.560000e-06	3.180186e-06	9.546343e-10	2.204258e+01	6.803677e+01
2.570000e-06	3.218431e-06	9.568122e-10	2.230766e+01	6.857060e+01
2.580000e-06	3.256470e-06	9.599891e-10	2.257132e+01	6.908578e+01
2.590000e-06	3.294328e-06	9.681706e-10	2.283372e+01	6.958307e+01
2.600000e-06	3.332001e-06	9.795378e-10	2.309484e+01	7.006326e+01
2.610000e-06	3.369380e-06	9.914850e-10	2.335392e+01	7.052715e+01
2.620000e-06	3.406455e-06	1.003617e-09	2.361090e+01	7.097552e+01
2.630000e-06	3.443273e-06	1.009796e-09	2.386609e+01	7.140917e+01
2.640000e-06	3.479929e-06	1.012051e-09	2.412016e+01	7.182886e+01
2.650000e-06	3.516309e-06	1.013673e-09	2.437232e+01	7.223536e+01
2.660000e-06	3.552400e-06	1.019519e-09	2.462247e+01	7.262938e+01
2.670000e-06	3.588327e-06	1.026631e-09	2.487149e+01	7.301162e+01
2.680000e-06	3.624113e-06	1.034929e-09	2.511953e+01	7.338272e+01
2.690000e-06	3.659789e-06	1.044973e-09	2.536681e+01	7.374330e+01
2.700000e-06	3.695365e-06	1.052963e-09	2.561340e+01	7.409389e+01
2.710000e-06	3.730736e-06	1.057502e-09	2.585856e+01	7.443502e+01
2.720000e-06	3.765817e-06	1.062275e-09	2.610171e+01	7.476712e+01
2.730000e-06	3.800590e-06	1.066729e-09	2.634274e+01	7.509060e+01
2.740000e-06	3.834957e-06	1.071547e-09	2.658094e+01	7.540580e+01
2.750000e-06	3.868804e-06	1.076593e-09	2.681554e+01	7.571301e+01
2.760000e-06	3.902174e-06	1.081822e-09	2.704683e+01	7.601246e+01
2.770000e-06	3.935077e-06	1.087669e-09	2.727489e+01	7.630435e+01
2.780000e-06	3.967538e-06	1.093306e-09	2.749989e+01	7.658884e+01
2.790000e-06	3.999729e-06	1.100832e-09	2.772301e+01	7.686603e+01
2.800000e-06	4.031722e-06	1.106728e-09	2.794476e+01	7.713601e+01
2.810000e-06	4.063494e-06	1.111048e-09	2.816498e+01	7.739884e+01
2.820000e-06	4.095130e-06	1.112410e-09	2.838426e+01	7.765454e+01
2.830000e-06	4.126624e-06	1.114261e-09	2.860255e+01	7.790315e+01
2.840000e-06	4.157878e-06	1.119562e-09	2.881917e+01	7.814467e+01
2.850000e-06	4.188847e-06	1.129166e-09	2.903383e+01	7.837912e+01
2.860000e-06	4.219499e-06	1.138334e-09	2.924628e+01	7.860653e+01
2.870000e-06	4.249799e-06	1.144966e-09	2.945630e+01	7.882690e+01
2.880000e-06	4.279704e-06	1.147739e-09	2.966357e+01	7.904029e+01
2.890000e-06	4.309310e-06	1.148321e-09	2.986879e+01	7.924675e+01
2.900000e-06	4.338712e-06	1.150970e-09	3.007257e+01	7.944635e+01
