# Temperatura_=_8.34
# Concentracion g/m^3_=_1620.0
# C_Vs_to_Am_M_A/Vsm_=_65563218390.804596
# pendiente_HvsI_1/m_=_3716.3
# ordenada_HvsI_A/m_=_1297.0
# frecuencia_Hz_=_135104.92666770166

Tiempo_(s)	Campo_(V.s)	Magnetizacion_(V.s)	Campo_(kA/m)	Magnetizacion_(A/m)
0.000000e+00	-5.536253e-06	-1.330176e-09	-3.837303e+01	-8.913102e+01
1.000000e-08	-5.536498e-06	-1.327481e-09	-3.837474e+01	-8.911443e+01
2.000000e-08	-5.536516e-06	-1.325155e-09	-3.837486e+01	-8.909814e+01
3.000000e-08	-5.536292e-06	-1.322845e-09	-3.837330e+01	-8.908250e+01
4.000000e-08	-5.535648e-06	-1.322242e-09	-3.836884e+01	-8.906786e+01
5.000000e-08	-5.534357e-06	-1.321287e-09	-3.835990e+01	-8.905457e+01
6.000000e-08	-5.532394e-06	-1.315217e-09	-3.834629e+01	-8.904294e+01
7.000000e-08	-5.529927e-06	-1.310963e-09	-3.832919e+01	-8.903325e+01
8.000000e-08	-5.526919e-06	-1.313181e-09	-3.830834e+01	-8.902576e+01
9.000000e-08	-5.523384e-06	-1.311372e-09	-3.828384e+01	-8.902066e+01
1.000000e-07	-5.519456e-06	-1.325920e-09	-3.825661e+01	-8.901806e+01
1.100000e-07	-5.515205e-06	-1.378649e-09	-3.822715e+01	-8.901803e+01
1.200000e-07	-5.510743e-06	-1.325463e-09	-3.819622e+01	-8.902054e+01
1.300000e-07	-5.506014e-06	-1.254008e-09	-3.816344e+01	-8.902547e+01
1.400000e-07	-5.500882e-06	-1.270174e-09	-3.812787e+01	-8.903261e+01
1.500000e-07	-5.495320e-06	-1.351090e-09	-3.808932e+01	-8.904168e+01
1.600000e-07	-5.489417e-06	-1.354386e-09	-3.804841e+01	-8.905227e+01
1.700000e-07	-5.483225e-06	-1.242947e-09	-3.800549e+01	-8.906390e+01
1.800000e-07	-5.476539e-06	-1.261222e-09	-3.795915e+01	-8.907597e+01
1.900000e-07	-5.469324e-06	-1.360467e-09	-3.790914e+01	-8.908783e+01
2.000000e-07	-5.461856e-06	-1.383555e-09	-3.785737e+01	-8.909874e+01
2.100000e-07	-5.454204e-06	-1.282377e-09	-3.780433e+01	-8.910788e+01
2.200000e-07	-5.446310e-06	-1.263924e-09	-3.774962e+01	-8.911439e+01
2.300000e-07	-5.438182e-06	-1.327817e-09	-3.769328e+01	-8.911736e+01
2.400000e-07	-5.429641e-06	-1.358788e-09	-3.763409e+01	-8.911585e+01
2.500000e-07	-5.420389e-06	-1.303422e-09	-3.756995e+01	-8.910892e+01
2.600000e-07	-5.410421e-06	-1.294599e-09	-3.750087e+01	-8.909562e+01
2.700000e-07	-5.399846e-06	-1.331179e-09	-3.742757e+01	-8.907502e+01
2.800000e-07	-5.388733e-06	-1.338962e-09	-3.735054e+01	-8.904626e+01
2.900000e-07	-5.377240e-06	-1.306016e-09	-3.727088e+01	-8.900850e+01
3.000000e-07	-5.365342e-06	-1.297980e-09	-3.718842e+01	-8.896100e+01
3.100000e-07	-5.353053e-06	-1.329719e-09	-3.710324e+01	-8.890309e+01
3.200000e-07	-5.340400e-06	-1.340264e-09	-3.701553e+01	-8.883422e+01
3.300000e-07	-5.327286e-06	-1.320566e-09	-3.692464e+01	-8.875394e+01
3.400000e-07	-5.313800e-06	-1.299519e-09	-3.683116e+01	-8.866195e+01
3.500000e-07	-5.299878e-06	-1.329905e-09	-3.673467e+01	-8.855808e+01
3.600000e-07	-5.285550e-06	-1.339662e-09	-3.663536e+01	-8.844227e+01
3.700000e-07	-5.270841e-06	-1.299402e-09	-3.653340e+01	-8.831466e+01
3.800000e-07	-5.255540e-06	-1.282975e-09	-3.642735e+01	-8.817549e+01
3.900000e-07	-5.239668e-06	-1.330072e-09	-3.631734e+01	-8.802517e+01
4.000000e-07	-5.223298e-06	-1.309732e-09	-3.620387e+01	-8.786424e+01
4.100000e-07	-5.206482e-06	-1.273909e-09	-3.608732e+01	-8.769338e+01
4.200000e-07	-5.189390e-06	-1.314955e-09	-3.596885e+01	-8.751339e+01
4.300000e-07	-5.172046e-06	-1.334087e-09	-3.584863e+01	-8.732517e+01
4.400000e-07	-5.154364e-06	-1.254476e-09	-3.572608e+01	-8.712973e+01
4.500000e-07	-5.136296e-06	-1.274388e-09	-3.560084e+01	-8.692814e+01
4.600000e-07	-5.117817e-06	-1.343531e-09	-3.547276e+01	-8.672155e+01
4.700000e-07	-5.098993e-06	-1.286294e-09	-3.534229e+01	-8.651113e+01
4.800000e-07	-5.079763e-06	-1.232609e-09	-3.520900e+01	-8.629809e+01
4.900000e-07	-5.060205e-06	-1.318640e-09	-3.507344e+01	-8.608362e+01
5.000000e-07	-5.040499e-06	-1.320249e-09	-3.493685e+01	-8.586891e+01
5.100000e-07	-5.020587e-06	-1.249639e-09	-3.479884e+01	-8.565508e+01
5.200000e-07	-5.000382e-06	-1.298656e-09	-3.465879e+01	-8.544320e+01
5.300000e-07	-4.979900e-06	-1.332123e-09	-3.451683e+01	-8.523427e+01
5.400000e-07	-4.959026e-06	-1.240341e-09	-3.437215e+01	-8.502917e+01
5.500000e-07	-4.937748e-06	-1.247552e-09	-3.422466e+01	-8.482870e+01
5.600000e-07	-4.916210e-06	-1.323877e-09	-3.407538e+01	-8.463349e+01
5.700000e-07	-4.894332e-06	-1.262586e-09	-3.392373e+01	-8.444406e+01
5.800000e-07	-4.872096e-06	-1.218923e-09	-3.376961e+01	-8.426079e+01
5.900000e-07	-4.849485e-06	-1.293477e-09	-3.361289e+01	-8.408391e+01
6.000000e-07	-4.826428e-06	-1.280392e-09	-3.345308e+01	-8.391347e+01
6.100000e-07	-4.803103e-06	-1.214163e-09	-3.329141e+01	-8.374941e+01
6.200000e-07	-4.779576e-06	-1.256965e-09	-3.312833e+01	-8.359150e+01
6.300000e-07	-4.755811e-06	-1.276128e-09	-3.296361e+01	-8.343937e+01
6.400000e-07	-4.731818e-06	-1.221843e-09	-3.279731e+01	-8.329254e+01
6.500000e-07	-4.707530e-06	-1.232281e-09	-3.262897e+01	-8.315038e+01
6.600000e-07	-4.682750e-06	-1.269193e-09	-3.245721e+01	-8.301217e+01
6.700000e-07	-4.657446e-06	-1.231597e-09	-3.228182e+01	-8.287711e+01
6.800000e-07	-4.631669e-06	-1.223949e-09	-3.210316e+01	-8.274431e+01
6.900000e-07	-4.605296e-06	-1.252060e-09	-3.192036e+01	-8.261283e+01
7.000000e-07	-4.578415e-06	-1.235781e-09	-3.173404e+01	-8.248169e+01
7.100000e-07	-4.551166e-06	-1.213558e-09	-3.154517e+01	-8.234989e+01
7.200000e-07	-4.523675e-06	-1.231702e-09	-3.135463e+01	-8.221645e+01
7.300000e-07	-4.496035e-06	-1.222360e-09	-3.116305e+01	-8.208039e+01
7.400000e-07	-4.468134e-06	-1.200530e-09	-3.096966e+01	-8.194076e+01
7.500000e-07	-4.439941e-06	-1.211663e-09	-3.077425e+01	-8.179668e+01
7.600000e-07	-4.411556e-06	-1.221529e-09	-3.057751e+01	-8.164733e+01
7.700000e-07	-4.382892e-06	-1.205484e-09	-3.037883e+01	-8.149197e+01
7.800000e-07	-4.353827e-06	-1.204524e-09	-3.017737e+01	-8.132996e+01
7.900000e-07	-4.324468e-06	-1.202150e-09	-2.997388e+01	-8.116073e+01
8.000000e-07	-4.294810e-06	-1.185138e-09	-2.976831e+01	-8.098386e+01
8.100000e-07	-4.264810e-06	-1.179801e-09	-2.956037e+01	-8.079900e+01
8.200000e-07	-4.234567e-06	-1.188408e-09	-2.935075e+01	-8.060593e+01
8.300000e-07	-4.204079e-06	-1.181303e-09	-2.913944e+01	-8.040453e+01
8.400000e-07	-4.173286e-06	-1.176744e-09	-2.892600e+01	-8.019479e+01
8.500000e-07	-4.142205e-06	-1.186214e-09	-2.871057e+01	-7.997681e+01
8.600000e-07	-4.110885e-06	-1.178650e-09	-2.849348e+01	-7.975076e+01
8.700000e-07	-4.079397e-06	-1.159502e-09	-2.827524e+01	-7.951691e+01
8.800000e-07	-4.047730e-06	-1.157408e-09	-2.805574e+01	-7.927561e+01
8.900000e-07	-4.015836e-06	-1.155052e-09	-2.783468e+01	-7.902724e+01
9.000000e-07	-3.983730e-06	-1.139541e-09	-2.761215e+01	-7.877225e+01
9.100000e-07	-3.951339e-06	-1.139936e-09	-2.738763e+01	-7.851113e+01
9.200000e-07	-3.918523e-06	-1.145561e-09	-2.716018e+01	-7.824436e+01
9.300000e-07	-3.885279e-06	-1.135813e-09	-2.692976e+01	-7.797246e+01
9.400000e-07	-3.851662e-06	-1.128466e-09	-2.669675e+01	-7.769593e+01
9.500000e-07	-3.817607e-06	-1.132412e-09	-2.646071e+01	-7.741525e+01
9.600000e-07	-3.783031e-06	-1.118836e-09	-2.622105e+01	-7.713086e+01
9.700000e-07	-3.747984e-06	-1.101281e-09	-2.597814e+01	-7.684319e+01
9.800000e-07	-3.712673e-06	-1.099308e-09	-2.573338e+01	-7.655260e+01
9.900000e-07	-3.677206e-06	-1.096484e-09	-2.548755e+01	-7.625939e+01
1.000000e-06	-3.641591e-06	-1.084198e-09	-2.524070e+01	-7.596382e+01
1.010000e-06	-3.605840e-06	-1.087292e-09	-2.499290e+01	-7.566608e+01
1.020000e-06	-3.569951e-06	-1.093528e-09	-2.474415e+01	-7.536628e+01
1.030000e-06	-3.533894e-06	-1.085856e-09	-2.449423e+01	-7.506448e+01
1.040000e-06	-3.497694e-06	-1.078702e-09	-2.424332e+01	-7.476069e+01
1.050000e-06	-3.461263e-06	-1.079443e-09	-2.399081e+01	-7.445483e+01
1.060000e-06	-3.424467e-06	-1.068301e-09	-2.373577e+01	-7.414680e+01
1.070000e-06	-3.387353e-06	-1.056785e-09	-2.347852e+01	-7.383643e+01
1.080000e-06	-3.349996e-06	-1.058065e-09	-2.321959e+01	-7.352351e+01
1.090000e-06	-3.312436e-06	-1.059388e-09	-2.295925e+01	-7.320781e+01
1.100000e-06	-3.274654e-06	-1.052767e-09	-2.269738e+01	-7.288909e+01
1.110000e-06	-3.236623e-06	-1.051075e-09	-2.243377e+01	-7.256706e+01
1.120000e-06	-3.198300e-06	-1.050968e-09	-2.216815e+01	-7.224144e+01
1.130000e-06	-3.159795e-06	-1.043288e-09	-2.190126e+01	-7.191198e+01
1.140000e-06	-3.121112e-06	-1.036340e-09	-2.163314e+01	-7.157841e+01
1.150000e-06	-3.082194e-06	-1.034164e-09	-2.136339e+01	-7.124049e+01
1.160000e-06	-3.043084e-06	-1.026821e-09	-2.109231e+01	-7.089801e+01
1.170000e-06	-3.003836e-06	-1.017424e-09	-2.082027e+01	-7.055077e+01
1.180000e-06	-2.964503e-06	-1.014827e-09	-2.054765e+01	-7.019865e+01
1.190000e-06	-2.924986e-06	-1.010591e-09	-2.027375e+01	-6.984153e+01
1.200000e-06	-2.885259e-06	-1.002830e-09	-1.999839e+01	-6.947933e+01
1.210000e-06	-2.845371e-06	-9.974373e-10	-1.972191e+01	-6.911203e+01
1.220000e-06	-2.805336e-06	-9.935940e-10	-1.944443e+01	-6.873964e+01
1.230000e-06	-2.765138e-06	-9.857358e-10	-1.916581e+01	-6.836221e+01
1.240000e-06	-2.724820e-06	-9.823243e-10	-1.888635e+01	-6.797980e+01
1.250000e-06	-2.684326e-06	-9.804811e-10	-1.860568e+01	-6.759251e+01
1.260000e-06	-2.643475e-06	-9.763260e-10	-1.832253e+01	-6.720047e+01
1.270000e-06	-2.602324e-06	-9.719978e-10	-1.803730e+01	-6.680380e+01
1.280000e-06	-2.560918e-06	-9.693175e-10	-1.775031e+01	-6.640265e+01
1.290000e-06	-2.519264e-06	-9.626801e-10	-1.746160e+01	-6.599714e+01
1.300000e-06	-2.477365e-06	-9.516921e-10	-1.717119e+01	-6.558740e+01
1.310000e-06	-2.435148e-06	-9.409733e-10	-1.687857e+01	-6.517353e+01
1.320000e-06	-2.392522e-06	-9.327885e-10	-1.658312e+01	-6.475559e+01
1.330000e-06	-2.349516e-06	-9.232363e-10	-1.628503e+01	-6.433363e+01
1.340000e-06	-2.306274e-06	-9.160943e-10	-1.598531e+01	-6.390765e+01
1.350000e-06	-2.262859e-06	-9.116045e-10	-1.568439e+01	-6.347759e+01
1.360000e-06	-2.219336e-06	-9.039282e-10	-1.538273e+01	-6.304335e+01
1.370000e-06	-2.175734e-06	-8.932771e-10	-1.508051e+01	-6.260478e+01
1.380000e-06	-2.132056e-06	-8.829724e-10	-1.477777e+01	-6.216165e+01
1.390000e-06	-2.088339e-06	-8.733234e-10	-1.447475e+01	-6.171371e+01
1.400000e-06	-2.044571e-06	-8.653614e-10	-1.417139e+01	-6.126060e+01
1.410000e-06	-2.000692e-06	-8.594325e-10	-1.386726e+01	-6.080194e+01
1.420000e-06	-1.956737e-06	-8.531077e-10	-1.356259e+01	-6.033728e+01
1.430000e-06	-1.912743e-06	-8.448737e-10	-1.325766e+01	-5.986613e+01
1.440000e-06	-1.868652e-06	-8.373316e-10	-1.295206e+01	-5.938794e+01
1.450000e-06	-1.824430e-06	-8.310475e-10	-1.264554e+01	-5.890213e+01
1.460000e-06	-1.780033e-06	-8.216201e-10	-1.233782e+01	-5.840808e+01
1.470000e-06	-1.735560e-06	-8.099247e-10	-1.202957e+01	-5.790512e+01
1.480000e-06	-1.690991e-06	-7.993386e-10	-1.172064e+01	-5.739260e+01
1.490000e-06	-1.646170e-06	-7.905916e-10	-1.140998e+01	-5.686983e+01
1.500000e-06	-1.601210e-06	-7.826668e-10	-1.109836e+01	-5.633609e+01
1.510000e-06	-1.556157e-06	-7.759470e-10	-1.078608e+01	-5.579070e+01
1.520000e-06	-1.510921e-06	-7.692616e-10	-1.047254e+01	-5.523295e+01
1.530000e-06	-1.465623e-06	-7.618724e-10	-1.015857e+01	-5.466214e+01
1.540000e-06	-1.420333e-06	-7.514851e-10	-9.844653e+00	-5.407760e+01
1.550000e-06	-1.374887e-06	-7.403992e-10	-9.529658e+00	-5.347866e+01
1.560000e-06	-1.329283e-06	-7.293543e-10	-9.213562e+00	-5.286465e+01
1.570000e-06	-1.283562e-06	-7.178395e-10	-8.896663e+00	-5.223495e+01
1.580000e-06	-1.237791e-06	-7.049105e-10	-8.579414e+00	-5.158892e+01
1.590000e-06	-1.192068e-06	-6.941988e-10	-8.262493e+00	-5.092597e+01
1.600000e-06	-1.146214e-06	-6.867386e-10	-7.944669e+00	-5.024550e+01
1.610000e-06	-1.100136e-06	-6.778593e-10	-7.625297e+00	-4.954692e+01
1.620000e-06	-1.053999e-06	-6.656988e-10	-7.305511e+00	-4.882966e+01
1.630000e-06	-1.007851e-06	-6.535142e-10	-6.985648e+00	-4.809313e+01
1.640000e-06	-9.616601e-07	-6.415151e-10	-6.665486e+00	-4.733677e+01
1.650000e-06	-9.153974e-07	-6.280225e-10	-6.344829e+00	-4.655997e+01
1.660000e-06	-8.690148e-07	-6.134595e-10	-6.023340e+00	-4.576215e+01
1.670000e-06	-8.225288e-07	-6.004888e-10	-5.701136e+00	-4.494269e+01
1.680000e-06	-7.759933e-07	-5.899439e-10	-5.378587e+00	-4.410094e+01
1.690000e-06	-7.293636e-07	-5.778511e-10	-5.055386e+00	-4.323625e+01
1.700000e-06	-6.827334e-07	-5.637928e-10	-4.732182e+00	-4.234793e+01
1.710000e-06	-6.361163e-07	-5.490419e-10	-4.409068e+00	-4.143526e+01
1.720000e-06	-5.895057e-07	-5.337207e-10	-4.085999e+00	-4.049752e+01
1.730000e-06	-5.429432e-07	-5.200151e-10	-3.763264e+00	-3.953394e+01
1.740000e-06	-4.962292e-07	-5.069658e-10	-3.439478e+00	-3.854374e+01
1.750000e-06	-4.493899e-07	-4.942013e-10	-3.114824e+00	-3.752612e+01
1.760000e-06	-4.024758e-07	-4.790720e-10	-2.789652e+00	-3.648028e+01
1.770000e-06	-3.554684e-07	-4.612089e-10	-2.463833e+00	-3.540542e+01
1.780000e-06	-3.085158e-07	-4.410867e-10	-2.138394e+00	-3.430074e+01
1.790000e-06	-2.615464e-07	-4.246044e-10	-1.812838e+00	-3.316549e+01
1.800000e-06	-2.144688e-07	-4.111544e-10	-1.486532e+00	-3.199893e+01
1.810000e-06	-1.674120e-07	-3.951046e-10	-1.160371e+00	-3.080039e+01
1.820000e-06	-1.204149e-07	-3.793141e-10	-8.346233e-01	-2.956925e+01
1.830000e-06	-7.342195e-08	-3.638417e-10	-5.089044e-01	-2.830498e+01
1.840000e-06	-2.639470e-08	-3.478228e-10	-1.829477e-01	-2.700715e+01
1.850000e-06	2.064089e-08	-3.307177e-10	1.430667e-01	-2.567544e+01
1.860000e-06	6.768426e-08	-3.099582e-10	4.691351e-01	-2.430966e+01
1.870000e-06	1.147117e-07	-2.860169e-10	7.950931e-01	-2.290977e+01
1.880000e-06	1.617282e-07	-2.642234e-10	1.120975e+00	-2.147587e+01
1.890000e-06	2.087416e-07	-2.459791e-10	1.446836e+00	-2.000825e+01
1.900000e-06	2.557583e-07	-2.291997e-10	1.772719e+00	-1.850737e+01
1.910000e-06	3.027634e-07	-2.098169e-10	2.098523e+00	-1.697389e+01
1.920000e-06	3.496631e-07	-1.919149e-10	2.423595e+00	-1.540866e+01
1.930000e-06	3.964839e-07	-1.702614e-10	2.748121e+00	-1.381273e+01
1.940000e-06	4.432633e-07	-1.451388e-10	3.072360e+00	-1.218734e+01
1.950000e-06	4.900632e-07	-1.199557e-10	3.396740e+00	-1.053397e+01
1.960000e-06	5.368454e-07	-9.617729e-11	3.720998e+00	-8.854255e+00
1.970000e-06	5.834952e-07	-7.455772e-11	4.044339e+00	-7.150037e+00
1.980000e-06	6.301113e-07	-5.290242e-11	4.367446e+00	-5.423339e+00
1.990000e-06	6.767350e-07	-3.088280e-11	4.690605e+00	-3.676350e+00
2.000000e-06	7.232716e-07	-6.731391e-12	5.013161e+00	-1.911411e+00
2.010000e-06	7.696666e-07	2.071653e-11	5.334735e+00	-1.309998e-01
2.020000e-06	8.160074e-07	5.127682e-11	5.655934e+00	1.662290e+00
2.030000e-06	8.623710e-07	7.896792e-11	5.977291e+00	3.465770e+00
2.040000e-06	9.086660e-07	1.026293e-10	6.298172e+00	5.276679e+00
2.050000e-06	9.548793e-07	1.250849e-10	6.618487e+00	7.092206e+00
2.060000e-06	1.000990e-06	1.493882e-10	6.938092e+00	8.909519e+00
2.070000e-06	1.046999e-06	1.748262e-10	7.256987e+00	1.072578e+01
2.080000e-06	1.092965e-06	2.006929e-10	7.575592e+00	1.253819e+01
2.090000e-06	1.138905e-06	2.286609e-10	7.894011e+00	1.434398e+01
2.100000e-06	1.184775e-06	2.560294e-10	8.211949e+00	1.614046e+01
2.110000e-06	1.230534e-06	2.821366e-10	8.529116e+00	1.792505e+01
2.120000e-06	1.276199e-06	3.073884e-10	8.845628e+00	1.969526e+01
2.130000e-06	1.321754e-06	3.297094e-10	9.161379e+00	2.144874e+01
2.140000e-06	1.367230e-06	3.501947e-10	9.476585e+00	2.318332e+01
2.150000e-06	1.412621e-06	3.705469e-10	9.791201e+00	2.489694e+01
2.160000e-06	1.457938e-06	3.942321e-10	1.010530e+01	2.658775e+01
2.170000e-06	1.503223e-06	4.195617e-10	1.041918e+01	2.825408e+01
2.180000e-06	1.548364e-06	4.439806e-10	1.073206e+01	2.989443e+01
2.190000e-06	1.593298e-06	4.682940e-10	1.104351e+01	3.150752e+01
2.200000e-06	1.638177e-06	4.913500e-10	1.135458e+01	3.309223e+01
2.210000e-06	1.682946e-06	5.115594e-10	1.166489e+01	3.464764e+01
2.220000e-06	1.727548e-06	5.279188e-10	1.197403e+01	3.617302e+01
2.230000e-06	1.772033e-06	5.438002e-10	1.228237e+01	3.766781e+01
2.240000e-06	1.816333e-06	5.605770e-10	1.258942e+01	3.913162e+01
2.250000e-06	1.860431e-06	5.764575e-10	1.289507e+01	4.056420e+01
2.260000e-06	1.904458e-06	5.950610e-10	1.320024e+01	4.196545e+01
2.270000e-06	1.948467e-06	6.189125e-10	1.350527e+01	4.333540e+01
2.280000e-06	1.992398e-06	6.413120e-10	1.380976e+01	4.467418e+01
2.290000e-06	2.036251e-06	6.621199e-10	1.411372e+01	4.598204e+01
2.300000e-06	2.080019e-06	6.784759e-10	1.441709e+01	4.725927e+01
2.310000e-06	2.123728e-06	6.901070e-10	1.472005e+01	4.850626e+01
2.320000e-06	2.167389e-06	7.011328e-10	1.502267e+01	4.972343e+01
2.330000e-06	2.210986e-06	7.143884e-10	1.532485e+01	5.091123e+01
2.340000e-06	2.254495e-06	7.300768e-10	1.562642e+01	5.207015e+01
2.350000e-06	2.297894e-06	7.461990e-10	1.592723e+01	5.320067e+01
2.360000e-06	2.341125e-06	7.628534e-10	1.622687e+01	5.430328e+01
2.370000e-06	2.384189e-06	7.766023e-10	1.652536e+01	5.537844e+01
2.380000e-06	2.427113e-06	7.895607e-10	1.682287e+01	5.642661e+01
2.390000e-06	2.469637e-06	8.029403e-10	1.711762e+01	5.744821e+01
2.400000e-06	2.511615e-06	8.170681e-10	1.740858e+01	5.844365e+01
2.410000e-06	2.553267e-06	8.307576e-10	1.769728e+01	5.941329e+01
2.420000e-06	2.594615e-06	8.443795e-10	1.798387e+01	6.035747e+01
2.430000e-06	2.635569e-06	8.569820e-10	1.826773e+01	6.127649e+01
2.440000e-06	2.676224e-06	8.688760e-10	1.854952e+01	6.217064e+01
2.450000e-06	2.716666e-06	8.805277e-10	1.882983e+01	6.304017e+01
2.460000e-06	2.756887e-06	8.907267e-10	1.910862e+01	6.388531e+01
2.470000e-06	2.796938e-06	9.009207e-10	1.938622e+01	6.470630e+01
2.480000e-06	2.836855e-06	9.122122e-10	1.966289e+01	6.550336e+01
2.490000e-06	2.876671e-06	9.236816e-10	1.993886e+01	6.627671e+01
2.500000e-06	2.916420e-06	9.344756e-10	2.021438e+01	6.702657e+01
2.510000e-06	2.956072e-06	9.440908e-10	2.048921e+01	6.775319e+01
2.520000e-06	2.995569e-06	9.534770e-10	2.076297e+01	6.845684e+01
2.530000e-06	3.034879e-06	9.623775e-10	2.103544e+01	6.913781e+01
2.540000e-06	3.073920e-06	9.706694e-10	2.130605e+01	6.979644e+01
2.550000e-06	3.112653e-06	9.784028e-10	2.157451e+01	7.043307e+01
2.560000e-06	3.151167e-06	9.861657e-10	2.184146e+01	7.104813e+01
2.570000e-06	3.189402e-06	9.952197e-10	2.210648e+01	7.164205e+01
2.580000e-06	3.227386e-06	1.003881e-09	2.236975e+01	7.221534e+01
2.590000e-06	3.265227e-06	1.012026e-09	2.263204e+01	7.276853e+01
2.600000e-06	3.302924e-06	1.019250e-09	2.289332e+01	7.330219e+01
2.610000e-06	3.340455e-06	1.025236e-09	2.315346e+01	7.381696e+01
2.620000e-06	3.377790e-06	1.031618e-09	2.341224e+01	7.431348e+01
2.630000e-06	3.414914e-06	1.038986e-09	2.366955e+01	7.479246e+01
2.640000e-06	3.451743e-06	1.045631e-09	2.392482e+01	7.525459e+01
2.650000e-06	3.488219e-06	1.051446e-09	2.417764e+01	7.570063e+01
2.660000e-06	3.524407e-06	1.058008e-09	2.442847e+01	7.613133e+01
2.670000e-06	3.560413e-06	1.065967e-09	2.467804e+01	7.654745e+01
2.680000e-06	3.596270e-06	1.074051e-09	2.492657e+01	7.694974e+01
2.690000e-06	3.632015e-06	1.082170e-09	2.517433e+01	7.733897e+01
2.700000e-06	3.667674e-06	1.088443e-09	2.542149e+01	7.771587e+01
2.710000e-06	3.703211e-06	1.094174e-09	2.566780e+01	7.808117e+01
2.720000e-06	3.738619e-06	1.100600e-09	2.591322e+01	7.843556e+01
2.730000e-06	3.773762e-06	1.106817e-09	2.615681e+01	7.877969e+01
2.740000e-06	3.808465e-06	1.112186e-09	2.639734e+01	7.911420e+01
2.750000e-06	3.842717e-06	1.118047e-09	2.663475e+01	7.943968e+01
2.760000e-06	3.876575e-06	1.124101e-09	2.686943e+01	7.975665e+01
2.770000e-06	3.909932e-06	1.129880e-09	2.710064e+01	8.006562e+01
2.780000e-06	3.942703e-06	1.135575e-09	2.732778e+01	8.036703e+01
2.790000e-06	3.975055e-06	1.140150e-09	2.755201e+01	8.066129e+01
2.800000e-06	4.007124e-06	1.144288e-09	2.777429e+01	8.094876e+01
2.810000e-06	4.038989e-06	1.148744e-09	2.799516e+01	8.122974e+01
2.820000e-06	4.070754e-06	1.154065e-09	2.821533e+01	8.150450e+01
2.830000e-06	4.102398e-06	1.161058e-09	2.843466e+01	8.177328e+01
2.840000e-06	4.133870e-06	1.168998e-09	2.865280e+01	8.203628e+01
2.850000e-06	4.165097e-06	1.175623e-09	2.886924e+01	8.229365e+01
2.860000e-06	4.195921e-06	1.181014e-09	2.908289e+01	8.254554e+01
2.870000e-06	4.226315e-06	1.186551e-09	2.929355e+01	8.279207e+01
2.880000e-06	4.256455e-06	1.191715e-09	2.950246e+01	8.303333e+01
2.890000e-06	4.286321e-06	1.195197e-09	2.970947e+01	8.326942e+01
2.900000e-06	4.315893e-06	1.198662e-09	2.991445e+01	8.350040e+01
