# Temperatura_=_-28.25
# Concentracion g/m^3_=_1620.0
# C_Vs_to_Am_M_A/Vsm_=_65563218390.804596
# pendiente_HvsI_1/m_=_3716.3
# ordenada_HvsI_A/m_=_1297.0
# frecuencia_Hz_=_135110.7835408034

Tiempo_(s)	Campo_(V.s)	Magnetizacion_(V.s)	Campo_(kA/m)	Magnetizacion_(A/m)
0.000000e+00	-5.511269e-06	-9.016586e-10	-3.835121e+01	-5.964595e+01
1.000000e-08	-5.511453e-06	-9.031726e-10	-3.835249e+01	-5.967122e+01
2.000000e-08	-5.511406e-06	-9.040495e-10	-3.835216e+01	-5.969164e+01
3.000000e-08	-5.510881e-06	-9.035740e-10	-3.834851e+01	-5.970651e+01
4.000000e-08	-5.509820e-06	-8.996255e-10	-3.834113e+01	-5.971516e+01
5.000000e-08	-5.508164e-06	-8.921078e-10	-3.832960e+01	-5.971696e+01
6.000000e-08	-5.505903e-06	-8.849298e-10	-3.831387e+01	-5.971137e+01
7.000000e-08	-5.503191e-06	-8.868421e-10	-3.829500e+01	-5.969791e+01
8.000000e-08	-5.499953e-06	-8.915763e-10	-3.827247e+01	-5.967619e+01
9.000000e-08	-5.496174e-06	-8.878299e-10	-3.824617e+01	-5.964592e+01
1.000000e-07	-5.491969e-06	-8.944933e-10	-3.821691e+01	-5.960689e+01
1.100000e-07	-5.487428e-06	-9.028494e-10	-3.818531e+01	-5.955901e+01
1.200000e-07	-5.482686e-06	-8.905694e-10	-3.815231e+01	-5.950228e+01
1.300000e-07	-5.477752e-06	-8.606416e-10	-3.811798e+01	-5.943681e+01
1.400000e-07	-5.472440e-06	-8.758567e-10	-3.808101e+01	-5.936282e+01
1.500000e-07	-5.466730e-06	-9.095446e-10	-3.804127e+01	-5.928065e+01
1.600000e-07	-5.460657e-06	-9.033833e-10	-3.799902e+01	-5.919070e+01
1.700000e-07	-5.454097e-06	-8.604888e-10	-3.795337e+01	-5.909350e+01
1.800000e-07	-5.447109e-06	-8.699681e-10	-3.790474e+01	-5.898967e+01
1.900000e-07	-5.439830e-06	-8.994711e-10	-3.785409e+01	-5.887989e+01
2.000000e-07	-5.432300e-06	-8.702491e-10	-3.780169e+01	-5.876494e+01
2.100000e-07	-5.424457e-06	-8.328238e-10	-3.774711e+01	-5.864563e+01
2.200000e-07	-5.416320e-06	-8.287781e-10	-3.769049e+01	-5.852286e+01
2.300000e-07	-5.407926e-06	-8.608254e-10	-3.763208e+01	-5.839754e+01
2.400000e-07	-5.399004e-06	-8.438457e-10	-3.756999e+01	-5.827063e+01
2.500000e-07	-5.389368e-06	-8.296560e-10	-3.750294e+01	-5.814310e+01
2.600000e-07	-5.379094e-06	-8.255732e-10	-3.743145e+01	-5.801591e+01
2.700000e-07	-5.368287e-06	-8.458111e-10	-3.735624e+01	-5.789003e+01
2.800000e-07	-5.356938e-06	-8.409473e-10	-3.727727e+01	-5.776640e+01
2.900000e-07	-5.345184e-06	-8.283250e-10	-3.719548e+01	-5.764594e+01
3.000000e-07	-5.333162e-06	-8.236323e-10	-3.711182e+01	-5.752951e+01
3.100000e-07	-5.320791e-06	-8.429823e-10	-3.702574e+01	-5.741794e+01
3.200000e-07	-5.307960e-06	-8.497403e-10	-3.693645e+01	-5.731197e+01
3.300000e-07	-5.294669e-06	-8.341908e-10	-3.684396e+01	-5.721228e+01
3.400000e-07	-5.281004e-06	-8.312104e-10	-3.674887e+01	-5.711949e+01
3.500000e-07	-5.266928e-06	-8.505648e-10	-3.665092e+01	-5.703412e+01
3.600000e-07	-5.252356e-06	-8.546734e-10	-3.654951e+01	-5.695661e+01
3.700000e-07	-5.237331e-06	-8.293329e-10	-3.644496e+01	-5.688730e+01
3.800000e-07	-5.221692e-06	-8.339477e-10	-3.633614e+01	-5.682645e+01
3.900000e-07	-5.205482e-06	-8.472584e-10	-3.622334e+01	-5.677422e+01
4.000000e-07	-5.188846e-06	-8.350541e-10	-3.610757e+01	-5.673069e+01
4.100000e-07	-5.171894e-06	-8.288433e-10	-3.598961e+01	-5.669585e+01
4.200000e-07	-5.154737e-06	-8.609510e-10	-3.587022e+01	-5.666958e+01
4.300000e-07	-5.137291e-06	-8.486910e-10	-3.574881e+01	-5.665172e+01
4.400000e-07	-5.119492e-06	-8.178776e-10	-3.562495e+01	-5.664201e+01
4.500000e-07	-5.101251e-06	-8.330387e-10	-3.549802e+01	-5.664011e+01
4.600000e-07	-5.082603e-06	-8.550645e-10	-3.536826e+01	-5.664565e+01
4.700000e-07	-5.063620e-06	-8.192328e-10	-3.523616e+01	-5.665817e+01
4.800000e-07	-5.044358e-06	-8.233643e-10	-3.510212e+01	-5.667720e+01
4.900000e-07	-5.024884e-06	-8.611229e-10	-3.496661e+01	-5.670221e+01
5.000000e-07	-5.005197e-06	-8.504403e-10	-3.482961e+01	-5.673262e+01
5.100000e-07	-4.985209e-06	-8.229793e-10	-3.469052e+01	-5.676787e+01
5.200000e-07	-4.964912e-06	-8.509113e-10	-3.454928e+01	-5.680736e+01
5.300000e-07	-4.944213e-06	-8.481803e-10	-3.440524e+01	-5.685047e+01
5.400000e-07	-4.923128e-06	-8.116461e-10	-3.425852e+01	-5.689662e+01
5.500000e-07	-4.901745e-06	-8.242691e-10	-3.410972e+01	-5.694520e+01
5.600000e-07	-4.880018e-06	-8.497232e-10	-3.395853e+01	-5.699563e+01
5.700000e-07	-4.857900e-06	-8.212530e-10	-3.380462e+01	-5.704734e+01
5.800000e-07	-4.835371e-06	-8.170602e-10	-3.364784e+01	-5.709980e+01
5.900000e-07	-4.812489e-06	-8.473187e-10	-3.348862e+01	-5.715249e+01
6.000000e-07	-4.789342e-06	-8.360054e-10	-3.332754e+01	-5.720494e+01
6.100000e-07	-4.765961e-06	-8.134189e-10	-3.316484e+01	-5.725669e+01
6.200000e-07	-4.742360e-06	-8.325081e-10	-3.300061e+01	-5.730733e+01
6.300000e-07	-4.718571e-06	-8.398858e-10	-3.283507e+01	-5.735650e+01
6.400000e-07	-4.694552e-06	-8.221927e-10	-3.266793e+01	-5.740385e+01
6.500000e-07	-4.670173e-06	-8.308142e-10	-3.249828e+01	-5.744908e+01
6.600000e-07	-4.645319e-06	-8.434552e-10	-3.232533e+01	-5.749194e+01
6.700000e-07	-4.619838e-06	-8.345526e-10	-3.214802e+01	-5.753219e+01
6.800000e-07	-4.593692e-06	-8.322281e-10	-3.196608e+01	-5.756966e+01
6.900000e-07	-4.566978e-06	-8.447646e-10	-3.178019e+01	-5.760417e+01
7.000000e-07	-4.539835e-06	-8.388283e-10	-3.159130e+01	-5.763561e+01
7.100000e-07	-4.512414e-06	-8.305749e-10	-3.140049e+01	-5.766386e+01
7.200000e-07	-4.484795e-06	-8.338305e-10	-3.120830e+01	-5.768885e+01
7.300000e-07	-4.457049e-06	-8.366956e-10	-3.101522e+01	-5.771054e+01
7.400000e-07	-4.429156e-06	-8.285849e-10	-3.082112e+01	-5.772888e+01
7.500000e-07	-4.401027e-06	-8.319639e-10	-3.062538e+01	-5.774386e+01
7.600000e-07	-4.372641e-06	-8.366164e-10	-3.042785e+01	-5.775547e+01
7.700000e-07	-4.343965e-06	-8.344659e-10	-3.022831e+01	-5.776373e+01
7.800000e-07	-4.314916e-06	-8.307888e-10	-3.002616e+01	-5.776866e+01
7.900000e-07	-4.285487e-06	-8.337476e-10	-2.982138e+01	-5.777029e+01
8.000000e-07	-4.255761e-06	-8.316477e-10	-2.961452e+01	-5.776865e+01
8.100000e-07	-4.225761e-06	-8.287064e-10	-2.940576e+01	-5.776378e+01
8.200000e-07	-4.195482e-06	-8.289812e-10	-2.919506e+01	-5.775573e+01
8.300000e-07	-4.164908e-06	-8.305299e-10	-2.898230e+01	-5.774454e+01
8.400000e-07	-4.134093e-06	-8.297155e-10	-2.876787e+01	-5.773026e+01
8.500000e-07	-4.103025e-06	-8.338502e-10	-2.855168e+01	-5.771295e+01
8.600000e-07	-4.071681e-06	-8.343438e-10	-2.833357e+01	-5.769266e+01
8.700000e-07	-4.040154e-06	-8.302799e-10	-2.811418e+01	-5.766944e+01
8.800000e-07	-4.008426e-06	-8.287423e-10	-2.789340e+01	-5.764335e+01
8.900000e-07	-3.976484e-06	-8.273744e-10	-2.767112e+01	-5.761445e+01
9.000000e-07	-3.944282e-06	-8.235976e-10	-2.744703e+01	-5.758279e+01
9.100000e-07	-3.911760e-06	-8.242563e-10	-2.722072e+01	-5.754845e+01
9.200000e-07	-3.878871e-06	-8.267153e-10	-2.699186e+01	-5.751149e+01
9.300000e-07	-3.845621e-06	-8.244719e-10	-2.676048e+01	-5.747197e+01
9.400000e-07	-3.811953e-06	-8.235298e-10	-2.652620e+01	-5.742996e+01
9.500000e-07	-3.777861e-06	-8.254459e-10	-2.628896e+01	-5.738555e+01
9.600000e-07	-3.743341e-06	-8.209347e-10	-2.604875e+01	-5.733881e+01
9.700000e-07	-3.708342e-06	-8.127351e-10	-2.580520e+01	-5.728983e+01
9.800000e-07	-3.673014e-06	-8.133155e-10	-2.555936e+01	-5.723869e+01
9.900000e-07	-3.637490e-06	-8.142851e-10	-2.531217e+01	-5.718548e+01
1.000000e-06	-3.601838e-06	-8.137608e-10	-2.506407e+01	-5.713029e+01
1.010000e-06	-3.566113e-06	-8.138091e-10	-2.481548e+01	-5.707322e+01
1.020000e-06	-3.530277e-06	-8.156412e-10	-2.456610e+01	-5.701436e+01
1.030000e-06	-3.494246e-06	-8.132775e-10	-2.431537e+01	-5.695381e+01
1.040000e-06	-3.457989e-06	-8.137366e-10	-2.406307e+01	-5.689167e+01
1.050000e-06	-3.421435e-06	-8.145386e-10	-2.380871e+01	-5.682804e+01
1.060000e-06	-3.384588e-06	-8.112100e-10	-2.355230e+01	-5.676300e+01
1.070000e-06	-3.347470e-06	-8.071831e-10	-2.329400e+01	-5.669665e+01
1.080000e-06	-3.310067e-06	-8.093870e-10	-2.303373e+01	-5.662906e+01
1.090000e-06	-3.272485e-06	-8.087045e-10	-2.277221e+01	-5.656033e+01
1.100000e-06	-3.234742e-06	-8.056542e-10	-2.250957e+01	-5.649052e+01
1.110000e-06	-3.196741e-06	-8.065698e-10	-2.224513e+01	-5.641970e+01
1.120000e-06	-3.158502e-06	-8.088957e-10	-2.197903e+01	-5.634791e+01
1.130000e-06	-3.120000e-06	-8.059687e-10	-2.171111e+01	-5.627520e+01
1.140000e-06	-3.081241e-06	-8.033028e-10	-2.144140e+01	-5.620159e+01
1.150000e-06	-3.042311e-06	-8.031414e-10	-2.117050e+01	-5.612711e+01
1.160000e-06	-3.003232e-06	-8.006673e-10	-2.089856e+01	-5.605175e+01
1.170000e-06	-2.963990e-06	-7.968110e-10	-2.062549e+01	-5.597550e+01
1.180000e-06	-2.924576e-06	-7.977055e-10	-2.035121e+01	-5.589832e+01
1.190000e-06	-2.885008e-06	-7.989190e-10	-2.007587e+01	-5.582018e+01
1.200000e-06	-2.845317e-06	-7.968653e-10	-1.979968e+01	-5.574100e+01
1.210000e-06	-2.805498e-06	-7.938540e-10	-1.952259e+01	-5.566070e+01
1.220000e-06	-2.765546e-06	-7.886639e-10	-1.924457e+01	-5.557918e+01
1.230000e-06	-2.725474e-06	-7.856676e-10	-1.896573e+01	-5.549632e+01
1.240000e-06	-2.685244e-06	-7.876591e-10	-1.868578e+01	-5.541199e+01
1.250000e-06	-2.644797e-06	-7.915971e-10	-1.840432e+01	-5.532602e+01
1.260000e-06	-2.604044e-06	-7.911275e-10	-1.812073e+01	-5.523825e+01
1.270000e-06	-2.562991e-06	-7.891140e-10	-1.783506e+01	-5.514849e+01
1.280000e-06	-2.521741e-06	-7.858594e-10	-1.754801e+01	-5.505652e+01
1.290000e-06	-2.480236e-06	-7.814490e-10	-1.725919e+01	-5.496213e+01
1.300000e-06	-2.438324e-06	-7.748940e-10	-1.696754e+01	-5.486508e+01
1.310000e-06	-2.396091e-06	-7.722601e-10	-1.667365e+01	-5.476512e+01
1.320000e-06	-2.353640e-06	-7.734107e-10	-1.637825e+01	-5.466197e+01
1.330000e-06	-2.310882e-06	-7.744321e-10	-1.608071e+01	-5.455536e+01
1.340000e-06	-2.267778e-06	-7.748037e-10	-1.578076e+01	-5.444501e+01
1.350000e-06	-2.224475e-06	-7.748020e-10	-1.547943e+01	-5.433061e+01
1.360000e-06	-2.181029e-06	-7.715398e-10	-1.517710e+01	-5.421185e+01
1.370000e-06	-2.137468e-06	-7.675227e-10	-1.487398e+01	-5.408841e+01
1.380000e-06	-2.093880e-06	-7.646071e-10	-1.457066e+01	-5.395998e+01
1.390000e-06	-2.050204e-06	-7.621746e-10	-1.426673e+01	-5.382622e+01
1.400000e-06	-2.006442e-06	-7.600484e-10	-1.396221e+01	-5.368679e+01
1.410000e-06	-1.962625e-06	-7.594639e-10	-1.365730e+01	-5.354137e+01
1.420000e-06	-1.918725e-06	-7.577472e-10	-1.335181e+01	-5.338960e+01
1.430000e-06	-1.874697e-06	-7.542838e-10	-1.304543e+01	-5.323114e+01
1.440000e-06	-1.830620e-06	-7.508047e-10	-1.273872e+01	-5.306565e+01
1.450000e-06	-1.786486e-06	-7.473353e-10	-1.243160e+01	-5.289278e+01
1.460000e-06	-1.742185e-06	-7.439774e-10	-1.212332e+01	-5.271218e+01
1.470000e-06	-1.697772e-06	-7.404631e-10	-1.181427e+01	-5.252351e+01
1.480000e-06	-1.653174e-06	-7.379877e-10	-1.150392e+01	-5.232642e+01
1.490000e-06	-1.608404e-06	-7.332079e-10	-1.119238e+01	-5.212055e+01
1.500000e-06	-1.563547e-06	-7.293664e-10	-1.088024e+01	-5.190557e+01
1.510000e-06	-1.518540e-06	-7.284069e-10	-1.056705e+01	-5.168111e+01
1.520000e-06	-1.473370e-06	-7.283797e-10	-1.025273e+01	-5.144681e+01
1.530000e-06	-1.428138e-06	-7.270946e-10	-9.937972e+00	-5.120233e+01
1.540000e-06	-1.382893e-06	-7.230695e-10	-9.623124e+00	-5.094729e+01
1.550000e-06	-1.337515e-06	-7.176545e-10	-9.307350e+00	-5.068131e+01
1.560000e-06	-1.292015e-06	-7.100674e-10	-8.990733e+00	-5.040402e+01
1.570000e-06	-1.246473e-06	-7.020895e-10	-8.673818e+00	-5.011503e+01
1.580000e-06	-1.200787e-06	-6.975645e-10	-8.355906e+00	-4.981392e+01
1.590000e-06	-1.154924e-06	-6.956885e-10	-8.036755e+00	-4.950027e+01
1.600000e-06	-1.109013e-06	-6.928239e-10	-7.717275e+00	-4.917365e+01
1.610000e-06	-1.063125e-06	-6.865583e-10	-7.397958e+00	-4.883360e+01
1.620000e-06	-1.017203e-06	-6.791648e-10	-7.078401e+00	-4.847962e+01
1.630000e-06	-9.711954e-07	-6.720702e-10	-6.758248e+00	-4.811123e+01
1.640000e-06	-9.250965e-07	-6.653561e-10	-6.437459e+00	-4.772789e+01
1.650000e-06	-8.788875e-07	-6.578315e-10	-6.115905e+00	-4.732904e+01
1.660000e-06	-8.326105e-07	-6.500879e-10	-5.793878e+00	-4.691410e+01
1.670000e-06	-7.864223e-07	-6.416754e-10	-5.472469e+00	-4.648245e+01
1.680000e-06	-7.402135e-07	-6.349910e-10	-5.150916e+00	-4.603345e+01
1.690000e-06	-6.938619e-07	-6.291283e-10	-4.828370e+00	-4.556642e+01
1.700000e-06	-6.474629e-07	-6.225609e-10	-4.505493e+00	-4.508066e+01
1.710000e-06	-6.010368e-07	-6.171509e-10	-4.182429e+00	-4.457544e+01
1.720000e-06	-5.544895e-07	-6.124067e-10	-3.858521e+00	-4.405000e+01
1.730000e-06	-5.078700e-07	-6.049583e-10	-3.534110e+00	-4.350357e+01
1.740000e-06	-4.613328e-07	-5.941217e-10	-3.210272e+00	-4.293533e+01
1.750000e-06	-4.147989e-07	-5.819830e-10	-2.886457e+00	-4.234449e+01
1.760000e-06	-3.681019e-07	-5.706962e-10	-2.561507e+00	-4.173021e+01
1.770000e-06	-3.212740e-07	-5.614789e-10	-2.235646e+00	-4.109167e+01
1.780000e-06	-2.744963e-07	-5.534998e-10	-1.910135e+00	-4.042803e+01
1.790000e-06	-2.277882e-07	-5.456597e-10	-1.585108e+00	-3.973848e+01
1.800000e-06	-1.810773e-07	-5.359327e-10	-1.260060e+00	-3.902220e+01
1.810000e-06	-1.343529e-07	-5.244155e-10	-9.349203e-01	-3.827843e+01
1.820000e-06	-8.766200e-08	-5.112980e-10	-6.100126e-01	-3.750641e+01
1.830000e-06	-4.100946e-08	-4.980203e-10	-2.853721e-01	-3.670544e+01
1.840000e-06	5.734931e-09	-4.863938e-10	3.990761e-02	-3.587487e+01
1.850000e-06	5.251046e-08	-4.760787e-10	3.654040e-01	-3.501411e+01
1.860000e-06	9.917170e-08	-4.647532e-10	6.901051e-01	-3.412263e+01
1.870000e-06	1.457971e-07	-4.506734e-10	1.014557e+00	-3.320001e+01
1.880000e-06	1.925738e-07	-4.359769e-10	1.340062e+00	-3.224589e+01
1.890000e-06	2.394409e-07	-4.225053e-10	1.666195e+00	-3.126003e+01
1.900000e-06	2.862242e-07	-4.087856e-10	1.991746e+00	-3.024228e+01
1.910000e-06	3.329398e-07	-3.957021e-10	2.316825e+00	-2.919262e+01
1.920000e-06	3.796438e-07	-3.819311e-10	2.641823e+00	-2.811115e+01
1.930000e-06	4.262919e-07	-3.653906e-10	2.966433e+00	-2.699810e+01
1.940000e-06	4.727689e-07	-3.477875e-10	3.289852e+00	-2.585383e+01
1.950000e-06	5.191972e-07	-3.312266e-10	3.612932e+00	-2.467885e+01
1.960000e-06	5.656816e-07	-3.161296e-10	3.936403e+00	-2.347379e+01
1.970000e-06	6.121297e-07	-3.010745e-10	4.259621e+00	-2.223946e+01
1.980000e-06	6.584968e-07	-2.858641e-10	4.582275e+00	-2.097677e+01
1.990000e-06	7.047624e-07	-2.695155e-10	4.904223e+00	-1.968682e+01
2.000000e-06	7.509290e-07	-2.487243e-10	5.225482e+00	-1.837080e+01
2.010000e-06	7.970659e-07	-2.251855e-10	5.546534e+00	-1.703007e+01
2.020000e-06	8.431931e-07	-2.035257e-10	5.867519e+00	-1.566612e+01
2.030000e-06	8.892653e-07	-1.850185e-10	6.188122e+00	-1.428054e+01
2.040000e-06	9.352542e-07	-1.678238e-10	6.508144e+00	-1.287507e+01
2.050000e-06	9.812351e-07	-1.498465e-10	6.828111e+00	-1.145152e+01
2.060000e-06	1.027150e-06	-1.308324e-10	7.147616e+00	-1.001183e+01
2.070000e-06	1.072964e-06	-1.110408e-10	7.466425e+00	-8.557990e+00
2.080000e-06	1.118762e-06	-8.849643e-11	7.785119e+00	-7.092090e+00
2.090000e-06	1.164468e-06	-6.404523e-11	8.103169e+00	-5.616265e+00
2.100000e-06	1.210090e-06	-4.046104e-11	8.420638e+00	-4.132697e+00
2.110000e-06	1.255649e-06	-1.973140e-11	8.737669e+00	-2.643599e+00
2.120000e-06	1.301111e-06	-1.952751e-12	9.054025e+00	-1.151200e+00
2.130000e-06	1.346490e-06	1.442881e-11	9.369803e+00	3.422692e-01
2.140000e-06	1.391743e-06	3.231431e-11	9.684706e+00	1.834590e+00
2.150000e-06	1.436845e-06	5.358098e-11	9.998556e+00	3.323570e+00
2.160000e-06	1.481845e-06	7.656869e-11	1.031170e+01	4.807059e+00
2.170000e-06	1.526862e-06	9.861523e-11	1.062496e+01	6.282956e+00
2.180000e-06	1.571874e-06	1.182947e-10	1.093818e+01	7.749229e+00
2.190000e-06	1.616671e-06	1.376782e-10	1.124991e+01	9.203920e+00
2.200000e-06	1.661195e-06	1.554337e-10	1.155974e+01	1.064516e+01
2.210000e-06	1.705595e-06	1.695435e-10	1.186871e+01	1.207117e+01
2.220000e-06	1.749909e-06	1.839038e-10	1.217707e+01	1.348027e+01
2.230000e-06	1.794093e-06	2.012666e-10	1.248454e+01	1.487092e+01
2.240000e-06	1.838172e-06	2.202367e-10	1.279127e+01	1.624165e+01
2.250000e-06	1.882150e-06	2.399913e-10	1.309729e+01	1.759114e+01
2.260000e-06	1.926065e-06	2.620172e-10	1.340289e+01	1.891819e+01
2.270000e-06	1.969910e-06	2.833035e-10	1.370800e+01	2.022171e+01
2.280000e-06	2.013633e-06	3.006451e-10	1.401225e+01	2.150073e+01
2.290000e-06	2.057290e-06	3.156096e-10	1.431604e+01	2.275441e+01
2.300000e-06	2.100936e-06	3.296613e-10	1.461976e+01	2.398204e+01
2.310000e-06	2.144488e-06	3.451102e-10	1.492283e+01	2.518301e+01
2.320000e-06	2.187946e-06	3.614477e-10	1.522524e+01	2.635683e+01
2.330000e-06	2.231312e-06	3.778054e-10	1.552701e+01	2.750310e+01
2.340000e-06	2.274466e-06	3.950366e-10	1.582730e+01	2.862153e+01
2.350000e-06	2.317381e-06	4.117335e-10	1.612594e+01	2.971194e+01
2.360000e-06	2.360087e-06	4.261440e-10	1.642311e+01	3.077422e+01
2.370000e-06	2.402609e-06	4.373442e-10	1.671901e+01	3.180835e+01
2.380000e-06	2.444896e-06	4.486115e-10	1.701327e+01	3.281437e+01
2.390000e-06	2.486849e-06	4.614837e-10	1.730521e+01	3.379239e+01
2.400000e-06	2.528477e-06	4.747431e-10	1.759489e+01	3.474260e+01
2.410000e-06	2.569692e-06	4.889783e-10	1.788169e+01	3.566522e+01
2.420000e-06	2.610476e-06	5.029577e-10	1.816549e+01	3.656052e+01
2.430000e-06	2.651042e-06	5.161585e-10	1.844778e+01	3.742882e+01
2.440000e-06	2.691461e-06	5.263727e-10	1.872904e+01	3.827046e+01
2.450000e-06	2.731662e-06	5.339674e-10	1.900879e+01	3.908582e+01
2.460000e-06	2.771694e-06	5.434652e-10	1.928736e+01	3.987531e+01
2.470000e-06	2.811585e-06	5.555496e-10	1.956494e+01	4.063935e+01
2.480000e-06	2.851322e-06	5.678305e-10	1.984146e+01	4.137836e+01
2.490000e-06	2.890949e-06	5.794586e-10	2.011721e+01	4.209282e+01
2.500000e-06	2.930491e-06	5.908138e-10	2.039238e+01	4.278318e+01
2.510000e-06	2.969908e-06	6.001453e-10	2.066666e+01	4.344991e+01
2.520000e-06	3.009093e-06	6.077940e-10	2.093934e+01	4.409351e+01
2.530000e-06	3.048062e-06	6.156083e-10	2.121052e+01	4.471445e+01
2.540000e-06	3.086839e-06	6.228232e-10	2.148035e+01	4.531323e+01
2.550000e-06	3.125325e-06	6.308040e-10	2.174817e+01	4.589036e+01
2.560000e-06	3.163588e-06	6.399959e-10	2.201442e+01	4.644635e+01
2.570000e-06	3.201727e-06	6.485834e-10	2.227982e+01	4.698169e+01
2.580000e-06	3.239674e-06	6.557500e-10	2.254389e+01	4.749692e+01
2.590000e-06	3.277340e-06	6.622172e-10	2.280599e+01	4.799256e+01
2.600000e-06	3.314780e-06	6.684812e-10	2.306653e+01	4.846913e+01
2.610000e-06	3.352034e-06	6.733599e-10	2.332576e+01	4.892717e+01
2.620000e-06	3.389002e-06	6.785257e-10	2.358301e+01	4.936722e+01
2.630000e-06	3.425689e-06	6.845156e-10	2.383831e+01	4.978983e+01
2.640000e-06	3.462120e-06	6.894401e-10	2.409182e+01	5.019553e+01
2.650000e-06	3.498334e-06	6.933128e-10	2.434382e+01	5.058489e+01
2.660000e-06	3.534362e-06	6.988537e-10	2.459453e+01	5.095846e+01
2.670000e-06	3.570241e-06	7.057668e-10	2.484420e+01	5.131679e+01
2.680000e-06	3.605991e-06	7.103662e-10	2.509297e+01	5.166044e+01
2.690000e-06	3.641554e-06	7.138747e-10	2.534045e+01	5.198995e+01
2.700000e-06	3.676968e-06	7.173345e-10	2.558688e+01	5.230588e+01
2.710000e-06	3.712160e-06	7.211851e-10	2.583177e+01	5.260877e+01
2.720000e-06	3.746992e-06	7.275205e-10	2.607416e+01	5.289916e+01
2.730000e-06	3.781533e-06	7.350705e-10	2.631451e+01	5.317757e+01
2.740000e-06	3.815732e-06	7.418246e-10	2.655249e+01	5.344452e+01
2.750000e-06	3.849423e-06	7.474654e-10	2.678694e+01	5.370051e+01
2.760000e-06	3.882647e-06	7.524014e-10	2.701814e+01	5.394602e+01
2.770000e-06	3.915417e-06	7.555743e-10	2.724617e+01	5.418153e+01
2.780000e-06	3.947776e-06	7.572600e-10	2.747135e+01	5.440749e+01
2.790000e-06	3.979907e-06	7.590883e-10	2.769494e+01	5.462434e+01
2.800000e-06	4.011837e-06	7.619240e-10	2.791713e+01	5.483249e+01
2.810000e-06	4.043567e-06	7.661566e-10	2.813793e+01	5.503234e+01
2.820000e-06	4.075179e-06	7.714223e-10	2.835791e+01	5.522426e+01
2.830000e-06	4.106595e-06	7.767363e-10	2.857652e+01	5.540862e+01
2.840000e-06	4.137716e-06	7.803075e-10	2.879308e+01	5.558574e+01
2.850000e-06	4.168543e-06	7.816374e-10	2.900760e+01	5.575596e+01
2.860000e-06	4.199022e-06	7.823037e-10	2.921969e+01	5.591956e+01
2.870000e-06	4.229176e-06	7.842986e-10	2.942952e+01	5.607684e+01
2.880000e-06	4.259072e-06	7.879125e-10	2.963756e+01	5.622806e+01
2.890000e-06	4.288682e-06	7.924647e-10	2.984361e+01	5.637349e+01
2.900000e-06	4.317955e-06	7.974975e-10	3.004731e+01	5.651335e+01
