# Temperatura_=_-9.2
# Concentracion g/m^3_=_1620.0
# C_Vs_to_Am_M_A/Vsm_=_65563218390.804596
# pendiente_HvsI_1/m_=_3716.3
# ordenada_HvsI_A/m_=_1297.0
# frecuencia_Hz_=_135108.81827535448

Tiempo_(s)	Campo_(V.s)	Magnetizacion_(V.s)	Campo_(kA/m)	Magnetizacion_(A/m)
0.000000e+00	-5.514389e-06	-9.849622e-10	-3.837224e+01	-6.706847e+01
1.000000e-08	-5.514558e-06	-9.833340e-10	-3.837341e+01	-6.702478e+01
2.000000e-08	-5.514465e-06	-9.794414e-10	-3.837277e+01	-6.697985e+01
3.000000e-08	-5.514154e-06	-9.754239e-10	-3.837060e+01	-6.693385e+01
4.000000e-08	-5.513472e-06	-9.721314e-10	-3.836586e+01	-6.688699e+01
5.000000e-08	-5.512220e-06	-9.692457e-10	-3.835715e+01	-6.683948e+01
6.000000e-08	-5.510389e-06	-9.633727e-10	-3.834440e+01	-6.679153e+01
7.000000e-08	-5.507914e-06	-9.523306e-10	-3.832719e+01	-6.674334e+01
8.000000e-08	-5.504804e-06	-9.510645e-10	-3.830554e+01	-6.669511e+01
9.000000e-08	-5.501148e-06	-9.855151e-10	-3.828010e+01	-6.664701e+01
1.000000e-07	-5.497038e-06	-1.018991e-09	-3.825150e+01	-6.659919e+01
1.100000e-07	-5.492612e-06	-9.864638e-10	-3.822070e+01	-6.655176e+01
1.200000e-07	-5.488093e-06	-9.449786e-10	-3.818925e+01	-6.650480e+01
1.300000e-07	-5.483388e-06	-9.248297e-10	-3.815651e+01	-6.645834e+01
1.400000e-07	-5.478219e-06	-9.816453e-10	-3.812055e+01	-6.641238e+01
1.500000e-07	-5.472648e-06	-9.707597e-10	-3.808178e+01	-6.636685e+01
1.600000e-07	-5.466762e-06	-9.412332e-10	-3.804083e+01	-6.632165e+01
1.700000e-07	-5.460484e-06	-9.543319e-10	-3.799714e+01	-6.627661e+01
1.800000e-07	-5.453683e-06	-9.939313e-10	-3.794981e+01	-6.623154e+01
1.900000e-07	-5.446488e-06	-1.007137e-09	-3.789975e+01	-6.618619e+01
2.000000e-07	-5.438972e-06	-9.439775e-10	-3.784744e+01	-6.614026e+01
2.100000e-07	-5.431172e-06	-9.505915e-10	-3.779317e+01	-6.609343e+01
2.200000e-07	-5.423152e-06	-9.828123e-10	-3.773736e+01	-6.604534e+01
2.300000e-07	-5.414902e-06	-1.028085e-09	-3.767995e+01	-6.599562e+01
2.400000e-07	-5.406293e-06	-9.946141e-10	-3.762005e+01	-6.594387e+01
2.500000e-07	-5.397045e-06	-1.000329e-09	-3.755569e+01	-6.588970e+01
2.600000e-07	-5.386962e-06	-9.889245e-10	-3.748553e+01	-6.583272e+01
2.700000e-07	-5.376210e-06	-9.852880e-10	-3.741071e+01	-6.577253e+01
2.800000e-07	-5.365053e-06	-9.538333e-10	-3.733308e+01	-6.570878e+01
2.900000e-07	-5.353478e-06	-9.713159e-10	-3.725253e+01	-6.564114e+01
3.000000e-07	-5.341549e-06	-9.862038e-10	-3.716952e+01	-6.556933e+01
3.100000e-07	-5.329312e-06	-9.781515e-10	-3.708437e+01	-6.549311e+01
3.200000e-07	-5.316596e-06	-9.684007e-10	-3.699589e+01	-6.541228e+01
3.300000e-07	-5.303421e-06	-9.799155e-10	-3.690421e+01	-6.532674e+01
3.400000e-07	-5.289929e-06	-9.885804e-10	-3.681032e+01	-6.523642e+01
3.500000e-07	-5.276123e-06	-9.635776e-10	-3.671425e+01	-6.514136e+01
3.600000e-07	-5.261767e-06	-9.604788e-10	-3.661436e+01	-6.504163e+01
3.700000e-07	-5.246954e-06	-9.702416e-10	-3.651127e+01	-6.493741e+01
3.800000e-07	-5.231764e-06	-9.710478e-10	-3.640558e+01	-6.482894e+01
3.900000e-07	-5.215921e-06	-9.519181e-10	-3.629533e+01	-6.471654e+01
4.000000e-07	-5.199612e-06	-9.628178e-10	-3.618184e+01	-6.460059e+01
4.100000e-07	-5.182938e-06	-9.663205e-10	-3.606582e+01	-6.448155e+01
4.200000e-07	-5.165826e-06	-9.616453e-10	-3.594674e+01	-6.435992e+01
4.300000e-07	-5.148360e-06	-9.483482e-10	-3.582520e+01	-6.423626e+01
4.400000e-07	-5.130612e-06	-9.667455e-10	-3.570170e+01	-6.411117e+01
4.500000e-07	-5.112591e-06	-9.539879e-10	-3.557630e+01	-6.398528e+01
4.600000e-07	-5.094123e-06	-9.472450e-10	-3.544779e+01	-6.385925e+01
4.700000e-07	-5.075222e-06	-9.390626e-10	-3.531627e+01	-6.373373e+01
4.800000e-07	-5.056072e-06	-9.510803e-10	-3.518301e+01	-6.360939e+01
4.900000e-07	-5.036589e-06	-9.504259e-10	-3.504744e+01	-6.348687e+01
5.000000e-07	-5.016812e-06	-9.660042e-10	-3.490982e+01	-6.336679e+01
5.100000e-07	-4.996897e-06	-9.538517e-10	-3.477124e+01	-6.324974e+01
5.200000e-07	-4.976723e-06	-9.421319e-10	-3.463085e+01	-6.313625e+01
5.300000e-07	-4.956162e-06	-9.407278e-10	-3.448778e+01	-6.302680e+01
5.400000e-07	-4.935292e-06	-9.531882e-10	-3.434256e+01	-6.292181e+01
5.500000e-07	-4.914030e-06	-9.373728e-10	-3.419460e+01	-6.282161e+01
5.600000e-07	-4.892381e-06	-9.330849e-10	-3.404396e+01	-6.272648e+01
5.700000e-07	-4.870395e-06	-9.374178e-10	-3.389096e+01	-6.263658e+01
5.800000e-07	-4.848024e-06	-9.380874e-10	-3.373529e+01	-6.255200e+01
5.900000e-07	-4.825331e-06	-9.348035e-10	-3.357738e+01	-6.247276e+01
6.000000e-07	-4.802327e-06	-9.426324e-10	-3.341731e+01	-6.239875e+01
6.100000e-07	-4.778983e-06	-9.353560e-10	-3.325487e+01	-6.232981e+01
6.200000e-07	-4.755334e-06	-9.261659e-10	-3.309031e+01	-6.226568e+01
6.300000e-07	-4.731476e-06	-9.330100e-10	-3.292429e+01	-6.220601e+01
6.400000e-07	-4.707444e-06	-9.307141e-10	-3.275706e+01	-6.215040e+01
6.500000e-07	-4.683132e-06	-9.215712e-10	-3.258789e+01	-6.209838e+01
6.600000e-07	-4.658497e-06	-9.226451e-10	-3.241646e+01	-6.204941e+01
6.700000e-07	-4.633531e-06	-9.282545e-10	-3.224273e+01	-6.200292e+01
6.800000e-07	-4.608014e-06	-9.182351e-10	-3.206517e+01	-6.195828e+01
6.900000e-07	-4.581794e-06	-9.243381e-10	-3.188271e+01	-6.191486e+01
7.000000e-07	-4.555015e-06	-9.280530e-10	-3.169637e+01	-6.187199e+01
7.100000e-07	-4.527838e-06	-9.189495e-10	-3.150726e+01	-6.182902e+01
7.200000e-07	-4.500333e-06	-9.060242e-10	-3.131586e+01	-6.178530e+01
7.300000e-07	-4.472640e-06	-9.137849e-10	-3.112316e+01	-6.174017e+01
7.400000e-07	-4.444836e-06	-9.092658e-10	-3.092969e+01	-6.169304e+01
7.500000e-07	-4.416797e-06	-9.076934e-10	-3.073457e+01	-6.164332e+01
7.600000e-07	-4.388448e-06	-9.101788e-10	-3.053731e+01	-6.159049e+01
7.700000e-07	-4.359796e-06	-9.128104e-10	-3.033793e+01	-6.153405e+01
7.800000e-07	-4.330789e-06	-9.001255e-10	-3.013608e+01	-6.147358e+01
7.900000e-07	-4.301481e-06	-9.010827e-10	-2.993214e+01	-6.140873e+01
8.000000e-07	-4.271944e-06	-9.009343e-10	-2.972661e+01	-6.133917e+01
8.100000e-07	-4.242158e-06	-8.949134e-10	-2.951933e+01	-6.126469e+01
8.200000e-07	-4.211995e-06	-8.892092e-10	-2.930945e+01	-6.118509e+01
8.300000e-07	-4.181497e-06	-8.978763e-10	-2.909722e+01	-6.110029e+01
8.400000e-07	-4.150785e-06	-8.952842e-10	-2.888351e+01	-6.101022e+01
8.500000e-07	-4.119836e-06	-8.909357e-10	-2.866815e+01	-6.091490e+01
8.600000e-07	-4.088560e-06	-8.925136e-10	-2.845052e+01	-6.081441e+01
8.700000e-07	-4.057031e-06	-8.925735e-10	-2.823112e+01	-6.070884e+01
8.800000e-07	-4.025360e-06	-8.845368e-10	-2.801073e+01	-6.059837e+01
8.900000e-07	-3.993523e-06	-8.838625e-10	-2.778920e+01	-6.048318e+01
9.000000e-07	-3.961503e-06	-8.855715e-10	-2.756638e+01	-6.036350e+01
9.100000e-07	-3.929240e-06	-8.802510e-10	-2.734187e+01	-6.023957e+01
9.200000e-07	-3.896680e-06	-8.778852e-10	-2.711531e+01	-6.011164e+01
9.300000e-07	-3.863741e-06	-8.786408e-10	-2.688610e+01	-5.997999e+01
9.400000e-07	-3.830312e-06	-8.754146e-10	-2.665348e+01	-5.984487e+01
9.500000e-07	-3.796476e-06	-8.695236e-10	-2.641803e+01	-5.970655e+01
9.600000e-07	-3.762200e-06	-8.696569e-10	-2.617952e+01	-5.956528e+01
9.700000e-07	-3.727366e-06	-8.638553e-10	-2.593713e+01	-5.942129e+01
9.800000e-07	-3.692211e-06	-8.565138e-10	-2.569249e+01	-5.927478e+01
9.900000e-07	-3.656831e-06	-8.545274e-10	-2.544630e+01	-5.912594e+01
1.000000e-06	-3.621223e-06	-8.575320e-10	-2.519852e+01	-5.897494e+01
1.010000e-06	-3.585464e-06	-8.537124e-10	-2.494969e+01	-5.882192e+01
1.020000e-06	-3.549579e-06	-8.554761e-10	-2.469998e+01	-5.866696e+01
1.030000e-06	-3.513577e-06	-8.566078e-10	-2.444946e+01	-5.851016e+01
1.040000e-06	-3.477386e-06	-8.546681e-10	-2.419762e+01	-5.835156e+01
1.050000e-06	-3.440928e-06	-8.491939e-10	-2.394393e+01	-5.819119e+01
1.060000e-06	-3.404170e-06	-8.481167e-10	-2.368814e+01	-5.802906e+01
1.070000e-06	-3.367177e-06	-8.428387e-10	-2.343072e+01	-5.786515e+01
1.080000e-06	-3.329997e-06	-8.414122e-10	-2.317201e+01	-5.769944e+01
1.090000e-06	-3.292562e-06	-8.439201e-10	-2.291151e+01	-5.753188e+01
1.100000e-06	-3.254867e-06	-8.463326e-10	-2.264920e+01	-5.736243e+01
1.110000e-06	-3.216934e-06	-8.427485e-10	-2.238525e+01	-5.719104e+01
1.120000e-06	-3.178744e-06	-8.420478e-10	-2.211950e+01	-5.701766e+01
1.130000e-06	-3.140324e-06	-8.403036e-10	-2.185215e+01	-5.684223e+01
1.140000e-06	-3.101707e-06	-8.355188e-10	-2.158344e+01	-5.666473e+01
1.150000e-06	-3.062924e-06	-8.299808e-10	-2.131356e+01	-5.648511e+01
1.160000e-06	-3.023997e-06	-8.270651e-10	-2.104268e+01	-5.630336e+01
1.170000e-06	-2.984743e-06	-8.229258e-10	-2.076953e+01	-5.611946e+01
1.180000e-06	-2.945217e-06	-8.208209e-10	-2.049448e+01	-5.593342e+01
1.190000e-06	-2.905635e-06	-8.210497e-10	-2.021905e+01	-5.574525e+01
1.200000e-06	-2.865942e-06	-8.178716e-10	-1.994284e+01	-5.555496e+01
1.210000e-06	-2.826129e-06	-8.131597e-10	-1.966580e+01	-5.536261e+01
1.220000e-06	-2.786214e-06	-8.105092e-10	-1.938805e+01	-5.516820e+01
1.230000e-06	-2.746165e-06	-8.073148e-10	-1.910937e+01	-5.497180e+01
1.240000e-06	-2.705959e-06	-8.014926e-10	-1.882959e+01	-5.477343e+01
1.250000e-06	-2.665531e-06	-8.002472e-10	-1.854827e+01	-5.457313e+01
1.260000e-06	-2.624858e-06	-8.003110e-10	-1.826525e+01	-5.437092e+01
1.270000e-06	-2.583963e-06	-7.999645e-10	-1.798068e+01	-5.416679e+01
1.280000e-06	-2.542854e-06	-7.962222e-10	-1.769462e+01	-5.396075e+01
1.290000e-06	-2.501382e-06	-7.929510e-10	-1.740603e+01	-5.375274e+01
1.300000e-06	-2.459542e-06	-7.862136e-10	-1.711489e+01	-5.354271e+01
1.310000e-06	-2.417560e-06	-7.789807e-10	-1.682275e+01	-5.333056e+01
1.320000e-06	-2.375388e-06	-7.739171e-10	-1.652929e+01	-5.311614e+01
1.330000e-06	-2.332897e-06	-7.722360e-10	-1.623361e+01	-5.289928e+01
1.340000e-06	-2.290050e-06	-7.707997e-10	-1.593546e+01	-5.267976e+01
1.350000e-06	-2.247041e-06	-7.708875e-10	-1.563618e+01	-5.245732e+01
1.360000e-06	-2.203980e-06	-7.682242e-10	-1.533654e+01	-5.223165e+01
1.370000e-06	-2.160617e-06	-7.615012e-10	-1.503479e+01	-5.200241e+01
1.380000e-06	-2.116980e-06	-7.531302e-10	-1.473114e+01	-5.176921e+01
1.390000e-06	-2.073258e-06	-7.464831e-10	-1.442690e+01	-5.153159e+01
1.400000e-06	-2.029442e-06	-7.431797e-10	-1.412200e+01	-5.128911e+01
1.410000e-06	-1.985540e-06	-7.420576e-10	-1.381651e+01	-5.104124e+01
1.420000e-06	-1.941553e-06	-7.389207e-10	-1.351042e+01	-5.078744e+01
1.430000e-06	-1.897528e-06	-7.354407e-10	-1.320407e+01	-5.052716e+01
1.440000e-06	-1.853430e-06	-7.311536e-10	-1.289722e+01	-5.025979e+01
1.450000e-06	-1.809195e-06	-7.248280e-10	-1.258941e+01	-4.998475e+01
1.460000e-06	-1.764848e-06	-7.181878e-10	-1.228081e+01	-4.970142e+01
1.470000e-06	-1.720437e-06	-7.121451e-10	-1.197178e+01	-4.940917e+01
1.480000e-06	-1.675917e-06	-7.077192e-10	-1.166198e+01	-4.910739e+01
1.490000e-06	-1.631178e-06	-7.022537e-10	-1.135066e+01	-4.879547e+01
1.500000e-06	-1.586318e-06	-6.971405e-10	-1.103850e+01	-4.847280e+01
1.510000e-06	-1.541363e-06	-6.929336e-10	-1.072567e+01	-4.813879e+01
1.520000e-06	-1.496284e-06	-6.881206e-10	-1.041199e+01	-4.779289e+01
1.530000e-06	-1.451076e-06	-6.828994e-10	-1.009741e+01	-4.743453e+01
1.540000e-06	-1.405752e-06	-6.746645e-10	-9.782016e+00	-4.706319e+01
1.550000e-06	-1.360350e-06	-6.657143e-10	-9.466086e+00	-4.667837e+01
1.560000e-06	-1.314877e-06	-6.589205e-10	-9.149656e+00	-4.627958e+01
1.570000e-06	-1.269291e-06	-6.516363e-10	-8.832444e+00	-4.586638e+01
1.580000e-06	-1.223574e-06	-6.418535e-10	-8.514323e+00	-4.543832e+01
1.590000e-06	-1.177792e-06	-6.331348e-10	-8.195743e+00	-4.499499e+01
1.600000e-06	-1.131898e-06	-6.287067e-10	-7.876386e+00	-4.453597e+01
1.610000e-06	-1.085894e-06	-6.242529e-10	-7.556263e+00	-4.406087e+01
1.620000e-06	-1.039844e-06	-6.172517e-10	-7.235825e+00	-4.356931e+01
1.630000e-06	-9.937851e-07	-6.085453e-10	-6.915319e+00	-4.306088e+01
1.640000e-06	-9.476940e-07	-6.006329e-10	-6.594591e+00	-4.253520e+01
1.650000e-06	-9.014503e-07	-5.917774e-10	-6.272801e+00	-4.199185e+01
1.660000e-06	-8.551508e-07	-5.811364e-10	-5.950623e+00	-4.143041e+01
1.670000e-06	-8.088967e-07	-5.701305e-10	-5.628761e+00	-4.085042e+01
1.680000e-06	-7.626311e-07	-5.604489e-10	-5.306819e+00	-4.025141e+01
1.690000e-06	-7.163344e-07	-5.498858e-10	-4.984660e+00	-3.963287e+01
1.700000e-06	-6.699510e-07	-5.396891e-10	-4.661899e+00	-3.899425e+01
1.710000e-06	-6.234807e-07	-5.322725e-10	-4.338532e+00	-3.833498e+01
1.720000e-06	-5.770209e-07	-5.278260e-10	-4.015238e+00	-3.765445e+01
1.730000e-06	-5.305124e-07	-5.212278e-10	-3.691606e+00	-3.695198e+01
1.740000e-06	-4.839315e-07	-5.078863e-10	-3.367469e+00	-3.622691e+01
1.750000e-06	-4.373420e-07	-4.917295e-10	-3.043273e+00	-3.547849e+01
1.760000e-06	-3.907063e-07	-4.761611e-10	-2.718755e+00	-3.470599e+01
1.770000e-06	-3.440148e-07	-4.619784e-10	-2.393850e+00	-3.390864e+01
1.780000e-06	-2.971915e-07	-4.496728e-10	-2.068027e+00	-3.308564e+01
1.790000e-06	-2.503016e-07	-4.408885e-10	-1.741740e+00	-3.223621e+01
1.800000e-06	-2.035030e-07	-4.360933e-10	-1.416089e+00	-3.135956e+01
1.810000e-06	-1.567591e-07	-4.282810e-10	-1.090819e+00	-3.045494e+01
1.820000e-06	-1.099852e-07	-4.161424e-10	-7.653393e-01	-2.952161e+01
1.830000e-06	-6.322747e-08	-4.006046e-10	-4.399725e-01	-2.855887e+01
1.840000e-06	-1.650541e-08	-3.831187e-10	-1.148540e-01	-2.756610e+01
1.850000e-06	3.027666e-08	-3.649367e-10	2.106821e-01	-2.654273e+01
1.860000e-06	7.705932e-08	-3.462234e-10	5.362224e-01	-2.548829e+01
1.870000e-06	1.238467e-07	-3.293843e-10	8.617954e-01	-2.440239e+01
1.880000e-06	1.706228e-07	-3.153481e-10	1.187290e+00	-2.328479e+01
1.890000e-06	2.172815e-07	-3.036453e-10	1.511967e+00	-2.213535e+01
1.900000e-06	2.639519e-07	-2.902714e-10	1.836727e+00	-2.095407e+01
1.910000e-06	3.106806e-07	-2.734513e-10	2.161892e+00	-1.974111e+01
1.920000e-06	3.573966e-07	-2.565758e-10	2.486968e+00	-1.849679e+01
1.930000e-06	4.041100e-07	-2.385352e-10	2.812026e+00	-1.722159e+01
1.940000e-06	4.507490e-07	-2.168993e-10	3.136567e+00	-1.591616e+01
1.950000e-06	4.972670e-07	-1.953032e-10	3.460265e+00	-1.458134e+01
1.960000e-06	5.437600e-07	-1.768998e-10	3.783790e+00	-1.321814e+01
1.970000e-06	5.902651e-07	-1.615137e-10	4.107398e+00	-1.182774e+01
1.980000e-06	6.367623e-07	-1.467784e-10	4.430952e+00	-1.041151e+01
1.990000e-06	6.831858e-07	-1.307262e-10	4.753993e+00	-8.970978e+00
2.000000e-06	7.295270e-07	-1.098617e-10	5.076462e+00	-7.507845e+00
2.010000e-06	7.757939e-07	-8.365315e-11	5.398413e+00	-6.023956e+00
2.020000e-06	8.220324e-07	-5.524363e-11	5.720167e+00	-4.521302e+00
2.030000e-06	8.682187e-07	-2.942398e-11	6.041557e+00	-3.002001e+00
2.040000e-06	9.143094e-07	-8.730490e-12	6.362283e+00	-1.468284e+00
2.050000e-06	9.604025e-07	8.449412e-12	6.683024e+00	7.751919e-02
2.060000e-06	1.006488e-06	2.508389e-11	7.003711e+00	1.633003e+00
2.070000e-06	1.052455e-06	4.316046e-11	7.323576e+00	3.195699e+00
2.080000e-06	1.098278e-06	6.655558e-11	7.642438e+00	4.763100e+00
2.090000e-06	1.144044e-06	9.489161e-11	7.960905e+00	6.332676e+00
2.100000e-06	1.189764e-06	1.233329e-10	8.279054e+00	7.901898e+00
2.110000e-06	1.235460e-06	1.478815e-10	8.597028e+00	9.468253e+00
2.120000e-06	1.281034e-06	1.684380e-10	8.914162e+00	1.102927e+01
2.130000e-06	1.326408e-06	1.855857e-10	9.229896e+00	1.258253e+01
2.140000e-06	1.371677e-06	2.009427e-10	9.544902e+00	1.412569e+01
2.150000e-06	1.416910e-06	2.193207e-10	9.859661e+00	1.565650e+01
2.160000e-06	1.462163e-06	2.422430e-10	1.017456e+01	1.717282e+01
2.170000e-06	1.507303e-06	2.665202e-10	1.048867e+01	1.867262e+01
2.180000e-06	1.552226e-06	2.893717e-10	1.080127e+01	2.015399e+01
2.190000e-06	1.596987e-06	3.098448e-10	1.111274e+01	2.161520e+01
2.200000e-06	1.641586e-06	3.286697e-10	1.142308e+01	2.305462e+01
2.210000e-06	1.686051e-06	3.453313e-10	1.173249e+01	2.447081e+01
2.220000e-06	1.730438e-06	3.598833e-10	1.204136e+01	2.586247e+01
2.230000e-06	1.774766e-06	3.757609e-10	1.234983e+01	2.722846e+01
2.240000e-06	1.819001e-06	3.934625e-10	1.265764e+01	2.856780e+01
2.250000e-06	1.863101e-06	4.107625e-10	1.296451e+01	2.987968e+01
2.260000e-06	1.907155e-06	4.296253e-10	1.327107e+01	3.116342e+01
2.270000e-06	1.951173e-06	4.501885e-10	1.357737e+01	3.241851e+01
2.280000e-06	1.995092e-06	4.686383e-10	1.388298e+01	3.364456e+01
2.290000e-06	2.038935e-06	4.843583e-10	1.418807e+01	3.484133e+01
2.300000e-06	2.082682e-06	4.984025e-10	1.449248e+01	3.600868e+01
2.310000e-06	2.126336e-06	5.116876e-10	1.479625e+01	3.714662e+01
2.320000e-06	2.169946e-06	5.255812e-10	1.509971e+01	3.825523e+01
2.330000e-06	2.213408e-06	5.407568e-10	1.540215e+01	3.933469e+01
2.340000e-06	2.256639e-06	5.566774e-10	1.570297e+01	4.038527e+01
2.350000e-06	2.299691e-06	5.736866e-10	1.600255e+01	4.140730e+01
2.360000e-06	2.342529e-06	5.886533e-10	1.630064e+01	4.240116e+01
2.370000e-06	2.385143e-06	5.994082e-10	1.659717e+01	4.336729e+01
2.380000e-06	2.427340e-06	6.077604e-10	1.689080e+01	4.430616e+01
2.390000e-06	2.469161e-06	6.152850e-10	1.718182e+01	4.521827e+01
2.400000e-06	2.510792e-06	6.249667e-10	1.747151e+01	4.610414e+01
2.410000e-06	2.552099e-06	6.382816e-10	1.775895e+01	4.696428e+01
2.420000e-06	2.593177e-06	6.534223e-10	1.804479e+01	4.779923e+01
2.430000e-06	2.634030e-06	6.687856e-10	1.832907e+01	4.860950e+01
2.440000e-06	2.674572e-06	6.824958e-10	1.861118e+01	4.939561e+01
2.450000e-06	2.714860e-06	6.944969e-10	1.889153e+01	5.015807e+01
2.460000e-06	2.754989e-06	7.056175e-10	1.917077e+01	5.089734e+01
2.470000e-06	2.794993e-06	7.147606e-10	1.944914e+01	5.161390e+01
2.480000e-06	2.834866e-06	7.228694e-10	1.972660e+01	5.230820e+01
2.490000e-06	2.874682e-06	7.318257e-10	2.000367e+01	5.298064e+01
2.500000e-06	2.914362e-06	7.422466e-10	2.027978e+01	5.363165e+01
2.510000e-06	2.953828e-06	7.523109e-10	2.055441e+01	5.426160e+01
2.520000e-06	2.993100e-06	7.617993e-10	2.082769e+01	5.487086e+01
2.530000e-06	3.032234e-06	7.713727e-10	2.110000e+01	5.545977e+01
2.540000e-06	3.071181e-06	7.793448e-10	2.137102e+01	5.602869e+01
2.550000e-06	3.109818e-06	7.841601e-10	2.163988e+01	5.657794e+01
2.560000e-06	3.148195e-06	7.880352e-10	2.190692e+01	5.710783e+01
2.570000e-06	3.186366e-06	7.921381e-10	2.217254e+01	5.761869e+01
2.580000e-06	3.224321e-06	7.955936e-10	2.243665e+01	5.811082e+01
2.590000e-06	3.262101e-06	8.012092e-10	2.269955e+01	5.858456e+01
2.600000e-06	3.299666e-06	8.092942e-10	2.296094e+01	5.904021e+01
2.610000e-06	3.336960e-06	8.193767e-10	2.322046e+01	5.947811e+01
2.620000e-06	3.374002e-06	8.297534e-10	2.347822e+01	5.989859e+01
2.630000e-06	3.410772e-06	8.383701e-10	2.373408e+01	6.030201e+01
2.640000e-06	3.447319e-06	8.425894e-10	2.398840e+01	6.068873e+01
2.650000e-06	3.483664e-06	8.432542e-10	2.424130e+01	6.105912e+01
2.660000e-06	3.519809e-06	8.442191e-10	2.449282e+01	6.141358e+01
2.670000e-06	3.555830e-06	8.463653e-10	2.474348e+01	6.175252e+01
2.680000e-06	3.591734e-06	8.496390e-10	2.499332e+01	6.207637e+01
2.690000e-06	3.627524e-06	8.569169e-10	2.524236e+01	6.238556e+01
2.700000e-06	3.663208e-06	8.679751e-10	2.549068e+01	6.268056e+01
2.710000e-06	3.698733e-06	8.778862e-10	2.573788e+01	6.296184e+01
2.720000e-06	3.733964e-06	8.850235e-10	2.598303e+01	6.322988e+01
2.730000e-06	3.768724e-06	8.897076e-10	2.622492e+01	6.348520e+01
2.740000e-06	3.802882e-06	8.904643e-10	2.646261e+01	6.372830e+01
2.750000e-06	3.836538e-06	8.904277e-10	2.669680e+01	6.395971e+01
2.760000e-06	3.869771e-06	8.935635e-10	2.692806e+01	6.417996e+01
2.770000e-06	3.902515e-06	8.987670e-10	2.715591e+01	6.438958e+01
2.780000e-06	3.934883e-06	9.062719e-10	2.738114e+01	6.458913e+01
2.790000e-06	3.967069e-06	9.163392e-10	2.760511e+01	6.477913e+01
2.800000e-06	3.999154e-06	9.257833e-10	2.782837e+01	6.496015e+01
2.810000e-06	4.031063e-06	9.287488e-10	2.805042e+01	6.513271e+01
2.820000e-06	4.062796e-06	9.262978e-10	2.827124e+01	6.529735e+01
2.830000e-06	4.094394e-06	9.243043e-10	2.849111e+01	6.545460e+01
2.840000e-06	4.125714e-06	9.257349e-10	2.870905e+01	6.560497e+01
2.850000e-06	4.156720e-06	9.283775e-10	2.892481e+01	6.574896e+01
2.860000e-06	4.187390e-06	9.352916e-10	2.913823e+01	6.588707e+01
2.870000e-06	4.217712e-06	9.428624e-10	2.934923e+01	6.601976e+01
2.880000e-06	4.247747e-06	9.473049e-10	2.955823e+01	6.614748e+01
2.890000e-06	4.277466e-06	9.510222e-10	2.976503e+01	6.627065e+01
2.900000e-06	4.306844e-06	9.548623e-10	2.996946e+01	6.638967e+01
