# Temperatura_=_-8.8
# Concentracion g/m^3_=_1620.0
# C_Vs_to_Am_M_A/Vsm_=_65563218390.804596
# pendiente_HvsI_1/m_=_3716.3
# ordenada_HvsI_A/m_=_1297.0
# frecuencia_Hz_=_135108.3911633155

Tiempo_(s)	Campo_(V.s)	Magnetizacion_(V.s)	Campo_(kA/m)	Magnetizacion_(A/m)
0.000000e+00	-5.515241e-06	-9.911860e-10	-3.836898e+01	-6.708763e+01
1.000000e-08	-5.515413e-06	-9.901292e-10	-3.837018e+01	-6.706735e+01
2.000000e-08	-5.515295e-06	-9.892817e-10	-3.836935e+01	-6.704863e+01
3.000000e-08	-5.514714e-06	-9.882166e-10	-3.836531e+01	-6.703132e+01
4.000000e-08	-5.513537e-06	-9.835837e-10	-3.835712e+01	-6.701526e+01
5.000000e-08	-5.511823e-06	-9.725023e-10	-3.834520e+01	-6.700025e+01
6.000000e-08	-5.509630e-06	-9.559910e-10	-3.832994e+01	-6.698603e+01
7.000000e-08	-5.506886e-06	-9.590477e-10	-3.831085e+01	-6.697231e+01
8.000000e-08	-5.503612e-06	-1.011165e-09	-3.828807e+01	-6.695874e+01
9.000000e-08	-5.499807e-06	-1.050586e-09	-3.826160e+01	-6.694494e+01
1.000000e-07	-5.495575e-06	-9.857082e-10	-3.823216e+01	-6.693051e+01
1.100000e-07	-5.491129e-06	-9.094873e-10	-3.820123e+01	-6.691499e+01
1.200000e-07	-5.486522e-06	-9.195736e-10	-3.816918e+01	-6.689790e+01
1.300000e-07	-5.481578e-06	-1.026417e-09	-3.813479e+01	-6.687876e+01
1.400000e-07	-5.476130e-06	-1.017141e-09	-3.809689e+01	-6.685705e+01
1.500000e-07	-5.470290e-06	-9.173266e-10	-3.805626e+01	-6.683225e+01
1.600000e-07	-5.464193e-06	-9.327774e-10	-3.801384e+01	-6.680386e+01
1.700000e-07	-5.457613e-06	-1.025762e-09	-3.796806e+01	-6.677137e+01
1.800000e-07	-5.450509e-06	-1.071083e-09	-3.791864e+01	-6.673429e+01
1.900000e-07	-5.443193e-06	-9.660329e-10	-3.786775e+01	-6.669217e+01
2.000000e-07	-5.435712e-06	-9.254190e-10	-3.781570e+01	-6.664460e+01
2.100000e-07	-5.427916e-06	-9.802105e-10	-3.776146e+01	-6.659119e+01
2.200000e-07	-5.419833e-06	-1.041911e-09	-3.770523e+01	-6.653163e+01
2.300000e-07	-5.411467e-06	-1.005379e-09	-3.764703e+01	-6.646564e+01
2.400000e-07	-5.402535e-06	-9.767932e-10	-3.758489e+01	-6.639304e+01
2.500000e-07	-5.392790e-06	-1.006585e-09	-3.751710e+01	-6.631370e+01
2.600000e-07	-5.382426e-06	-1.013643e-09	-3.744499e+01	-6.622755e+01
2.700000e-07	-5.371669e-06	-9.547621e-10	-3.737016e+01	-6.613463e+01
2.800000e-07	-5.360399e-06	-9.317188e-10	-3.729176e+01	-6.603504e+01
2.900000e-07	-5.348682e-06	-9.755312e-10	-3.721024e+01	-6.592894e+01
3.000000e-07	-5.336634e-06	-9.810571e-10	-3.712643e+01	-6.581661e+01
3.100000e-07	-5.324148e-06	-9.448701e-10	-3.703956e+01	-6.569838e+01
3.200000e-07	-5.311168e-06	-9.476554e-10	-3.694926e+01	-6.557464e+01
3.300000e-07	-5.297838e-06	-9.944050e-10	-3.685653e+01	-6.544587e+01
3.400000e-07	-5.284259e-06	-9.710985e-10	-3.676206e+01	-6.531260e+01
3.500000e-07	-5.270277e-06	-9.273397e-10	-3.666479e+01	-6.517540e+01
3.600000e-07	-5.255777e-06	-9.393451e-10	-3.656391e+01	-6.503490e+01
3.700000e-07	-5.240771e-06	-9.679922e-10	-3.645952e+01	-6.489175e+01
3.800000e-07	-5.225217e-06	-9.442255e-10	-3.635131e+01	-6.474666e+01
3.900000e-07	-5.209185e-06	-9.423381e-10	-3.623977e+01	-6.460030e+01
4.000000e-07	-5.192769e-06	-9.693857e-10	-3.612557e+01	-6.445339e+01
4.100000e-07	-5.175986e-06	-9.555501e-10	-3.600881e+01	-6.430663e+01
4.200000e-07	-5.158769e-06	-9.176976e-10	-3.588904e+01	-6.416070e+01
4.300000e-07	-5.141286e-06	-9.522633e-10	-3.576741e+01	-6.401626e+01
4.400000e-07	-5.123620e-06	-9.764093e-10	-3.564451e+01	-6.387393e+01
4.500000e-07	-5.105429e-06	-9.413841e-10	-3.551796e+01	-6.373430e+01
4.600000e-07	-5.086663e-06	-9.169187e-10	-3.538740e+01	-6.359789e+01
4.700000e-07	-5.067568e-06	-9.417757e-10	-3.525456e+01	-6.346518e+01
4.800000e-07	-5.048227e-06	-9.371217e-10	-3.512001e+01	-6.333657e+01
4.900000e-07	-5.028633e-06	-9.278298e-10	-3.498369e+01	-6.321240e+01
5.000000e-07	-5.008883e-06	-9.436390e-10	-3.484630e+01	-6.309295e+01
5.100000e-07	-4.988971e-06	-9.441353e-10	-3.470777e+01	-6.297841e+01
5.200000e-07	-4.968708e-06	-9.254522e-10	-3.456680e+01	-6.286889e+01
5.300000e-07	-4.948004e-06	-9.441881e-10	-3.442277e+01	-6.276445e+01
5.400000e-07	-4.926916e-06	-9.521306e-10	-3.427606e+01	-6.266506e+01
5.500000e-07	-4.905504e-06	-9.167343e-10	-3.412710e+01	-6.257063e+01
5.600000e-07	-4.883817e-06	-8.997543e-10	-3.397622e+01	-6.248098e+01
5.700000e-07	-4.861786e-06	-9.200964e-10	-3.382296e+01	-6.239591e+01
5.800000e-07	-4.839286e-06	-9.256038e-10	-3.366642e+01	-6.231513e+01
5.900000e-07	-4.816410e-06	-9.179018e-10	-3.350728e+01	-6.223832e+01
6.000000e-07	-4.793286e-06	-9.238651e-10	-3.334641e+01	-6.216510e+01
6.100000e-07	-4.769946e-06	-9.218310e-10	-3.318403e+01	-6.209507e+01
6.200000e-07	-4.746360e-06	-9.120435e-10	-3.301995e+01	-6.202781e+01
6.300000e-07	-4.722545e-06	-9.095057e-10	-3.285427e+01	-6.196285e+01
6.400000e-07	-4.698484e-06	-9.107278e-10	-3.268688e+01	-6.189974e+01
6.500000e-07	-4.674042e-06	-9.035469e-10	-3.251684e+01	-6.183800e+01
6.600000e-07	-4.649129e-06	-9.059947e-10	-3.234352e+01	-6.177717e+01
6.700000e-07	-4.623677e-06	-9.057663e-10	-3.216646e+01	-6.171678e+01
6.800000e-07	-4.597581e-06	-9.022328e-10	-3.198490e+01	-6.165639e+01
6.900000e-07	-4.570972e-06	-9.016520e-10	-3.179979e+01	-6.159557e+01
7.000000e-07	-4.543986e-06	-9.059382e-10	-3.161205e+01	-6.153391e+01
7.100000e-07	-4.516610e-06	-8.968668e-10	-3.142160e+01	-6.147105e+01
7.200000e-07	-4.489014e-06	-8.930216e-10	-3.122962e+01	-6.140662e+01
7.300000e-07	-4.461294e-06	-8.967556e-10	-3.103677e+01	-6.134032e+01
7.400000e-07	-4.433414e-06	-8.975816e-10	-3.084281e+01	-6.127186e+01
7.500000e-07	-4.405301e-06	-8.923963e-10	-3.064723e+01	-6.120100e+01
7.600000e-07	-4.376875e-06	-8.952853e-10	-3.044948e+01	-6.112751e+01
7.700000e-07	-4.348083e-06	-8.893658e-10	-3.024918e+01	-6.105121e+01
7.800000e-07	-4.318926e-06	-8.821669e-10	-3.004633e+01	-6.097196e+01
7.900000e-07	-4.289484e-06	-8.868118e-10	-2.984151e+01	-6.088963e+01
8.000000e-07	-4.259830e-06	-8.898115e-10	-2.963521e+01	-6.080411e+01
8.100000e-07	-4.229885e-06	-8.803156e-10	-2.942688e+01	-6.071535e+01
8.200000e-07	-4.199602e-06	-8.842083e-10	-2.921621e+01	-6.062327e+01
8.300000e-07	-4.168994e-06	-8.927837e-10	-2.900327e+01	-6.052787e+01
8.400000e-07	-4.138091e-06	-8.849671e-10	-2.878829e+01	-6.042910e+01
8.500000e-07	-4.106873e-06	-8.782793e-10	-2.857110e+01	-6.032697e+01
8.600000e-07	-4.075391e-06	-8.821226e-10	-2.835208e+01	-6.022148e+01
8.700000e-07	-4.043814e-06	-8.765208e-10	-2.813240e+01	-6.011263e+01
8.800000e-07	-4.012140e-06	-8.671734e-10	-2.791206e+01	-6.000046e+01
8.900000e-07	-3.980275e-06	-8.707226e-10	-2.769037e+01	-5.988496e+01
9.000000e-07	-3.948148e-06	-8.725204e-10	-2.746687e+01	-5.976616e+01
9.100000e-07	-3.915705e-06	-8.671601e-10	-2.724116e+01	-5.964409e+01
9.200000e-07	-3.882891e-06	-8.675701e-10	-2.701288e+01	-5.951876e+01
9.300000e-07	-3.849658e-06	-8.705323e-10	-2.678168e+01	-5.939020e+01
9.400000e-07	-3.815939e-06	-8.608687e-10	-2.654711e+01	-5.925842e+01
9.500000e-07	-3.781761e-06	-8.536062e-10	-2.630933e+01	-5.912345e+01
9.600000e-07	-3.747206e-06	-8.505358e-10	-2.606894e+01	-5.898530e+01
9.700000e-07	-3.712265e-06	-8.423242e-10	-2.582586e+01	-5.884401e+01
9.800000e-07	-3.676942e-06	-8.319078e-10	-2.558012e+01	-5.869960e+01
9.900000e-07	-3.641376e-06	-8.341469e-10	-2.533268e+01	-5.855210e+01
1.000000e-06	-3.605693e-06	-8.375037e-10	-2.508444e+01	-5.840155e+01
1.010000e-06	-3.569906e-06	-8.374533e-10	-2.483548e+01	-5.824799e+01
1.020000e-06	-3.533979e-06	-8.385084e-10	-2.458553e+01	-5.809146e+01
1.030000e-06	-3.497884e-06	-8.390550e-10	-2.433443e+01	-5.793204e+01
1.040000e-06	-3.461558e-06	-8.326532e-10	-2.408171e+01	-5.776976e+01
1.050000e-06	-3.424974e-06	-8.273334e-10	-2.382720e+01	-5.760472e+01
1.060000e-06	-3.388118e-06	-8.227524e-10	-2.357080e+01	-5.743699e+01
1.070000e-06	-3.350962e-06	-8.177883e-10	-2.331231e+01	-5.726665e+01
1.080000e-06	-3.313579e-06	-8.162037e-10	-2.305223e+01	-5.709379e+01
1.090000e-06	-3.276013e-06	-8.196210e-10	-2.279089e+01	-5.691851e+01
1.100000e-06	-3.238190e-06	-8.188158e-10	-2.252776e+01	-5.674090e+01
1.110000e-06	-3.200084e-06	-8.166027e-10	-2.226266e+01	-5.656106e+01
1.120000e-06	-3.161754e-06	-8.183928e-10	-2.199600e+01	-5.637908e+01
1.130000e-06	-3.123281e-06	-8.172955e-10	-2.172835e+01	-5.619504e+01
1.140000e-06	-3.084631e-06	-8.102564e-10	-2.145946e+01	-5.600903e+01
1.150000e-06	-3.045739e-06	-8.036217e-10	-2.118890e+01	-5.582111e+01
1.160000e-06	-3.006667e-06	-7.989679e-10	-2.091708e+01	-5.563134e+01
1.170000e-06	-2.967320e-06	-7.939616e-10	-2.064335e+01	-5.543974e+01
1.180000e-06	-2.927750e-06	-7.918129e-10	-2.036806e+01	-5.524632e+01
1.190000e-06	-2.888113e-06	-7.926826e-10	-2.009231e+01	-5.505109e+01
1.200000e-06	-2.848386e-06	-7.906621e-10	-1.981594e+01	-5.485401e+01
1.210000e-06	-2.808511e-06	-7.849036e-10	-1.953853e+01	-5.465501e+01
1.220000e-06	-2.768494e-06	-7.811953e-10	-1.926013e+01	-5.445401e+01
1.230000e-06	-2.728345e-06	-7.782538e-10	-1.898082e+01	-5.425088e+01
1.240000e-06	-2.688003e-06	-7.765551e-10	-1.870017e+01	-5.404549e+01
1.250000e-06	-2.647452e-06	-7.764444e-10	-1.841806e+01	-5.383764e+01
1.260000e-06	-2.606631e-06	-7.741765e-10	-1.813407e+01	-5.362713e+01
1.270000e-06	-2.565484e-06	-7.675493e-10	-1.784781e+01	-5.341374e+01
1.280000e-06	-2.524050e-06	-7.622622e-10	-1.755956e+01	-5.319721e+01
1.290000e-06	-2.482363e-06	-7.571848e-10	-1.726955e+01	-5.297724e+01
1.300000e-06	-2.440466e-06	-7.522948e-10	-1.697808e+01	-5.275356e+01
1.310000e-06	-2.398272e-06	-7.499881e-10	-1.668454e+01	-5.252583e+01
1.320000e-06	-2.355710e-06	-7.508501e-10	-1.638844e+01	-5.229375e+01
1.330000e-06	-2.312862e-06	-7.500074e-10	-1.609035e+01	-5.205696e+01
1.340000e-06	-2.269790e-06	-7.474710e-10	-1.579070e+01	-5.181514e+01
1.350000e-06	-2.226523e-06	-7.435863e-10	-1.548969e+01	-5.156794e+01
1.360000e-06	-2.183094e-06	-7.373067e-10	-1.518756e+01	-5.131505e+01
1.370000e-06	-2.139540e-06	-7.280800e-10	-1.488456e+01	-5.105612e+01
1.380000e-06	-2.095890e-06	-7.199078e-10	-1.458090e+01	-5.079085e+01
1.390000e-06	-2.052175e-06	-7.164940e-10	-1.427678e+01	-5.051894e+01
1.400000e-06	-2.008398e-06	-7.156701e-10	-1.397222e+01	-5.024012e+01
1.410000e-06	-1.964559e-06	-7.144918e-10	-1.366724e+01	-4.995411e+01
1.420000e-06	-1.920696e-06	-7.125466e-10	-1.336209e+01	-4.966068e+01
1.430000e-06	-1.876759e-06	-7.063977e-10	-1.305642e+01	-4.935962e+01
1.440000e-06	-1.832597e-06	-6.964629e-10	-1.274919e+01	-4.905071e+01
1.450000e-06	-1.788273e-06	-6.856923e-10	-1.244084e+01	-4.873378e+01
1.460000e-06	-1.743930e-06	-6.781885e-10	-1.213234e+01	-4.840867e+01
1.470000e-06	-1.699464e-06	-6.713649e-10	-1.182300e+01	-4.807521e+01
1.480000e-06	-1.654766e-06	-6.681920e-10	-1.151204e+01	-4.773328e+01
1.490000e-06	-1.609917e-06	-6.670062e-10	-1.120003e+01	-4.738273e+01
1.500000e-06	-1.564949e-06	-6.635465e-10	-1.088720e+01	-4.702343e+01
1.510000e-06	-1.519834e-06	-6.585512e-10	-1.057333e+01	-4.665523e+01
1.520000e-06	-1.474610e-06	-6.517719e-10	-1.025872e+01	-4.627797e+01
1.530000e-06	-1.429286e-06	-6.441305e-10	-9.943400e+00	-4.589148e+01
1.540000e-06	-1.383858e-06	-6.352128e-10	-9.627360e+00	-4.549556e+01
1.550000e-06	-1.338325e-06	-6.277602e-10	-9.310592e+00	-4.508996e+01
1.560000e-06	-1.292757e-06	-6.197562e-10	-8.993583e+00	-4.467441e+01
1.570000e-06	-1.247163e-06	-6.125952e-10	-8.676388e+00	-4.424860e+01
1.580000e-06	-1.201437e-06	-6.058798e-10	-8.358277e+00	-4.381213e+01
1.590000e-06	-1.155612e-06	-6.013127e-10	-8.039478e+00	-4.336459e+01
1.600000e-06	-1.109765e-06	-5.968569e-10	-7.720521e+00	-4.290547e+01
1.610000e-06	-1.063867e-06	-5.903463e-10	-7.401218e+00	-4.243420e+01
1.620000e-06	-1.017904e-06	-5.820108e-10	-7.081455e+00	-4.195017e+01
1.630000e-06	-9.719328e-07	-5.730490e-10	-6.761639e+00	-4.145267e+01
1.640000e-06	-9.258956e-07	-5.648389e-10	-6.441362e+00	-4.094093e+01
1.650000e-06	-8.797578e-07	-5.576315e-10	-6.120386e+00	-4.041410e+01
1.660000e-06	-8.335508e-07	-5.479049e-10	-5.798929e+00	-3.987129e+01
1.670000e-06	-7.872812e-07	-5.377822e-10	-5.477036e+00	-3.931151e+01
1.680000e-06	-7.409022e-07	-5.265151e-10	-5.154382e+00	-3.873375e+01
1.690000e-06	-6.943914e-07	-5.163296e-10	-4.830811e+00	-3.813693e+01
1.700000e-06	-6.478321e-07	-5.063235e-10	-4.506902e+00	-3.751992e+01
1.710000e-06	-6.013493e-07	-4.968662e-10	-4.183526e+00	-3.688158e+01
1.720000e-06	-5.549335e-07	-4.899598e-10	-3.860616e+00	-3.622072e+01
1.730000e-06	-5.084331e-07	-4.824878e-10	-3.537118e+00	-3.553616e+01
1.740000e-06	-4.618129e-07	-4.723708e-10	-3.212786e+00	-3.482672e+01
1.750000e-06	-4.151658e-07	-4.577791e-10	-2.888267e+00	-3.409121e+01
1.760000e-06	-3.684862e-07	-4.425241e-10	-2.563522e+00	-3.332849e+01
1.770000e-06	-3.216913e-07	-4.293640e-10	-2.237974e+00	-3.253745e+01
1.780000e-06	-2.748269e-07	-4.178124e-10	-1.911943e+00	-3.171703e+01
1.790000e-06	-2.279437e-07	-4.069673e-10	-1.585781e+00	-3.086626e+01
1.800000e-06	-1.810403e-07	-3.963521e-10	-1.259479e+00	-2.998423e+01
1.810000e-06	-1.341368e-07	-3.843822e-10	-9.331759e-01	-2.907013e+01
1.820000e-06	-8.728399e-08	-3.729692e-10	-6.072259e-01	-2.812324e+01
1.830000e-06	-4.046231e-08	-3.610382e-10	-2.814922e-01	-2.714300e+01
1.840000e-06	6.343729e-09	-3.465326e-10	4.413269e-02	-2.612894e+01
1.850000e-06	5.315033e-08	-3.293176e-10	3.697615e-01	-2.508074e+01
1.860000e-06	9.998754e-08	-3.094161e-10	6.956033e-01	-2.399823e+01
1.870000e-06	1.468174e-07	-2.897555e-10	1.021394e+00	-2.288138e+01
1.880000e-06	1.936069e-07	-2.747872e-10	1.346903e+00	-2.173035e+01
1.890000e-06	2.403427e-07	-2.621845e-10	1.672040e+00	-2.054542e+01
1.900000e-06	2.870342e-07	-2.485688e-10	1.996868e+00	-1.932705e+01
1.910000e-06	3.337020e-07	-2.350426e-10	2.321531e+00	-1.807589e+01
1.920000e-06	3.803602e-07	-2.211745e-10	2.646128e+00	-1.679271e+01
1.930000e-06	4.270383e-07	-2.030974e-10	2.970863e+00	-1.547848e+01
1.940000e-06	4.736473e-07	-1.817712e-10	3.295116e+00	-1.413430e+01
1.950000e-06	5.201087e-07	-1.599495e-10	3.618344e+00	-1.276143e+01
1.960000e-06	5.665215e-07	-1.407561e-10	3.941233e+00	-1.136129e+01
1.970000e-06	6.129352e-07	-1.231175e-10	4.264128e+00	-9.935417e+00
1.980000e-06	6.593468e-07	-1.063072e-10	4.587009e+00	-8.485484e+00
1.990000e-06	7.057258e-07	-8.863267e-11	4.909663e+00	-7.013283e+00
2.000000e-06	7.519835e-07	-6.677585e-11	5.231473e+00	-5.520714e+00
2.010000e-06	7.981697e-07	-4.169157e-11	5.552786e+00	-4.009771e+00
2.020000e-06	8.443515e-07	-1.751690e-11	5.874068e+00	-2.482531e+00
2.030000e-06	8.905504e-07	3.132428e-12	6.195469e+00	-9.411452e-01
2.040000e-06	9.367368e-07	2.113097e-11	6.516783e+00	6.121811e-01
2.050000e-06	9.828203e-07	4.137165e-11	6.837382e+00	2.175196e+00
2.060000e-06	1.028783e-06	6.264589e-11	7.157143e+00	3.745615e+00
2.070000e-06	1.074628e-06	8.367233e-11	7.476076e+00	5.321137e+00
2.080000e-06	1.120383e-06	1.079795e-10	7.794394e+00	6.899453e+00
2.090000e-06	1.166056e-06	1.335916e-10	8.112136e+00	8.478263e+00
2.100000e-06	1.211672e-06	1.564491e-10	8.429483e+00	1.005528e+01
2.110000e-06	1.257210e-06	1.758936e-10	8.746286e+00	1.162826e+01
2.120000e-06	1.302607e-06	1.932695e-10	9.062108e+00	1.319499e+01
2.130000e-06	1.347958e-06	2.092290e-10	9.377610e+00	1.475331e+01
2.140000e-06	1.393329e-06	2.267792e-10	9.693253e+00	1.630112e+01
2.150000e-06	1.438565e-06	2.477324e-10	1.000795e+01	1.783639e+01
2.160000e-06	1.483677e-06	2.722415e-10	1.032179e+01	1.935719e+01
2.170000e-06	1.528758e-06	2.981943e-10	1.063541e+01	2.086166e+01
2.180000e-06	1.573629e-06	3.220971e-10	1.094758e+01	2.234802e+01
2.190000e-06	1.618312e-06	3.423403e-10	1.125843e+01	2.381462e+01
2.200000e-06	1.662955e-06	3.590696e-10	1.156901e+01	2.525989e+01
2.210000e-06	1.707449e-06	3.724107e-10	1.187855e+01	2.668239e+01
2.220000e-06	1.751765e-06	3.857037e-10	1.218686e+01	2.808078e+01
2.230000e-06	1.795937e-06	4.020557e-10	1.249415e+01	2.945385e+01
2.240000e-06	1.840005e-06	4.214832e-10	1.280073e+01	3.080049e+01
2.250000e-06	1.884013e-06	4.420928e-10	1.310689e+01	3.211973e+01
2.260000e-06	1.927937e-06	4.632728e-10	1.341246e+01	3.341070e+01
2.270000e-06	1.971792e-06	4.827854e-10	1.371756e+01	3.467268e+01
2.280000e-06	2.015595e-06	4.995974e-10	1.402229e+01	3.590504e+01
2.290000e-06	2.059336e-06	5.148755e-10	1.432660e+01	3.710730e+01
2.300000e-06	2.103003e-06	5.294453e-10	1.463038e+01	3.827906e+01
2.310000e-06	2.146629e-06	5.435389e-10	1.493388e+01	3.942006e+01
2.320000e-06	2.190207e-06	5.589473e-10	1.523705e+01	4.053016e+01
2.330000e-06	2.233648e-06	5.751289e-10	1.553926e+01	4.160929e+01
2.340000e-06	2.276848e-06	5.897234e-10	1.583980e+01	4.265751e+01
2.350000e-06	2.319838e-06	6.038969e-10	1.613888e+01	4.367497e+01
2.360000e-06	2.362698e-06	6.163334e-10	1.643705e+01	4.466191e+01
2.370000e-06	2.405307e-06	6.271462e-10	1.673348e+01	4.561865e+01
2.380000e-06	2.447564e-06	6.389947e-10	1.702746e+01	4.654559e+01
2.390000e-06	2.489512e-06	6.520431e-10	1.731928e+01	4.744319e+01
2.400000e-06	2.531076e-06	6.654436e-10	1.760844e+01	4.831200e+01
2.410000e-06	2.572276e-06	6.778650e-10	1.789507e+01	4.915260e+01
2.420000e-06	2.613157e-06	6.892736e-10	1.817947e+01	4.996561e+01
2.430000e-06	2.653753e-06	6.962600e-10	1.846189e+01	5.075171e+01
2.440000e-06	2.694152e-06	7.023826e-10	1.874295e+01	5.151160e+01
2.450000e-06	2.734297e-06	7.097273e-10	1.902223e+01	5.224599e+01
2.460000e-06	2.774265e-06	7.215923e-10	1.930028e+01	5.295563e+01
2.470000e-06	2.814172e-06	7.352960e-10	1.957791e+01	5.364125e+01
2.480000e-06	2.853979e-06	7.491468e-10	1.985485e+01	5.430358e+01
2.490000e-06	2.893642e-06	7.621821e-10	2.013078e+01	5.494337e+01
2.500000e-06	2.933182e-06	7.707273e-10	2.040585e+01	5.556132e+01
2.510000e-06	2.972561e-06	7.764314e-10	2.067981e+01	5.615812e+01
2.520000e-06	3.011732e-06	7.803943e-10	2.095232e+01	5.673445e+01
2.530000e-06	3.050670e-06	7.859370e-10	2.122320e+01	5.729093e+01
2.540000e-06	3.089370e-06	7.932721e-10	2.149244e+01	5.782817e+01
2.550000e-06	3.127842e-06	8.011630e-10	2.176008e+01	5.834673e+01
2.560000e-06	3.166041e-06	8.101394e-10	2.202583e+01	5.884713e+01
2.570000e-06	3.204037e-06	8.172930e-10	2.229017e+01	5.932987e+01
2.580000e-06	3.241862e-06	8.225032e-10	2.255331e+01	5.979538e+01
2.590000e-06	3.279514e-06	8.279508e-10	2.281525e+01	6.024407e+01
2.600000e-06	3.317013e-06	8.324299e-10	2.307612e+01	6.067630e+01
2.610000e-06	3.354323e-06	8.398398e-10	2.333569e+01	6.109242e+01
2.620000e-06	3.391391e-06	8.465053e-10	2.359356e+01	6.149273e+01
2.630000e-06	3.428158e-06	8.524186e-10	2.384935e+01	6.187749e+01
2.640000e-06	3.464612e-06	8.552894e-10	2.410296e+01	6.224696e+01
2.650000e-06	3.500796e-06	8.578019e-10	2.435468e+01	6.260138e+01
2.660000e-06	3.536782e-06	8.622274e-10	2.460503e+01	6.294097e+01
2.670000e-06	3.572654e-06	8.664927e-10	2.485460e+01	6.326595e+01
2.680000e-06	3.608455e-06	8.726070e-10	2.510366e+01	6.357652e+01
2.690000e-06	3.644153e-06	8.795599e-10	2.535200e+01	6.387291e+01
2.700000e-06	3.679686e-06	8.844084e-10	2.559921e+01	6.415535e+01
2.710000e-06	3.714994e-06	8.878960e-10	2.584484e+01	6.442408e+01
2.720000e-06	3.749959e-06	8.913005e-10	2.608808e+01	6.467938e+01
2.730000e-06	3.784512e-06	8.956333e-10	2.632847e+01	6.492154e+01
2.740000e-06	3.818570e-06	9.001779e-10	2.656541e+01	6.515086e+01
2.750000e-06	3.852161e-06	9.050537e-10	2.679909e+01	6.536772e+01
2.760000e-06	3.885315e-06	9.092644e-10	2.702974e+01	6.557249e+01
2.770000e-06	3.918023e-06	9.126860e-10	2.725729e+01	6.576558e+01
2.780000e-06	3.950441e-06	9.158245e-10	2.748282e+01	6.594746e+01
2.790000e-06	3.982601e-06	9.184697e-10	2.770655e+01	6.611861e+01
2.800000e-06	4.014549e-06	9.214686e-10	2.792881e+01	6.627955e+01
2.810000e-06	4.046366e-06	9.233518e-10	2.815016e+01	6.643083e+01
2.820000e-06	4.078005e-06	9.249851e-10	2.837027e+01	6.657302e+01
2.830000e-06	4.109352e-06	9.270444e-10	2.858835e+01	6.670672e+01
2.840000e-06	4.140466e-06	9.305845e-10	2.880480e+01	6.683254e+01
2.850000e-06	4.171341e-06	9.365491e-10	2.901960e+01	6.695109e+01
2.860000e-06	4.201823e-06	9.443907e-10	2.923166e+01	6.706301e+01
2.870000e-06	4.231991e-06	9.509237e-10	2.944153e+01	6.716892e+01
2.880000e-06	4.261927e-06	9.551246e-10	2.964979e+01	6.726943e+01
2.890000e-06	4.291628e-06	9.578955e-10	2.985642e+01	6.736512e+01
2.900000e-06	4.321053e-06	9.593948e-10	3.006113e+01	6.745659e+01
