# Temperatura_=_8.6
# Concentracion g/m^3_=_1620.0
# C_Vs_to_Am_M_A/Vsm_=_65563218390.804596
# pendiente_HvsI_1/m_=_3716.3
# ordenada_HvsI_A/m_=_1297.0
# frecuencia_Hz_=_135103.3794663741

Tiempo_(s)	Campo_(V.s)	Magnetizacion_(V.s)	Campo_(kA/m)	Magnetizacion_(A/m)
0.000000e+00	-5.514245e-06	-1.336180e-09	-3.836995e+01	-9.086067e+01
1.000000e-08	-5.514354e-06	-1.333947e-09	-3.837072e+01	-9.082991e+01
2.000000e-08	-5.514179e-06	-1.331609e-09	-3.836950e+01	-9.080009e+01
3.000000e-08	-5.513530e-06	-1.330515e-09	-3.836498e+01	-9.077143e+01
4.000000e-08	-5.512362e-06	-1.330471e-09	-3.835686e+01	-9.074416e+01
5.000000e-08	-5.510671e-06	-1.328468e-09	-3.834509e+01	-9.071845e+01
6.000000e-08	-5.508319e-06	-1.325127e-09	-3.832872e+01	-9.069442e+01
7.000000e-08	-5.505353e-06	-1.319957e-09	-3.830808e+01	-9.067215e+01
8.000000e-08	-5.501957e-06	-1.317488e-09	-3.828445e+01	-9.065166e+01
9.000000e-08	-5.498169e-06	-1.347281e-09	-3.825810e+01	-9.063288e+01
1.000000e-07	-5.493975e-06	-1.391603e-09	-3.822891e+01	-9.061571e+01
1.100000e-07	-5.489485e-06	-1.359170e-09	-3.819767e+01	-9.059995e+01
1.200000e-07	-5.484923e-06	-1.254786e-09	-3.816592e+01	-9.058534e+01
1.300000e-07	-5.480205e-06	-1.272678e-09	-3.813309e+01	-9.057155e+01
1.400000e-07	-5.475021e-06	-1.355219e-09	-3.809702e+01	-9.055815e+01
1.500000e-07	-5.469284e-06	-1.372128e-09	-3.805711e+01	-9.054468e+01
1.600000e-07	-5.463139e-06	-1.285000e-09	-3.801434e+01	-9.053059e+01
1.700000e-07	-5.456651e-06	-1.281600e-09	-3.796920e+01	-9.051529e+01
1.800000e-07	-5.449692e-06	-1.389723e-09	-3.792078e+01	-9.049812e+01
1.900000e-07	-5.442299e-06	-1.395091e-09	-3.786934e+01	-9.047840e+01
2.000000e-07	-5.434705e-06	-1.315096e-09	-3.781649e+01	-9.045540e+01
2.100000e-07	-5.426910e-06	-1.299059e-09	-3.776225e+01	-9.042839e+01
2.200000e-07	-5.418837e-06	-1.381918e-09	-3.770608e+01	-9.039662e+01
2.300000e-07	-5.410523e-06	-1.400551e-09	-3.764823e+01	-9.035936e+01
2.400000e-07	-5.401691e-06	-1.353236e-09	-3.758677e+01	-9.031588e+01
2.500000e-07	-5.392037e-06	-1.335671e-09	-3.751959e+01	-9.026548e+01
2.600000e-07	-5.381578e-06	-1.364776e-09	-3.744681e+01	-9.020754e+01
2.700000e-07	-5.370545e-06	-1.348498e-09	-3.737004e+01	-9.014146e+01
2.800000e-07	-5.359182e-06	-1.325086e-09	-3.729098e+01	-9.006672e+01
2.900000e-07	-5.347465e-06	-1.327101e-09	-3.720945e+01	-8.998288e+01
3.000000e-07	-5.335426e-06	-1.351146e-09	-3.712567e+01	-8.988959e+01
3.100000e-07	-5.322972e-06	-1.347035e-09	-3.703901e+01	-8.978661e+01
3.200000e-07	-5.309986e-06	-1.339825e-09	-3.694865e+01	-8.967377e+01
3.300000e-07	-5.296593e-06	-1.332728e-09	-3.685546e+01	-8.955104e+01
3.400000e-07	-5.282960e-06	-1.342939e-09	-3.676060e+01	-8.941847e+01
3.500000e-07	-5.268980e-06	-1.343340e-09	-3.666332e+01	-8.927623e+01
3.600000e-07	-5.254372e-06	-1.321463e-09	-3.656167e+01	-8.912462e+01
3.700000e-07	-5.239255e-06	-1.314549e-09	-3.645649e+01	-8.896400e+01
3.800000e-07	-5.223796e-06	-1.339945e-09	-3.634892e+01	-8.879486e+01
3.900000e-07	-5.207791e-06	-1.321111e-09	-3.623755e+01	-8.861776e+01
4.000000e-07	-5.191185e-06	-1.282131e-09	-3.612200e+01	-8.843336e+01
4.100000e-07	-5.174352e-06	-1.319659e-09	-3.600487e+01	-8.824237e+01
4.200000e-07	-5.157280e-06	-1.342592e-09	-3.588608e+01	-8.804555e+01
4.300000e-07	-5.139861e-06	-1.283307e-09	-3.576487e+01	-8.784373e+01
4.400000e-07	-5.122151e-06	-1.276551e-09	-3.564164e+01	-8.763773e+01
4.500000e-07	-5.104090e-06	-1.343206e-09	-3.551596e+01	-8.742843e+01
4.600000e-07	-5.085560e-06	-1.296216e-09	-3.538702e+01	-8.721666e+01
4.700000e-07	-5.066462e-06	-1.232174e-09	-3.525413e+01	-8.700326e+01
4.800000e-07	-5.047034e-06	-1.294036e-09	-3.511895e+01	-8.678904e+01
4.900000e-07	-5.027467e-06	-1.328478e-09	-3.498279e+01	-8.657474e+01
5.000000e-07	-5.007746e-06	-1.254891e-09	-3.484557e+01	-8.636107e+01
5.100000e-07	-4.987772e-06	-1.272678e-09	-3.470658e+01	-8.614865e+01
5.200000e-07	-4.967456e-06	-1.319720e-09	-3.456522e+01	-8.593802e+01
5.300000e-07	-4.946733e-06	-1.265385e-09	-3.442102e+01	-8.572966e+01
5.400000e-07	-4.925694e-06	-1.241214e-09	-3.427462e+01	-8.552391e+01
5.500000e-07	-4.904424e-06	-1.300860e-09	-3.412662e+01	-8.532105e+01
5.600000e-07	-4.882733e-06	-1.268072e-09	-3.397568e+01	-8.512123e+01
5.700000e-07	-4.860636e-06	-1.217964e-09	-3.382193e+01	-8.492451e+01
5.800000e-07	-4.838226e-06	-1.268826e-09	-3.366599e+01	-8.473085e+01
5.900000e-07	-4.815430e-06	-1.287878e-09	-3.350737e+01	-8.454013e+01
6.000000e-07	-4.792291e-06	-1.233208e-09	-3.334636e+01	-8.435209e+01
6.100000e-07	-4.768914e-06	-1.249522e-09	-3.318369e+01	-8.416645e+01
6.200000e-07	-4.745328e-06	-1.281089e-09	-3.301958e+01	-8.398280e+01
6.300000e-07	-4.721519e-06	-1.244454e-09	-3.285390e+01	-8.380070e+01
6.400000e-07	-4.697432e-06	-1.228542e-09	-3.268630e+01	-8.361964e+01
6.500000e-07	-4.672975e-06	-1.251727e-09	-3.251612e+01	-8.343907e+01
6.600000e-07	-4.648124e-06	-1.236920e-09	-3.234320e+01	-8.325843e+01
6.700000e-07	-4.622758e-06	-1.222716e-09	-3.216669e+01	-8.307713e+01
6.800000e-07	-4.596755e-06	-1.245250e-09	-3.198576e+01	-8.289456e+01
6.900000e-07	-4.570190e-06	-1.249550e-09	-3.180090e+01	-8.271015e+01
7.000000e-07	-4.543181e-06	-1.233150e-09	-3.161297e+01	-8.252332e+01
7.100000e-07	-4.515825e-06	-1.226959e-09	-3.142261e+01	-8.233356e+01
7.200000e-07	-4.488266e-06	-1.221532e-09	-3.123085e+01	-8.214036e+01
7.300000e-07	-4.460563e-06	-1.208783e-09	-3.103808e+01	-8.194329e+01
7.400000e-07	-4.432700e-06	-1.210174e-09	-3.084420e+01	-8.174195e+01
7.500000e-07	-4.404635e-06	-1.212616e-09	-3.064892e+01	-8.153602e+01
7.600000e-07	-4.376231e-06	-1.212041e-09	-3.045128e+01	-8.132523e+01
7.700000e-07	-4.347429e-06	-1.209088e-09	-3.025086e+01	-8.110939e+01
7.800000e-07	-4.318281e-06	-1.205798e-09	-3.004804e+01	-8.088836e+01
7.900000e-07	-4.288865e-06	-1.197894e-09	-2.984336e+01	-8.066207e+01
8.000000e-07	-4.259172e-06	-1.192817e-09	-2.963674e+01	-8.043052e+01
8.100000e-07	-4.229185e-06	-1.184698e-09	-2.942808e+01	-8.019374e+01
8.200000e-07	-4.198918e-06	-1.179279e-09	-2.921747e+01	-7.995184e+01
8.300000e-07	-4.168400e-06	-1.176677e-09	-2.900512e+01	-7.970495e+01
8.400000e-07	-4.137615e-06	-1.178997e-09	-2.879091e+01	-7.945325e+01
8.500000e-07	-4.106487e-06	-1.175752e-09	-2.857431e+01	-7.919692e+01
8.600000e-07	-4.075114e-06	-1.170810e-09	-2.835600e+01	-7.893618e+01
8.700000e-07	-4.043589e-06	-1.165259e-09	-2.813664e+01	-7.867126e+01
8.800000e-07	-4.011911e-06	-1.160440e-09	-2.791622e+01	-7.840236e+01
8.900000e-07	-3.980042e-06	-1.151619e-09	-2.769446e+01	-7.812971e+01
9.000000e-07	-3.947934e-06	-1.148533e-09	-2.747104e+01	-7.785349e+01
9.100000e-07	-3.915557e-06	-1.147435e-09	-2.724575e+01	-7.757388e+01
9.200000e-07	-3.882783e-06	-1.142009e-09	-2.701770e+01	-7.729101e+01
9.300000e-07	-3.849570e-06	-1.138137e-09	-2.678659e+01	-7.700497e+01
9.400000e-07	-3.815868e-06	-1.139305e-09	-2.655208e+01	-7.671585e+01
9.500000e-07	-3.781605e-06	-1.135068e-09	-2.631367e+01	-7.642366e+01
9.600000e-07	-3.746926e-06	-1.122977e-09	-2.607236e+01	-7.612838e+01
9.700000e-07	-3.711946e-06	-1.112456e-09	-2.582896e+01	-7.582996e+01
9.800000e-07	-3.676695e-06	-1.104971e-09	-2.558367e+01	-7.552830e+01
9.900000e-07	-3.641215e-06	-1.097583e-09	-2.533679e+01	-7.522327e+01
1.000000e-06	-3.605579e-06	-1.092955e-09	-2.508882e+01	-7.491471e+01
1.010000e-06	-3.569821e-06	-1.093624e-09	-2.484001e+01	-7.460245e+01
1.020000e-06	-3.533911e-06	-1.091298e-09	-2.459013e+01	-7.428627e+01
1.030000e-06	-3.497869e-06	-1.086545e-09	-2.433934e+01	-7.396598e+01
1.040000e-06	-3.461639e-06	-1.082384e-09	-2.408724e+01	-7.364134e+01
1.050000e-06	-3.425112e-06	-1.076739e-09	-2.383307e+01	-7.331216e+01
1.060000e-06	-3.388305e-06	-1.065767e-09	-2.357695e+01	-7.297824e+01
1.070000e-06	-3.351254e-06	-1.058892e-09	-2.331914e+01	-7.263939e+01
1.080000e-06	-3.313956e-06	-1.056259e-09	-2.305961e+01	-7.229548e+01
1.090000e-06	-3.276406e-06	-1.054472e-09	-2.279833e+01	-7.194638e+01
1.100000e-06	-3.238639e-06	-1.048743e-09	-2.253553e+01	-7.159202e+01
1.110000e-06	-3.200603e-06	-1.044225e-09	-2.227086e+01	-7.123235e+01
1.120000e-06	-3.162327e-06	-1.038663e-09	-2.200452e+01	-7.086740e+01
1.130000e-06	-3.123827e-06	-1.032283e-09	-2.173663e+01	-7.049720e+01
1.140000e-06	-3.085123e-06	-1.026492e-09	-2.146732e+01	-7.012187e+01
1.150000e-06	-3.046318e-06	-1.021908e-09	-2.119729e+01	-6.974155e+01
1.160000e-06	-3.007308e-06	-1.013941e-09	-2.092585e+01	-6.935643e+01
1.170000e-06	-2.968011e-06	-1.006639e-09	-2.065241e+01	-6.896674e+01
1.180000e-06	-2.928500e-06	-1.002305e-09	-2.037748e+01	-6.857273e+01
1.190000e-06	-2.888926e-06	-9.976280e-10	-2.010211e+01	-6.817470e+01
1.200000e-06	-2.849322e-06	-9.894572e-10	-1.982653e+01	-6.777293e+01
1.210000e-06	-2.809572e-06	-9.830950e-10	-1.954994e+01	-6.736775e+01
1.220000e-06	-2.769636e-06	-9.760528e-10	-1.927205e+01	-6.695946e+01
1.230000e-06	-2.729560e-06	-9.699676e-10	-1.899319e+01	-6.654837e+01
1.240000e-06	-2.689269e-06	-9.667530e-10	-1.871283e+01	-6.613476e+01
1.250000e-06	-2.648749e-06	-9.655703e-10	-1.843088e+01	-6.571889e+01
1.260000e-06	-2.607957e-06	-9.602168e-10	-1.814704e+01	-6.530097e+01
1.270000e-06	-2.566868e-06	-9.499880e-10	-1.786112e+01	-6.488117e+01
1.280000e-06	-2.525472e-06	-9.426890e-10	-1.757308e+01	-6.445961e+01
1.290000e-06	-2.483771e-06	-9.354330e-10	-1.728291e+01	-6.403635e+01
1.300000e-06	-2.441802e-06	-9.266506e-10	-1.699088e+01	-6.361138e+01
1.310000e-06	-2.399576e-06	-9.190652e-10	-1.669705e+01	-6.318461e+01
1.320000e-06	-2.357123e-06	-9.155886e-10	-1.640165e+01	-6.275589e+01
1.330000e-06	-2.314381e-06	-9.096383e-10	-1.610423e+01	-6.232501e+01
1.340000e-06	-2.271354e-06	-9.031756e-10	-1.580484e+01	-6.189165e+01
1.350000e-06	-2.228133e-06	-8.986018e-10	-1.550409e+01	-6.145546e+01
1.360000e-06	-2.184753e-06	-8.914908e-10	-1.520224e+01	-6.101599e+01
1.370000e-06	-2.141247e-06	-8.836749e-10	-1.489951e+01	-6.057274e+01
1.380000e-06	-2.097646e-06	-8.776408e-10	-1.459612e+01	-6.012515e+01
1.390000e-06	-2.053968e-06	-8.686654e-10	-1.429219e+01	-5.967264e+01
1.400000e-06	-2.010230e-06	-8.578261e-10	-1.398785e+01	-5.921454e+01
1.410000e-06	-1.966444e-06	-8.473706e-10	-1.368317e+01	-5.875018e+01
1.420000e-06	-1.922572e-06	-8.411669e-10	-1.337790e+01	-5.827887e+01
1.430000e-06	-1.878612e-06	-8.349907e-10	-1.307201e+01	-5.779989e+01
1.440000e-06	-1.834558e-06	-8.303214e-10	-1.276547e+01	-5.731254e+01
1.450000e-06	-1.790337e-06	-8.238807e-10	-1.245776e+01	-5.681609e+01
1.460000e-06	-1.745984e-06	-8.135805e-10	-1.214914e+01	-5.630985e+01
1.470000e-06	-1.701600e-06	-7.991076e-10	-1.184030e+01	-5.579316e+01
1.480000e-06	-1.657082e-06	-7.868121e-10	-1.153053e+01	-5.526536e+01
1.490000e-06	-1.612368e-06	-7.773406e-10	-1.121940e+01	-5.472584e+01
1.500000e-06	-1.567497e-06	-7.677254e-10	-1.090716e+01	-5.417401e+01
1.510000e-06	-1.522523e-06	-7.603707e-10	-1.059422e+01	-5.360934e+01
1.520000e-06	-1.477458e-06	-7.552698e-10	-1.028065e+01	-5.303133e+01
1.530000e-06	-1.432214e-06	-7.480848e-10	-9.965820e+00	-5.243950e+01
1.540000e-06	-1.386896e-06	-7.353175e-10	-9.650487e+00	-5.183342e+01
1.550000e-06	-1.341577e-06	-7.195923e-10	-9.335137e+00	-5.121268e+01
1.560000e-06	-1.296187e-06	-7.036385e-10	-9.019304e+00	-5.057691e+01
1.570000e-06	-1.250654e-06	-6.902168e-10	-8.702467e+00	-4.992573e+01
1.580000e-06	-1.205003e-06	-6.809071e-10	-8.384811e+00	-4.925878e+01
1.590000e-06	-1.159300e-06	-6.752128e-10	-8.066796e+00	-4.857570e+01
1.600000e-06	-1.113506e-06	-6.674546e-10	-7.748145e+00	-4.787611e+01
1.610000e-06	-1.067568e-06	-6.564320e-10	-7.428491e+00	-4.715962e+01
1.620000e-06	-1.021452e-06	-6.444615e-10	-7.107602e+00	-4.642578e+01
1.630000e-06	-9.753407e-07	-6.320243e-10	-6.786746e+00	-4.567415e+01
1.640000e-06	-9.292913e-07	-6.196209e-10	-6.466319e+00	-4.490418e+01
1.650000e-06	-8.831200e-07	-6.081136e-10	-6.145043e+00	-4.411530e+01
1.660000e-06	-8.369090e-07	-5.947763e-10	-5.823492e+00	-4.330686e+01
1.670000e-06	-7.906925e-07	-5.801922e-10	-5.501903e+00	-4.247817e+01
1.680000e-06	-7.444407e-07	-5.637571e-10	-5.180067e+00	-4.162842e+01
1.690000e-06	-6.981638e-07	-5.473469e-10	-4.858056e+00	-4.075677e+01
1.700000e-06	-6.518087e-07	-5.312284e-10	-4.535502e+00	-3.986230e+01
1.710000e-06	-6.053510e-07	-5.174114e-10	-4.212234e+00	-3.894400e+01
1.720000e-06	-5.588025e-07	-5.044438e-10	-3.888335e+00	-3.800085e+01
1.730000e-06	-5.122173e-07	-4.896144e-10	-3.564179e+00	-3.703173e+01
1.740000e-06	-4.655765e-07	-4.724728e-10	-3.239636e+00	-3.603552e+01
1.750000e-06	-4.188918e-07	-4.539736e-10	-2.914789e+00	-3.501106e+01
1.760000e-06	-3.722390e-07	-4.351913e-10	-2.590163e+00	-3.395718e+01
1.770000e-06	-3.256004e-07	-4.189106e-10	-2.265636e+00	-3.287274e+01
1.780000e-06	-2.789973e-07	-4.051796e-10	-1.941356e+00	-3.175660e+01
1.790000e-06	-2.323238e-07	-3.923909e-10	-1.616586e+00	-3.060771e+01
1.800000e-06	-1.855651e-07	-3.770460e-10	-1.291224e+00	-2.942505e+01
1.810000e-06	-1.388753e-07	-3.587085e-10	-9.663410e-01	-2.820773e+01
1.820000e-06	-9.211243e-08	-3.410168e-10	-6.409490e-01	-2.695497e+01
1.830000e-06	-4.530457e-08	-3.236332e-10	-3.152443e-01	-2.566612e+01
1.840000e-06	1.440692e-09	-3.059301e-10	1.002481e-02	-2.434069e+01
1.850000e-06	4.821374e-08	-2.871977e-10	3.354873e-01	-2.297840e+01
1.860000e-06	9.504282e-08	-2.681313e-10	6.613396e-01	-2.157912e+01
1.870000e-06	1.417973e-07	-2.484723e-10	9.866728e-01	-2.014298e+01
1.880000e-06	1.884285e-07	-2.283293e-10	1.311148e+00	-1.867031e+01
1.890000e-06	2.350431e-07	-2.081239e-10	1.635508e+00	-1.716168e+01
1.900000e-06	2.816800e-07	-1.869608e-10	1.960023e+00	-1.561792e+01
1.910000e-06	3.283875e-07	-1.658497e-10	2.285030e+00	-1.404009e+01
1.920000e-06	3.751636e-07	-1.472972e-10	2.610513e+00	-1.242952e+01
1.930000e-06	4.219002e-07	-1.273760e-10	2.935723e+00	-1.078777e+01
1.940000e-06	4.684671e-07	-1.037750e-10	3.259750e+00	-9.116631e+00
1.950000e-06	5.149538e-07	-7.821867e-11	3.583221e+00	-7.418147e+00
1.960000e-06	5.615015e-07	-5.621633e-11	3.907115e+00	-5.694557e+00
1.970000e-06	6.080162e-07	-3.545594e-11	4.230779e+00	-3.948302e+00
1.980000e-06	6.544238e-07	-1.518612e-11	4.553699e+00	-2.182000e+00
1.990000e-06	7.007692e-07	6.365140e-12	4.876186e+00	-3.984201e-01
2.000000e-06	7.471088e-07	3.297827e-11	5.198633e+00	1.399540e+00
2.010000e-06	7.933871e-07	6.348151e-11	5.520652e+00	3.208885e+00
2.020000e-06	8.395672e-07	9.237689e-11	5.841989e+00	5.026544e+00
2.030000e-06	8.856937e-07	1.186946e-10	6.162952e+00	6.849409e+00
2.040000e-06	9.317631e-07	1.414650e-10	6.483518e+00	8.674359e+00
2.050000e-06	9.777303e-07	1.642917e-10	6.803374e+00	1.049829e+01
2.060000e-06	1.023639e-06	1.879557e-10	7.122821e+00	1.231816e+01
2.070000e-06	1.069510e-06	2.106875e-10	7.442010e+00	1.413098e+01
2.080000e-06	1.115372e-06	2.372972e-10	7.761131e+00	1.593389e+01
2.090000e-06	1.161209e-06	2.662218e-10	8.080077e+00	1.772414e+01
2.100000e-06	1.206957e-06	2.933437e-10	8.398408e+00	1.949915e+01
2.110000e-06	1.252632e-06	3.158896e-10	8.716228e+00	2.125650e+01
2.120000e-06	1.298176e-06	3.358595e-10	9.033140e+00	2.299398e+01
2.130000e-06	1.343642e-06	3.555926e-10	9.349511e+00	2.470954e+01
2.140000e-06	1.389010e-06	3.773089e-10	9.665198e+00	2.640139e+01
2.150000e-06	1.434199e-06	4.024801e-10	9.979635e+00	2.806794e+01
2.160000e-06	1.479216e-06	4.308956e-10	1.029288e+01	2.970781e+01
2.170000e-06	1.524055e-06	4.570970e-10	1.060489e+01	3.131987e+01
2.180000e-06	1.568838e-06	4.783347e-10	1.091650e+01	3.290320e+01
2.190000e-06	1.613657e-06	4.967702e-10	1.122836e+01	3.445708e+01
2.200000e-06	1.658354e-06	5.150998e-10	1.153938e+01	3.598100e+01
2.210000e-06	1.702866e-06	5.314170e-10	1.184911e+01	3.747465e+01
2.220000e-06	1.747184e-06	5.484976e-10	1.215749e+01	3.893788e+01
2.230000e-06	1.791321e-06	5.694210e-10	1.246461e+01	4.037071e+01
2.240000e-06	1.835365e-06	5.914227e-10	1.277108e+01	4.177328e+01
2.250000e-06	1.879338e-06	6.120512e-10	1.307706e+01	4.314588e+01
2.260000e-06	1.923251e-06	6.323493e-10	1.338262e+01	4.448888e+01
2.270000e-06	1.967092e-06	6.491145e-10	1.368769e+01	4.580272e+01
2.280000e-06	2.010881e-06	6.641495e-10	1.399238e+01	4.708793e+01
2.290000e-06	2.054597e-06	6.799224e-10	1.429657e+01	4.834504e+01
2.300000e-06	2.098253e-06	6.967128e-10	1.460034e+01	4.957464e+01
2.310000e-06	2.141885e-06	7.140855e-10	1.490395e+01	5.077729e+01
2.320000e-06	2.185363e-06	7.304015e-10	1.520648e+01	5.195355e+01
2.330000e-06	2.228693e-06	7.455617e-10	1.550799e+01	5.310396e+01
2.340000e-06	2.271961e-06	7.598220e-10	1.580906e+01	5.422902e+01
2.350000e-06	2.315071e-06	7.743356e-10	1.610903e+01	5.532917e+01
2.360000e-06	2.357940e-06	7.890158e-10	1.640733e+01	5.640480e+01
2.370000e-06	2.400516e-06	8.015988e-10	1.670359e+01	5.745625e+01
2.380000e-06	2.442687e-06	8.143039e-10	1.699703e+01	5.848380e+01
2.390000e-06	2.484468e-06	8.259667e-10	1.728776e+01	5.948764e+01
2.400000e-06	2.526005e-06	8.371458e-10	1.757678e+01	6.046794e+01
2.410000e-06	2.567331e-06	8.523683e-10	1.786434e+01	6.142479e+01
2.420000e-06	2.608345e-06	8.678710e-10	1.814973e+01	6.235824e+01
2.430000e-06	2.649019e-06	8.820457e-10	1.843276e+01	6.326829e+01
2.440000e-06	2.689422e-06	8.931559e-10	1.871390e+01	6.415494e+01
2.450000e-06	2.729609e-06	9.019476e-10	1.899353e+01	6.501813e+01
2.460000e-06	2.769650e-06	9.114867e-10	1.927215e+01	6.585782e+01
2.470000e-06	2.809586e-06	9.234208e-10	1.955004e+01	6.667394e+01
2.480000e-06	2.849377e-06	9.353065e-10	1.982691e+01	6.746647e+01
2.490000e-06	2.889046e-06	9.474186e-10	2.010295e+01	6.823537e+01
2.500000e-06	2.928615e-06	9.592108e-10	2.037828e+01	6.898068e+01
2.510000e-06	2.968028e-06	9.706065e-10	2.065253e+01	6.970244e+01
2.520000e-06	3.007225e-06	9.802127e-10	2.092528e+01	7.040077e+01
2.530000e-06	3.046240e-06	9.873115e-10	2.119675e+01	7.107583e+01
2.540000e-06	3.085065e-06	9.930874e-10	2.146691e+01	7.172786e+01
2.550000e-06	3.123574e-06	9.995809e-10	2.173487e+01	7.235715e+01
2.560000e-06	3.161806e-06	1.007883e-09	2.200090e+01	7.296408e+01
2.570000e-06	3.199823e-06	1.017157e-09	2.226543e+01	7.354909e+01
2.580000e-06	3.237674e-06	1.026154e-09	2.252882e+01	7.411268e+01
2.590000e-06	3.275324e-06	1.033454e-09	2.279080e+01	7.465543e+01
2.600000e-06	3.312767e-06	1.038447e-09	2.305134e+01	7.517798e+01
2.610000e-06	3.350090e-06	1.043542e-09	2.331104e+01	7.568102e+01
2.620000e-06	3.387220e-06	1.048682e-09	2.356941e+01	7.616531e+01
2.630000e-06	3.424030e-06	1.054806e-09	2.382555e+01	7.663164e+01
2.640000e-06	3.460547e-06	1.062492e-09	2.407964e+01	7.708082e+01
2.650000e-06	3.496876e-06	1.070129e-09	2.433243e+01	7.751370e+01
2.660000e-06	3.532980e-06	1.077203e-09	2.458365e+01	7.793115e+01
2.670000e-06	3.568872e-06	1.081688e-09	2.483340e+01	7.833403e+01
2.680000e-06	3.604609e-06	1.085528e-09	2.508207e+01	7.872321e+01
2.690000e-06	3.640202e-06	1.091340e-09	2.532974e+01	7.909952e+01
2.700000e-06	3.675615e-06	1.096669e-09	2.557615e+01	7.946380e+01
2.710000e-06	3.710789e-06	1.100529e-09	2.582091e+01	7.981684e+01
2.720000e-06	3.745716e-06	1.107013e-09	2.606394e+01	8.015938e+01
2.730000e-06	3.780323e-06	1.115009e-09	2.630475e+01	8.049215e+01
2.740000e-06	3.814509e-06	1.121901e-09	2.654263e+01	8.081580e+01
2.750000e-06	3.848176e-06	1.128373e-09	2.677689e+01	8.113093e+01
2.760000e-06	3.881348e-06	1.134931e-09	2.700771e+01	8.143809e+01
2.770000e-06	3.914181e-06	1.139571e-09	2.723618e+01	8.173778e+01
2.780000e-06	3.946653e-06	1.144203e-09	2.746213e+01	8.203044e+01
2.790000e-06	3.978769e-06	1.149968e-09	2.768560e+01	8.231642e+01
2.800000e-06	4.010673e-06	1.154917e-09	2.790760e+01	8.259608e+01
2.810000e-06	4.042412e-06	1.158078e-09	2.812845e+01	8.286967e+01
2.820000e-06	4.074001e-06	1.162330e-09	2.834826e+01	8.313742e+01
2.830000e-06	4.105406e-06	1.168443e-09	2.856679e+01	8.339952e+01
2.840000e-06	4.136573e-06	1.174604e-09	2.878365e+01	8.365612e+01
2.850000e-06	4.167424e-06	1.180983e-09	2.899832e+01	8.390734e+01
2.860000e-06	4.197923e-06	1.187377e-09	2.921055e+01	8.415328e+01
2.870000e-06	4.228115e-06	1.191135e-09	2.942063e+01	8.439400e+01
2.880000e-06	4.257974e-06	1.194432e-09	2.962841e+01	8.462957e+01
2.890000e-06	4.287523e-06	1.200401e-09	2.983402e+01	8.486005e+01
2.900000e-06	4.316842e-06	1.206725e-09	3.003803e+01	8.508548e+01
