# Temperatura_=_11.67
# Concentracion g/m^3_=_1620.0
# C_Vs_to_Am_M_A/Vsm_=_65563218390.804596
# pendiente_HvsI_1/m_=_3716.3
# ordenada_HvsI_A/m_=_1297.0
# frecuencia_Hz_=_135102.96871059833

Tiempo_(s)	Campo_(V.s)	Magnetizacion_(V.s)	Campo_(kA/m)	Magnetizacion_(A/m)
0.000000e+00	-5.532441e-06	-1.412586e-09	-3.836873e+01	-9.528043e+01
1.000000e-08	-5.532559e-06	-1.408176e-09	-3.836955e+01	-9.522290e+01
2.000000e-08	-5.532425e-06	-1.403504e-09	-3.836863e+01	-9.517033e+01
3.000000e-08	-5.532027e-06	-1.400166e-09	-3.836586e+01	-9.512346e+01
4.000000e-08	-5.531248e-06	-1.397593e-09	-3.836046e+01	-9.508291e+01
5.000000e-08	-5.529971e-06	-1.395857e-09	-3.835161e+01	-9.504916e+01
6.000000e-08	-5.528020e-06	-1.401198e-09	-3.833808e+01	-9.502257e+01
7.000000e-08	-5.525473e-06	-1.423643e-09	-3.832041e+01	-9.500333e+01
8.000000e-08	-5.522406e-06	-1.407629e-09	-3.829914e+01	-9.499150e+01
9.000000e-08	-5.518706e-06	-1.330819e-09	-3.827348e+01	-9.498695e+01
1.000000e-07	-5.514542e-06	-1.340169e-09	-3.824460e+01	-9.498940e+01
1.100000e-07	-5.510182e-06	-1.467678e-09	-3.821437e+01	-9.499840e+01
1.200000e-07	-5.505578e-06	-1.450907e-09	-3.818244e+01	-9.501333e+01
1.300000e-07	-5.500686e-06	-1.329612e-09	-3.814851e+01	-9.503345e+01
1.400000e-07	-5.495555e-06	-1.304681e-09	-3.811293e+01	-9.505785e+01
1.500000e-07	-5.489991e-06	-1.443115e-09	-3.807434e+01	-9.508551e+01
1.600000e-07	-5.483980e-06	-1.471651e-09	-3.803265e+01	-9.511528e+01
1.700000e-07	-5.477577e-06	-1.334253e-09	-3.798824e+01	-9.514593e+01
1.800000e-07	-5.470768e-06	-1.324244e-09	-3.794102e+01	-9.517617e+01
1.900000e-07	-5.463504e-06	-1.460421e-09	-3.789064e+01	-9.520464e+01
2.000000e-07	-5.455860e-06	-1.508871e-09	-3.783763e+01	-9.522995e+01
2.100000e-07	-5.447983e-06	-1.410745e-09	-3.778300e+01	-9.525072e+01
2.200000e-07	-5.439936e-06	-1.379283e-09	-3.772719e+01	-9.526558e+01
2.300000e-07	-5.431653e-06	-1.453179e-09	-3.766975e+01	-9.527321e+01
2.400000e-07	-5.422845e-06	-1.487405e-09	-3.760866e+01	-9.527236e+01
2.500000e-07	-5.413490e-06	-1.439550e-09	-3.754379e+01	-9.526186e+01
2.600000e-07	-5.403551e-06	-1.421457e-09	-3.747486e+01	-9.524065e+01
2.700000e-07	-5.392870e-06	-1.448912e-09	-3.740078e+01	-9.520780e+01
2.800000e-07	-5.381600e-06	-1.463105e-09	-3.732262e+01	-9.516253e+01
2.900000e-07	-5.369912e-06	-1.437399e-09	-3.724156e+01	-9.510421e+01
3.000000e-07	-5.357869e-06	-1.423133e-09	-3.715804e+01	-9.503237e+01
3.100000e-07	-5.345427e-06	-1.443247e-09	-3.707175e+01	-9.494672e+01
3.200000e-07	-5.332610e-06	-1.483355e-09	-3.698286e+01	-9.484716e+01
3.300000e-07	-5.319409e-06	-1.453988e-09	-3.689131e+01	-9.473374e+01
3.400000e-07	-5.305794e-06	-1.414836e-09	-3.679689e+01	-9.460671e+01
3.500000e-07	-5.291791e-06	-1.452181e-09	-3.669977e+01	-9.446647e+01
3.600000e-07	-5.277360e-06	-1.480352e-09	-3.659969e+01	-9.431358e+01
3.700000e-07	-5.262413e-06	-1.404075e-09	-3.649603e+01	-9.414874e+01
3.800000e-07	-5.247008e-06	-1.400302e-09	-3.638920e+01	-9.397280e+01
3.900000e-07	-5.231186e-06	-1.474023e-09	-3.627946e+01	-9.378669e+01
4.000000e-07	-5.214814e-06	-1.411289e-09	-3.616592e+01	-9.359147e+01
4.100000e-07	-5.197980e-06	-1.340395e-09	-3.604918e+01	-9.338823e+01
4.200000e-07	-5.180852e-06	-1.450770e-09	-3.593039e+01	-9.317812e+01
4.300000e-07	-5.163443e-06	-1.477783e-09	-3.580965e+01	-9.296234e+01
4.400000e-07	-5.145697e-06	-1.332237e-09	-3.568658e+01	-9.274205e+01
4.500000e-07	-5.127638e-06	-1.364527e-09	-3.556133e+01	-9.251841e+01
4.600000e-07	-5.109155e-06	-1.483153e-09	-3.543315e+01	-9.229255e+01
4.700000e-07	-5.090138e-06	-1.366174e-09	-3.530127e+01	-9.206550e+01
4.800000e-07	-5.070790e-06	-1.295054e-09	-3.516708e+01	-9.183823e+01
4.900000e-07	-5.051266e-06	-1.444522e-09	-3.503168e+01	-9.161160e+01
5.000000e-07	-5.031531e-06	-1.426876e-09	-3.489481e+01	-9.138637e+01
5.100000e-07	-5.011514e-06	-1.305254e-09	-3.475599e+01	-9.116315e+01
5.200000e-07	-4.991194e-06	-1.405584e-09	-3.461507e+01	-9.094242e+01
5.300000e-07	-4.970548e-06	-1.456037e-09	-3.447188e+01	-9.072454e+01
5.400000e-07	-4.949520e-06	-1.302399e-09	-3.432604e+01	-9.050969e+01
5.500000e-07	-4.928158e-06	-1.326260e-09	-3.417790e+01	-9.029794e+01
5.600000e-07	-4.906462e-06	-1.440273e-09	-3.402743e+01	-9.008921e+01
5.700000e-07	-4.884385e-06	-1.339920e-09	-3.387432e+01	-8.988326e+01
5.800000e-07	-4.861954e-06	-1.289636e-09	-3.371876e+01	-8.967977e+01
5.900000e-07	-4.839211e-06	-1.410417e-09	-3.356103e+01	-8.947827e+01
6.000000e-07	-4.816182e-06	-1.378667e-09	-3.340132e+01	-8.927823e+01
6.100000e-07	-4.792867e-06	-1.286038e-09	-3.323962e+01	-8.907900e+01
6.200000e-07	-4.769256e-06	-1.354956e-09	-3.307587e+01	-8.887990e+01
6.300000e-07	-4.745314e-06	-1.375293e-09	-3.290983e+01	-8.868018e+01
6.400000e-07	-4.721080e-06	-1.290554e-09	-3.274177e+01	-8.847908e+01
6.500000e-07	-4.696628e-06	-1.317924e-09	-3.257218e+01	-8.827583e+01
6.600000e-07	-4.671815e-06	-1.361208e-09	-3.240010e+01	-8.806967e+01
6.700000e-07	-4.646453e-06	-1.303403e-09	-3.222421e+01	-8.785988e+01
6.800000e-07	-4.620459e-06	-1.297558e-09	-3.204393e+01	-8.764577e+01
6.900000e-07	-4.593994e-06	-1.344516e-09	-3.186039e+01	-8.742672e+01
7.000000e-07	-4.567150e-06	-1.312935e-09	-3.167422e+01	-8.720220e+01
7.100000e-07	-4.539869e-06	-1.284447e-09	-3.148503e+01	-8.697176e+01
7.200000e-07	-4.512290e-06	-1.314122e-09	-3.129376e+01	-8.673505e+01
7.300000e-07	-4.484490e-06	-1.305553e-09	-3.110096e+01	-8.649181e+01
7.400000e-07	-4.456489e-06	-1.277261e-09	-3.090677e+01	-8.624190e+01
7.500000e-07	-4.428318e-06	-1.293509e-09	-3.071139e+01	-8.598530e+01
7.600000e-07	-4.399965e-06	-1.299064e-09	-3.051476e+01	-8.572206e+01
7.700000e-07	-4.371255e-06	-1.274965e-09	-3.031565e+01	-8.545237e+01
7.800000e-07	-4.342088e-06	-1.277284e-09	-3.011337e+01	-8.517649e+01
7.900000e-07	-4.312654e-06	-1.279858e-09	-2.990924e+01	-8.489478e+01
8.000000e-07	-4.282951e-06	-1.256394e-09	-2.970324e+01	-8.460766e+01
8.100000e-07	-4.252968e-06	-1.250315e-09	-2.949530e+01	-8.431562e+01
8.200000e-07	-4.222746e-06	-1.261726e-09	-2.928571e+01	-8.401919e+01
8.300000e-07	-4.192214e-06	-1.246428e-09	-2.907396e+01	-8.371894e+01
8.400000e-07	-4.161370e-06	-1.235750e-09	-2.886005e+01	-8.341544e+01
8.500000e-07	-4.130177e-06	-1.249835e-09	-2.864371e+01	-8.310927e+01
8.600000e-07	-4.098691e-06	-1.245030e-09	-2.842535e+01	-8.280099e+01
8.700000e-07	-4.067045e-06	-1.224340e-09	-2.820588e+01	-8.249111e+01
8.800000e-07	-4.035237e-06	-1.228479e-09	-2.798529e+01	-8.218012e+01
8.900000e-07	-4.003239e-06	-1.227478e-09	-2.776337e+01	-8.186843e+01
9.000000e-07	-3.971079e-06	-1.208867e-09	-2.754033e+01	-8.155637e+01
9.100000e-07	-3.938687e-06	-1.209461e-09	-2.731569e+01	-8.124421e+01
9.200000e-07	-3.905951e-06	-1.218750e-09	-2.708866e+01	-8.093212e+01
9.300000e-07	-3.872834e-06	-1.202587e-09	-2.685898e+01	-8.062017e+01
9.400000e-07	-3.839279e-06	-1.192720e-09	-2.662627e+01	-8.030834e+01
9.500000e-07	-3.805238e-06	-1.200701e-09	-2.639019e+01	-7.999650e+01
9.600000e-07	-3.770702e-06	-1.187971e-09	-2.615068e+01	-7.968446e+01
9.700000e-07	-3.735717e-06	-1.168161e-09	-2.590805e+01	-7.937189e+01
9.800000e-07	-3.700353e-06	-1.170650e-09	-2.566279e+01	-7.905842e+01
9.900000e-07	-3.664693e-06	-1.170321e-09	-2.541548e+01	-7.874359e+01
1.000000e-06	-3.628847e-06	-1.152934e-09	-2.516688e+01	-7.842687e+01
1.010000e-06	-3.592913e-06	-1.150848e-09	-2.491767e+01	-7.810769e+01
1.020000e-06	-3.556942e-06	-1.157488e-09	-2.466820e+01	-7.778545e+01
1.030000e-06	-3.520801e-06	-1.147109e-09	-2.441755e+01	-7.745952e+01
1.040000e-06	-3.484450e-06	-1.138996e-09	-2.416546e+01	-7.712926e+01
1.050000e-06	-3.447894e-06	-1.140506e-09	-2.391193e+01	-7.679405e+01
1.060000e-06	-3.411038e-06	-1.129205e-09	-2.365632e+01	-7.645328e+01
1.070000e-06	-3.373835e-06	-1.112736e-09	-2.339832e+01	-7.610638e+01
1.080000e-06	-3.336362e-06	-1.112273e-09	-2.313843e+01	-7.575286e+01
1.090000e-06	-3.298672e-06	-1.115449e-09	-2.287704e+01	-7.539225e+01
1.100000e-06	-3.260770e-06	-1.107594e-09	-2.261418e+01	-7.502418e+01
1.110000e-06	-3.222690e-06	-1.104363e-09	-2.235009e+01	-7.464836e+01
1.120000e-06	-3.184447e-06	-1.102574e-09	-2.208487e+01	-7.426457e+01
1.130000e-06	-3.145954e-06	-1.088712e-09	-2.181791e+01	-7.387271e+01
1.140000e-06	-3.107092e-06	-1.075479e-09	-2.154839e+01	-7.347275e+01
1.150000e-06	-3.067998e-06	-1.069067e-09	-2.127726e+01	-7.306476e+01
1.160000e-06	-3.028741e-06	-1.058170e-09	-2.100501e+01	-7.264891e+01
1.170000e-06	-2.989272e-06	-1.048653e-09	-2.073128e+01	-7.222545e+01
1.180000e-06	-2.949623e-06	-1.049185e-09	-2.045630e+01	-7.179469e+01
1.190000e-06	-2.909840e-06	-1.048209e-09	-2.018040e+01	-7.135704e+01
1.200000e-06	-2.869958e-06	-1.036988e-09	-1.990381e+01	-7.091293e+01
1.210000e-06	-2.829968e-06	-1.026021e-09	-1.962647e+01	-7.046286e+01
1.220000e-06	-2.789896e-06	-1.016966e-09	-1.934856e+01	-7.000736e+01
1.230000e-06	-2.749713e-06	-1.005115e-09	-1.906988e+01	-6.954697e+01
1.240000e-06	-2.709343e-06	-9.979874e-10	-1.878991e+01	-6.908222e+01
1.250000e-06	-2.668766e-06	-9.980049e-10	-1.850850e+01	-6.861363e+01
1.260000e-06	-2.628012e-06	-9.968940e-10	-1.822586e+01	-6.814172e+01
1.270000e-06	-2.587015e-06	-9.905512e-10	-1.794154e+01	-6.766693e+01
1.280000e-06	-2.545679e-06	-9.830428e-10	-1.765486e+01	-6.718967e+01
1.290000e-06	-2.503969e-06	-9.733455e-10	-1.736560e+01	-6.671026e+01
1.300000e-06	-2.461966e-06	-9.593718e-10	-1.707429e+01	-6.622896e+01
1.310000e-06	-2.419641e-06	-9.472612e-10	-1.678076e+01	-6.574593e+01
1.320000e-06	-2.376904e-06	-9.406043e-10	-1.648437e+01	-6.526125e+01
1.330000e-06	-2.333929e-06	-9.362231e-10	-1.618633e+01	-6.477490e+01
1.340000e-06	-2.290765e-06	-9.339523e-10	-1.588697e+01	-6.428676e+01
1.350000e-06	-2.247346e-06	-9.320251e-10	-1.558585e+01	-6.379659e+01
1.360000e-06	-2.203718e-06	-9.245061e-10	-1.528328e+01	-6.330409e+01
1.370000e-06	-2.159985e-06	-9.127713e-10	-1.497998e+01	-6.280883e+01
1.380000e-06	-2.116202e-06	-8.996895e-10	-1.467634e+01	-6.231031e+01
1.390000e-06	-2.072362e-06	-8.865322e-10	-1.437230e+01	-6.180796e+01
1.400000e-06	-2.028525e-06	-8.752015e-10	-1.406828e+01	-6.130111e+01
1.410000e-06	-1.984604e-06	-8.667642e-10	-1.376368e+01	-6.078906e+01
1.420000e-06	-1.940558e-06	-8.612808e-10	-1.345821e+01	-6.027104e+01
1.430000e-06	-1.896453e-06	-8.541819e-10	-1.315234e+01	-5.974625e+01
1.440000e-06	-1.852244e-06	-8.440939e-10	-1.284573e+01	-5.921388e+01
1.450000e-06	-1.807936e-06	-8.331076e-10	-1.253845e+01	-5.867308e+01
1.460000e-06	-1.763538e-06	-8.219706e-10	-1.223054e+01	-5.812303e+01
1.470000e-06	-1.719024e-06	-8.087039e-10	-1.192182e+01	-5.756290e+01
1.480000e-06	-1.674361e-06	-7.957920e-10	-1.161207e+01	-5.699188e+01
1.490000e-06	-1.629553e-06	-7.858698e-10	-1.130132e+01	-5.640922e+01
1.500000e-06	-1.584601e-06	-7.782132e-10	-1.098957e+01	-5.581418e+01
1.510000e-06	-1.539476e-06	-7.725409e-10	-1.067661e+01	-5.520606e+01
1.520000e-06	-1.494208e-06	-7.678636e-10	-1.036267e+01	-5.458424e+01
1.530000e-06	-1.448866e-06	-7.620747e-10	-1.004821e+01	-5.394812e+01
1.540000e-06	-1.403414e-06	-7.519896e-10	-9.732995e+00	-5.329716e+01
1.550000e-06	-1.357851e-06	-7.384040e-10	-9.417004e+00	-5.263087e+01
1.560000e-06	-1.312279e-06	-7.235277e-10	-9.100954e+00	-5.194880e+01
1.570000e-06	-1.266641e-06	-7.083010e-10	-8.784442e+00	-5.125055e+01
1.580000e-06	-1.220861e-06	-6.944721e-10	-8.466948e+00	-5.053573e+01
1.590000e-06	-1.174980e-06	-6.875870e-10	-8.148755e+00	-4.980400e+01
1.600000e-06	-1.128983e-06	-6.811441e-10	-7.829753e+00	-4.905500e+01
1.610000e-06	-1.082922e-06	-6.721217e-10	-7.510311e+00	-4.828842e+01
1.620000e-06	-1.036865e-06	-6.610238e-10	-7.190897e+00	-4.750390e+01
1.630000e-06	-9.907558e-07	-6.465250e-10	-6.871116e+00	-4.670107e+01
1.640000e-06	-9.445717e-07	-6.307373e-10	-6.550820e+00	-4.587955e+01
1.650000e-06	-8.982921e-07	-6.136099e-10	-6.229860e+00	-4.503891e+01
1.660000e-06	-8.518536e-07	-5.985512e-10	-5.907798e+00	-4.417865e+01
1.670000e-06	-8.053280e-07	-5.841683e-10	-5.585133e+00	-4.329825e+01
1.680000e-06	-7.588478e-07	-5.715709e-10	-5.262782e+00	-4.239710e+01
1.690000e-06	-7.123869e-07	-5.597586e-10	-4.940565e+00	-4.147454e+01
1.700000e-06	-6.658129e-07	-5.457279e-10	-4.617564e+00	-4.052983e+01
1.710000e-06	-6.191255e-07	-5.283762e-10	-4.293776e+00	-3.956216e+01
1.720000e-06	-5.724381e-07	-5.129082e-10	-3.969988e+00	-3.857067e+01
1.730000e-06	-5.257125e-07	-4.961638e-10	-3.645936e+00	-3.755440e+01
1.740000e-06	-4.789532e-07	-4.789054e-10	-3.321649e+00	-3.651238e+01
1.750000e-06	-4.321864e-07	-4.625175e-10	-2.997311e+00	-3.544357e+01
1.760000e-06	-3.853350e-07	-4.451500e-10	-2.672386e+00	-3.434691e+01
1.770000e-06	-3.384561e-07	-4.277910e-10	-2.347270e+00	-3.322131e+01
1.780000e-06	-2.916014e-07	-4.111459e-10	-2.022322e+00	-3.206568e+01
1.790000e-06	-2.447010e-07	-3.956183e-10	-1.697057e+00	-3.087897e+01
1.800000e-06	-1.977755e-07	-3.793834e-10	-1.371618e+00	-2.966014e+01
1.810000e-06	-1.508571e-07	-3.622133e-10	-1.046228e+00	-2.840823e+01
1.820000e-06	-1.039351e-07	-3.443256e-10	-7.208136e-01	-2.712236e+01
1.830000e-06	-5.706916e-08	-3.271544e-10	-3.957876e-01	-2.580173e+01
1.840000e-06	-1.023817e-08	-3.094498e-10	-7.100401e-02	-2.444568e+01
1.850000e-06	3.666194e-08	-2.890193e-10	2.542589e-01	-2.305371e+01
1.860000e-06	8.361324e-08	-2.665459e-10	5.798768e-01	-2.162547e+01
1.870000e-06	1.306093e-07	-2.430161e-10	9.058055e-01	-2.016079e+01
1.880000e-06	1.775910e-07	-2.215811e-10	1.231634e+00	-1.865971e+01
1.890000e-06	2.244929e-07	-2.019602e-10	1.556909e+00	-1.712249e+01
1.900000e-06	2.714316e-07	-1.803267e-10	1.882440e+00	-1.554962e+01
1.910000e-06	3.183867e-07	-1.601156e-10	2.208084e+00	-1.394181e+01
1.920000e-06	3.652654e-07	-1.403796e-10	2.533198e+00	-1.230004e+01
1.930000e-06	4.120483e-07	-1.202983e-10	2.857648e+00	-1.062551e+01
1.940000e-06	4.587693e-07	-9.559383e-11	3.181669e+00	-8.919679e+00
1.950000e-06	5.054719e-07	-6.913974e-11	3.505563e+00	-7.184254e+00
1.960000e-06	5.521242e-07	-4.621925e-11	3.829107e+00	-5.421167e+00
1.970000e-06	5.986859e-07	-2.428395e-11	4.152023e+00	-3.632577e+00
1.980000e-06	6.452881e-07	-1.329854e-12	4.475220e+00	-1.820850e+00
1.990000e-06	6.919270e-07	2.326272e-11	4.798671e+00	1.145551e-02
2.000000e-06	7.384317e-07	5.044611e-11	5.121191e+00	1.861608e+00
2.010000e-06	7.848453e-07	7.936034e-11	5.443081e+00	3.726727e+00
2.020000e-06	8.312063e-07	1.079940e-10	5.764604e+00	5.603809e+00
2.030000e-06	8.775415e-07	1.329921e-10	6.085950e+00	7.489753e+00
2.040000e-06	9.238044e-07	1.542826e-10	6.406793e+00	9.381385e+00
2.050000e-06	9.699673e-07	1.772119e-10	6.726944e+00	1.127549e+01
2.060000e-06	1.016088e-06	2.030316e-10	7.046800e+00	1.316885e+01
2.070000e-06	1.062126e-06	2.298658e-10	7.366086e+00	1.505825e+01
2.080000e-06	1.108067e-06	2.579526e-10	7.684697e+00	1.694053e+01
2.090000e-06	1.153934e-06	2.866584e-10	8.002798e+00	1.881260e+01
2.100000e-06	1.199791e-06	3.134397e-10	8.320824e+00	2.067147e+01
2.110000e-06	1.245590e-06	3.364120e-10	8.638446e+00	2.251429e+01
2.120000e-06	1.291242e-06	3.563212e-10	8.955054e+00	2.433833e+01
2.130000e-06	1.336810e-06	3.752968e-10	9.271083e+00	2.614106e+01
2.140000e-06	1.382307e-06	3.960299e-10	9.586611e+00	2.792010e+01
2.150000e-06	1.427727e-06	4.206779e-10	9.901610e+00	2.967331e+01
2.160000e-06	1.473022e-06	4.484046e-10	1.021574e+01	3.139874e+01
2.170000e-06	1.518166e-06	4.755258e-10	1.052883e+01	3.309467e+01
2.180000e-06	1.563217e-06	4.998262e-10	1.084127e+01	3.475960e+01
2.190000e-06	1.608165e-06	5.208065e-10	1.115299e+01	3.639227e+01
2.200000e-06	1.652961e-06	5.406256e-10	1.146366e+01	3.799164e+01
2.210000e-06	1.697589e-06	5.597793e-10	1.177317e+01	3.955691e+01
2.220000e-06	1.742123e-06	5.781860e-10	1.208202e+01	4.108750e+01
2.230000e-06	1.786639e-06	5.979277e-10	1.239075e+01	4.258302e+01
2.240000e-06	1.830988e-06	6.173579e-10	1.269832e+01	4.404331e+01
2.250000e-06	1.875165e-06	6.360884e-10	1.300469e+01	4.546837e+01
2.260000e-06	1.919314e-06	6.562380e-10	1.331088e+01	4.685840e+01
2.270000e-06	1.963389e-06	6.771160e-10	1.361655e+01	4.821374e+01
2.280000e-06	2.007346e-06	6.951661e-10	1.392140e+01	4.953486e+01
2.290000e-06	2.051215e-06	7.121891e-10	1.422564e+01	5.082238e+01
2.300000e-06	2.095024e-06	7.277946e-10	1.452947e+01	5.207700e+01
2.310000e-06	2.138782e-06	7.407993e-10	1.483294e+01	5.329950e+01
2.320000e-06	2.182449e-06	7.548219e-10	1.513578e+01	5.449074e+01
2.330000e-06	2.225981e-06	7.713826e-10	1.543768e+01	5.565162e+01
2.340000e-06	2.269349e-06	7.889110e-10	1.573845e+01	5.678307e+01
2.350000e-06	2.312553e-06	8.065620e-10	1.603808e+01	5.788603e+01
2.360000e-06	2.355602e-06	8.239612e-10	1.633663e+01	5.896144e+01
2.370000e-06	2.398373e-06	8.390945e-10	1.663326e+01	6.001023e+01
2.380000e-06	2.440796e-06	8.511450e-10	1.692748e+01	6.103330e+01
2.390000e-06	2.482911e-06	8.611468e-10	1.721956e+01	6.203152e+01
2.400000e-06	2.524807e-06	8.712649e-10	1.751011e+01	6.300569e+01
2.410000e-06	2.566370e-06	8.872440e-10	1.779836e+01	6.395659e+01
2.420000e-06	2.607574e-06	9.050886e-10	1.808412e+01	6.488491e+01
2.430000e-06	2.648517e-06	9.211561e-10	1.836807e+01	6.579130e+01
2.440000e-06	2.689210e-06	9.329402e-10	1.865028e+01	6.667634e+01
2.450000e-06	2.729702e-06	9.413763e-10	1.893111e+01	6.754055e+01
2.460000e-06	2.769989e-06	9.485067e-10	1.921050e+01	6.838438e+01
2.470000e-06	2.810100e-06	9.577708e-10	1.948868e+01	6.920821e+01
2.480000e-06	2.850064e-06	9.717084e-10	1.976584e+01	7.001240e+01
2.490000e-06	2.889887e-06	9.884786e-10	2.004202e+01	7.079722e+01
2.500000e-06	2.929532e-06	1.005512e-09	2.031697e+01	7.156290e+01
2.510000e-06	2.969013e-06	1.017648e-09	2.059078e+01	7.230965e+01
2.520000e-06	3.008405e-06	1.025580e-09	2.086397e+01	7.303763e+01
2.530000e-06	3.047627e-06	1.030754e-09	2.113599e+01	7.374697e+01
2.540000e-06	3.086511e-06	1.035041e-09	2.140566e+01	7.443779e+01
2.550000e-06	3.125166e-06	1.041567e-09	2.167374e+01	7.511018e+01
2.560000e-06	3.163754e-06	1.052341e-09	2.194135e+01	7.576424e+01
2.570000e-06	3.202140e-06	1.067042e-09	2.220757e+01	7.640007e+01
2.580000e-06	3.240232e-06	1.081281e-09	2.247174e+01	7.701776e+01
2.590000e-06	3.278097e-06	1.091749e-09	2.273435e+01	7.761743e+01
2.600000e-06	3.315801e-06	1.098020e-09	2.299583e+01	7.819921e+01
2.610000e-06	3.353276e-06	1.101038e-09	2.325573e+01	7.876324e+01
2.620000e-06	3.390535e-06	1.105876e-09	2.351413e+01	7.930970e+01
2.630000e-06	3.427551e-06	1.112680e-09	2.377084e+01	7.983880e+01
2.640000e-06	3.464234e-06	1.122708e-09	2.402525e+01	8.035077e+01
2.650000e-06	3.500636e-06	1.133329e-09	2.427771e+01	8.084589e+01
2.660000e-06	3.536801e-06	1.143775e-09	2.452852e+01	8.132445e+01
2.670000e-06	3.572819e-06	1.151928e-09	2.477831e+01	8.178680e+01
2.680000e-06	3.608764e-06	1.155962e-09	2.502760e+01	8.223331e+01
2.690000e-06	3.644606e-06	1.158214e-09	2.527617e+01	8.266439e+01
2.700000e-06	3.680289e-06	1.160599e-09	2.552364e+01	8.308048e+01
2.710000e-06	3.715740e-06	1.165685e-09	2.576950e+01	8.348205e+01
2.720000e-06	3.750887e-06	1.174108e-09	2.601326e+01	8.386960e+01
2.730000e-06	3.785741e-06	1.182841e-09	2.625498e+01	8.424365e+01
2.740000e-06	3.820158e-06	1.190793e-09	2.649366e+01	8.460474e+01
2.750000e-06	3.854043e-06	1.196907e-09	2.672867e+01	8.495345e+01
2.760000e-06	3.887437e-06	1.200379e-09	2.696026e+01	8.529035e+01
2.770000e-06	3.920326e-06	1.203283e-09	2.718835e+01	8.561602e+01
2.780000e-06	3.952863e-06	1.206753e-09	2.741400e+01	8.593107e+01
2.790000e-06	3.985195e-06	1.210164e-09	2.763824e+01	8.623609e+01
2.800000e-06	4.017358e-06	1.213632e-09	2.786129e+01	8.653167e+01
2.810000e-06	4.049331e-06	1.217790e-09	2.808303e+01	8.681840e+01
2.820000e-06	4.081066e-06	1.225441e-09	2.830312e+01	8.709684e+01
2.830000e-06	4.112638e-06	1.234695e-09	2.852208e+01	8.736757e+01
2.840000e-06	4.143980e-06	1.240252e-09	2.873944e+01	8.763111e+01
2.850000e-06	4.174988e-06	1.243417e-09	2.895449e+01	8.788797e+01
2.860000e-06	4.205685e-06	1.248262e-09	2.916738e+01	8.813865e+01
2.870000e-06	4.236042e-06	1.255331e-09	2.937791e+01	8.838358e+01
2.880000e-06	4.266093e-06	1.260883e-09	2.958632e+01	8.862319e+01
2.890000e-06	4.295881e-06	1.266842e-09	2.979291e+01	8.885786e+01
2.900000e-06	4.325449e-06	1.274006e-09	2.999797e+01	8.908792e+01
