# Temperatura_=_11.5
# Concentracion g/m^3_=_1620.0
# C_Vs_to_Am_M_A/Vsm_=_65563218390.804596
# pendiente_HvsI_1/m_=_3716.3
# ordenada_HvsI_A/m_=_1297.0
# frecuencia_Hz_=_135101.3820520965

Tiempo_(s)	Campo_(V.s)	Magnetizacion_(V.s)	Campo_(kA/m)	Magnetizacion_(A/m)
0.000000e+00	-5.524244e-06	-1.456200e-09	-3.836797e+01	-9.717987e+01
1.000000e-08	-5.524356e-06	-1.453084e-09	-3.836874e+01	-9.717281e+01
2.000000e-08	-5.524243e-06	-1.449114e-09	-3.836796e+01	-9.716641e+01
3.000000e-08	-5.523823e-06	-1.446544e-09	-3.836504e+01	-9.716081e+01
4.000000e-08	-5.522990e-06	-1.445016e-09	-3.835926e+01	-9.715618e+01
5.000000e-08	-5.521575e-06	-1.447150e-09	-3.834943e+01	-9.715264e+01
6.000000e-08	-5.519509e-06	-1.455142e-09	-3.833508e+01	-9.715030e+01
7.000000e-08	-5.516793e-06	-1.452541e-09	-3.831622e+01	-9.714924e+01
8.000000e-08	-5.513542e-06	-1.431321e-09	-3.829364e+01	-9.714950e+01
9.000000e-08	-5.509920e-06	-1.415126e-09	-3.826848e+01	-9.715107e+01
1.000000e-07	-5.505952e-06	-1.410500e-09	-3.824092e+01	-9.715389e+01
1.100000e-07	-5.501682e-06	-1.464018e-09	-3.821126e+01	-9.715785e+01
1.200000e-07	-5.497162e-06	-1.452973e-09	-3.817987e+01	-9.716279e+01
1.300000e-07	-5.492303e-06	-1.425565e-09	-3.814613e+01	-9.716848e+01
1.400000e-07	-5.487019e-06	-1.404022e-09	-3.810942e+01	-9.717462e+01
1.500000e-07	-5.481423e-06	-1.437157e-09	-3.807056e+01	-9.718085e+01
1.600000e-07	-5.475464e-06	-1.464662e-09	-3.802917e+01	-9.718677e+01
1.700000e-07	-5.468977e-06	-1.424849e-09	-3.798412e+01	-9.719190e+01
1.800000e-07	-5.462053e-06	-1.433835e-09	-3.793603e+01	-9.719569e+01
1.900000e-07	-5.454856e-06	-1.474269e-09	-3.788604e+01	-9.719758e+01
2.000000e-07	-5.447358e-06	-1.498883e-09	-3.783396e+01	-9.719692e+01
2.100000e-07	-5.439555e-06	-1.448062e-09	-3.777977e+01	-9.719305e+01
2.200000e-07	-5.431454e-06	-1.442771e-09	-3.772350e+01	-9.718527e+01
2.300000e-07	-5.423066e-06	-1.470146e-09	-3.766525e+01	-9.717287e+01
2.400000e-07	-5.414371e-06	-1.500454e-09	-3.760485e+01	-9.715512e+01
2.500000e-07	-5.405078e-06	-1.488846e-09	-3.754032e+01	-9.713131e+01
2.600000e-07	-5.395148e-06	-1.490161e-09	-3.747134e+01	-9.710071e+01
2.700000e-07	-5.384627e-06	-1.475384e-09	-3.739828e+01	-9.706266e+01
2.800000e-07	-5.373447e-06	-1.465589e-09	-3.732062e+01	-9.701650e+01
2.900000e-07	-5.361782e-06	-1.452828e-09	-3.723961e+01	-9.696163e+01
3.000000e-07	-5.349791e-06	-1.453112e-09	-3.715632e+01	-9.689752e+01
3.100000e-07	-5.337426e-06	-1.456302e-09	-3.707045e+01	-9.682369e+01
3.200000e-07	-5.324598e-06	-1.483631e-09	-3.698135e+01	-9.673974e+01
3.300000e-07	-5.311359e-06	-1.497051e-09	-3.688940e+01	-9.664536e+01
3.400000e-07	-5.297835e-06	-1.476082e-09	-3.679547e+01	-9.654034e+01
3.500000e-07	-5.283952e-06	-1.458497e-09	-3.669905e+01	-9.642455e+01
3.600000e-07	-5.269744e-06	-1.463721e-09	-3.660037e+01	-9.629796e+01
3.700000e-07	-5.255120e-06	-1.446301e-09	-3.649880e+01	-9.616066e+01
3.800000e-07	-5.239828e-06	-1.428261e-09	-3.639259e+01	-9.601281e+01
3.900000e-07	-5.223882e-06	-1.454062e-09	-3.628184e+01	-9.585469e+01
4.000000e-07	-5.207441e-06	-1.458895e-09	-3.616765e+01	-9.568667e+01
4.100000e-07	-5.190700e-06	-1.431667e-09	-3.605138e+01	-9.550919e+01
4.200000e-07	-5.173643e-06	-1.434394e-09	-3.593291e+01	-9.532281e+01
4.300000e-07	-5.156218e-06	-1.461967e-09	-3.581189e+01	-9.512811e+01
4.400000e-07	-5.138474e-06	-1.419002e-09	-3.568865e+01	-9.492578e+01
4.500000e-07	-5.120353e-06	-1.401272e-09	-3.556279e+01	-9.471653e+01
4.600000e-07	-5.101876e-06	-1.434695e-09	-3.543446e+01	-9.450113e+01
4.700000e-07	-5.083086e-06	-1.430194e-09	-3.530396e+01	-9.428036e+01
4.800000e-07	-5.063887e-06	-1.382473e-09	-3.517061e+01	-9.405503e+01
4.900000e-07	-5.044338e-06	-1.416167e-09	-3.503484e+01	-9.382592e+01
5.000000e-07	-5.024572e-06	-1.441353e-09	-3.489756e+01	-9.359384e+01
5.100000e-07	-5.004579e-06	-1.409485e-09	-3.475870e+01	-9.335954e+01
5.200000e-07	-4.984311e-06	-1.403592e-09	-3.461793e+01	-9.312376e+01
5.300000e-07	-4.963707e-06	-1.437042e-09	-3.447482e+01	-9.288715e+01
5.400000e-07	-4.942748e-06	-1.401966e-09	-3.432926e+01	-9.265036e+01
5.500000e-07	-4.921478e-06	-1.378827e-09	-3.418153e+01	-9.241392e+01
5.600000e-07	-4.899850e-06	-1.403349e-09	-3.403132e+01	-9.217831e+01
5.700000e-07	-4.877814e-06	-1.394900e-09	-3.387827e+01	-9.194393e+01
5.800000e-07	-4.855478e-06	-1.361137e-09	-3.372313e+01	-9.171108e+01
5.900000e-07	-4.832848e-06	-1.385402e-09	-3.356596e+01	-9.148001e+01
6.000000e-07	-4.809895e-06	-1.398702e-09	-3.340654e+01	-9.125083e+01
6.100000e-07	-4.786685e-06	-1.370315e-09	-3.324534e+01	-9.102359e+01
6.200000e-07	-4.763207e-06	-1.369049e-09	-3.308228e+01	-9.079828e+01
6.300000e-07	-4.739442e-06	-1.383052e-09	-3.291722e+01	-9.057476e+01
6.400000e-07	-4.715377e-06	-1.363561e-09	-3.275008e+01	-9.035284e+01
6.500000e-07	-4.690964e-06	-1.351872e-09	-3.258052e+01	-9.013228e+01
6.600000e-07	-4.666100e-06	-1.364134e-09	-3.240783e+01	-8.991276e+01
6.700000e-07	-4.640795e-06	-1.354881e-09	-3.223208e+01	-8.969390e+01
6.800000e-07	-4.614943e-06	-1.344605e-09	-3.205253e+01	-8.947530e+01
6.900000e-07	-4.588554e-06	-1.353044e-09	-3.186924e+01	-8.925652e+01
7.000000e-07	-4.561766e-06	-1.355567e-09	-3.168319e+01	-8.903710e+01
7.100000e-07	-4.534523e-06	-1.338642e-09	-3.149398e+01	-8.881657e+01
7.200000e-07	-4.506920e-06	-1.334150e-09	-3.130227e+01	-8.859446e+01
7.300000e-07	-4.479119e-06	-1.330220e-09	-3.110918e+01	-8.837031e+01
7.400000e-07	-4.451192e-06	-1.322267e-09	-3.091522e+01	-8.814367e+01
7.500000e-07	-4.423065e-06	-1.317263e-09	-3.071986e+01	-8.791413e+01
7.600000e-07	-4.394697e-06	-1.321030e-09	-3.052284e+01	-8.768130e+01
7.700000e-07	-4.366072e-06	-1.311511e-09	-3.032402e+01	-8.744485e+01
7.800000e-07	-4.337144e-06	-1.304668e-09	-3.012311e+01	-8.720446e+01
7.900000e-07	-4.307899e-06	-1.301255e-09	-2.991999e+01	-8.695988e+01
8.000000e-07	-4.278297e-06	-1.297456e-09	-2.971439e+01	-8.671091e+01
8.100000e-07	-4.248388e-06	-1.286520e-09	-2.950666e+01	-8.645739e+01
8.200000e-07	-4.218198e-06	-1.287440e-09	-2.929698e+01	-8.619922e+01
8.300000e-07	-4.187700e-06	-1.286158e-09	-2.908516e+01	-8.593635e+01
8.400000e-07	-4.156843e-06	-1.279057e-09	-2.887085e+01	-8.566874e+01
8.500000e-07	-4.125767e-06	-1.274346e-09	-2.865502e+01	-8.539644e+01
8.600000e-07	-4.094522e-06	-1.274274e-09	-2.843801e+01	-8.511950e+01
8.700000e-07	-4.063007e-06	-1.263495e-09	-2.821912e+01	-8.483801e+01
8.800000e-07	-4.031286e-06	-1.255609e-09	-2.799881e+01	-8.455210e+01
8.900000e-07	-3.999368e-06	-1.254319e-09	-2.777713e+01	-8.426189e+01
9.000000e-07	-3.967232e-06	-1.250540e-09	-2.755393e+01	-8.396753e+01
9.100000e-07	-3.934864e-06	-1.245447e-09	-2.732912e+01	-8.366916e+01
9.200000e-07	-3.902162e-06	-1.244026e-09	-2.710199e+01	-8.336693e+01
9.300000e-07	-3.869041e-06	-1.238228e-09	-2.687195e+01	-8.306098e+01
9.400000e-07	-3.835436e-06	-1.227706e-09	-2.663855e+01	-8.275143e+01
9.500000e-07	-3.801435e-06	-1.222845e-09	-2.640240e+01	-8.243838e+01
9.600000e-07	-3.767031e-06	-1.216484e-09	-2.616346e+01	-8.212192e+01
9.700000e-07	-3.732250e-06	-1.203875e-09	-2.592189e+01	-8.180209e+01
9.800000e-07	-3.697164e-06	-1.194698e-09	-2.567821e+01	-8.147892e+01
9.900000e-07	-3.661758e-06	-1.194940e-09	-2.543230e+01	-8.115241e+01
1.000000e-06	-3.626140e-06	-1.189385e-09	-2.518492e+01	-8.082253e+01
1.010000e-06	-3.590340e-06	-1.182937e-09	-2.493627e+01	-8.048921e+01
1.020000e-06	-3.554443e-06	-1.180624e-09	-2.468695e+01	-8.015236e+01
1.030000e-06	-3.518384e-06	-1.177149e-09	-2.443651e+01	-7.981186e+01
1.040000e-06	-3.482104e-06	-1.167956e-09	-2.418453e+01	-7.946759e+01
1.050000e-06	-3.445534e-06	-1.163314e-09	-2.393054e+01	-7.911939e+01
1.060000e-06	-3.408665e-06	-1.156445e-09	-2.367447e+01	-7.876709e+01
1.070000e-06	-3.371657e-06	-1.148218e-09	-2.341743e+01	-7.841052e+01
1.080000e-06	-3.334415e-06	-1.143300e-09	-2.315877e+01	-7.804950e+01
1.090000e-06	-3.296833e-06	-1.144137e-09	-2.289775e+01	-7.768386e+01
1.100000e-06	-3.259000e-06	-1.138687e-09	-2.263499e+01	-7.731345e+01
1.110000e-06	-3.220985e-06	-1.131284e-09	-2.237096e+01	-7.693809e+01
1.120000e-06	-3.182721e-06	-1.125759e-09	-2.210520e+01	-7.655768e+01
1.130000e-06	-3.144198e-06	-1.119939e-09	-2.183765e+01	-7.617208e+01
1.140000e-06	-3.105467e-06	-1.111359e-09	-2.156864e+01	-7.578121e+01
1.150000e-06	-3.066574e-06	-1.106477e-09	-2.129852e+01	-7.538502e+01
1.160000e-06	-3.027548e-06	-1.100563e-09	-2.102747e+01	-7.498347e+01
1.170000e-06	-2.988282e-06	-1.090398e-09	-2.075475e+01	-7.457656e+01
1.180000e-06	-2.948766e-06	-1.083618e-09	-2.048030e+01	-7.416433e+01
1.190000e-06	-2.909094e-06	-1.081762e-09	-2.020476e+01	-7.374681e+01
1.200000e-06	-2.869323e-06	-1.076352e-09	-1.992853e+01	-7.332411e+01
1.210000e-06	-2.829481e-06	-1.068098e-09	-1.965182e+01	-7.289631e+01
1.220000e-06	-2.789484e-06	-1.060241e-09	-1.937402e+01	-7.246356e+01
1.230000e-06	-2.749299e-06	-1.052337e-09	-1.909493e+01	-7.202599e+01
1.240000e-06	-2.709049e-06	-1.045608e-09	-1.881537e+01	-7.158374e+01
1.250000e-06	-2.668634e-06	-1.042882e-09	-1.853468e+01	-7.113699e+01
1.260000e-06	-2.627892e-06	-1.039200e-09	-1.825171e+01	-7.068586e+01
1.270000e-06	-2.586880e-06	-1.029386e-09	-1.796686e+01	-7.023052e+01
1.280000e-06	-2.545568e-06	-1.019827e-09	-1.767993e+01	-6.977110e+01
1.290000e-06	-2.503901e-06	-1.013296e-09	-1.739054e+01	-6.930769e+01
1.300000e-06	-2.461904e-06	-1.006381e-09	-1.709885e+01	-6.884040e+01
1.310000e-06	-2.419648e-06	-9.974554e-10	-1.680537e+01	-6.836926e+01
1.320000e-06	-2.377206e-06	-9.900973e-10	-1.651060e+01	-6.789430e+01
1.330000e-06	-2.334525e-06	-9.824291e-10	-1.621416e+01	-6.741549e+01
1.340000e-06	-2.291498e-06	-9.753703e-10	-1.591532e+01	-6.693277e+01
1.350000e-06	-2.248162e-06	-9.662981e-10	-1.561434e+01	-6.644602e+01
1.360000e-06	-2.204718e-06	-9.556860e-10	-1.531260e+01	-6.595507e+01
1.370000e-06	-2.161164e-06	-9.441794e-10	-1.501010e+01	-6.545971e+01
1.380000e-06	-2.117463e-06	-9.352186e-10	-1.470658e+01	-6.495968e+01
1.390000e-06	-2.073662e-06	-9.281638e-10	-1.440237e+01	-6.445465e+01
1.400000e-06	-2.029773e-06	-9.214438e-10	-1.409754e+01	-6.394428e+01
1.410000e-06	-1.985794e-06	-9.140684e-10	-1.379209e+01	-6.342815e+01
1.420000e-06	-1.941728e-06	-9.061860e-10	-1.348604e+01	-6.290581e+01
1.430000e-06	-1.897587e-06	-8.959862e-10	-1.317946e+01	-6.237678e+01
1.440000e-06	-1.853417e-06	-8.855090e-10	-1.287268e+01	-6.184053e+01
1.450000e-06	-1.809154e-06	-8.733768e-10	-1.256526e+01	-6.129650e+01
1.460000e-06	-1.764769e-06	-8.622492e-10	-1.225699e+01	-6.074411e+01
1.470000e-06	-1.720276e-06	-8.512780e-10	-1.194797e+01	-6.018275e+01
1.480000e-06	-1.675620e-06	-8.408607e-10	-1.163782e+01	-5.961181e+01
1.490000e-06	-1.630853e-06	-8.303141e-10	-1.132689e+01	-5.903065e+01
1.500000e-06	-1.586027e-06	-8.207474e-10	-1.101556e+01	-5.843862e+01
1.510000e-06	-1.541072e-06	-8.125176e-10	-1.070333e+01	-5.783506e+01
1.520000e-06	-1.495933e-06	-8.041288e-10	-1.038982e+01	-5.721932e+01
1.530000e-06	-1.450700e-06	-7.947789e-10	-1.007566e+01	-5.659073e+01
1.540000e-06	-1.405360e-06	-7.821003e-10	-9.760758e+00	-5.594862e+01
1.550000e-06	-1.359924e-06	-7.690606e-10	-9.445188e+00	-5.529235e+01
1.560000e-06	-1.314434e-06	-7.578934e-10	-9.129241e+00	-5.462123e+01
1.570000e-06	-1.268838e-06	-7.457060e-10	-8.812562e+00	-5.393460e+01
1.580000e-06	-1.223120e-06	-7.329102e-10	-8.495031e+00	-5.323179e+01
1.590000e-06	-1.177291e-06	-7.239602e-10	-8.176734e+00	-5.251213e+01
1.600000e-06	-1.131386e-06	-7.151698e-10	-7.857903e+00	-5.177493e+01
1.610000e-06	-1.085503e-06	-7.043309e-10	-7.539229e+00	-5.101951e+01
1.620000e-06	-1.039548e-06	-6.930164e-10	-7.220055e+00	-5.024516e+01
1.630000e-06	-9.934619e-07	-6.806844e-10	-6.899969e+00	-4.945116e+01
1.640000e-06	-9.473064e-07	-6.671866e-10	-6.579402e+00	-4.863677e+01
1.650000e-06	-9.010302e-07	-6.537061e-10	-6.257996e+00	-4.780125e+01
1.660000e-06	-8.546574e-07	-6.395060e-10	-5.935919e+00	-4.694382e+01
1.670000e-06	-8.082180e-07	-6.258213e-10	-5.613380e+00	-4.606368e+01
1.680000e-06	-7.617633e-07	-6.102603e-10	-5.290735e+00	-4.516002e+01
1.690000e-06	-7.153453e-07	-5.945493e-10	-4.968344e+00	-4.423200e+01
1.700000e-06	-6.688918e-07	-5.805146e-10	-4.645707e+00	-4.327876e+01
1.710000e-06	-6.222976e-07	-5.685605e-10	-4.322093e+00	-4.229944e+01
1.720000e-06	-5.756915e-07	-5.560588e-10	-3.998395e+00	-4.129317e+01
1.730000e-06	-5.290979e-07	-5.422413e-10	-3.674785e+00	-4.025904e+01
1.740000e-06	-4.823934e-07	-5.259214e-10	-3.350405e+00	-3.919620e+01
1.750000e-06	-4.356653e-07	-5.063743e-10	-3.025861e+00	-3.810378e+01
1.760000e-06	-3.888991e-07	-4.856690e-10	-2.701051e+00	-3.698093e+01
1.770000e-06	-3.420478e-07	-4.662431e-10	-2.375651e+00	-3.582684e+01
1.780000e-06	-2.952391e-07	-4.503703e-10	-2.050548e+00	-3.464076e+01
1.790000e-06	-2.484610e-07	-4.364599e-10	-1.725656e+00	-3.342197e+01
1.800000e-06	-2.015660e-07	-4.213630e-10	-1.399953e+00	-3.216984e+01
1.810000e-06	-1.546534e-07	-4.039207e-10	-1.074126e+00	-3.088383e+01
1.820000e-06	-1.078151e-07	-3.867337e-10	-7.488169e-01	-2.956349e+01
1.830000e-06	-6.096508e-08	-3.688726e-10	-4.234256e-01	-2.820848e+01
1.840000e-06	-1.406147e-08	-3.493472e-10	-9.766225e-02	-2.681860e+01
1.850000e-06	3.281454e-08	-3.298584e-10	2.279094e-01	-2.539377e+01
1.860000e-06	7.966472e-08	-3.090072e-10	5.533017e-01	-2.393410e+01
1.870000e-06	1.265486e-07	-2.855266e-10	8.789277e-01	-2.243981e+01
1.880000e-06	1.734206e-07	-2.640352e-10	1.204471e+00	-2.091135e+01
1.890000e-06	2.202366e-07	-2.450685e-10	1.529626e+00	-1.934930e+01
1.900000e-06	2.669690e-07	-2.250649e-10	1.854201e+00	-1.775445e+01
1.910000e-06	3.137537e-07	-2.046351e-10	2.179138e+00	-1.612777e+01
1.920000e-06	3.605554e-07	-1.845921e-10	2.504194e+00	-1.447045e+01
1.930000e-06	4.072923e-07	-1.606831e-10	2.828799e+00	-1.278382e+01
1.940000e-06	4.540092e-07	-1.328341e-10	3.153266e+00	-1.106944e+01
1.950000e-06	5.006820e-07	-1.059735e-10	3.477426e+00	-9.329026e+00
1.960000e-06	5.473030e-07	-8.166317e-11	3.801227e+00	-7.564478e+00
1.970000e-06	5.938435e-07	-5.810598e-11	4.124468e+00	-5.777854e+00
1.980000e-06	6.403380e-07	-3.564706e-11	4.447390e+00	-3.971365e+00
1.990000e-06	6.867670e-07	-1.308568e-11	4.769857e+00	-2.147352e+00
2.000000e-06	7.331316e-07	1.264403e-11	5.091876e+00	-3.082786e-01
2.010000e-06	7.795199e-07	4.311765e-11	5.414061e+00	1.543295e+00
2.020000e-06	8.259135e-07	7.436873e-11	5.736282e+00	3.404727e+00
2.030000e-06	8.721919e-07	1.023319e-10	6.057703e+00	5.273317e+00
2.040000e-06	9.183440e-07	1.266505e-10	6.378247e+00	7.146328e+00
2.050000e-06	9.644147e-07	1.509699e-10	6.698225e+00	9.021007e+00
2.060000e-06	1.010419e-06	1.770794e-10	7.017739e+00	1.089461e+01
2.070000e-06	1.056383e-06	2.019373e-10	7.336982e+00	1.276442e+01
2.080000e-06	1.102256e-06	2.288259e-10	7.655584e+00	1.462776e+01
2.090000e-06	1.148068e-06	2.595637e-10	7.973768e+00	1.648206e+01
2.100000e-06	1.193822e-06	2.889606e-10	8.291546e+00	1.832479e+01
2.110000e-06	1.239525e-06	3.144290e-10	8.608968e+00	2.015358e+01
2.120000e-06	1.285181e-06	3.387391e-10	8.926066e+00	2.196614e+01
2.130000e-06	1.330767e-06	3.614306e-10	9.242681e+00	2.376035e+01
2.140000e-06	1.376223e-06	3.825718e-10	9.558392e+00	2.553422e+01
2.150000e-06	1.421488e-06	4.058421e-10	9.872775e+00	2.728595e+01
2.160000e-06	1.466636e-06	4.320936e-10	1.018634e+01	2.901389e+01
2.170000e-06	1.511702e-06	4.581398e-10	1.049934e+01	3.071655e+01
2.180000e-06	1.556647e-06	4.822107e-10	1.081150e+01	3.239265e+01
2.190000e-06	1.601504e-06	5.048838e-10	1.112305e+01	3.404106e+01
2.200000e-06	1.646261e-06	5.264923e-10	1.143391e+01	3.566084e+01
2.210000e-06	1.690796e-06	5.470601e-10	1.174322e+01	3.725123e+01
2.220000e-06	1.735198e-06	5.664978e-10	1.205161e+01	3.881160e+01
2.230000e-06	1.779526e-06	5.844379e-10	1.235948e+01	4.034151e+01
2.240000e-06	1.823781e-06	6.035779e-10	1.266685e+01	4.184067e+01
2.250000e-06	1.867967e-06	6.240181e-10	1.297374e+01	4.330889e+01
2.260000e-06	1.912028e-06	6.453305e-10	1.327976e+01	4.474614e+01
2.270000e-06	1.955973e-06	6.678478e-10	1.358497e+01	4.615248e+01
2.280000e-06	1.999854e-06	6.908322e-10	1.388974e+01	4.752808e+01
2.290000e-06	2.043673e-06	7.119344e-10	1.419408e+01	4.887319e+01
2.300000e-06	2.087419e-06	7.291364e-10	1.449792e+01	5.018812e+01
2.310000e-06	2.131147e-06	7.428769e-10	1.480163e+01	5.147326e+01
2.320000e-06	2.174846e-06	7.552149e-10	1.510513e+01	5.272900e+01
2.330000e-06	2.218451e-06	7.679104e-10	1.540798e+01	5.395582e+01
2.340000e-06	2.261848e-06	7.843817e-10	1.570939e+01	5.515416e+01
2.350000e-06	2.304955e-06	8.037097e-10	1.600879e+01	5.632452e+01
2.360000e-06	2.347868e-06	8.237726e-10	1.630683e+01	5.746735e+01
2.370000e-06	2.390548e-06	8.402851e-10	1.660326e+01	5.858314e+01
2.380000e-06	2.432864e-06	8.513492e-10	1.689716e+01	5.967233e+01
2.390000e-06	2.474805e-06	8.605716e-10	1.718846e+01	6.073537e+01
2.400000e-06	2.516445e-06	8.704059e-10	1.747766e+01	6.177266e+01
2.410000e-06	2.557785e-06	8.841768e-10	1.776479e+01	6.278460e+01
2.420000e-06	2.598880e-06	8.981586e-10	1.805021e+01	6.377156e+01
2.430000e-06	2.639735e-06	9.135764e-10	1.833396e+01	6.473386e+01
2.440000e-06	2.680231e-06	9.290278e-10	1.861522e+01	6.567185e+01
2.450000e-06	2.720477e-06	9.413436e-10	1.889474e+01	6.658580e+01
2.460000e-06	2.760563e-06	9.503645e-10	1.917316e+01	6.747601e+01
2.470000e-06	2.800515e-06	9.611414e-10	1.945064e+01	6.834276e+01
2.480000e-06	2.840414e-06	9.752529e-10	1.972775e+01	6.918631e+01
2.490000e-06	2.880277e-06	9.885383e-10	2.000461e+01	7.000692e+01
2.500000e-06	2.920062e-06	9.996220e-10	2.028093e+01	7.080486e+01
2.510000e-06	2.959704e-06	1.008824e-09	2.055626e+01	7.158041e+01
2.520000e-06	2.999170e-06	1.016464e-09	2.083037e+01	7.233385e+01
2.530000e-06	3.038367e-06	1.023166e-09	2.110261e+01	7.306551e+01
2.540000e-06	3.077227e-06	1.031121e-09	2.137251e+01	7.377569e+01
2.550000e-06	3.115891e-06	1.043175e-09	2.164105e+01	7.446477e+01
2.560000e-06	3.154375e-06	1.056318e-09	2.190833e+01	7.513311e+01
2.570000e-06	3.192624e-06	1.066564e-09	2.217399e+01	7.578113e+01
2.580000e-06	3.230665e-06	1.073622e-09	2.243819e+01	7.640927e+01
2.590000e-06	3.268515e-06	1.079771e-09	2.270108e+01	7.701799e+01
2.600000e-06	3.306124e-06	1.086292e-09	2.296229e+01	7.760781e+01
2.610000e-06	3.343490e-06	1.093300e-09	2.322180e+01	7.817923e+01
2.620000e-06	3.380621e-06	1.101929e-09	2.347970e+01	7.873283e+01
2.630000e-06	3.417480e-06	1.110743e-09	2.373569e+01	7.926917e+01
2.640000e-06	3.454056e-06	1.117171e-09	2.398973e+01	7.978885e+01
2.650000e-06	3.490407e-06	1.120773e-09	2.424220e+01	8.029248e+01
2.660000e-06	3.526592e-06	1.125074e-09	2.449352e+01	8.078069e+01
2.670000e-06	3.562617e-06	1.131060e-09	2.474372e+01	8.125410e+01
2.680000e-06	3.598499e-06	1.139814e-09	2.499294e+01	8.171334e+01
2.690000e-06	3.634274e-06	1.150158e-09	2.524141e+01	8.215906e+01
2.700000e-06	3.669925e-06	1.159153e-09	2.548902e+01	8.259186e+01
2.710000e-06	3.705382e-06	1.165771e-09	2.573528e+01	8.301237e+01
2.720000e-06	3.740590e-06	1.171915e-09	2.597982e+01	8.342119e+01
2.730000e-06	3.775439e-06	1.176387e-09	2.622185e+01	8.381888e+01
2.740000e-06	3.809918e-06	1.181055e-09	2.646133e+01	8.420601e+01
2.750000e-06	3.843909e-06	1.188092e-09	2.669741e+01	8.458312e+01
2.760000e-06	3.877358e-06	1.195449e-09	2.692972e+01	8.495072e+01
2.770000e-06	3.910339e-06	1.202179e-09	2.715878e+01	8.530928e+01
2.780000e-06	3.942853e-06	1.209363e-09	2.738461e+01	8.565927e+01
2.790000e-06	3.975104e-06	1.216695e-09	2.760860e+01	8.600111e+01
2.800000e-06	4.007190e-06	1.223111e-09	2.783145e+01	8.633520e+01
2.810000e-06	4.039108e-06	1.227929e-09	2.805313e+01	8.666192e+01
2.820000e-06	4.070896e-06	1.233563e-09	2.827392e+01	8.698160e+01
2.830000e-06	4.102516e-06	1.239556e-09	2.849353e+01	8.729458e+01
2.840000e-06	4.133832e-06	1.244955e-09	2.871103e+01	8.760116e+01
2.850000e-06	4.164809e-06	1.250946e-09	2.892617e+01	8.790162e+01
2.860000e-06	4.195508e-06	1.257372e-09	2.913939e+01	8.819622e+01
2.870000e-06	4.225902e-06	1.264752e-09	2.935049e+01	8.848520e+01
2.880000e-06	4.255996e-06	1.272647e-09	2.955950e+01	8.876880e+01
2.890000e-06	4.285834e-06	1.280256e-09	2.976674e+01	8.904724e+01
2.900000e-06	4.315366e-06	1.286733e-09	2.997185e+01	8.932072e+01
