# Temperatura_=_0.31
# Concentracion g/m^3_=_1620.0
# C_Vs_to_Am_M_A/Vsm_=_65563218390.804596
# pendiente_HvsI_1/m_=_3716.3
# ordenada_HvsI_A/m_=_1297.0
# frecuencia_Hz_=_135108.16988008074

Tiempo_(s)	Campo_(V.s)	Magnetizacion_(V.s)	Campo_(kA/m)	Magnetizacion_(A/m)
0.000000e+00	-5.509308e-06	-1.126423e-09	-3.836074e+01	-7.686130e+01
1.000000e-08	-5.509559e-06	-1.125840e-09	-3.836248e+01	-7.682064e+01
2.000000e-08	-5.509573e-06	-1.125417e-09	-3.836258e+01	-7.678013e+01
3.000000e-08	-5.509326e-06	-1.123239e-09	-3.836086e+01	-7.674023e+01
4.000000e-08	-5.508691e-06	-1.120920e-09	-3.835644e+01	-7.670136e+01
5.000000e-08	-5.507513e-06	-1.118912e-09	-3.834824e+01	-7.666393e+01
6.000000e-08	-5.505715e-06	-1.119070e-09	-3.833571e+01	-7.662832e+01
7.000000e-08	-5.503378e-06	-1.134312e-09	-3.831945e+01	-7.659484e+01
8.000000e-08	-5.500550e-06	-1.142553e-09	-3.829975e+01	-7.656375e+01
9.000000e-08	-5.497213e-06	-1.089040e-09	-3.827652e+01	-7.653525e+01
1.000000e-07	-5.493435e-06	-1.030436e-09	-3.825021e+01	-7.650943e+01
1.100000e-07	-5.489252e-06	-1.106724e-09	-3.822109e+01	-7.648632e+01
1.200000e-07	-5.484716e-06	-1.189182e-09	-3.818950e+01	-7.646585e+01
1.300000e-07	-5.479967e-06	-1.135110e-09	-3.815643e+01	-7.644783e+01
1.400000e-07	-5.474965e-06	-1.012886e-09	-3.812161e+01	-7.643201e+01
1.500000e-07	-5.469591e-06	-1.077897e-09	-3.808419e+01	-7.641801e+01
1.600000e-07	-5.463812e-06	-1.182056e-09	-3.804395e+01	-7.640537e+01
1.700000e-07	-5.457643e-06	-1.152924e-09	-3.800099e+01	-7.639354e+01
1.800000e-07	-5.451074e-06	-1.047426e-09	-3.795526e+01	-7.638187e+01
1.900000e-07	-5.444195e-06	-1.104390e-09	-3.790736e+01	-7.636968e+01
2.000000e-07	-5.436985e-06	-1.219461e-09	-3.785715e+01	-7.635618e+01
2.100000e-07	-5.429360e-06	-1.181299e-09	-3.780406e+01	-7.634058e+01
2.200000e-07	-5.421504e-06	-1.081894e-09	-3.774937e+01	-7.632201e+01
2.300000e-07	-5.413477e-06	-1.078198e-09	-3.769348e+01	-7.629963e+01
2.400000e-07	-5.405001e-06	-1.171381e-09	-3.763445e+01	-7.627258e+01
2.500000e-07	-5.395886e-06	-1.169106e-09	-3.757099e+01	-7.624002e+01
2.600000e-07	-5.386114e-06	-1.137921e-09	-3.750294e+01	-7.620114e+01
2.700000e-07	-5.375708e-06	-1.119355e-09	-3.743049e+01	-7.615521e+01
2.800000e-07	-5.364813e-06	-1.147932e-09	-3.735463e+01	-7.610154e+01
2.900000e-07	-5.353513e-06	-1.120667e-09	-3.727595e+01	-7.603954e+01
3.000000e-07	-5.341805e-06	-1.106413e-09	-3.719443e+01	-7.596873e+01
3.100000e-07	-5.329619e-06	-1.107777e-09	-3.710958e+01	-7.588873e+01
3.200000e-07	-5.317003e-06	-1.155943e-09	-3.702173e+01	-7.579927e+01
3.300000e-07	-5.304045e-06	-1.159242e-09	-3.693151e+01	-7.570024e+01
3.400000e-07	-5.290781e-06	-1.130344e-09	-3.683915e+01	-7.559165e+01
3.500000e-07	-5.277182e-06	-1.114075e-09	-3.674447e+01	-7.547363e+01
3.600000e-07	-5.263216e-06	-1.146705e-09	-3.664722e+01	-7.534648e+01
3.700000e-07	-5.248747e-06	-1.122899e-09	-3.654647e+01	-7.521060e+01
3.800000e-07	-5.233730e-06	-1.086784e-09	-3.644192e+01	-7.506654e+01
3.900000e-07	-5.218273e-06	-1.134395e-09	-3.633429e+01	-7.491497e+01
4.000000e-07	-5.202338e-06	-1.167160e-09	-3.622333e+01	-7.475665e+01
4.100000e-07	-5.185844e-06	-1.093686e-09	-3.610849e+01	-7.459244e+01
4.200000e-07	-5.168915e-06	-1.083581e-09	-3.599061e+01	-7.442330e+01
4.300000e-07	-5.151779e-06	-1.165011e-09	-3.587130e+01	-7.425021e+01
4.400000e-07	-5.134354e-06	-1.116931e-09	-3.574997e+01	-7.407424e+01
4.500000e-07	-5.116443e-06	-1.040596e-09	-3.562526e+01	-7.389644e+01
4.600000e-07	-5.098104e-06	-1.114113e-09	-3.549756e+01	-7.371790e+01
4.700000e-07	-5.079429e-06	-1.160249e-09	-3.536753e+01	-7.353967e+01
4.800000e-07	-5.060379e-06	-1.050743e-09	-3.523489e+01	-7.336277e+01
4.900000e-07	-5.041023e-06	-1.061207e-09	-3.510011e+01	-7.318817e+01
5.000000e-07	-5.021428e-06	-1.140455e-09	-3.496368e+01	-7.301677e+01
5.100000e-07	-5.001584e-06	-1.090934e-09	-3.482551e+01	-7.284936e+01
5.200000e-07	-4.981464e-06	-1.046085e-09	-3.468541e+01	-7.268665e+01
5.300000e-07	-4.961067e-06	-1.133199e-09	-3.454339e+01	-7.252924e+01
5.400000e-07	-4.940332e-06	-1.105181e-09	-3.439902e+01	-7.237758e+01
5.500000e-07	-4.919204e-06	-1.027919e-09	-3.425190e+01	-7.223202e+01
5.600000e-07	-4.897768e-06	-1.082112e-09	-3.410265e+01	-7.209274e+01
5.700000e-07	-4.876010e-06	-1.120736e-09	-3.395115e+01	-7.195982e+01
5.800000e-07	-4.853866e-06	-1.034483e-09	-3.379696e+01	-7.183318e+01
5.900000e-07	-4.831377e-06	-1.051601e-09	-3.364037e+01	-7.171262e+01
6.000000e-07	-4.808583e-06	-1.116761e-09	-3.348166e+01	-7.159783e+01
6.100000e-07	-4.785531e-06	-1.071401e-09	-3.332115e+01	-7.148836e+01
6.200000e-07	-4.762221e-06	-1.033864e-09	-3.315885e+01	-7.138368e+01
6.300000e-07	-4.738626e-06	-1.085489e-09	-3.299455e+01	-7.128317e+01
6.400000e-07	-4.714766e-06	-1.071813e-09	-3.282842e+01	-7.118612e+01
6.500000e-07	-4.690591e-06	-1.033058e-09	-3.266009e+01	-7.109180e+01
6.600000e-07	-4.666118e-06	-1.064076e-09	-3.248969e+01	-7.099940e+01
6.700000e-07	-4.641257e-06	-1.076009e-09	-3.231658e+01	-7.090811e+01
6.800000e-07	-4.615813e-06	-1.041517e-09	-3.213942e+01	-7.081714e+01
6.900000e-07	-4.589835e-06	-1.051906e-09	-3.195854e+01	-7.072566e+01
7.000000e-07	-4.563292e-06	-1.070490e-09	-3.177372e+01	-7.063293e+01
7.100000e-07	-4.536275e-06	-1.043475e-09	-3.158561e+01	-7.053822e+01
7.200000e-07	-4.509003e-06	-1.037495e-09	-3.139572e+01	-7.044087e+01
7.300000e-07	-4.481526e-06	-1.051841e-09	-3.120440e+01	-7.034029e+01
7.400000e-07	-4.453786e-06	-1.043893e-09	-3.101125e+01	-7.023597e+01
7.500000e-07	-4.425761e-06	-1.034090e-09	-3.081611e+01	-7.012751e+01
7.600000e-07	-4.397513e-06	-1.048449e-09	-3.061942e+01	-7.001457e+01
7.700000e-07	-4.368982e-06	-1.042721e-09	-3.042076e+01	-6.989694e+01
7.800000e-07	-4.340125e-06	-1.031702e-09	-3.021983e+01	-6.977449e+01
7.900000e-07	-4.311009e-06	-1.032685e-09	-3.001710e+01	-6.964718e+01
8.000000e-07	-4.281653e-06	-1.034025e-09	-2.981270e+01	-6.951509e+01
8.100000e-07	-4.251992e-06	-1.022212e-09	-2.960618e+01	-6.937836e+01
8.200000e-07	-4.222035e-06	-1.027482e-09	-2.939759e+01	-6.923719e+01
8.300000e-07	-4.191753e-06	-1.030030e-09	-2.918674e+01	-6.909189e+01
8.400000e-07	-4.161167e-06	-1.024691e-09	-2.897377e+01	-6.894278e+01
8.500000e-07	-4.130305e-06	-1.022739e-09	-2.875888e+01	-6.879025e+01
8.600000e-07	-4.099148e-06	-1.030587e-09	-2.854194e+01	-6.863469e+01
8.700000e-07	-4.067769e-06	-1.019487e-09	-2.832345e+01	-6.847651e+01
8.800000e-07	-4.036243e-06	-1.010436e-09	-2.810393e+01	-6.831614e+01
8.900000e-07	-4.004532e-06	-1.009908e-09	-2.788313e+01	-6.815395e+01
9.000000e-07	-3.972625e-06	-1.005031e-09	-2.766097e+01	-6.799033e+01
9.100000e-07	-3.940497e-06	-9.961597e-10	-2.743727e+01	-6.782559e+01
9.200000e-07	-3.907983e-06	-1.001695e-09	-2.721088e+01	-6.766000e+01
9.300000e-07	-3.875045e-06	-1.001296e-09	-2.698153e+01	-6.749378e+01
9.400000e-07	-3.841712e-06	-9.912811e-10	-2.674944e+01	-6.732708e+01
9.500000e-07	-3.807945e-06	-9.899657e-10	-2.651432e+01	-6.715995e+01
9.600000e-07	-3.773826e-06	-9.919654e-10	-2.627675e+01	-6.699240e+01
9.700000e-07	-3.739295e-06	-9.783435e-10	-2.603632e+01	-6.682435e+01
9.800000e-07	-3.704333e-06	-9.665801e-10	-2.579288e+01	-6.665564e+01
9.900000e-07	-3.669054e-06	-9.684513e-10	-2.554724e+01	-6.648604e+01
1.000000e-06	-3.633499e-06	-9.653500e-10	-2.529967e+01	-6.631527e+01
1.010000e-06	-3.597782e-06	-9.605476e-10	-2.505098e+01	-6.614296e+01
1.020000e-06	-3.561962e-06	-9.632677e-10	-2.480157e+01	-6.596872e+01
1.030000e-06	-3.525992e-06	-9.661151e-10	-2.455111e+01	-6.579210e+01
1.040000e-06	-3.489823e-06	-9.594734e-10	-2.429927e+01	-6.561264e+01
1.050000e-06	-3.453461e-06	-9.562997e-10	-2.404608e+01	-6.542985e+01
1.060000e-06	-3.416869e-06	-9.522115e-10	-2.379130e+01	-6.524325e+01
1.070000e-06	-3.380039e-06	-9.445483e-10	-2.353486e+01	-6.505235e+01
1.080000e-06	-3.342946e-06	-9.384032e-10	-2.327658e+01	-6.485670e+01
1.090000e-06	-3.305617e-06	-9.410416e-10	-2.301667e+01	-6.465588e+01
1.100000e-06	-3.268034e-06	-9.385495e-10	-2.275497e+01	-6.444950e+01
1.110000e-06	-3.230178e-06	-9.341893e-10	-2.249139e+01	-6.423724e+01
1.120000e-06	-3.192048e-06	-9.324506e-10	-2.222589e+01	-6.401884e+01
1.130000e-06	-3.153685e-06	-9.316972e-10	-2.195878e+01	-6.379410e+01
1.140000e-06	-3.115147e-06	-9.242951e-10	-2.169044e+01	-6.356289e+01
1.150000e-06	-3.076376e-06	-9.210913e-10	-2.142048e+01	-6.332518e+01
1.160000e-06	-3.037413e-06	-9.192662e-10	-2.114919e+01	-6.308098e+01
1.170000e-06	-2.998270e-06	-9.138950e-10	-2.087664e+01	-6.283039e+01
1.180000e-06	-2.958990e-06	-9.038937e-10	-2.060314e+01	-6.257360e+01
1.190000e-06	-2.919573e-06	-8.982478e-10	-2.032868e+01	-6.231084e+01
1.200000e-06	-2.880000e-06	-8.937787e-10	-2.005314e+01	-6.204240e+01
1.210000e-06	-2.840335e-06	-8.882005e-10	-1.977695e+01	-6.176863e+01
1.220000e-06	-2.800491e-06	-8.842133e-10	-1.949953e+01	-6.148991e+01
1.230000e-06	-2.760485e-06	-8.821347e-10	-1.922097e+01	-6.120665e+01
1.240000e-06	-2.720371e-06	-8.777245e-10	-1.894166e+01	-6.091926e+01
1.250000e-06	-2.680080e-06	-8.736227e-10	-1.866111e+01	-6.062818e+01
1.260000e-06	-2.639568e-06	-8.721647e-10	-1.837904e+01	-6.033383e+01
1.270000e-06	-2.598809e-06	-8.673005e-10	-1.809523e+01	-6.003658e+01
1.280000e-06	-2.557833e-06	-8.592148e-10	-1.780993e+01	-5.973679e+01
1.290000e-06	-2.516584e-06	-8.535150e-10	-1.752271e+01	-5.943477e+01
1.300000e-06	-2.474983e-06	-8.493406e-10	-1.723305e+01	-5.913077e+01
1.310000e-06	-2.433118e-06	-8.430545e-10	-1.694155e+01	-5.882497e+01
1.320000e-06	-2.390917e-06	-8.392272e-10	-1.664770e+01	-5.851746e+01
1.330000e-06	-2.348407e-06	-8.362145e-10	-1.635171e+01	-5.820829e+01
1.340000e-06	-2.305649e-06	-8.312795e-10	-1.605399e+01	-5.789737e+01
1.350000e-06	-2.262636e-06	-8.255390e-10	-1.575450e+01	-5.758457e+01
1.360000e-06	-2.219463e-06	-8.226738e-10	-1.545389e+01	-5.726965e+01
1.370000e-06	-2.176096e-06	-8.169020e-10	-1.515193e+01	-5.695229e+01
1.380000e-06	-2.132523e-06	-8.086815e-10	-1.484854e+01	-5.663209e+01
1.390000e-06	-2.088785e-06	-8.018395e-10	-1.454399e+01	-5.630856e+01
1.400000e-06	-2.045016e-06	-7.974839e-10	-1.423923e+01	-5.598116e+01
1.410000e-06	-2.001279e-06	-7.920577e-10	-1.393469e+01	-5.564927e+01
1.420000e-06	-1.957445e-06	-7.875785e-10	-1.362948e+01	-5.531223e+01
1.430000e-06	-1.913470e-06	-7.834891e-10	-1.332329e+01	-5.496935e+01
1.440000e-06	-1.869394e-06	-7.784369e-10	-1.301640e+01	-5.461987e+01
1.450000e-06	-1.825228e-06	-7.707405e-10	-1.270887e+01	-5.426305e+01
1.460000e-06	-1.780983e-06	-7.624476e-10	-1.240080e+01	-5.389813e+01
1.470000e-06	-1.736655e-06	-7.534748e-10	-1.209215e+01	-5.352433e+01
1.480000e-06	-1.692194e-06	-7.431178e-10	-1.178257e+01	-5.314091e+01
1.490000e-06	-1.647545e-06	-7.345936e-10	-1.147168e+01	-5.274712e+01
1.500000e-06	-1.602807e-06	-7.302694e-10	-1.116018e+01	-5.234228e+01
1.510000e-06	-1.557998e-06	-7.258362e-10	-1.084818e+01	-5.192570e+01
1.520000e-06	-1.513042e-06	-7.235445e-10	-1.053515e+01	-5.149675e+01
1.530000e-06	-1.467958e-06	-7.216272e-10	-1.022124e+01	-5.105483e+01
1.540000e-06	-1.422773e-06	-7.159488e-10	-9.906616e+00	-5.059941e+01
1.550000e-06	-1.377475e-06	-7.034942e-10	-9.591212e+00	-5.012996e+01
1.560000e-06	-1.332083e-06	-6.901686e-10	-9.275155e+00	-4.964602e+01
1.570000e-06	-1.286618e-06	-6.777840e-10	-8.958586e+00	-4.914714e+01
1.580000e-06	-1.241020e-06	-6.664955e-10	-8.641095e+00	-4.863293e+01
1.590000e-06	-1.195318e-06	-6.597555e-10	-8.322876e+00	-4.810300e+01
1.600000e-06	-1.149618e-06	-6.575198e-10	-8.004668e+00	-4.755697e+01
1.610000e-06	-1.103898e-06	-6.539527e-10	-7.686328e+00	-4.699448e+01
1.620000e-06	-1.058091e-06	-6.452987e-10	-7.367375e+00	-4.641515e+01
1.630000e-06	-1.012196e-06	-6.349053e-10	-7.047814e+00	-4.581860e+01
1.640000e-06	-9.661165e-07	-6.248280e-10	-6.726968e+00	-4.520442e+01
1.650000e-06	-9.198971e-07	-6.160681e-10	-6.405147e+00	-4.457215e+01
1.660000e-06	-8.736820e-07	-6.064608e-10	-6.083356e+00	-4.392131e+01
1.670000e-06	-8.274701e-07	-5.961233e-10	-5.761588e+00	-4.325136e+01
1.680000e-06	-7.812447e-07	-5.846984e-10	-5.439725e+00	-4.256171e+01
1.690000e-06	-7.349857e-07	-5.730832e-10	-5.117629e+00	-4.185169e+01
1.700000e-06	-6.886958e-07	-5.600786e-10	-4.795317e+00	-4.112059e+01
1.710000e-06	-6.423474e-07	-5.480524e-10	-4.472598e+00	-4.036763e+01
1.720000e-06	-5.959332e-07	-5.370448e-10	-4.149420e+00	-3.959195e+01
1.730000e-06	-5.493745e-07	-5.276466e-10	-3.825237e+00	-3.879267e+01
1.740000e-06	-5.026841e-07	-5.160890e-10	-3.500137e+00	-3.796883e+01
1.750000e-06	-4.560526e-07	-5.031950e-10	-3.175446e+00	-3.711944e+01
1.760000e-06	-4.094846e-07	-4.872279e-10	-2.851198e+00	-3.624346e+01
1.770000e-06	-3.629162e-07	-4.704387e-10	-2.526948e+00	-3.533986e+01
1.780000e-06	-3.163263e-07	-4.550903e-10	-2.202547e+00	-3.440760e+01
1.790000e-06	-2.696684e-07	-4.411919e-10	-1.877673e+00	-3.344565e+01
1.800000e-06	-2.230014e-07	-4.284257e-10	-1.552735e+00	-3.245301e+01
1.810000e-06	-1.762942e-07	-4.142384e-10	-1.227518e+00	-3.142873e+01
1.820000e-06	-1.295332e-07	-3.999168e-10	-9.019260e-01	-3.037195e+01
1.830000e-06	-8.277340e-08	-3.867827e-10	-5.763425e-01	-2.928188e+01
1.840000e-06	-3.601947e-08	-3.726601e-10	-2.507998e-01	-2.815786e+01
1.850000e-06	1.066463e-08	-3.549658e-10	7.425671e-02	-2.699935e+01
1.860000e-06	5.739783e-08	-3.355462e-10	3.996551e-01	-2.580595e+01
1.870000e-06	1.040371e-07	-3.167587e-10	7.243996e-01	-2.457745e+01
1.880000e-06	1.506192e-07	-2.971956e-10	1.048746e+00	-2.331379e+01
1.890000e-06	1.973697e-07	-2.797510e-10	1.374264e+00	-2.201514e+01
1.900000e-06	2.441591e-07	-2.654062e-10	1.700054e+00	-2.068183e+01
1.910000e-06	2.908950e-07	-2.493600e-10	2.025472e+00	-1.931445e+01
1.920000e-06	3.375008e-07	-2.313056e-10	2.349983e+00	-1.791376e+01
1.930000e-06	3.840684e-07	-2.118383e-10	2.674228e+00	-1.648076e+01
1.940000e-06	4.306115e-07	-1.906949e-10	2.998303e+00	-1.501667e+01
1.950000e-06	4.771188e-07	-1.669240e-10	3.322128e+00	-1.352291e+01
1.960000e-06	5.236121e-07	-1.437862e-10	3.645856e+00	-1.200111e+01
1.970000e-06	5.700981e-07	-1.236761e-10	3.969533e+00	-1.045309e+01
1.980000e-06	6.165622e-07	-1.042612e-10	4.293058e+00	-8.880847e+00
1.990000e-06	6.629200e-07	-8.488339e-11	4.615843e+00	-7.286542e+00
2.000000e-06	7.091970e-07	-6.342594e-11	4.938064e+00	-5.672482e+00
2.010000e-06	7.554570e-07	-3.835213e-11	5.260168e+00	-4.041098e+00
2.020000e-06	8.016667e-07	-1.237803e-11	5.581921e+00	-2.394921e+00
2.030000e-06	8.477858e-07	1.173452e-11	5.903043e+00	-7.365620e-01
2.040000e-06	8.938581e-07	3.169569e-11	6.223840e+00	9.313149e-01
2.050000e-06	9.398600e-07	5.044617e-11	6.544147e+00	2.606015e+00
2.060000e-06	9.858397e-07	7.184436e-11	6.864298e+00	4.284837e+00
2.070000e-06	1.031761e-06	9.494841e-11	7.184042e+00	5.965099e+00
2.080000e-06	1.077586e-06	1.178031e-10	7.503120e+00	7.644159e+00
2.090000e-06	1.123362e-06	1.436753e-10	7.821850e+00	9.319441e+00
2.100000e-06	1.169046e-06	1.707676e-10	8.139944e+00	1.098845e+01
2.110000e-06	1.214650e-06	1.946813e-10	8.457482e+00	1.264878e+01
2.120000e-06	1.260195e-06	2.166253e-10	8.774608e+00	1.429817e+01
2.130000e-06	1.305683e-06	2.384041e-10	9.091337e+00	1.593447e+01
2.140000e-06	1.351101e-06	2.584082e-10	9.407574e+00	1.755566e+01
2.150000e-06	1.396356e-06	2.767457e-10	9.722679e+00	1.915990e+01
2.160000e-06	1.441565e-06	2.978735e-10	1.003746e+01	2.074547e+01
2.170000e-06	1.486638e-06	3.214116e-10	1.035130e+01	2.231085e+01
2.180000e-06	1.531452e-06	3.450212e-10	1.066334e+01	2.385464e+01
2.190000e-06	1.576178e-06	3.698125e-10	1.097476e+01	2.537561e+01
2.200000e-06	1.620820e-06	3.932945e-10	1.128560e+01	2.687269e+01
2.210000e-06	1.665338e-06	4.132294e-10	1.159558e+01	2.834496e+01
2.220000e-06	1.709711e-06	4.290165e-10	1.190454e+01	2.979161e+01
2.230000e-06	1.753970e-06	4.429262e-10	1.221271e+01	3.121198e+01
2.240000e-06	1.798160e-06	4.581637e-10	1.252040e+01	3.260553e+01
2.250000e-06	1.842276e-06	4.749212e-10	1.282757e+01	3.397183e+01
2.260000e-06	1.886315e-06	4.938498e-10	1.313421e+01	3.531051e+01
2.270000e-06	1.930249e-06	5.160571e-10	1.344012e+01	3.662134e+01
2.280000e-06	1.974061e-06	5.393527e-10	1.374518e+01	3.790410e+01
2.290000e-06	2.017837e-06	5.598517e-10	1.404999e+01	3.915867e+01
2.300000e-06	2.061644e-06	5.767054e-10	1.435501e+01	4.038497e+01
2.310000e-06	2.105462e-06	5.891525e-10	1.466011e+01	4.158295e+01
2.320000e-06	2.149207e-06	5.999148e-10	1.496470e+01	4.275261e+01
2.330000e-06	2.192779e-06	6.126469e-10	1.526809e+01	4.389393e+01
2.340000e-06	2.236192e-06	6.285787e-10	1.557037e+01	4.500697e+01
2.350000e-06	2.279447e-06	6.472499e-10	1.587155e+01	4.609175e+01
2.360000e-06	2.322475e-06	6.651804e-10	1.617115e+01	4.714833e+01
2.370000e-06	2.365296e-06	6.793719e-10	1.646931e+01	4.817678e+01
2.380000e-06	2.407848e-06	6.905260e-10	1.676559e+01	4.917716e+01
2.390000e-06	2.449929e-06	7.005483e-10	1.705860e+01	5.014955e+01
2.400000e-06	2.491493e-06	7.106898e-10	1.734800e+01	5.109406e+01
2.410000e-06	2.532752e-06	7.212221e-10	1.763529e+01	5.201081e+01
2.420000e-06	2.573726e-06	7.337034e-10	1.792058e+01	5.289993e+01
2.430000e-06	2.614459e-06	7.477300e-10	1.820421e+01	5.376159e+01
2.440000e-06	2.655043e-06	7.604329e-10	1.848679e+01	5.459600e+01
2.450000e-06	2.695374e-06	7.714359e-10	1.876760e+01	5.540339e+01
2.460000e-06	2.735527e-06	7.814280e-10	1.904719e+01	5.618404e+01
2.470000e-06	2.775523e-06	7.897483e-10	1.932568e+01	5.693830e+01
2.480000e-06	2.815367e-06	7.982069e-10	1.960310e+01	5.766654e+01
2.490000e-06	2.855147e-06	8.091960e-10	1.988009e+01	5.836920e+01
2.500000e-06	2.894808e-06	8.212474e-10	2.015625e+01	5.904678e+01
2.510000e-06	2.934327e-06	8.326017e-10	2.043141e+01	5.969984e+01
2.520000e-06	2.973695e-06	8.422782e-10	2.070553e+01	6.032899e+01
2.530000e-06	3.012815e-06	8.500778e-10	2.097792e+01	6.093490e+01
2.540000e-06	3.051714e-06	8.566352e-10	2.124877e+01	6.151830e+01
2.550000e-06	3.090449e-06	8.621232e-10	2.151847e+01	6.207996e+01
2.560000e-06	3.128872e-06	8.686423e-10	2.178601e+01	6.262070e+01
2.570000e-06	3.167004e-06	8.775556e-10	2.205151e+01	6.314138e+01
2.580000e-06	3.204991e-06	8.857565e-10	2.231602e+01	6.364287e+01
2.590000e-06	3.242850e-06	8.928081e-10	2.257962e+01	6.412608e+01
2.600000e-06	3.280543e-06	9.006951e-10	2.284208e+01	6.459192e+01
2.610000e-06	3.318043e-06	9.072479e-10	2.310319e+01	6.504132e+01
2.620000e-06	3.355352e-06	9.120830e-10	2.336296e+01	6.547518e+01
2.630000e-06	3.392405e-06	9.174174e-10	2.362096e+01	6.589439e+01
2.640000e-06	3.429159e-06	9.229871e-10	2.387688e+01	6.629980e+01
2.650000e-06	3.465603e-06	9.278925e-10	2.413063e+01	6.669224e+01
2.660000e-06	3.501758e-06	9.325997e-10	2.438238e+01	6.707248e+01
2.670000e-06	3.537751e-06	9.367798e-10	2.463299e+01	6.744126e+01
2.680000e-06	3.573645e-06	9.401847e-10	2.488292e+01	6.779922e+01
2.690000e-06	3.609364e-06	9.447471e-10	2.513163e+01	6.814697e+01
2.700000e-06	3.644941e-06	9.507255e-10	2.537934e+01	6.848503e+01
2.710000e-06	3.680384e-06	9.559701e-10	2.562613e+01	6.881386e+01
2.720000e-06	3.715621e-06	9.600116e-10	2.587148e+01	6.913384e+01
2.730000e-06	3.750605e-06	9.639940e-10	2.611507e+01	6.944530e+01
2.740000e-06	3.785197e-06	9.668779e-10	2.635593e+01	6.974847e+01
2.750000e-06	3.819234e-06	9.709245e-10	2.659293e+01	7.004353e+01
2.760000e-06	3.852766e-06	9.772649e-10	2.682641e+01	7.033061e+01
2.770000e-06	3.885811e-06	9.829685e-10	2.705649e+01	7.060978e+01
2.780000e-06	3.918377e-06	9.892821e-10	2.728325e+01	7.088106e+01
2.790000e-06	3.950663e-06	9.960317e-10	2.750805e+01	7.114443e+01
2.800000e-06	3.982745e-06	1.001265e-09	2.773144e+01	7.139987e+01
2.810000e-06	4.014638e-06	1.003528e-09	2.795351e+01	7.164731e+01
2.820000e-06	4.046371e-06	1.004884e-09	2.817446e+01	7.188669e+01
2.830000e-06	4.077935e-06	1.008231e-09	2.839423e+01	7.211794e+01
2.840000e-06	4.109180e-06	1.010338e-09	2.861179e+01	7.234100e+01
2.850000e-06	4.140126e-06	1.013560e-09	2.882726e+01	7.255584e+01
2.860000e-06	4.170889e-06	1.018093e-09	2.904146e+01	7.276245e+01
2.870000e-06	4.201375e-06	1.023701e-09	2.925373e+01	7.296085e+01
2.880000e-06	4.231501e-06	1.029581e-09	2.946350e+01	7.315110e+01
2.890000e-06	4.261256e-06	1.034140e-09	2.967068e+01	7.333329e+01
2.900000e-06	4.290793e-06	1.036946e-09	2.987634e+01	7.350759e+01
