# Temperatura_=_12.6
# Concentracion g/m^3_=_1620.0
# C_Vs_to_Am_M_A/Vsm_=_65563218390.804596
# pendiente_HvsI_1/m_=_3716.3
# ordenada_HvsI_A/m_=_1297.0
# frecuencia_Hz_=_135101.1504720189

Tiempo_(s)	Campo_(V.s)	Magnetizacion_(V.s)	Campo_(kA/m)	Magnetizacion_(A/m)
0.000000e+00	-5.527779e-06	-1.436383e-09	-3.837334e+01	-9.754982e+01
1.000000e-08	-5.527825e-06	-1.434816e-09	-3.837366e+01	-9.751256e+01
2.000000e-08	-5.527720e-06	-1.433461e-09	-3.837293e+01	-9.747760e+01
3.000000e-08	-5.527277e-06	-1.432099e-09	-3.836986e+01	-9.744540e+01
4.000000e-08	-5.526300e-06	-1.429729e-09	-3.836307e+01	-9.741635e+01
5.000000e-08	-5.524858e-06	-1.424304e-09	-3.835306e+01	-9.739075e+01
6.000000e-08	-5.522862e-06	-1.416684e-09	-3.833921e+01	-9.736882e+01
7.000000e-08	-5.520187e-06	-1.424456e-09	-3.832064e+01	-9.735067e+01
8.000000e-08	-5.516965e-06	-1.425162e-09	-3.829827e+01	-9.733630e+01
9.000000e-08	-5.513275e-06	-1.420823e-09	-3.827265e+01	-9.732561e+01
1.000000e-07	-5.509155e-06	-1.444692e-09	-3.824406e+01	-9.731838e+01
1.100000e-07	-5.504674e-06	-1.489803e-09	-3.821295e+01	-9.731428e+01
1.200000e-07	-5.499939e-06	-1.417285e-09	-3.818008e+01	-9.731288e+01
1.300000e-07	-5.495040e-06	-1.379518e-09	-3.814607e+01	-9.731362e+01
1.400000e-07	-5.489809e-06	-1.401881e-09	-3.810976e+01	-9.731587e+01
1.500000e-07	-5.484159e-06	-1.478115e-09	-3.807053e+01	-9.731890e+01
1.600000e-07	-5.478157e-06	-1.430090e-09	-3.802887e+01	-9.732190e+01
1.700000e-07	-5.471761e-06	-1.377245e-09	-3.798447e+01	-9.732400e+01
1.800000e-07	-5.464863e-06	-1.430948e-09	-3.793658e+01	-9.732428e+01
1.900000e-07	-5.457540e-06	-1.522048e-09	-3.788575e+01	-9.732178e+01
2.000000e-07	-5.449990e-06	-1.490434e-09	-3.783334e+01	-9.731552e+01
2.100000e-07	-5.442220e-06	-1.428475e-09	-3.777940e+01	-9.730452e+01
2.200000e-07	-5.434156e-06	-1.448659e-09	-3.772342e+01	-9.728781e+01
2.300000e-07	-5.425780e-06	-1.496565e-09	-3.766527e+01	-9.726447e+01
2.400000e-07	-5.416969e-06	-1.491653e-09	-3.760411e+01	-9.723360e+01
2.500000e-07	-5.407576e-06	-1.457462e-09	-3.753890e+01	-9.719437e+01
2.600000e-07	-5.397437e-06	-1.479913e-09	-3.746852e+01	-9.714605e+01
2.700000e-07	-5.386619e-06	-1.483545e-09	-3.739342e+01	-9.708797e+01
2.800000e-07	-5.375455e-06	-1.470632e-09	-3.731593e+01	-9.701960e+01
2.900000e-07	-5.363990e-06	-1.433618e-09	-3.723634e+01	-9.694049e+01
3.000000e-07	-5.352096e-06	-1.451398e-09	-3.715376e+01	-9.685032e+01
3.100000e-07	-5.339712e-06	-1.455294e-09	-3.706780e+01	-9.674892e+01
3.200000e-07	-5.326892e-06	-1.479502e-09	-3.697880e+01	-9.663621e+01
3.300000e-07	-5.313726e-06	-1.449142e-09	-3.688741e+01	-9.651226e+01
3.400000e-07	-5.300172e-06	-1.454878e-09	-3.679332e+01	-9.637728e+01
3.500000e-07	-5.286177e-06	-1.460705e-09	-3.669616e+01	-9.623157e+01
3.600000e-07	-5.271856e-06	-1.462007e-09	-3.659675e+01	-9.607559e+01
3.700000e-07	-5.257057e-06	-1.407477e-09	-3.649401e+01	-9.590987e+01
3.800000e-07	-5.241602e-06	-1.432381e-09	-3.638673e+01	-9.573505e+01
3.900000e-07	-5.225614e-06	-1.466340e-09	-3.627574e+01	-9.555185e+01
4.000000e-07	-5.209161e-06	-1.432144e-09	-3.616152e+01	-9.536108e+01
4.100000e-07	-5.192321e-06	-1.411503e-09	-3.604462e+01	-9.516356e+01
4.200000e-07	-5.175200e-06	-1.470794e-09	-3.592577e+01	-9.496019e+01
4.300000e-07	-5.157809e-06	-1.450082e-09	-3.580504e+01	-9.475187e+01
4.400000e-07	-5.140117e-06	-1.380635e-09	-3.568223e+01	-9.453951e+01
4.500000e-07	-5.122127e-06	-1.430769e-09	-3.555734e+01	-9.432399e+01
4.600000e-07	-5.103651e-06	-1.469072e-09	-3.542908e+01	-9.410617e+01
4.700000e-07	-5.084620e-06	-1.384991e-09	-3.529697e+01	-9.388687e+01
4.800000e-07	-5.065278e-06	-1.384642e-09	-3.516270e+01	-9.366684e+01
4.900000e-07	-5.045708e-06	-1.471352e-09	-3.502685e+01	-9.344675e+01
5.000000e-07	-5.025902e-06	-1.425713e-09	-3.488936e+01	-9.322721e+01
5.100000e-07	-5.005870e-06	-1.377774e-09	-3.475030e+01	-9.300871e+01
5.200000e-07	-4.985555e-06	-1.440526e-09	-3.460927e+01	-9.279165e+01
5.300000e-07	-4.964857e-06	-1.430278e-09	-3.446559e+01	-9.257632e+01
5.400000e-07	-4.943786e-06	-1.348284e-09	-3.431931e+01	-9.236291e+01
5.500000e-07	-4.922431e-06	-1.401139e-09	-3.417107e+01	-9.215148e+01
5.600000e-07	-4.900743e-06	-1.432177e-09	-3.402052e+01	-9.194201e+01
5.700000e-07	-4.878669e-06	-1.355554e-09	-3.386728e+01	-9.173437e+01
5.800000e-07	-4.856292e-06	-1.357658e-09	-3.371194e+01	-9.152833e+01
5.900000e-07	-4.833551e-06	-1.426933e-09	-3.355408e+01	-9.132357e+01
6.000000e-07	-4.810403e-06	-1.376885e-09	-3.339338e+01	-9.111971e+01
6.100000e-07	-4.786982e-06	-1.347351e-09	-3.323080e+01	-9.091628e+01
6.200000e-07	-4.763323e-06	-1.393048e-09	-3.306656e+01	-9.071279e+01
6.300000e-07	-4.739434e-06	-1.379481e-09	-3.290072e+01	-9.050870e+01
6.400000e-07	-4.715365e-06	-1.333364e-09	-3.273363e+01	-9.030343e+01
6.500000e-07	-4.691069e-06	-1.368928e-09	-3.256498e+01	-9.009641e+01
6.600000e-07	-4.666300e-06	-1.375770e-09	-3.239303e+01	-8.988707e+01
6.700000e-07	-4.640980e-06	-1.342532e-09	-3.221726e+01	-8.967486e+01
6.800000e-07	-4.615053e-06	-1.351000e-09	-3.203728e+01	-8.945926e+01
6.900000e-07	-4.588497e-06	-1.368575e-09	-3.185293e+01	-8.923980e+01
7.000000e-07	-4.561470e-06	-1.338905e-09	-3.166531e+01	-8.901605e+01
7.100000e-07	-4.534060e-06	-1.332424e-09	-3.147503e+01	-8.878766e+01
7.200000e-07	-4.506361e-06	-1.339575e-09	-3.128275e+01	-8.855434e+01
7.300000e-07	-4.478512e-06	-1.320767e-09	-3.108943e+01	-8.831586e+01
7.400000e-07	-4.450549e-06	-1.310198e-09	-3.089531e+01	-8.807211e+01
7.500000e-07	-4.422424e-06	-1.324035e-09	-3.070007e+01	-8.782302e+01
7.600000e-07	-4.394113e-06	-1.320456e-09	-3.050353e+01	-8.756860e+01
7.700000e-07	-4.365440e-06	-1.307299e-09	-3.030449e+01	-8.730895e+01
7.800000e-07	-4.336358e-06	-1.308524e-09	-3.010260e+01	-8.704424e+01
7.900000e-07	-4.307001e-06	-1.300059e-09	-2.989881e+01	-8.677468e+01
8.000000e-07	-4.277351e-06	-1.286991e-09	-2.969298e+01	-8.650055e+01
8.100000e-07	-4.247375e-06	-1.283849e-09	-2.948489e+01	-8.622217e+01
8.200000e-07	-4.217109e-06	-1.285123e-09	-2.927479e+01	-8.593990e+01
8.300000e-07	-4.186461e-06	-1.275076e-09	-2.906203e+01	-8.565410e+01
8.400000e-07	-4.155470e-06	-1.275373e-09	-2.884690e+01	-8.536515e+01
8.500000e-07	-4.124309e-06	-1.276100e-09	-2.863058e+01	-8.507344e+01
8.600000e-07	-4.092965e-06	-1.264638e-09	-2.841299e+01	-8.477933e+01
8.700000e-07	-4.061391e-06	-1.250334e-09	-2.819381e+01	-8.448314e+01
8.800000e-07	-4.029652e-06	-1.253187e-09	-2.797348e+01	-8.418518e+01
8.900000e-07	-3.997741e-06	-1.248293e-09	-2.775196e+01	-8.388568e+01
9.000000e-07	-3.965623e-06	-1.242727e-09	-2.752899e+01	-8.358484e+01
9.100000e-07	-3.933250e-06	-1.243955e-09	-2.730427e+01	-8.328278e+01
9.200000e-07	-3.900460e-06	-1.241036e-09	-2.707664e+01	-8.297956e+01
9.300000e-07	-3.867247e-06	-1.225553e-09	-2.684608e+01	-8.267516e+01
9.400000e-07	-3.833604e-06	-1.224098e-09	-2.661253e+01	-8.236948e+01
9.500000e-07	-3.799387e-06	-1.223713e-09	-2.637500e+01	-8.206236e+01
9.600000e-07	-3.764707e-06	-1.212361e-09	-2.613425e+01	-8.175356e+01
9.700000e-07	-3.729746e-06	-1.200971e-09	-2.589156e+01	-8.144278e+01
9.800000e-07	-3.694479e-06	-1.201710e-09	-2.564674e+01	-8.112963e+01
9.900000e-07	-3.658912e-06	-1.194716e-09	-2.539984e+01	-8.081372e+01
1.000000e-06	-3.623223e-06	-1.183820e-09	-2.515209e+01	-8.049455e+01
1.010000e-06	-3.587471e-06	-1.182976e-09	-2.490390e+01	-8.017164e+01
1.020000e-06	-3.551534e-06	-1.183201e-09	-2.465443e+01	-7.984445e+01
1.030000e-06	-3.515399e-06	-1.176707e-09	-2.440358e+01	-7.951245e+01
1.040000e-06	-3.479117e-06	-1.174032e-09	-2.415172e+01	-7.917511e+01
1.050000e-06	-3.442609e-06	-1.170594e-09	-2.389828e+01	-7.883189e+01
1.060000e-06	-3.405840e-06	-1.157451e-09	-2.364303e+01	-7.848230e+01
1.070000e-06	-3.368805e-06	-1.148540e-09	-2.338594e+01	-7.812588e+01
1.080000e-06	-3.331436e-06	-1.148743e-09	-2.312653e+01	-7.776222e+01
1.090000e-06	-3.293776e-06	-1.146865e-09	-2.286510e+01	-7.739097e+01
1.100000e-06	-3.255868e-06	-1.139971e-09	-2.260194e+01	-7.701182e+01
1.110000e-06	-3.217741e-06	-1.136403e-09	-2.233726e+01	-7.662457e+01
1.120000e-06	-3.179447e-06	-1.129635e-09	-2.207143e+01	-7.622908e+01
1.130000e-06	-3.140933e-06	-1.117839e-09	-2.180407e+01	-7.582529e+01
1.140000e-06	-3.102243e-06	-1.107222e-09	-2.153549e+01	-7.541322e+01
1.150000e-06	-3.063343e-06	-1.101943e-09	-2.126545e+01	-7.499298e+01
1.160000e-06	-3.024205e-06	-1.093889e-09	-2.099376e+01	-7.456475e+01
1.170000e-06	-2.984829e-06	-1.085694e-09	-2.072041e+01	-7.412880e+01
1.180000e-06	-2.945259e-06	-1.077899e-09	-2.044572e+01	-7.368545e+01
1.190000e-06	-2.905620e-06	-1.071138e-09	-2.017055e+01	-7.323509e+01
1.200000e-06	-2.865843e-06	-1.061135e-09	-1.989442e+01	-7.277815e+01
1.210000e-06	-2.825898e-06	-1.054359e-09	-1.961713e+01	-7.231511e+01
1.220000e-06	-2.785817e-06	-1.047135e-09	-1.933889e+01	-7.184648e+01
1.230000e-06	-2.745657e-06	-1.039917e-09	-1.906010e+01	-7.137276e+01
1.240000e-06	-2.705315e-06	-1.033921e-09	-1.878005e+01	-7.089449e+01
1.250000e-06	-2.664684e-06	-1.030133e-09	-1.849799e+01	-7.041217e+01
1.260000e-06	-2.623855e-06	-1.023241e-09	-1.821456e+01	-6.992629e+01
1.270000e-06	-2.582851e-06	-1.014675e-09	-1.792992e+01	-6.943728e+01
1.280000e-06	-2.541622e-06	-1.007347e-09	-1.764371e+01	-6.894555e+01
1.290000e-06	-2.500081e-06	-9.986573e-10	-1.735533e+01	-6.845143e+01
1.300000e-06	-2.458206e-06	-9.888005e-10	-1.706465e+01	-6.795520e+01
1.310000e-06	-2.415962e-06	-9.800778e-10	-1.677139e+01	-6.745703e+01
1.320000e-06	-2.373296e-06	-9.738544e-10	-1.647521e+01	-6.695704e+01
1.330000e-06	-2.330435e-06	-9.673894e-10	-1.617767e+01	-6.645524e+01
1.340000e-06	-2.287350e-06	-9.586839e-10	-1.587857e+01	-6.595156e+01
1.350000e-06	-2.243942e-06	-9.504723e-10	-1.557724e+01	-6.544582e+01
1.360000e-06	-2.200378e-06	-9.395297e-10	-1.527482e+01	-6.493775e+01
1.370000e-06	-2.156742e-06	-9.287745e-10	-1.497191e+01	-6.442702e+01
1.380000e-06	-2.113051e-06	-9.205186e-10	-1.466861e+01	-6.391317e+01
1.390000e-06	-2.069251e-06	-9.135933e-10	-1.436455e+01	-6.339569e+01
1.400000e-06	-2.025329e-06	-9.062548e-10	-1.405965e+01	-6.287398e+01
1.410000e-06	-1.981374e-06	-8.991582e-10	-1.375452e+01	-6.234738e+01
1.420000e-06	-1.937438e-06	-8.911407e-10	-1.344952e+01	-6.181519e+01
1.430000e-06	-1.893368e-06	-8.790078e-10	-1.314359e+01	-6.127664e+01
1.440000e-06	-1.849161e-06	-8.675391e-10	-1.283671e+01	-6.073093e+01
1.450000e-06	-1.804964e-06	-8.572931e-10	-1.252989e+01	-6.017726e+01
1.460000e-06	-1.760609e-06	-8.475773e-10	-1.222199e+01	-5.961479e+01
1.470000e-06	-1.716038e-06	-8.373724e-10	-1.191258e+01	-5.904268e+01
1.480000e-06	-1.671373e-06	-8.304802e-10	-1.160252e+01	-5.846010e+01
1.490000e-06	-1.626573e-06	-8.212438e-10	-1.129152e+01	-5.786625e+01
1.500000e-06	-1.581552e-06	-8.075754e-10	-1.097899e+01	-5.726033e+01
1.510000e-06	-1.536464e-06	-7.945769e-10	-1.066599e+01	-5.664157e+01
1.520000e-06	-1.491368e-06	-7.841310e-10	-1.035294e+01	-5.600924e+01
1.530000e-06	-1.446088e-06	-7.749930e-10	-1.003861e+01	-5.536266e+01
1.540000e-06	-1.400713e-06	-7.668135e-10	-9.723621e+00	-5.470116e+01
1.550000e-06	-1.355317e-06	-7.571568e-10	-9.408485e+00	-5.402413e+01
1.560000e-06	-1.309812e-06	-7.457082e-10	-9.092598e+00	-5.333099e+01
1.570000e-06	-1.264185e-06	-7.311161e-10	-8.775857e+00	-5.262119e+01
1.580000e-06	-1.218473e-06	-7.165929e-10	-8.458532e+00	-5.189421e+01
1.590000e-06	-1.172617e-06	-7.044924e-10	-8.140201e+00	-5.114957e+01
1.600000e-06	-1.126673e-06	-6.945887e-10	-7.821265e+00	-5.038678e+01
1.610000e-06	-1.080764e-06	-6.845114e-10	-7.502567e+00	-4.960539e+01
1.620000e-06	-1.034823e-06	-6.744530e-10	-7.183644e+00	-4.880494e+01
1.630000e-06	-9.887301e-07	-6.619530e-10	-6.863675e+00	-4.798496e+01
1.640000e-06	-9.424508e-07	-6.473918e-10	-6.542408e+00	-4.714498e+01
1.650000e-06	-8.960310e-07	-6.314352e-10	-6.220166e+00	-4.628450e+01
1.660000e-06	-8.496247e-07	-6.152061e-10	-5.898018e+00	-4.540300e+01
1.670000e-06	-8.031996e-07	-6.009477e-10	-5.575739e+00	-4.449993e+01
1.680000e-06	-7.567196e-07	-5.864381e-10	-5.253079e+00	-4.357468e+01
1.690000e-06	-7.102542e-07	-5.709436e-10	-4.930520e+00	-4.262664e+01
1.700000e-06	-6.637420e-07	-5.541118e-10	-4.607637e+00	-4.165511e+01
1.710000e-06	-6.172282e-07	-5.392395e-10	-4.284742e+00	-4.065939e+01
1.720000e-06	-5.706663e-07	-5.258345e-10	-3.961514e+00	-3.963871e+01
1.730000e-06	-5.239800e-07	-5.120468e-10	-3.637422e+00	-3.859228e+01
1.740000e-06	-4.772624e-07	-4.963532e-10	-3.313112e+00	-3.751927e+01
1.750000e-06	-4.305183e-07	-4.774733e-10	-2.988619e+00	-3.641884e+01
1.760000e-06	-3.836866e-07	-4.573765e-10	-2.663518e+00	-3.529011e+01
1.770000e-06	-3.368385e-07	-4.403596e-10	-2.338302e+00	-3.413223e+01
1.780000e-06	-2.899709e-07	-4.250805e-10	-2.012952e+00	-3.294435e+01
1.790000e-06	-2.430774e-07	-4.094108e-10	-1.687421e+00	-3.172563e+01
1.800000e-06	-1.961658e-07	-3.933179e-10	-1.361765e+00	-3.047530e+01
1.810000e-06	-1.491689e-07	-3.755547e-10	-1.035517e+00	-2.919263e+01
1.820000e-06	-1.022266e-07	-3.562102e-10	-7.096481e-01	-2.787698e+01
1.830000e-06	-5.535657e-08	-3.376201e-10	-3.842803e-01	-2.652779e+01
1.840000e-06	-8.551040e-09	-3.189855e-10	-5.936055e-02	-2.514463e+01
1.850000e-06	3.823769e-08	-2.987138e-10	2.654426e-01	-2.372719e+01
1.860000e-06	8.511512e-08	-2.770030e-10	5.908615e-01	-2.227531e+01
1.870000e-06	1.319245e-07	-2.549649e-10	9.158079e-01	-2.078898e+01
1.880000e-06	1.787204e-07	-2.345026e-10	1.240661e+00	-1.926839e+01
1.890000e-06	2.255650e-07	-2.160140e-10	1.565852e+00	-1.771388e+01
1.900000e-06	2.723600e-07	-1.962939e-10	1.890698e+00	-1.612603e+01
1.910000e-06	3.191053e-07	-1.752665e-10	2.215200e+00	-1.450559e+01
1.920000e-06	3.658374e-07	-1.543054e-10	2.539610e+00	-1.285355e+01
1.930000e-06	4.125665e-07	-1.309811e-10	2.863999e+00	-1.117108e+01
1.940000e-06	4.593190e-07	-1.050793e-10	3.188551e+00	-9.459577e+00
1.950000e-06	5.060977e-07	-7.937934e-11	3.513284e+00	-7.720656e+00
1.960000e-06	5.528011e-07	-5.741382e-11	3.837495e+00	-5.956119e+00
1.970000e-06	5.994261e-07	-3.670225e-11	4.161162e+00	-4.167965e+00
1.980000e-06	6.460038e-07	-1.607727e-11	4.484500e+00	-2.358373e+00
1.990000e-06	6.925269e-07	6.158080e-12	4.807459e+00	-5.296864e-01
2.000000e-06	7.389493e-07	3.285266e-11	5.129719e+00	1.315601e+00
2.010000e-06	7.852731e-07	6.264826e-11	5.451294e+00	3.174867e+00
2.020000e-06	8.315795e-07	9.209285e-11	5.772750e+00	5.045381e+00
2.030000e-06	8.778949e-07	1.204811e-10	6.094267e+00	6.924327e+00
2.040000e-06	9.241676e-07	1.458165e-10	6.415488e+00	8.808828e+00
2.050000e-06	9.703602e-07	1.710789e-10	6.736153e+00	1.069597e+01
2.060000e-06	1.016448e-06	1.971180e-10	7.056093e+00	1.258282e+01
2.070000e-06	1.062438e-06	2.232207e-10	7.375348e+00	1.446646e+01
2.080000e-06	1.108381e-06	2.528395e-10	7.694283e+00	1.634403e+01
2.090000e-06	1.154211e-06	2.832846e-10	8.012431e+00	1.821270e+01
2.100000e-06	1.200023e-06	3.104710e-10	8.330449e+00	2.006974e+01
2.110000e-06	1.245821e-06	3.351715e-10	8.648377e+00	2.191253e+01
2.120000e-06	1.291471e-06	3.597519e-10	8.965277e+00	2.373857e+01
2.130000e-06	1.337011e-06	3.824032e-10	9.281410e+00	2.554551e+01
2.140000e-06	1.382385e-06	4.039894e-10	9.596389e+00	2.733114e+01
2.150000e-06	1.427673e-06	4.266801e-10	9.910779e+00	2.909345e+01
2.160000e-06	1.472947e-06	4.514981e-10	1.022507e+01	3.083060e+01
2.170000e-06	1.518051e-06	4.753130e-10	1.053818e+01	3.254094e+01
2.180000e-06	1.563000e-06	4.975993e-10	1.085020e+01	3.422302e+01
2.190000e-06	1.607898e-06	5.205185e-10	1.116188e+01	3.587559e+01
2.200000e-06	1.652660e-06	5.433363e-10	1.147261e+01	3.749759e+01
2.210000e-06	1.697245e-06	5.640707e-10	1.178212e+01	3.908818e+01
2.220000e-06	1.741754e-06	5.825807e-10	1.209110e+01	4.064668e+01
2.230000e-06	1.786190e-06	6.003717e-10	1.239957e+01	4.217262e+01
2.240000e-06	1.830481e-06	6.177990e-10	1.270703e+01	4.366568e+01
2.250000e-06	1.874604e-06	6.355882e-10	1.301333e+01	4.512574e+01
2.260000e-06	1.918616e-06	6.561272e-10	1.331886e+01	4.655280e+01
2.270000e-06	1.962543e-06	6.778566e-10	1.362380e+01	4.794701e+01
2.280000e-06	2.006404e-06	6.992324e-10	1.392827e+01	4.930864e+01
2.290000e-06	2.050238e-06	7.192444e-10	1.423257e+01	5.063807e+01
2.300000e-06	2.094065e-06	7.367821e-10	1.453681e+01	5.193577e+01
2.310000e-06	2.137826e-06	7.524550e-10	1.484059e+01	5.320228e+01
2.320000e-06	2.181494e-06	7.673134e-10	1.514373e+01	5.443822e+01
2.330000e-06	2.225050e-06	7.817693e-10	1.544610e+01	5.564422e+01
2.340000e-06	2.268462e-06	7.965876e-10	1.574746e+01	5.682098e+01
2.350000e-06	2.311630e-06	8.135598e-10	1.604712e+01	5.796918e+01
2.360000e-06	2.354485e-06	8.312481e-10	1.634462e+01	5.908953e+01
2.370000e-06	2.397090e-06	8.465041e-10	1.664038e+01	6.018272e+01
2.380000e-06	2.439501e-06	8.600664e-10	1.693479e+01	6.124943e+01
2.390000e-06	2.481592e-06	8.725755e-10	1.722698e+01	6.229031e+01
2.400000e-06	2.523233e-06	8.845906e-10	1.751606e+01	6.330599e+01
2.410000e-06	2.564606e-06	8.982205e-10	1.780326e+01	6.429703e+01
2.420000e-06	2.605800e-06	9.129929e-10	1.808923e+01	6.526399e+01
2.430000e-06	2.646687e-06	9.295264e-10	1.837306e+01	6.620736e+01
2.440000e-06	2.687233e-06	9.450344e-10	1.865453e+01	6.712760e+01
2.450000e-06	2.727539e-06	9.579994e-10	1.893433e+01	6.802511e+01
2.460000e-06	2.767731e-06	9.693083e-10	1.921334e+01	6.890026e+01
2.470000e-06	2.807832e-06	9.799316e-10	1.949172e+01	6.975339e+01
2.480000e-06	2.847826e-06	9.898430e-10	1.976935e+01	7.058478e+01
2.490000e-06	2.887687e-06	9.989123e-10	2.004606e+01	7.139469e+01
2.500000e-06	2.927419e-06	1.009814e-09	2.032188e+01	7.218337e+01
2.510000e-06	2.966992e-06	1.021839e-09	2.059659e+01	7.295103e+01
2.520000e-06	3.006346e-06	1.034158e-09	2.086978e+01	7.369787e+01
2.530000e-06	3.045456e-06	1.045409e-09	2.114128e+01	7.442409e+01
2.540000e-06	3.084322e-06	1.054791e-09	2.141108e+01	7.512987e+01
2.550000e-06	3.122938e-06	1.064416e-09	2.167915e+01	7.581543e+01
2.560000e-06	3.161361e-06	1.074733e-09	2.194588e+01	7.648095e+01
2.570000e-06	3.199604e-06	1.083893e-09	2.221136e+01	7.712667e+01
2.580000e-06	3.237684e-06	1.091836e-09	2.247571e+01	7.775282e+01
2.590000e-06	3.275602e-06	1.098236e-09	2.273893e+01	7.835967e+01
2.600000e-06	3.313269e-06	1.105059e-09	2.300041e+01	7.894750e+01
2.610000e-06	3.350761e-06	1.111307e-09	2.326068e+01	7.951664e+01
2.620000e-06	3.387932e-06	1.119178e-09	2.351872e+01	8.006744e+01
2.630000e-06	3.424777e-06	1.127448e-09	2.377449e+01	8.060027e+01
2.640000e-06	3.461411e-06	1.135754e-09	2.402880e+01	8.111556e+01
2.650000e-06	3.497817e-06	1.144099e-09	2.428153e+01	8.161377e+01
2.660000e-06	3.534033e-06	1.151234e-09	2.453294e+01	8.209536e+01
2.670000e-06	3.570031e-06	1.158884e-09	2.478283e+01	8.256086e+01
2.680000e-06	3.605895e-06	1.165349e-09	2.503179e+01	8.301080e+01
2.690000e-06	3.641664e-06	1.170432e-09	2.528010e+01	8.344576e+01
2.700000e-06	3.677333e-06	1.175003e-09	2.552771e+01	8.386632e+01
2.710000e-06	3.712789e-06	1.180383e-09	2.577385e+01	8.427310e+01
2.720000e-06	3.747942e-06	1.189164e-09	2.601787e+01	8.466672e+01
2.730000e-06	3.782657e-06	1.197605e-09	2.625886e+01	8.504782e+01
2.740000e-06	3.816827e-06	1.203986e-09	2.649606e+01	8.541704e+01
2.750000e-06	3.850531e-06	1.210588e-09	2.673004e+01	8.577503e+01
2.760000e-06	3.883888e-06	1.214629e-09	2.696160e+01	8.612243e+01
2.770000e-06	3.916950e-06	1.217641e-09	2.719111e+01	8.645987e+01
2.780000e-06	3.949576e-06	1.221579e-09	2.741760e+01	8.678800e+01
2.790000e-06	3.981849e-06	1.228644e-09	2.764163e+01	8.710741e+01
2.800000e-06	4.013912e-06	1.235707e-09	2.786422e+01	8.741871e+01
2.810000e-06	4.045787e-06	1.240460e-09	2.808549e+01	8.772245e+01
2.820000e-06	4.077573e-06	1.244327e-09	2.830614e+01	8.801919e+01
2.830000e-06	4.109164e-06	1.249543e-09	2.852544e+01	8.830944e+01
2.840000e-06	4.140473e-06	1.256393e-09	2.874279e+01	8.859368e+01
2.850000e-06	4.171494e-06	1.263752e-09	2.895813e+01	8.887235e+01
2.860000e-06	4.202171e-06	1.270743e-09	2.917109e+01	8.914585e+01
2.870000e-06	4.232563e-06	1.277325e-09	2.938207e+01	8.941456e+01
2.880000e-06	4.262643e-06	1.282164e-09	2.959088e+01	8.967880e+01
2.890000e-06	4.292421e-06	1.286441e-09	2.979760e+01	8.993886e+01
2.900000e-06	4.321892e-06	1.291191e-09	3.000219e+01	9.019497e+01
