# Temperatura_=_6.04
# Concentracion g/m^3_=_1620.0
# C_Vs_to_Am_M_A/Vsm_=_65563218390.804596
# pendiente_HvsI_1/m_=_3716.3
# ordenada_HvsI_A/m_=_1297.0
# frecuencia_Hz_=_135105.04752026286

Tiempo_(s)	Campo_(V.s)	Magnetizacion_(V.s)	Campo_(kA/m)	Magnetizacion_(A/m)
0.000000e+00	-5.541377e-06	-1.300432e-09	-3.837907e+01	-8.657940e+01
1.000000e-08	-5.541519e-06	-1.300401e-09	-3.838005e+01	-8.654681e+01
2.000000e-08	-5.541428e-06	-1.300777e-09	-3.837942e+01	-8.651470e+01
3.000000e-08	-5.540981e-06	-1.301826e-09	-3.837632e+01	-8.648347e+01
4.000000e-08	-5.540019e-06	-1.300207e-09	-3.836966e+01	-8.645350e+01
5.000000e-08	-5.538389e-06	-1.295437e-09	-3.835837e+01	-8.642515e+01
6.000000e-08	-5.536059e-06	-1.291178e-09	-3.834223e+01	-8.639877e+01
7.000000e-08	-5.533212e-06	-1.295797e-09	-3.832251e+01	-8.637461e+01
8.000000e-08	-5.529956e-06	-1.286727e-09	-3.829997e+01	-8.635293e+01
9.000000e-08	-5.526240e-06	-1.254696e-09	-3.827422e+01	-8.633388e+01
1.000000e-07	-5.522112e-06	-1.284728e-09	-3.824564e+01	-8.631756e+01
1.100000e-07	-5.517637e-06	-1.358485e-09	-3.821464e+01	-8.630398e+01
1.200000e-07	-5.512907e-06	-1.292856e-09	-3.818188e+01	-8.629309e+01
1.300000e-07	-5.507978e-06	-1.223792e-09	-3.814775e+01	-8.628473e+01
1.400000e-07	-5.502699e-06	-1.257651e-09	-3.811119e+01	-8.627866e+01
1.500000e-07	-5.496963e-06	-1.358455e-09	-3.807145e+01	-8.627456e+01
1.600000e-07	-5.490815e-06	-1.332747e-09	-3.802888e+01	-8.627202e+01
1.700000e-07	-5.484274e-06	-1.204651e-09	-3.798357e+01	-8.627055e+01
1.800000e-07	-5.477315e-06	-1.256895e-09	-3.793537e+01	-8.626958e+01
1.900000e-07	-5.469973e-06	-1.359667e-09	-3.788453e+01	-8.626847e+01
2.000000e-07	-5.462367e-06	-1.362274e-09	-3.783185e+01	-8.626654e+01
2.100000e-07	-5.454571e-06	-1.262131e-09	-3.777785e+01	-8.626306e+01
2.200000e-07	-5.446499e-06	-1.285496e-09	-3.772195e+01	-8.625725e+01
2.300000e-07	-5.438002e-06	-1.349237e-09	-3.766310e+01	-8.624834e+01
2.400000e-07	-5.428992e-06	-1.357041e-09	-3.760069e+01	-8.623552e+01
2.500000e-07	-5.419352e-06	-1.306911e-09	-3.753393e+01	-8.621801e+01
2.600000e-07	-5.409042e-06	-1.312437e-09	-3.746252e+01	-8.619505e+01
2.700000e-07	-5.398128e-06	-1.331537e-09	-3.738694e+01	-8.616593e+01
2.800000e-07	-5.386751e-06	-1.325197e-09	-3.730814e+01	-8.612997e+01
2.900000e-07	-5.375066e-06	-1.296054e-09	-3.722721e+01	-8.608657e+01
3.000000e-07	-5.363036e-06	-1.290651e-09	-3.714389e+01	-8.603520e+01
3.100000e-07	-5.350564e-06	-1.323569e-09	-3.705751e+01	-8.597542e+01
3.200000e-07	-5.337695e-06	-1.342278e-09	-3.696838e+01	-8.590690e+01
3.300000e-07	-5.324418e-06	-1.319715e-09	-3.687643e+01	-8.582939e+01
3.400000e-07	-5.310718e-06	-1.290711e-09	-3.678154e+01	-8.574277e+01
3.500000e-07	-5.296571e-06	-1.332131e-09	-3.668356e+01	-8.564702e+01
3.600000e-07	-5.281950e-06	-1.330159e-09	-3.658230e+01	-8.554223e+01
3.700000e-07	-5.266800e-06	-1.274506e-09	-3.647737e+01	-8.542860e+01
3.800000e-07	-5.251176e-06	-1.280497e-09	-3.636916e+01	-8.530644e+01
3.900000e-07	-5.235092e-06	-1.340791e-09	-3.625777e+01	-8.517616e+01
4.000000e-07	-5.218598e-06	-1.282486e-09	-3.614352e+01	-8.503826e+01
4.100000e-07	-5.201815e-06	-1.254780e-09	-3.602729e+01	-8.489330e+01
4.200000e-07	-5.184677e-06	-1.337521e-09	-3.590860e+01	-8.474194e+01
4.300000e-07	-5.167236e-06	-1.331330e-09	-3.578780e+01	-8.458488e+01
4.400000e-07	-5.149436e-06	-1.222457e-09	-3.566452e+01	-8.442285e+01
4.500000e-07	-5.131194e-06	-1.287276e-09	-3.553818e+01	-8.425664e+01
4.600000e-07	-5.112458e-06	-1.352639e-09	-3.540841e+01	-8.408700e+01
4.700000e-07	-5.093360e-06	-1.240438e-09	-3.527614e+01	-8.391472e+01
4.800000e-07	-5.074061e-06	-1.217732e-09	-3.514247e+01	-8.374054e+01
4.900000e-07	-5.054569e-06	-1.342216e-09	-3.500748e+01	-8.356519e+01
5.000000e-07	-5.034859e-06	-1.289558e-09	-3.487097e+01	-8.338932e+01
5.100000e-07	-5.014877e-06	-1.212260e-09	-3.473258e+01	-8.321355e+01
5.200000e-07	-4.994546e-06	-1.313316e-09	-3.459176e+01	-8.303840e+01
5.300000e-07	-4.973863e-06	-1.319834e-09	-3.444852e+01	-8.286434e+01
5.400000e-07	-4.952776e-06	-1.193477e-09	-3.430247e+01	-8.269172e+01
5.500000e-07	-4.931275e-06	-1.248586e-09	-3.415355e+01	-8.252082e+01
5.600000e-07	-4.909466e-06	-1.320520e-09	-3.400251e+01	-8.235180e+01
5.700000e-07	-4.887300e-06	-1.209436e-09	-3.384899e+01	-8.218474e+01
5.800000e-07	-4.864760e-06	-1.198012e-09	-3.369288e+01	-8.201962e+01
5.900000e-07	-4.841866e-06	-1.302602e-09	-3.353431e+01	-8.185633e+01
6.000000e-07	-4.818641e-06	-1.249527e-09	-3.337346e+01	-8.169466e+01
6.100000e-07	-4.795200e-06	-1.188219e-09	-3.321111e+01	-8.153434e+01
6.200000e-07	-4.771601e-06	-1.264854e-09	-3.304767e+01	-8.137502e+01
6.300000e-07	-4.747781e-06	-1.256163e-09	-3.288269e+01	-8.121628e+01
6.400000e-07	-4.723682e-06	-1.186812e-09	-3.271579e+01	-8.105768e+01
6.500000e-07	-4.699192e-06	-1.226391e-09	-3.254617e+01	-8.089871e+01
6.600000e-07	-4.674249e-06	-1.254309e-09	-3.237342e+01	-8.073886e+01
6.700000e-07	-4.648734e-06	-1.198004e-09	-3.219670e+01	-8.057760e+01
6.800000e-07	-4.622646e-06	-1.211426e-09	-3.201602e+01	-8.041443e+01
6.900000e-07	-4.596052e-06	-1.242336e-09	-3.183183e+01	-8.024882e+01
7.000000e-07	-4.568966e-06	-1.202163e-09	-3.164423e+01	-8.008031e+01
7.100000e-07	-4.541549e-06	-1.183453e-09	-3.145435e+01	-7.990846e+01
7.200000e-07	-4.513921e-06	-1.216835e-09	-3.126300e+01	-7.973289e+01
7.300000e-07	-4.486179e-06	-1.199019e-09	-3.107086e+01	-7.955326e+01
7.400000e-07	-4.458260e-06	-1.180719e-09	-3.087749e+01	-7.936930e+01
7.500000e-07	-4.430054e-06	-1.201423e-09	-3.068214e+01	-7.918081e+01
7.600000e-07	-4.401566e-06	-1.199910e-09	-3.048484e+01	-7.898767e+01
7.700000e-07	-4.372737e-06	-1.169845e-09	-3.028517e+01	-7.878981e+01
7.800000e-07	-4.343534e-06	-1.173692e-09	-3.008291e+01	-7.858724e+01
7.900000e-07	-4.314071e-06	-1.174865e-09	-2.987885e+01	-7.838003e+01
8.000000e-07	-4.284360e-06	-1.156789e-09	-2.967308e+01	-7.816832e+01
8.100000e-07	-4.254224e-06	-1.158173e-09	-2.946436e+01	-7.795230e+01
8.200000e-07	-4.223746e-06	-1.173272e-09	-2.925328e+01	-7.773219e+01
8.300000e-07	-4.193068e-06	-1.159732e-09	-2.904080e+01	-7.750826e+01
8.400000e-07	-4.162166e-06	-1.152560e-09	-2.882678e+01	-7.728082e+01
8.500000e-07	-4.131005e-06	-1.163914e-09	-2.861096e+01	-7.705017e+01
8.600000e-07	-4.099570e-06	-1.153618e-09	-2.839324e+01	-7.681662e+01
8.700000e-07	-4.067968e-06	-1.136481e-09	-2.817437e+01	-7.658048e+01
8.800000e-07	-4.036281e-06	-1.142113e-09	-2.795491e+01	-7.634205e+01
8.900000e-07	-4.004429e-06	-1.139852e-09	-2.773430e+01	-7.610158e+01
9.000000e-07	-3.972255e-06	-1.122067e-09	-2.751147e+01	-7.585930e+01
9.100000e-07	-3.939787e-06	-1.125555e-09	-2.728660e+01	-7.561539e+01
9.200000e-07	-3.906881e-06	-1.129146e-09	-2.705869e+01	-7.536998e+01
9.300000e-07	-3.873480e-06	-1.112690e-09	-2.682736e+01	-7.512314e+01
9.400000e-07	-3.839639e-06	-1.106213e-09	-2.659298e+01	-7.487487e+01
9.500000e-07	-3.805292e-06	-1.112423e-09	-2.635510e+01	-7.462513e+01
9.600000e-07	-3.770523e-06	-1.096359e-09	-2.611429e+01	-7.437380e+01
9.700000e-07	-3.735377e-06	-1.082509e-09	-2.587087e+01	-7.412071e+01
9.800000e-07	-3.699962e-06	-1.088395e-09	-2.562560e+01	-7.386563e+01
9.900000e-07	-3.664410e-06	-1.086702e-09	-2.537936e+01	-7.360826e+01
1.000000e-06	-3.628784e-06	-1.069920e-09	-2.513262e+01	-7.334828e+01
1.010000e-06	-3.593028e-06	-1.071545e-09	-2.488498e+01	-7.308533e+01
1.020000e-06	-3.557083e-06	-1.075070e-09	-2.463603e+01	-7.281901e+01
1.030000e-06	-3.520955e-06	-1.065153e-09	-2.438581e+01	-7.254892e+01
1.040000e-06	-3.484613e-06	-1.060734e-09	-2.413411e+01	-7.227464e+01
1.050000e-06	-3.447992e-06	-1.064597e-09	-2.388048e+01	-7.199575e+01
1.060000e-06	-3.411021e-06	-1.054011e-09	-2.362442e+01	-7.171187e+01
1.070000e-06	-3.373782e-06	-1.044796e-09	-2.336650e+01	-7.142262e+01
1.080000e-06	-3.336344e-06	-1.047100e-09	-2.310721e+01	-7.112768e+01
1.090000e-06	-3.298667e-06	-1.041901e-09	-2.284626e+01	-7.082675e+01
1.100000e-06	-3.260796e-06	-1.026200e-09	-2.258397e+01	-7.051962e+01
1.110000e-06	-3.222723e-06	-1.021405e-09	-2.232028e+01	-7.020609e+01
1.120000e-06	-3.184321e-06	-1.019561e-09	-2.205431e+01	-6.988608e+01
1.130000e-06	-3.145681e-06	-1.012523e-09	-2.178669e+01	-6.955955e+01
1.140000e-06	-3.106852e-06	-1.012195e-09	-2.151777e+01	-6.922653e+01
1.150000e-06	-3.067804e-06	-1.016692e-09	-2.124733e+01	-6.888713e+01
1.160000e-06	-3.028568e-06	-1.010664e-09	-2.097558e+01	-6.854153e+01
1.170000e-06	-2.989179e-06	-9.979427e-10	-2.070278e+01	-6.818996e+01
1.180000e-06	-2.949671e-06	-9.904564e-10	-2.042915e+01	-6.783272e+01
1.190000e-06	-2.910018e-06	-9.815872e-10	-2.015451e+01	-6.747015e+01
1.200000e-06	-2.870284e-06	-9.707110e-10	-1.987932e+01	-6.710265e+01
1.210000e-06	-2.830405e-06	-9.671612e-10	-1.960312e+01	-6.673064e+01
1.220000e-06	-2.790284e-06	-9.677395e-10	-1.932525e+01	-6.635455e+01
1.230000e-06	-2.749974e-06	-9.652895e-10	-1.904606e+01	-6.597483e+01
1.240000e-06	-2.709527e-06	-9.641286e-10	-1.876593e+01	-6.559191e+01
1.250000e-06	-2.668869e-06	-9.619935e-10	-1.848434e+01	-6.520623e+01
1.260000e-06	-2.627833e-06	-9.528009e-10	-1.820013e+01	-6.481817e+01
1.270000e-06	-2.586429e-06	-9.402362e-10	-1.791337e+01	-6.442808e+01
1.280000e-06	-2.544684e-06	-9.330898e-10	-1.762425e+01	-6.403626e+01
1.290000e-06	-2.502657e-06	-9.263353e-10	-1.733317e+01	-6.364293e+01
1.300000e-06	-2.460433e-06	-9.182072e-10	-1.704073e+01	-6.324826e+01
1.310000e-06	-2.418004e-06	-9.133166e-10	-1.674687e+01	-6.285231e+01
1.320000e-06	-2.375278e-06	-9.119760e-10	-1.645096e+01	-6.245507e+01
1.330000e-06	-2.332181e-06	-9.056540e-10	-1.615247e+01	-6.205645e+01
1.340000e-06	-2.288848e-06	-8.978588e-10	-1.585235e+01	-6.165625e+01
1.350000e-06	-2.245421e-06	-8.894246e-10	-1.555158e+01	-6.125419e+01
1.360000e-06	-2.201964e-06	-8.780556e-10	-1.525060e+01	-6.084989e+01
1.370000e-06	-2.158417e-06	-8.666668e-10	-1.494899e+01	-6.044289e+01
1.380000e-06	-2.114727e-06	-8.586471e-10	-1.464641e+01	-6.003265e+01
1.390000e-06	-2.070964e-06	-8.517221e-10	-1.434330e+01	-5.961855e+01
1.400000e-06	-2.027129e-06	-8.478353e-10	-1.403971e+01	-5.919992e+01
1.410000e-06	-1.983175e-06	-8.449082e-10	-1.373529e+01	-5.877603e+01
1.420000e-06	-1.939141e-06	-8.394248e-10	-1.343031e+01	-5.834610e+01
1.430000e-06	-1.895055e-06	-8.312600e-10	-1.312498e+01	-5.790933e+01
1.440000e-06	-1.850890e-06	-8.241899e-10	-1.281909e+01	-5.746489e+01
1.450000e-06	-1.806584e-06	-8.174312e-10	-1.251223e+01	-5.701194e+01
1.460000e-06	-1.762079e-06	-8.099674e-10	-1.220399e+01	-5.654967e+01
1.470000e-06	-1.717407e-06	-8.006183e-10	-1.189460e+01	-5.607725e+01
1.480000e-06	-1.672554e-06	-7.928370e-10	-1.158395e+01	-5.559389e+01
1.490000e-06	-1.627542e-06	-7.840343e-10	-1.127220e+01	-5.509884e+01
1.500000e-06	-1.582400e-06	-7.743275e-10	-1.095956e+01	-5.459137e+01
1.510000e-06	-1.537096e-06	-7.676289e-10	-1.064579e+01	-5.407082e+01
1.520000e-06	-1.491670e-06	-7.594943e-10	-1.033117e+01	-5.353656e+01
1.530000e-06	-1.446174e-06	-7.488657e-10	-1.001607e+01	-5.298801e+01
1.540000e-06	-1.400610e-06	-7.368255e-10	-9.700494e+00	-5.242467e+01
1.550000e-06	-1.354969e-06	-7.276803e-10	-9.384392e+00	-5.184606e+01
1.560000e-06	-1.309294e-06	-7.185059e-10	-9.068051e+00	-5.125174e+01
1.570000e-06	-1.263601e-06	-7.087129e-10	-8.751584e+00	-5.064135e+01
1.580000e-06	-1.217774e-06	-6.977937e-10	-8.434191e+00	-5.001451e+01
1.590000e-06	-1.171801e-06	-6.887205e-10	-8.115783e+00	-4.937091e+01
1.600000e-06	-1.125754e-06	-6.814559e-10	-7.796864e+00	-4.871023e+01
1.610000e-06	-1.079672e-06	-6.713048e-10	-7.477708e+00	-4.803216e+01
1.620000e-06	-1.033542e-06	-6.585781e-10	-7.158214e+00	-4.733638e+01
1.630000e-06	-9.873019e-07	-6.491275e-10	-6.837961e+00	-4.662256e+01
1.640000e-06	-9.410076e-07	-6.430035e-10	-6.517332e+00	-4.589032e+01
1.650000e-06	-8.945977e-07	-6.359426e-10	-6.195901e+00	-4.513928e+01
1.660000e-06	-8.481027e-07	-6.257487e-10	-5.873881e+00	-4.436898e+01
1.670000e-06	-8.016457e-07	-6.131930e-10	-5.552124e+00	-4.357890e+01
1.680000e-06	-7.551134e-07	-5.961068e-10	-5.229846e+00	-4.276848e+01
1.690000e-06	-7.084853e-07	-5.777687e-10	-4.906904e+00	-4.193708e+01
1.700000e-06	-6.618777e-07	-5.615896e-10	-4.584104e+00	-4.108400e+01
1.710000e-06	-6.152343e-07	-5.497064e-10	-4.261056e+00	-4.020845e+01
1.720000e-06	-5.685048e-07	-5.399394e-10	-3.937412e+00	-3.930959e+01
1.730000e-06	-5.217379e-07	-5.290999e-10	-3.613508e+00	-3.838651e+01
1.740000e-06	-4.749206e-07	-5.158555e-10	-3.289256e+00	-3.743824e+01
1.750000e-06	-4.280188e-07	-4.976890e-10	-2.964418e+00	-3.646379e+01
1.760000e-06	-3.811064e-07	-4.776214e-10	-2.639508e+00	-3.546210e+01
1.770000e-06	-3.341766e-07	-4.596042e-10	-2.314476e+00	-3.443211e+01
1.780000e-06	-2.871922e-07	-4.421727e-10	-1.989067e+00	-3.337277e+01
1.790000e-06	-2.401433e-07	-4.273435e-10	-1.663210e+00	-3.228302e+01
1.800000e-06	-1.930404e-07	-4.141838e-10	-1.336980e+00	-3.116186e+01
1.810000e-06	-1.459577e-07	-3.978330e-10	-1.010890e+00	-3.000834e+01
1.820000e-06	-9.890489e-08	-3.811137e-10	-6.850061e-01	-2.882159e+01
1.830000e-06	-5.191183e-08	-3.635233e-10	-3.595365e-01	-2.760083e+01
1.840000e-06	-4.938806e-09	-3.467456e-10	-3.420571e-02	-2.634541e+01
1.850000e-06	4.206249e-08	-3.271578e-10	2.913209e-01	-2.505485e+01
1.860000e-06	8.910093e-08	-3.050535e-10	6.171048e-01	-2.372878e+01
1.870000e-06	1.361356e-07	-2.830841e-10	9.428628e-01	-2.236705e+01
1.880000e-06	1.832044e-07	-2.618450e-10	1.268857e+00	-2.096971e+01
1.890000e-06	2.303055e-07	-2.434291e-10	1.595074e+00	-1.953700e+01
1.900000e-06	2.773646e-07	-2.258058e-10	1.921001e+00	-1.806939e+01
1.910000e-06	3.243642e-07	-2.061556e-10	2.246516e+00	-1.656759e+01
1.920000e-06	3.712996e-07	-1.863805e-10	2.571587e+00	-1.503254e+01
1.930000e-06	4.181743e-07	-1.653833e-10	2.896236e+00	-1.346542e+01
1.940000e-06	4.649978e-07	-1.415635e-10	3.220532e+00	-1.186764e+01
1.950000e-06	5.117629e-07	-1.157691e-10	3.544423e+00	-1.024084e+01
1.960000e-06	5.584646e-07	-9.294704e-11	3.867874e+00	-8.586897e+00
1.970000e-06	6.051428e-07	-7.026375e-11	4.191163e+00	-6.907882e+00
1.980000e-06	6.517947e-07	-4.729412e-11	4.514270e+00	-5.206065e+00
1.990000e-06	6.984874e-07	-2.494801e-11	4.837659e+00	-3.483891e+00
2.000000e-06	7.451120e-07	1.339292e-12	5.160577e+00	-1.743961e+00
2.010000e-06	7.916471e-07	3.124393e-11	5.482875e+00	1.099375e-02
2.020000e-06	8.381372e-07	6.009612e-11	5.804860e+00	1.778136e+00
2.030000e-06	8.845272e-07	8.534563e-11	6.126154e+00	3.554550e+00
2.040000e-06	9.309157e-07	1.080971e-10	6.447436e+00	5.337265e+00
2.050000e-06	9.772006e-07	1.310464e-10	6.768000e+00	7.123292e+00
2.060000e-06	1.023304e-06	1.545349e-10	7.087307e+00	8.909643e+00
2.070000e-06	1.069337e-06	1.787110e-10	7.406127e+00	1.069337e+01
2.080000e-06	1.115304e-06	2.056806e-10	7.724490e+00	1.247157e+01
2.090000e-06	1.161156e-06	2.334936e-10	8.042057e+00	1.424144e+01
2.100000e-06	1.206939e-06	2.614161e-10	8.359147e+00	1.600028e+01
2.110000e-06	1.252718e-06	2.879520e-10	8.676212e+00	1.774554e+01
2.120000e-06	1.298435e-06	3.119644e-10	8.992841e+00	1.947478e+01
2.130000e-06	1.344061e-06	3.325710e-10	9.308845e+00	2.118577e+01
2.140000e-06	1.389574e-06	3.512757e-10	9.624061e+00	2.287644e+01
2.150000e-06	1.434947e-06	3.723511e-10	9.938311e+00	2.454491e+01
2.160000e-06	1.480176e-06	3.996485e-10	1.025156e+01	2.618952e+01
2.170000e-06	1.525263e-06	4.270719e-10	1.056383e+01	2.780878e+01
2.180000e-06	1.570301e-06	4.509145e-10	1.087576e+01	2.940143e+01
2.190000e-06	1.615267e-06	4.735554e-10	1.118719e+01	3.096641e+01
2.200000e-06	1.660088e-06	4.947209e-10	1.149761e+01	3.250285e+01
2.210000e-06	1.704795e-06	5.110938e-10	1.180725e+01	3.401008e+01
2.220000e-06	1.749400e-06	5.258627e-10	1.211619e+01	3.548758e+01
2.230000e-06	1.793958e-06	5.430787e-10	1.242479e+01	3.693504e+01
2.240000e-06	1.838376e-06	5.614367e-10	1.273242e+01	3.835228e+01
2.250000e-06	1.882495e-06	5.806099e-10	1.303799e+01	3.973925e+01
2.260000e-06	1.926497e-06	6.032943e-10	1.334274e+01	4.109605e+01
2.270000e-06	1.970453e-06	6.267736e-10	1.364717e+01	4.242284e+01
2.280000e-06	2.014279e-06	6.482215e-10	1.395071e+01	4.371992e+01
2.290000e-06	2.058068e-06	6.658500e-10	1.425399e+01	4.498763e+01
2.300000e-06	2.101836e-06	6.801854e-10	1.455712e+01	4.622635e+01
2.310000e-06	2.145549e-06	6.938723e-10	1.485987e+01	4.743653e+01
2.320000e-06	2.189219e-06	7.093186e-10	1.516233e+01	4.861861e+01
2.330000e-06	2.232844e-06	7.252775e-10	1.546447e+01	4.977308e+01
2.340000e-06	2.276370e-06	7.416208e-10	1.576593e+01	5.090037e+01
2.350000e-06	2.319666e-06	7.593751e-10	1.606579e+01	5.200095e+01
2.360000e-06	2.362815e-06	7.753262e-10	1.636464e+01	5.307523e+01
2.370000e-06	2.405841e-06	7.879814e-10	1.666263e+01	5.412362e+01
2.380000e-06	2.448551e-06	7.992201e-10	1.695844e+01	5.514647e+01
2.390000e-06	2.490870e-06	8.111554e-10	1.725154e+01	5.614411e+01
2.400000e-06	2.532877e-06	8.235791e-10	1.754247e+01	5.711684e+01
2.410000e-06	2.574614e-06	8.364156e-10	1.783154e+01	5.806492e+01
2.420000e-06	2.615980e-06	8.497753e-10	1.811804e+01	5.898856e+01
2.430000e-06	2.657006e-06	8.634888e-10	1.840218e+01	5.988796e+01
2.440000e-06	2.697773e-06	8.743783e-10	1.868452e+01	6.076329e+01
2.450000e-06	2.738297e-06	8.833799e-10	1.896519e+01	6.161471e+01
2.460000e-06	2.778614e-06	8.928987e-10	1.924442e+01	6.244237e+01
2.470000e-06	2.818703e-06	9.037814e-10	1.952208e+01	6.324639e+01
2.480000e-06	2.858580e-06	9.154258e-10	1.979826e+01	6.402693e+01
2.490000e-06	2.898340e-06	9.285730e-10	2.007364e+01	6.478415e+01
2.500000e-06	2.937998e-06	9.420904e-10	2.034830e+01	6.551821e+01
2.510000e-06	2.977525e-06	9.539144e-10	2.062206e+01	6.622933e+01
2.520000e-06	3.016877e-06	9.629399e-10	2.089461e+01	6.691772e+01
2.530000e-06	3.056027e-06	9.713089e-10	2.116576e+01	6.758366e+01
2.540000e-06	3.095040e-06	9.798901e-10	2.143596e+01	6.822745e+01
2.550000e-06	3.133855e-06	9.873399e-10	2.170479e+01	6.884944e+01
2.560000e-06	3.172363e-06	9.951744e-10	2.197150e+01	6.945003e+01
2.570000e-06	3.210625e-06	1.004271e-09	2.223649e+01	7.002965e+01
2.580000e-06	3.248693e-06	1.011642e-09	2.250014e+01	7.058879e+01
2.590000e-06	3.286451e-06	1.018865e-09	2.276165e+01	7.112796e+01
2.600000e-06	3.323942e-06	1.027396e-09	2.302131e+01	7.164774e+01
2.610000e-06	3.361351e-06	1.034237e-09	2.328041e+01	7.214871e+01
2.620000e-06	3.398630e-06	1.041780e-09	2.353859e+01	7.263152e+01
2.630000e-06	3.435699e-06	1.049440e-09	2.379533e+01	7.309681e+01
2.640000e-06	3.472481e-06	1.054727e-09	2.405008e+01	7.354525e+01
2.650000e-06	3.508862e-06	1.058421e-09	2.430206e+01	7.397754e+01
2.660000e-06	3.544967e-06	1.063175e-09	2.455211e+01	7.439437e+01
2.670000e-06	3.580945e-06	1.067573e-09	2.480129e+01	7.479643e+01
2.680000e-06	3.616783e-06	1.072445e-09	2.504951e+01	7.518440e+01
2.690000e-06	3.652510e-06	1.079979e-09	2.529695e+01	7.555898e+01
2.700000e-06	3.688177e-06	1.087452e-09	2.554397e+01	7.592082e+01
2.710000e-06	3.723671e-06	1.093891e-09	2.578980e+01	7.627055e+01
2.720000e-06	3.758836e-06	1.099720e-09	2.603335e+01	7.660879e+01
2.730000e-06	3.793715e-06	1.104999e-09	2.627492e+01	7.693613e+01
2.740000e-06	3.828288e-06	1.109272e-09	2.651437e+01	7.725312e+01
2.750000e-06	3.862462e-06	1.113732e-09	2.675105e+01	7.756028e+01
2.760000e-06	3.896073e-06	1.118692e-09	2.698384e+01	7.785810e+01
2.770000e-06	3.929083e-06	1.123667e-09	2.721247e+01	7.814703e+01
2.780000e-06	3.961673e-06	1.129723e-09	2.743818e+01	7.842751e+01
2.790000e-06	3.993883e-06	1.135691e-09	2.766127e+01	7.869991e+01
2.800000e-06	4.025815e-06	1.140335e-09	2.788242e+01	7.896461e+01
2.810000e-06	4.057595e-06	1.142159e-09	2.810253e+01	7.922196e+01
2.820000e-06	4.089212e-06	1.145365e-09	2.832150e+01	7.947226e+01
2.830000e-06	4.120710e-06	1.152822e-09	2.853966e+01	7.971583e+01
2.840000e-06	4.152068e-06	1.159060e-09	2.875684e+01	7.995294e+01
2.850000e-06	4.183171e-06	1.163676e-09	2.897226e+01	8.018388e+01
2.860000e-06	4.213978e-06	1.168102e-09	2.918562e+01	8.040890e+01
2.870000e-06	4.244410e-06	1.172432e-09	2.939639e+01	8.062827e+01
2.880000e-06	4.274490e-06	1.175994e-09	2.960472e+01	8.084225e+01
2.890000e-06	4.304320e-06	1.180509e-09	2.981132e+01	8.105108e+01
2.900000e-06	4.333923e-06	1.186012e-09	3.001635e+01	8.125503e+01
