# Temperatura_=_-17.08
# Concentracion g/m^3_=_1620.0
# C_Vs_to_Am_M_A/Vsm_=_65563218390.804596
# pendiente_HvsI_1/m_=_3716.3
# ordenada_HvsI_A/m_=_1297.0
# frecuencia_Hz_=_135109.2621106299

Tiempo_(s)	Campo_(V.s)	Magnetizacion_(V.s)	Campo_(kA/m)	Magnetizacion_(A/m)
0.000000e+00	-5.522860e-06	-8.190119e-10	-3.835933e+01	-5.542484e+01
1.000000e-08	-5.523087e-06	-8.184372e-10	-3.836090e+01	-5.541534e+01
2.000000e-08	-5.523115e-06	-8.159372e-10	-3.836109e+01	-5.540934e+01
3.000000e-08	-5.522868e-06	-8.161659e-10	-3.835938e+01	-5.540734e+01
4.000000e-08	-5.522256e-06	-8.159213e-10	-3.835513e+01	-5.540985e+01
5.000000e-08	-5.521226e-06	-8.127837e-10	-3.834797e+01	-5.541730e+01
6.000000e-08	-5.519602e-06	-8.045659e-10	-3.833670e+01	-5.543005e+01
7.000000e-08	-5.517323e-06	-7.905425e-10	-3.832087e+01	-5.544838e+01
8.000000e-08	-5.514422e-06	-7.854786e-10	-3.830072e+01	-5.547251e+01
9.000000e-08	-5.510918e-06	-8.118126e-10	-3.827638e+01	-5.550251e+01
1.000000e-07	-5.506956e-06	-8.550647e-10	-3.824886e+01	-5.553838e+01
1.100000e-07	-5.502588e-06	-8.550148e-10	-3.821853e+01	-5.558000e+01
1.200000e-07	-5.498040e-06	-7.862799e-10	-3.818694e+01	-5.562713e+01
1.300000e-07	-5.493405e-06	-7.436920e-10	-3.815475e+01	-5.567941e+01
1.400000e-07	-5.488373e-06	-8.123844e-10	-3.811979e+01	-5.573636e+01
1.500000e-07	-5.482837e-06	-8.541335e-10	-3.808134e+01	-5.579741e+01
1.600000e-07	-5.476941e-06	-8.158830e-10	-3.804039e+01	-5.586187e+01
1.700000e-07	-5.470733e-06	-7.562733e-10	-3.799728e+01	-5.592895e+01
1.800000e-07	-5.464163e-06	-8.020987e-10	-3.795164e+01	-5.599780e+01
1.900000e-07	-5.457069e-06	-8.815250e-10	-3.790237e+01	-5.606749e+01
2.000000e-07	-5.449544e-06	-8.388337e-10	-3.785011e+01	-5.613703e+01
2.100000e-07	-5.441870e-06	-7.745001e-10	-3.779680e+01	-5.620541e+01
2.200000e-07	-5.433976e-06	-8.015048e-10	-3.774198e+01	-5.627159e+01
2.300000e-07	-5.425816e-06	-8.941368e-10	-3.768530e+01	-5.633455e+01
2.400000e-07	-5.417323e-06	-8.908615e-10	-3.762632e+01	-5.639326e+01
2.500000e-07	-5.408248e-06	-8.496111e-10	-3.756328e+01	-5.644678e+01
2.600000e-07	-5.398405e-06	-8.533922e-10	-3.749492e+01	-5.649419e+01
2.700000e-07	-5.387876e-06	-8.805480e-10	-3.742179e+01	-5.653467e+01
2.800000e-07	-5.376917e-06	-8.501561e-10	-3.734567e+01	-5.656750e+01
2.900000e-07	-5.365554e-06	-8.363119e-10	-3.726675e+01	-5.659205e+01
3.000000e-07	-5.353752e-06	-8.592211e-10	-3.718478e+01	-5.660785e+01
3.100000e-07	-5.341619e-06	-8.810688e-10	-3.710050e+01	-5.661453e+01
3.200000e-07	-5.329117e-06	-8.719797e-10	-3.701367e+01	-5.661190e+01
3.300000e-07	-5.316141e-06	-8.736651e-10	-3.692355e+01	-5.659988e+01
3.400000e-07	-5.302749e-06	-8.856982e-10	-3.683054e+01	-5.657858e+01
3.500000e-07	-5.289023e-06	-8.814307e-10	-3.673519e+01	-5.654825e+01
3.600000e-07	-5.274846e-06	-8.701017e-10	-3.663673e+01	-5.650927e+01
3.700000e-07	-5.260182e-06	-8.600486e-10	-3.653488e+01	-5.646220e+01
3.800000e-07	-5.244889e-06	-8.632308e-10	-3.642866e+01	-5.640769e+01
3.900000e-07	-5.229035e-06	-8.651199e-10	-3.631855e+01	-5.634654e+01
4.000000e-07	-5.212784e-06	-8.573889e-10	-3.620568e+01	-5.627965e+01
4.100000e-07	-5.196057e-06	-8.524786e-10	-3.608950e+01	-5.620800e+01
4.200000e-07	-5.179018e-06	-8.698579e-10	-3.597115e+01	-5.613264e+01
4.300000e-07	-5.161683e-06	-8.611977e-10	-3.585075e+01	-5.605469e+01
4.400000e-07	-5.144058e-06	-8.373774e-10	-3.572834e+01	-5.597527e+01
4.500000e-07	-5.126162e-06	-8.481306e-10	-3.560404e+01	-5.589554e+01
4.600000e-07	-5.107824e-06	-8.729862e-10	-3.547667e+01	-5.581662e+01
4.700000e-07	-5.088977e-06	-8.322927e-10	-3.534577e+01	-5.573961e+01
4.800000e-07	-5.069741e-06	-8.136713e-10	-3.521216e+01	-5.566555e+01
4.900000e-07	-5.050249e-06	-8.537296e-10	-3.507678e+01	-5.559541e+01
5.000000e-07	-5.030542e-06	-8.641200e-10	-3.493990e+01	-5.553008e+01
5.100000e-07	-5.010636e-06	-8.310450e-10	-3.480165e+01	-5.547032e+01
5.200000e-07	-4.990510e-06	-8.551068e-10	-3.466186e+01	-5.541679e+01
5.300000e-07	-4.970090e-06	-8.697458e-10	-3.452003e+01	-5.537002e+01
5.400000e-07	-4.949386e-06	-8.367769e-10	-3.437623e+01	-5.533039e+01
5.500000e-07	-4.928332e-06	-8.369731e-10	-3.423000e+01	-5.529816e+01
5.600000e-07	-4.906807e-06	-8.642169e-10	-3.408050e+01	-5.527344e+01
5.700000e-07	-4.884944e-06	-8.311184e-10	-3.392864e+01	-5.525619e+01
5.800000e-07	-4.862784e-06	-8.186206e-10	-3.377473e+01	-5.524624e+01
5.900000e-07	-4.840228e-06	-8.613488e-10	-3.361807e+01	-5.524331e+01
6.000000e-07	-4.817339e-06	-8.634825e-10	-3.345909e+01	-5.524697e+01
6.100000e-07	-4.794123e-06	-8.362843e-10	-3.329784e+01	-5.525669e+01
6.200000e-07	-4.770582e-06	-8.562769e-10	-3.313434e+01	-5.527187e+01
6.300000e-07	-4.746819e-06	-8.645076e-10	-3.296929e+01	-5.529180e+01
6.400000e-07	-4.722860e-06	-8.373008e-10	-3.280288e+01	-5.531574e+01
6.500000e-07	-4.698648e-06	-8.404413e-10	-3.263472e+01	-5.534289e+01
6.600000e-07	-4.674033e-06	-8.551634e-10	-3.246375e+01	-5.537241e+01
6.700000e-07	-4.648955e-06	-8.455906e-10	-3.228957e+01	-5.540350e+01
6.800000e-07	-4.623375e-06	-8.460469e-10	-3.211191e+01	-5.543532e+01
6.900000e-07	-4.597136e-06	-8.588341e-10	-3.192966e+01	-5.546709e+01
7.000000e-07	-4.570281e-06	-8.482628e-10	-3.174313e+01	-5.549805e+01
7.100000e-07	-4.543029e-06	-8.410273e-10	-3.155386e+01	-5.552754e+01
7.200000e-07	-4.515505e-06	-8.446059e-10	-3.136268e+01	-5.555491e+01
7.300000e-07	-4.487788e-06	-8.425241e-10	-3.117018e+01	-5.557964e+01
7.400000e-07	-4.459920e-06	-8.410624e-10	-3.097662e+01	-5.560127e+01
7.500000e-07	-4.431880e-06	-8.521556e-10	-3.078186e+01	-5.561945e+01
7.600000e-07	-4.403667e-06	-8.518383e-10	-3.058591e+01	-5.563392e+01
7.700000e-07	-4.375191e-06	-8.471189e-10	-3.038813e+01	-5.564449e+01
7.800000e-07	-4.346352e-06	-8.422069e-10	-3.018782e+01	-5.565111e+01
7.900000e-07	-4.317055e-06	-8.363795e-10	-2.998434e+01	-5.565379e+01
8.000000e-07	-4.287398e-06	-8.308530e-10	-2.977836e+01	-5.565263e+01
8.100000e-07	-4.257512e-06	-8.359243e-10	-2.957078e+01	-5.564780e+01
8.200000e-07	-4.227278e-06	-8.359073e-10	-2.936079e+01	-5.563952e+01
8.300000e-07	-4.196746e-06	-8.350091e-10	-2.914873e+01	-5.562810e+01
8.400000e-07	-4.166019e-06	-8.382122e-10	-2.893531e+01	-5.561385e+01
8.500000e-07	-4.135015e-06	-8.408938e-10	-2.871997e+01	-5.559712e+01
8.600000e-07	-4.103696e-06	-8.349859e-10	-2.850244e+01	-5.557828e+01
8.700000e-07	-4.072154e-06	-8.308264e-10	-2.828337e+01	-5.555768e+01
8.800000e-07	-4.040455e-06	-8.281905e-10	-2.806320e+01	-5.553566e+01
8.900000e-07	-4.008601e-06	-8.251239e-10	-2.784196e+01	-5.551255e+01
9.000000e-07	-3.976559e-06	-8.243937e-10	-2.761940e+01	-5.548861e+01
9.100000e-07	-3.944282e-06	-8.280762e-10	-2.739523e+01	-5.546407e+01
9.200000e-07	-3.911659e-06	-8.297402e-10	-2.716864e+01	-5.543909e+01
9.300000e-07	-3.878543e-06	-8.290530e-10	-2.693863e+01	-5.541380e+01
9.400000e-07	-3.844950e-06	-8.320587e-10	-2.670531e+01	-5.538822e+01
9.500000e-07	-3.810860e-06	-8.344209e-10	-2.646853e+01	-5.536233e+01
9.600000e-07	-3.776367e-06	-8.305523e-10	-2.622896e+01	-5.533602e+01
9.700000e-07	-3.741575e-06	-8.247922e-10	-2.598731e+01	-5.530913e+01
9.800000e-07	-3.706436e-06	-8.218641e-10	-2.574325e+01	-5.528142e+01
9.900000e-07	-3.671056e-06	-8.181664e-10	-2.549752e+01	-5.525262e+01
1.000000e-06	-3.635465e-06	-8.160748e-10	-2.525032e+01	-5.522239e+01
1.010000e-06	-3.599717e-06	-8.198263e-10	-2.500203e+01	-5.519036e+01
1.020000e-06	-3.563885e-06	-8.272708e-10	-2.475316e+01	-5.515612e+01
1.030000e-06	-3.527931e-06	-8.290050e-10	-2.450344e+01	-5.511927e+01
1.040000e-06	-3.491813e-06	-8.284152e-10	-2.425258e+01	-5.507937e+01
1.050000e-06	-3.455424e-06	-8.255286e-10	-2.399984e+01	-5.503603e+01
1.060000e-06	-3.418731e-06	-8.205318e-10	-2.374499e+01	-5.498885e+01
1.070000e-06	-3.381748e-06	-8.136835e-10	-2.348812e+01	-5.493748e+01
1.080000e-06	-3.344453e-06	-8.146715e-10	-2.322908e+01	-5.488161e+01
1.090000e-06	-3.306971e-06	-8.195985e-10	-2.296875e+01	-5.482097e+01
1.100000e-06	-3.269276e-06	-8.229319e-10	-2.270694e+01	-5.475537e+01
1.110000e-06	-3.231254e-06	-8.225326e-10	-2.244285e+01	-5.468470e+01
1.120000e-06	-3.192987e-06	-8.206952e-10	-2.217706e+01	-5.460889e+01
1.130000e-06	-3.154526e-06	-8.170380e-10	-2.190993e+01	-5.452798e+01
1.140000e-06	-3.115899e-06	-8.143187e-10	-2.164165e+01	-5.444207e+01
1.150000e-06	-3.077086e-06	-8.116516e-10	-2.137207e+01	-5.435136e+01
1.160000e-06	-3.038062e-06	-8.105036e-10	-2.110103e+01	-5.425609e+01
1.170000e-06	-2.998821e-06	-8.091750e-10	-2.082847e+01	-5.415660e+01
1.180000e-06	-2.959366e-06	-8.075167e-10	-2.055444e+01	-5.405327e+01
1.190000e-06	-2.919733e-06	-8.042251e-10	-2.027916e+01	-5.394655e+01
1.200000e-06	-2.879991e-06	-8.007197e-10	-2.000313e+01	-5.383691e+01
1.210000e-06	-2.840154e-06	-7.971296e-10	-1.972644e+01	-5.372487e+01
1.220000e-06	-2.800207e-06	-7.959720e-10	-1.944899e+01	-5.361094e+01
1.230000e-06	-2.760112e-06	-7.987610e-10	-1.917051e+01	-5.349567e+01
1.240000e-06	-2.719856e-06	-8.016710e-10	-1.889091e+01	-5.337955e+01
1.250000e-06	-2.679468e-06	-8.022241e-10	-1.861039e+01	-5.326308e+01
1.260000e-06	-2.638850e-06	-8.006016e-10	-1.832828e+01	-5.314670e+01
1.270000e-06	-2.598004e-06	-7.972834e-10	-1.804458e+01	-5.303081e+01
1.280000e-06	-2.556935e-06	-7.940391e-10	-1.775933e+01	-5.291573e+01
1.290000e-06	-2.515589e-06	-7.937317e-10	-1.747216e+01	-5.280171e+01
1.300000e-06	-2.474055e-06	-7.933368e-10	-1.718368e+01	-5.268891e+01
1.310000e-06	-2.432210e-06	-7.929131e-10	-1.689305e+01	-5.257741e+01
1.320000e-06	-2.389854e-06	-7.921811e-10	-1.659886e+01	-5.246717e+01
1.330000e-06	-2.347153e-06	-7.911741e-10	-1.630228e+01	-5.235806e+01
1.340000e-06	-2.304291e-06	-7.867635e-10	-1.600458e+01	-5.224986e+01
1.350000e-06	-2.261193e-06	-7.822089e-10	-1.570524e+01	-5.214222e+01
1.360000e-06	-2.217870e-06	-7.787056e-10	-1.540434e+01	-5.203472e+01
1.370000e-06	-2.174382e-06	-7.756615e-10	-1.510229e+01	-5.192683e+01
1.380000e-06	-2.130750e-06	-7.719161e-10	-1.479924e+01	-5.181795e+01
1.390000e-06	-2.087012e-06	-7.698999e-10	-1.449545e+01	-5.170738e+01
1.400000e-06	-2.043163e-06	-7.691177e-10	-1.419090e+01	-5.159439e+01
1.410000e-06	-1.999244e-06	-7.681567e-10	-1.388586e+01	-5.147816e+01
1.420000e-06	-1.955265e-06	-7.664752e-10	-1.358040e+01	-5.135785e+01
1.430000e-06	-1.911220e-06	-7.650394e-10	-1.327448e+01	-5.123260e+01
1.440000e-06	-1.867078e-06	-7.631807e-10	-1.296789e+01	-5.110153e+01
1.450000e-06	-1.822784e-06	-7.608564e-10	-1.266024e+01	-5.096374e+01
1.460000e-06	-1.778396e-06	-7.570952e-10	-1.235195e+01	-5.081838e+01
1.470000e-06	-1.733927e-06	-7.496458e-10	-1.204308e+01	-5.066458e+01
1.480000e-06	-1.689317e-06	-7.387016e-10	-1.173324e+01	-5.050155e+01
1.490000e-06	-1.644508e-06	-7.304842e-10	-1.142202e+01	-5.032852e+01
1.500000e-06	-1.599590e-06	-7.259152e-10	-1.111004e+01	-5.014477e+01
1.510000e-06	-1.554606e-06	-7.226900e-10	-1.079760e+01	-4.994965e+01
1.520000e-06	-1.509490e-06	-7.222662e-10	-1.048424e+01	-4.974255e+01
1.530000e-06	-1.464218e-06	-7.248772e-10	-1.016981e+01	-4.952296e+01
1.540000e-06	-1.418830e-06	-7.250120e-10	-9.854559e+00	-4.929040e+01
1.550000e-06	-1.373378e-06	-7.183717e-10	-9.538873e+00	-4.904446e+01
1.560000e-06	-1.327830e-06	-7.093215e-10	-9.222516e+00	-4.878479e+01
1.570000e-06	-1.282201e-06	-6.998829e-10	-8.905596e+00	-4.851107e+01
1.580000e-06	-1.236536e-06	-6.905890e-10	-8.588431e+00	-4.822305e+01
1.590000e-06	-1.190858e-06	-6.845861e-10	-8.271172e+00	-4.792048e+01
1.600000e-06	-1.145071e-06	-6.842279e-10	-7.953150e+00	-4.760314e+01
1.610000e-06	-1.099127e-06	-6.840369e-10	-7.634049e+00	-4.727081e+01
1.620000e-06	-1.053101e-06	-6.800402e-10	-7.314371e+00	-4.692329e+01
1.630000e-06	-1.007031e-06	-6.742791e-10	-6.994391e+00	-4.656032e+01
1.640000e-06	-9.608484e-07	-6.675123e-10	-6.673625e+00	-4.618165e+01
1.650000e-06	-9.145280e-07	-6.578349e-10	-6.351904e+00	-4.578695e+01
1.660000e-06	-8.682368e-07	-6.481828e-10	-6.030386e+00	-4.537586e+01
1.670000e-06	-8.220163e-07	-6.398150e-10	-5.709359e+00	-4.494795e+01
1.680000e-06	-7.757188e-07	-6.311150e-10	-5.387798e+00	-4.450272e+01
1.690000e-06	-7.292672e-07	-6.229204e-10	-5.065165e+00	-4.403959e+01
1.700000e-06	-6.826945e-07	-6.161989e-10	-4.741692e+00	-4.355790e+01
1.710000e-06	-6.361112e-07	-6.082090e-10	-4.418145e+00	-4.305690e+01
1.720000e-06	-5.895744e-07	-6.005384e-10	-4.094921e+00	-4.253579e+01
1.730000e-06	-5.430213e-07	-5.934262e-10	-3.771584e+00	-4.199364e+01
1.740000e-06	-4.964190e-07	-5.849415e-10	-3.447905e+00	-4.142950e+01
1.750000e-06	-4.497288e-07	-5.737101e-10	-3.123616e+00	-4.084233e+01
1.760000e-06	-4.029351e-07	-5.608346e-10	-2.798608e+00	-4.023104e+01
1.770000e-06	-3.561500e-07	-5.492693e-10	-2.473659e+00	-3.959451e+01
1.780000e-06	-3.093882e-07	-5.398955e-10	-2.148873e+00	-3.893160e+01
1.790000e-06	-2.625830e-07	-5.323159e-10	-1.823785e+00	-3.824116e+01
1.800000e-06	-2.156734e-07	-5.243507e-10	-1.497972e+00	-3.752204e+01
1.810000e-06	-1.687530e-07	-5.128765e-10	-1.172083e+00	-3.677315e+01
1.820000e-06	-1.218987e-07	-4.999535e-10	-8.466538e-01	-3.599343e+01
1.830000e-06	-7.506680e-08	-4.885795e-10	-5.213806e-01	-3.518191e+01
1.840000e-06	-2.827192e-08	-4.788544e-10	-1.963642e-01	-3.433771e+01
1.850000e-06	1.846295e-08	-4.691417e-10	1.282354e-01	-3.346005e+01
1.860000e-06	6.521691e-08	-4.576763e-10	4.529676e-01	-3.254832e+01
1.870000e-06	1.120422e-07	-4.451920e-10	7.781949e-01	-3.160201e+01
1.880000e-06	1.589112e-07	-4.319544e-10	1.103727e+00	-3.062082e+01
1.890000e-06	2.058709e-07	-4.192911e-10	1.429887e+00	-2.960459e+01
1.900000e-06	2.527920e-07	-4.056310e-10	1.755781e+00	-2.855339e+01
1.910000e-06	2.996513e-07	-3.909697e-10	2.081245e+00	-2.746746e+01
1.920000e-06	3.465499e-07	-3.771260e-10	2.406981e+00	-2.634724e+01
1.930000e-06	3.934103e-07	-3.631278e-10	2.732452e+00	-2.519341e+01
1.940000e-06	4.401725e-07	-3.462956e-10	3.057242e+00	-2.400681e+01
1.950000e-06	4.868262e-07	-3.274554e-10	3.381278e+00	-2.278852e+01
1.960000e-06	5.334595e-07	-3.091123e-10	3.705172e+00	-2.153979e+01
1.970000e-06	5.801130e-07	-2.926244e-10	4.029206e+00	-2.026207e+01
1.980000e-06	6.266581e-07	-2.782066e-10	4.352488e+00	-1.895699e+01
1.990000e-06	6.730840e-07	-2.637228e-10	4.674941e+00	-1.762632e+01
2.000000e-06	7.193991e-07	-2.444540e-10	4.996626e+00	-1.627199e+01
2.010000e-06	7.656824e-07	-2.205511e-10	5.318089e+00	-1.489604e+01
2.020000e-06	8.120187e-07	-1.963907e-10	5.639920e+00	-1.350063e+01
2.030000e-06	8.583155e-07	-1.758720e-10	5.961477e+00	-1.208800e+01
2.040000e-06	9.045548e-07	-1.591771e-10	6.282634e+00	-1.066045e+01
2.050000e-06	9.507050e-07	-1.436126e-10	6.603173e+00	-9.220339e+00
2.060000e-06	9.968078e-07	-1.258667e-10	6.923383e+00	-7.770019e+00
2.070000e-06	1.042845e-06	-1.039432e-10	7.243136e+00	-6.311863e+00
2.080000e-06	1.088762e-06	-7.988344e-11	7.562057e+00	-4.848216e+00
2.090000e-06	1.134656e-06	-5.544637e-11	7.880815e+00	-3.381388e+00
2.100000e-06	1.180453e-06	-3.105438e-11	8.198900e+00	-1.913633e+00
2.110000e-06	1.226109e-06	-9.673576e-12	8.516006e+00	-4.471340e-01
2.120000e-06	1.271701e-06	7.386647e-12	8.832669e+00	1.016010e+00
2.130000e-06	1.317242e-06	2.330546e-11	9.148976e+00	2.473793e+00
2.140000e-06	1.362735e-06	3.967902e-11	9.464951e+00	3.924315e+00
2.150000e-06	1.408124e-06	5.841148e-11	9.780205e+00	5.365784e+00
2.160000e-06	1.453420e-06	8.170840e-11	1.009481e+01	6.796521e+00
2.170000e-06	1.498598e-06	1.077525e-10	1.040859e+01	8.214965e+00
2.180000e-06	1.543576e-06	1.312675e-10	1.072099e+01	9.619670e+00
2.190000e-06	1.588429e-06	1.502985e-10	1.103252e+01	1.100930e+01
2.200000e-06	1.633177e-06	1.672595e-10	1.134332e+01	1.238264e+01
2.210000e-06	1.677813e-06	1.828733e-10	1.165334e+01	1.373856e+01
2.220000e-06	1.722354e-06	1.977647e-10	1.196270e+01	1.507603e+01
2.230000e-06	1.766726e-06	2.141367e-10	1.227089e+01	1.639414e+01
2.240000e-06	1.810954e-06	2.313028e-10	1.257808e+01	1.769202e+01
2.250000e-06	1.855130e-06	2.478903e-10	1.288490e+01	1.896889e+01
2.260000e-06	1.899257e-06	2.662810e-10	1.319139e+01	2.022404e+01
2.270000e-06	1.943322e-06	2.871692e-10	1.349745e+01	2.145681e+01
2.280000e-06	1.987302e-06	3.069129e-10	1.380291e+01	2.266657e+01
2.290000e-06	2.031183e-06	3.249787e-10	1.410769e+01	2.385275e+01
2.300000e-06	2.075026e-06	3.410957e-10	1.441221e+01	2.501481e+01
2.310000e-06	2.118853e-06	3.554977e-10	1.471661e+01	2.615223e+01
2.320000e-06	2.162576e-06	3.693221e-10	1.502029e+01	2.726452e+01
2.330000e-06	2.206118e-06	3.831379e-10	1.532271e+01	2.835121e+01
2.340000e-06	2.249526e-06	3.981834e-10	1.562420e+01	2.941185e+01
2.350000e-06	2.292752e-06	4.144992e-10	1.592443e+01	3.044600e+01
2.360000e-06	2.335652e-06	4.299909e-10	1.622240e+01	3.145326e+01
2.370000e-06	2.378284e-06	4.430473e-10	1.651850e+01	3.243324e+01
2.380000e-06	2.420748e-06	4.549534e-10	1.681344e+01	3.338558e+01
2.390000e-06	2.462874e-06	4.663671e-10	1.710603e+01	3.430996e+01
2.400000e-06	2.504600e-06	4.781275e-10	1.739584e+01	3.520609e+01
2.410000e-06	2.545938e-06	4.915068e-10	1.768295e+01	3.607373e+01
2.420000e-06	2.586979e-06	5.050247e-10	1.796801e+01	3.691270e+01
2.430000e-06	2.627827e-06	5.171013e-10	1.825172e+01	3.772287e+01
2.440000e-06	2.668444e-06	5.270447e-10	1.853382e+01	3.850416e+01
2.450000e-06	2.708829e-06	5.341800e-10	1.881432e+01	3.925659e+01
2.460000e-06	2.749040e-06	5.406769e-10	1.909361e+01	3.998025e+01
2.470000e-06	2.789172e-06	5.499024e-10	1.937235e+01	4.067529e+01
2.480000e-06	2.829210e-06	5.618070e-10	1.965043e+01	4.134198e+01
2.490000e-06	2.869089e-06	5.733201e-10	1.992741e+01	4.198064e+01
2.500000e-06	2.908745e-06	5.842187e-10	2.020285e+01	4.259172e+01
2.510000e-06	2.948286e-06	5.931603e-10	2.047748e+01	4.317573e+01
2.520000e-06	2.987688e-06	5.997336e-10	2.075115e+01	4.373327e+01
2.530000e-06	3.026880e-06	6.050934e-10	2.102336e+01	4.426504e+01
2.540000e-06	3.065859e-06	6.102642e-10	2.129409e+01	4.477180e+01
2.550000e-06	3.104562e-06	6.157354e-10	2.156291e+01	4.525440e+01
2.560000e-06	3.143007e-06	6.216692e-10	2.182992e+01	4.571375e+01
2.570000e-06	3.181277e-06	6.277077e-10	2.209573e+01	4.615080e+01
2.580000e-06	3.219328e-06	6.341962e-10	2.236002e+01	4.656659e+01
2.590000e-06	3.257217e-06	6.408371e-10	2.262318e+01	4.696214e+01
2.600000e-06	3.295037e-06	6.473306e-10	2.288586e+01	4.733854e+01
2.610000e-06	3.332645e-06	6.540323e-10	2.314707e+01	4.769687e+01
2.620000e-06	3.370000e-06	6.603906e-10	2.340652e+01	4.803822e+01
2.630000e-06	3.407024e-06	6.653146e-10	2.366367e+01	4.836369e+01
2.640000e-06	3.443681e-06	6.678580e-10	2.391828e+01	4.867431e+01
2.650000e-06	3.480129e-06	6.695593e-10	2.417143e+01	4.897114e+01
2.660000e-06	3.516401e-06	6.729251e-10	2.442335e+01	4.925514e+01
2.670000e-06	3.552494e-06	6.778439e-10	2.467404e+01	4.952728e+01
2.680000e-06	3.588422e-06	6.831580e-10	2.492358e+01	4.978841e+01
2.690000e-06	3.624248e-06	6.888600e-10	2.517241e+01	5.003938e+01
2.700000e-06	3.660032e-06	6.940170e-10	2.542095e+01	5.028092e+01
2.710000e-06	3.695644e-06	6.983027e-10	2.566829e+01	5.051372e+01
2.720000e-06	3.730996e-06	7.014623e-10	2.591384e+01	5.073838e+01
2.730000e-06	3.766006e-06	7.039362e-10	2.615700e+01	5.095544e+01
2.740000e-06	3.800526e-06	7.065167e-10	2.639676e+01	5.116536e+01
2.750000e-06	3.834542e-06	7.108456e-10	2.663302e+01	5.136854e+01
2.760000e-06	3.868094e-06	7.164001e-10	2.686606e+01	5.156530e+01
2.770000e-06	3.901169e-06	7.216316e-10	2.709578e+01	5.175592e+01
2.780000e-06	3.933786e-06	7.264702e-10	2.732232e+01	5.194060e+01
2.790000e-06	3.966034e-06	7.314715e-10	2.754631e+01	5.211951e+01
2.800000e-06	3.998094e-06	7.360009e-10	2.776898e+01	5.229279e+01
2.810000e-06	4.030064e-06	7.393055e-10	2.799103e+01	5.246052e+01
2.820000e-06	4.061841e-06	7.427126e-10	2.821174e+01	5.262278e+01
2.830000e-06	4.093479e-06	7.473795e-10	2.843148e+01	5.277964e+01
2.840000e-06	4.124934e-06	7.512352e-10	2.864995e+01	5.293112e+01
2.850000e-06	4.156047e-06	7.535781e-10	2.886605e+01	5.307729e+01
2.860000e-06	4.186896e-06	7.565906e-10	2.908031e+01	5.321818e+01
2.870000e-06	4.217428e-06	7.611640e-10	2.929238e+01	5.335387e+01
2.880000e-06	4.247545e-06	7.665644e-10	2.950155e+01	5.348443e+01
2.890000e-06	4.277376e-06	7.724305e-10	2.970875e+01	5.360994e+01
2.900000e-06	4.307019e-06	7.777056e-10	2.991464e+01	5.373053e+01
