# Temperatura_=_-44.51
# Concentracion g/m^3_=_1620.0
# C_Vs_to_Am_M_A/Vsm_=_65563218390.804596
# pendiente_HvsI_1/m_=_3716.3
# ordenada_HvsI_A/m_=_1297.0
# frecuencia_Hz_=_135110.25743369744

Tiempo_(s)	Campo_(V.s)	Magnetizacion_(V.s)	Campo_(kA/m)	Magnetizacion_(A/m)
0.000000e+00	-5.515691e-06	-1.055173e-09	-3.836077e+01	-6.964266e+01
1.000000e-08	-5.515810e-06	-1.054014e-09	-3.836160e+01	-6.966191e+01
2.000000e-08	-5.515649e-06	-1.052138e-09	-3.836048e+01	-6.968357e+01
3.000000e-08	-5.515098e-06	-1.050046e-09	-3.835665e+01	-6.970766e+01
4.000000e-08	-5.514118e-06	-1.047330e-09	-3.834983e+01	-6.973418e+01
5.000000e-08	-5.512525e-06	-1.042938e-09	-3.833875e+01	-6.976306e+01
6.000000e-08	-5.510203e-06	-1.036204e-09	-3.832260e+01	-6.979420e+01
7.000000e-08	-5.507345e-06	-1.040683e-09	-3.830272e+01	-6.982742e+01
8.000000e-08	-5.504027e-06	-1.068359e-09	-3.827964e+01	-6.986252e+01
9.000000e-08	-5.500233e-06	-1.070087e-09	-3.825326e+01	-6.989922e+01
1.000000e-07	-5.496049e-06	-1.015017e-09	-3.822416e+01	-6.993721e+01
1.100000e-07	-5.491627e-06	-1.005354e-09	-3.819341e+01	-6.997612e+01
1.200000e-07	-5.487031e-06	-1.022305e-09	-3.816144e+01	-7.001555e+01
1.300000e-07	-5.482104e-06	-1.047499e-09	-3.812718e+01	-7.005505e+01
1.400000e-07	-5.476729e-06	-1.028778e-09	-3.808980e+01	-7.009414e+01
1.500000e-07	-5.470977e-06	-1.020520e-09	-3.804979e+01	-7.013232e+01
1.600000e-07	-5.464897e-06	-1.066918e-09	-3.800750e+01	-7.016905e+01
1.700000e-07	-5.458402e-06	-1.063112e-09	-3.796233e+01	-7.020381e+01
1.800000e-07	-5.451439e-06	-1.054301e-09	-3.791390e+01	-7.023604e+01
1.900000e-07	-5.444149e-06	-1.066417e-09	-3.786320e+01	-7.026521e+01
2.000000e-07	-5.436664e-06	-1.090335e-09	-3.781115e+01	-7.029079e+01
2.100000e-07	-5.428874e-06	-1.067136e-09	-3.775697e+01	-7.031228e+01
2.200000e-07	-5.420794e-06	-1.041712e-09	-3.770078e+01	-7.032919e+01
2.300000e-07	-5.412413e-06	-1.057408e-09	-3.764249e+01	-7.034110e+01
2.400000e-07	-5.403496e-06	-1.084029e-09	-3.758047e+01	-7.034761e+01
2.500000e-07	-5.393941e-06	-1.094652e-09	-3.751402e+01	-7.034838e+01
2.600000e-07	-5.383675e-06	-1.081393e-09	-3.744262e+01	-7.034313e+01
2.700000e-07	-5.372802e-06	-1.063912e-09	-3.736700e+01	-7.033165e+01
2.800000e-07	-5.361469e-06	-1.064346e-09	-3.728818e+01	-7.031379e+01
2.900000e-07	-5.349748e-06	-1.089543e-09	-3.720666e+01	-7.028949e+01
3.000000e-07	-5.337692e-06	-1.092084e-09	-3.712281e+01	-7.025875e+01
3.100000e-07	-5.325198e-06	-1.078471e-09	-3.703592e+01	-7.022164e+01
3.200000e-07	-5.312290e-06	-1.101777e-09	-3.694615e+01	-7.017833e+01
3.300000e-07	-5.299102e-06	-1.129100e-09	-3.685442e+01	-7.012904e+01
3.400000e-07	-5.285498e-06	-1.098484e-09	-3.675981e+01	-7.007408e+01
3.500000e-07	-5.271282e-06	-1.070216e-09	-3.666094e+01	-7.001381e+01
3.600000e-07	-5.256645e-06	-1.102365e-09	-3.655915e+01	-6.994865e+01
3.700000e-07	-5.241678e-06	-1.098231e-09	-3.645505e+01	-6.987909e+01
3.800000e-07	-5.226172e-06	-1.064593e-09	-3.634721e+01	-6.980565e+01
3.900000e-07	-5.210052e-06	-1.090696e-09	-3.623510e+01	-6.972889e+01
4.000000e-07	-5.193481e-06	-1.117776e-09	-3.611985e+01	-6.964940e+01
4.100000e-07	-5.176566e-06	-1.061902e-09	-3.600220e+01	-6.956779e+01
4.200000e-07	-5.159251e-06	-1.046546e-09	-3.588178e+01	-6.948466e+01
4.300000e-07	-5.141665e-06	-1.104544e-09	-3.575948e+01	-6.940062e+01
4.400000e-07	-5.123868e-06	-1.080662e-09	-3.563570e+01	-6.931628e+01
4.500000e-07	-5.105647e-06	-1.026747e-09	-3.550897e+01	-6.923219e+01
4.600000e-07	-5.086963e-06	-1.068298e-09	-3.537904e+01	-6.914888e+01
4.700000e-07	-5.067975e-06	-1.085646e-09	-3.524697e+01	-6.906685e+01
4.800000e-07	-5.048696e-06	-1.021702e-09	-3.511289e+01	-6.898653e+01
4.900000e-07	-5.029183e-06	-1.036475e-09	-3.497718e+01	-6.890830e+01
5.000000e-07	-5.009498e-06	-1.090313e-09	-3.484027e+01	-6.883247e+01
5.100000e-07	-4.989537e-06	-1.049311e-09	-3.470145e+01	-6.875928e+01
5.200000e-07	-4.969207e-06	-1.024966e-09	-3.456006e+01	-6.868890e+01
5.300000e-07	-4.948537e-06	-1.081951e-09	-3.441630e+01	-6.862141e+01
5.400000e-07	-4.927550e-06	-1.064003e-09	-3.427034e+01	-6.855684e+01
5.500000e-07	-4.906146e-06	-1.007084e-09	-3.412148e+01	-6.849512e+01
5.600000e-07	-4.884351e-06	-1.038188e-09	-3.396990e+01	-6.843612e+01
5.700000e-07	-4.862297e-06	-1.060246e-09	-3.381652e+01	-6.837965e+01
5.800000e-07	-4.839945e-06	-1.019315e-09	-3.366106e+01	-6.832542e+01
5.900000e-07	-4.817202e-06	-1.035614e-09	-3.350289e+01	-6.827313e+01
6.000000e-07	-4.794114e-06	-1.071879e-09	-3.334232e+01	-6.822241e+01
6.100000e-07	-4.770778e-06	-1.038971e-09	-3.318002e+01	-6.817284e+01
6.200000e-07	-4.747228e-06	-1.022430e-09	-3.301623e+01	-6.812399e+01
6.300000e-07	-4.723429e-06	-1.051630e-09	-3.285071e+01	-6.807539e+01
6.400000e-07	-4.699314e-06	-1.041310e-09	-3.268300e+01	-6.802656e+01
6.500000e-07	-4.674877e-06	-1.021586e-09	-3.251304e+01	-6.797705e+01
6.600000e-07	-4.650047e-06	-1.046085e-09	-3.234035e+01	-6.792637e+01
6.700000e-07	-4.624683e-06	-1.053032e-09	-3.216395e+01	-6.787409e+01
6.800000e-07	-4.598787e-06	-1.031840e-09	-3.198384e+01	-6.781980e+01
6.900000e-07	-4.572319e-06	-1.039525e-09	-3.179977e+01	-6.776310e+01
7.000000e-07	-4.545322e-06	-1.050154e-09	-3.161200e+01	-6.770367e+01
7.100000e-07	-4.517980e-06	-1.030665e-09	-3.142184e+01	-6.764123e+01
7.200000e-07	-4.490400e-06	-1.023683e-09	-3.123003e+01	-6.757554e+01
7.300000e-07	-4.462687e-06	-1.036714e-09	-3.103729e+01	-6.750643e+01
7.400000e-07	-4.434867e-06	-1.032160e-09	-3.084380e+01	-6.743381e+01
7.500000e-07	-4.406799e-06	-1.023215e-09	-3.064860e+01	-6.735763e+01
7.600000e-07	-4.378320e-06	-1.029825e-09	-3.045053e+01	-6.727792e+01
7.700000e-07	-4.349510e-06	-1.025602e-09	-3.025016e+01	-6.719474e+01
7.800000e-07	-4.320496e-06	-1.012949e-09	-3.004837e+01	-6.710825e+01
7.900000e-07	-4.291181e-06	-1.014507e-09	-2.984449e+01	-6.701864e+01
8.000000e-07	-4.261515e-06	-1.016796e-09	-2.963817e+01	-6.692613e+01
8.100000e-07	-4.231556e-06	-1.007477e-09	-2.942981e+01	-6.683103e+01
8.200000e-07	-4.201302e-06	-1.009966e-09	-2.921940e+01	-6.673362e+01
8.300000e-07	-4.170754e-06	-1.017259e-09	-2.900694e+01	-6.663426e+01
8.400000e-07	-4.139913e-06	-1.008814e-09	-2.879245e+01	-6.653329e+01
8.500000e-07	-4.108818e-06	-1.000933e-09	-2.857619e+01	-6.643105e+01
8.600000e-07	-4.077497e-06	-1.004076e-09	-2.835835e+01	-6.632791e+01
8.700000e-07	-4.045930e-06	-9.969654e-10	-2.813881e+01	-6.622420e+01
8.800000e-07	-4.014180e-06	-9.877507e-10	-2.791800e+01	-6.612024e+01
8.900000e-07	-3.982271e-06	-9.907714e-10	-2.769607e+01	-6.601629e+01
9.000000e-07	-3.950185e-06	-9.902363e-10	-2.747292e+01	-6.591262e+01
9.100000e-07	-3.917832e-06	-9.820868e-10	-2.724791e+01	-6.580941e+01
9.200000e-07	-3.885165e-06	-9.837131e-10	-2.702071e+01	-6.570681e+01
9.300000e-07	-3.852137e-06	-9.857073e-10	-2.679101e+01	-6.560492e+01
9.400000e-07	-3.818581e-06	-9.769326e-10	-2.655763e+01	-6.550377e+01
9.500000e-07	-3.784538e-06	-9.735584e-10	-2.632087e+01	-6.540333e+01
9.600000e-07	-3.750065e-06	-9.755278e-10	-2.608112e+01	-6.530352e+01
9.700000e-07	-3.715137e-06	-9.676645e-10	-2.583820e+01	-6.520418e+01
9.800000e-07	-3.679834e-06	-9.601877e-10	-2.559267e+01	-6.510512e+01
9.900000e-07	-3.644284e-06	-9.641983e-10	-2.534543e+01	-6.500608e+01
1.000000e-06	-3.608614e-06	-9.649603e-10	-2.509735e+01	-6.490675e+01
1.010000e-06	-3.572823e-06	-9.613881e-10	-2.484842e+01	-6.480679e+01
1.020000e-06	-3.536878e-06	-9.636699e-10	-2.459843e+01	-6.470580e+01
1.030000e-06	-3.500808e-06	-9.640666e-10	-2.434757e+01	-6.460339e+01
1.040000e-06	-3.464594e-06	-9.555926e-10	-2.409571e+01	-6.449913e+01
1.050000e-06	-3.428121e-06	-9.488466e-10	-2.384205e+01	-6.439258e+01
1.060000e-06	-3.391367e-06	-9.461030e-10	-2.358643e+01	-6.428329e+01
1.070000e-06	-3.354339e-06	-9.416813e-10	-2.332890e+01	-6.417085e+01
1.080000e-06	-3.317008e-06	-9.406162e-10	-2.306927e+01	-6.405483e+01
1.090000e-06	-3.279438e-06	-9.460456e-10	-2.280798e+01	-6.393484e+01
1.100000e-06	-3.241617e-06	-9.453490e-10	-2.254494e+01	-6.381054e+01
1.110000e-06	-3.203536e-06	-9.395252e-10	-2.228009e+01	-6.368161e+01
1.120000e-06	-3.165296e-06	-9.372828e-10	-2.201414e+01	-6.354778e+01
1.130000e-06	-3.126869e-06	-9.343057e-10	-2.174689e+01	-6.340882e+01
1.140000e-06	-3.088166e-06	-9.272929e-10	-2.147771e+01	-6.326459e+01
1.150000e-06	-3.049221e-06	-9.237846e-10	-2.120686e+01	-6.311497e+01
1.160000e-06	-3.010102e-06	-9.238763e-10	-2.093479e+01	-6.295991e+01
1.170000e-06	-2.970830e-06	-9.201652e-10	-2.066166e+01	-6.279942e+01
1.180000e-06	-2.931397e-06	-9.157483e-10	-2.038741e+01	-6.263356e+01
1.190000e-06	-2.891801e-06	-9.163877e-10	-2.011202e+01	-6.246247e+01
1.200000e-06	-2.852085e-06	-9.132727e-10	-1.983580e+01	-6.228629e+01
1.210000e-06	-2.812254e-06	-9.076108e-10	-1.955879e+01	-6.210524e+01
1.220000e-06	-2.772291e-06	-9.061334e-10	-1.928085e+01	-6.191958e+01
1.230000e-06	-2.732210e-06	-9.061483e-10	-1.900210e+01	-6.172957e+01
1.240000e-06	-2.691908e-06	-9.015744e-10	-1.872180e+01	-6.153552e+01
1.250000e-06	-2.651410e-06	-8.977924e-10	-1.844014e+01	-6.133775e+01
1.260000e-06	-2.610717e-06	-8.967918e-10	-1.815713e+01	-6.113656e+01
1.270000e-06	-2.569830e-06	-8.909572e-10	-1.787277e+01	-6.093229e+01
1.280000e-06	-2.528704e-06	-8.866415e-10	-1.758674e+01	-6.072523e+01
1.290000e-06	-2.487228e-06	-8.861983e-10	-1.729828e+01	-6.051567e+01
1.300000e-06	-2.445508e-06	-8.840748e-10	-1.700812e+01	-6.030386e+01
1.310000e-06	-2.403482e-06	-8.786028e-10	-1.671584e+01	-6.009003e+01
1.320000e-06	-2.361025e-06	-8.738196e-10	-1.642056e+01	-5.987435e+01
1.330000e-06	-2.318211e-06	-8.682022e-10	-1.612280e+01	-5.965695e+01
1.340000e-06	-2.275214e-06	-8.631057e-10	-1.582376e+01	-5.943790e+01
1.350000e-06	-2.232024e-06	-8.622159e-10	-1.552338e+01	-5.921724e+01
1.360000e-06	-2.188596e-06	-8.611132e-10	-1.522135e+01	-5.899493e+01
1.370000e-06	-2.145037e-06	-8.558420e-10	-1.491840e+01	-5.877085e+01
1.380000e-06	-2.101387e-06	-8.494623e-10	-1.461482e+01	-5.854487e+01
1.390000e-06	-2.057652e-06	-8.442296e-10	-1.431065e+01	-5.831675e+01
1.400000e-06	-2.013865e-06	-8.403447e-10	-1.400612e+01	-5.808622e+01
1.410000e-06	-1.970012e-06	-8.371428e-10	-1.370113e+01	-5.785296e+01
1.420000e-06	-1.926104e-06	-8.374668e-10	-1.339575e+01	-5.761658e+01
1.430000e-06	-1.882116e-06	-8.371264e-10	-1.308982e+01	-5.737665e+01
1.440000e-06	-1.837969e-06	-8.327506e-10	-1.278279e+01	-5.713271e+01
1.450000e-06	-1.793650e-06	-8.249209e-10	-1.247455e+01	-5.688426e+01
1.460000e-06	-1.749237e-06	-8.166198e-10	-1.216567e+01	-5.663075e+01
1.470000e-06	-1.704807e-06	-8.076249e-10	-1.185667e+01	-5.637163e+01
1.480000e-06	-1.660282e-06	-8.008805e-10	-1.154700e+01	-5.610633e+01
1.490000e-06	-1.615572e-06	-7.985949e-10	-1.123605e+01	-5.583426e+01
1.500000e-06	-1.570713e-06	-7.964142e-10	-1.092407e+01	-5.555481e+01
1.510000e-06	-1.525701e-06	-7.922082e-10	-1.061101e+01	-5.526739e+01
1.520000e-06	-1.480550e-06	-7.861577e-10	-1.029699e+01	-5.497140e+01
1.530000e-06	-1.435358e-06	-7.809950e-10	-9.982691e+00	-5.466625e+01
1.540000e-06	-1.390044e-06	-7.771533e-10	-9.667540e+00	-5.435135e+01
1.550000e-06	-1.344580e-06	-7.740009e-10	-9.351345e+00	-5.402612e+01
1.560000e-06	-1.299083e-06	-7.702948e-10	-9.034918e+00	-5.369000e+01
1.570000e-06	-1.253502e-06	-7.648891e-10	-8.717910e+00	-5.334242e+01
1.580000e-06	-1.207817e-06	-7.563729e-10	-8.400181e+00	-5.298284e+01
1.590000e-06	-1.162065e-06	-7.503049e-10	-8.081979e+00	-5.261072e+01
1.600000e-06	-1.116184e-06	-7.463210e-10	-7.762882e+00	-5.222552e+01
1.610000e-06	-1.070186e-06	-7.409706e-10	-7.442974e+00	-5.182670e+01
1.620000e-06	-1.024147e-06	-7.331463e-10	-7.122783e+00	-5.141373e+01
1.630000e-06	-9.780873e-07	-7.259866e-10	-6.802444e+00	-5.098606e+01
1.640000e-06	-9.320078e-07	-7.178995e-10	-6.481968e+00	-5.054315e+01
1.650000e-06	-8.857830e-07	-7.099673e-10	-6.160482e+00	-5.008444e+01
1.660000e-06	-8.394072e-07	-7.015562e-10	-5.837946e+00	-4.960933e+01
1.670000e-06	-7.930005e-07	-6.915168e-10	-5.515194e+00	-4.911724e+01
1.680000e-06	-7.465920e-07	-6.795716e-10	-5.192430e+00	-4.860755e+01
1.690000e-06	-7.001568e-07	-6.676228e-10	-4.869481e+00	-4.807960e+01
1.700000e-06	-6.535601e-07	-6.594441e-10	-4.545409e+00	-4.753274e+01
1.710000e-06	-6.069188e-07	-6.540693e-10	-4.221026e+00	-4.696625e+01
1.720000e-06	-5.603608e-07	-6.495228e-10	-3.897222e+00	-4.637942e+01
1.730000e-06	-5.137798e-07	-6.416994e-10	-3.573259e+00	-4.577151e+01
1.740000e-06	-4.672004e-07	-6.293355e-10	-3.249305e+00	-4.514175e+01
1.750000e-06	-4.205619e-07	-6.139121e-10	-2.924942e+00	-4.448935e+01
1.760000e-06	-3.737371e-07	-6.003040e-10	-2.599283e+00	-4.381353e+01
1.770000e-06	-3.269664e-07	-5.891889e-10	-2.274000e+00	-4.311349e+01
1.780000e-06	-2.802877e-07	-5.790559e-10	-1.949357e+00	-4.238843e+01
1.790000e-06	-2.334949e-07	-5.697221e-10	-1.623920e+00	-4.163759e+01
1.800000e-06	-1.866921e-07	-5.589171e-10	-1.298414e+00	-4.086019e+01
1.810000e-06	-1.399210e-07	-5.468923e-10	-9.731288e-01	-4.005553e+01
1.820000e-06	-9.311424e-08	-5.368125e-10	-6.475950e-01	-3.922290e+01
1.830000e-06	-4.623629e-08	-5.254866e-10	-3.215662e-01	-3.836170e+01
1.840000e-06	6.555552e-10	-5.122984e-10	4.559284e-03	-3.747136e+01
1.850000e-06	4.740883e-08	-4.983540e-10	3.297210e-01	-3.655139e+01
1.860000e-06	9.414473e-08	-4.848547e-10	6.547619e-01	-3.560140e+01
1.870000e-06	1.409983e-07	-4.692138e-10	9.806211e-01	-3.462110e+01
1.880000e-06	1.878453e-07	-4.542292e-10	1.306435e+00	-3.361030e+01
1.890000e-06	2.346156e-07	-4.420102e-10	1.631715e+00	-3.256894e+01
1.900000e-06	2.813241e-07	-4.281717e-10	1.956565e+00	-3.149708e+01
1.910000e-06	3.280354e-07	-4.137770e-10	2.281435e+00	-3.039490e+01
1.920000e-06	3.747678e-07	-4.016507e-10	2.606451e+00	-2.926275e+01
1.930000e-06	4.214391e-07	-3.879779e-10	2.931043e+00	-2.810108e+01
1.940000e-06	4.680391e-07	-3.687335e-10	3.255139e+00	-2.691053e+01
1.950000e-06	5.145945e-07	-3.467352e-10	3.578924e+00	-2.569184e+01
1.960000e-06	5.611209e-07	-3.277618e-10	3.902508e+00	-2.444592e+01
1.970000e-06	6.075717e-07	-3.114348e-10	4.225566e+00	-2.317380e+01
1.980000e-06	6.539105e-07	-2.965262e-10	4.547845e+00	-2.187667e+01
1.990000e-06	7.002334e-07	-2.812287e-10	4.870014e+00	-2.055582e+01
2.000000e-06	7.465916e-07	-2.610243e-10	5.192428e+00	-1.921267e+01
2.010000e-06	7.928902e-07	-2.377881e-10	5.514427e+00	-1.784873e+01
2.020000e-06	8.391420e-07	-2.161706e-10	5.836101e+00	-1.646564e+01
2.030000e-06	8.853245e-07	-1.971244e-10	6.157294e+00	-1.506509e+01
2.040000e-06	9.314371e-07	-1.790426e-10	6.477999e+00	-1.364887e+01
2.050000e-06	9.775602e-07	-1.603833e-10	6.798779e+00	-1.221879e+01
2.060000e-06	1.023588e-06	-1.402273e-10	7.118898e+00	-1.077673e+01
2.070000e-06	1.069469e-06	-1.205114e-10	7.437993e+00	-9.324585e+00
2.080000e-06	1.115235e-06	-9.804328e-11	7.756284e+00	-7.864267e+00
2.090000e-06	1.160911e-06	-7.401206e-11	8.073957e+00	-6.397677e+00
2.100000e-06	1.206585e-06	-5.230410e-11	8.391611e+00	-4.926703e+00
2.110000e-06	1.252201e-06	-3.338210e-11	8.708859e+00	-3.453198e+00
2.120000e-06	1.297641e-06	-1.542078e-11	9.024888e+00	-1.978972e+00
2.130000e-06	1.342940e-06	1.751903e-12	9.339941e+00	-5.057791e-01
2.140000e-06	1.388213e-06	1.815396e-11	9.654806e+00	9.646943e-01
2.150000e-06	1.433472e-06	3.964575e-11	9.969577e+00	2.430837e+00
2.160000e-06	1.478610e-06	6.340661e-11	1.028350e+01	3.891123e+00
2.170000e-06	1.523593e-06	8.591017e-11	1.059635e+01	5.344112e+00
2.180000e-06	1.568491e-06	1.069279e-10	1.090861e+01	6.788463e+00
2.190000e-06	1.613272e-06	1.267693e-10	1.122006e+01	8.222929e+00
2.200000e-06	1.657833e-06	1.461448e-10	1.152997e+01	9.646362e+00
2.210000e-06	1.702261e-06	1.620683e-10	1.183896e+01	1.105771e+01
2.220000e-06	1.746647e-06	1.774354e-10	1.214766e+01	1.245603e+01
2.230000e-06	1.790939e-06	1.960744e-10	1.245570e+01	1.384045e+01
2.240000e-06	1.835102e-06	2.173602e-10	1.276285e+01	1.521021e+01
2.250000e-06	1.879143e-06	2.371933e-10	1.306914e+01	1.656461e+01
2.260000e-06	1.923104e-06	2.590380e-10	1.337489e+01	1.790306e+01
2.270000e-06	1.966995e-06	2.834008e-10	1.368014e+01	1.922502e+01
2.280000e-06	2.010784e-06	3.042523e-10	1.398469e+01	2.053001e+01
2.290000e-06	2.054509e-06	3.203488e-10	1.428879e+01	2.181762e+01
2.300000e-06	2.098182e-06	3.345046e-10	1.459253e+01	2.308747e+01
2.310000e-06	2.141799e-06	3.484702e-10	1.489588e+01	2.433923e+01
2.320000e-06	2.185331e-06	3.637726e-10	1.519864e+01	2.557262e+01
2.330000e-06	2.228709e-06	3.813866e-10	1.550033e+01	2.678735e+01
2.340000e-06	2.271969e-06	4.004253e-10	1.580119e+01	2.798317e+01
2.350000e-06	2.315100e-06	4.192846e-10	1.610116e+01	2.915984e+01
2.360000e-06	2.357945e-06	4.372835e-10	1.639914e+01	3.031713e+01
2.370000e-06	2.400448e-06	4.512712e-10	1.669474e+01	3.145478e+01
2.380000e-06	2.442611e-06	4.636097e-10	1.698798e+01	3.257258e+01
2.390000e-06	2.484353e-06	4.774316e-10	1.727829e+01	3.367029e+01
2.400000e-06	2.525757e-06	4.917662e-10	1.756624e+01	3.474765e+01
2.410000e-06	2.566994e-06	5.086560e-10	1.785304e+01	3.580441e+01
2.420000e-06	2.608067e-06	5.267719e-10	1.813870e+01	3.684033e+01
2.430000e-06	2.648901e-06	5.425223e-10	1.842269e+01	3.785513e+01
2.440000e-06	2.689446e-06	5.546777e-10	1.870467e+01	3.884857e+01
2.450000e-06	2.729706e-06	5.659175e-10	1.898468e+01	3.982037e+01
2.460000e-06	2.769763e-06	5.772251e-10	1.926327e+01	4.077029e+01
2.470000e-06	2.809679e-06	5.896949e-10	1.954088e+01	4.169808e+01
2.480000e-06	2.849469e-06	6.043195e-10	1.981761e+01	4.260351e+01
2.490000e-06	2.889187e-06	6.203167e-10	2.009385e+01	4.348637e+01
2.500000e-06	2.928767e-06	6.342229e-10	2.036912e+01	4.434646e+01
2.510000e-06	2.968188e-06	6.451817e-10	2.064329e+01	4.518364e+01
2.520000e-06	3.007393e-06	6.554891e-10	2.091595e+01	4.599777e+01
2.530000e-06	3.046352e-06	6.658055e-10	2.118690e+01	4.678877e+01
2.540000e-06	3.085042e-06	6.752483e-10	2.145598e+01	4.755661e+01
2.550000e-06	3.123477e-06	6.859057e-10	2.172329e+01	4.830128e+01
2.560000e-06	3.161718e-06	6.981763e-10	2.198925e+01	4.902284e+01
2.570000e-06	3.199729e-06	7.095380e-10	2.225361e+01	4.972140e+01
2.580000e-06	3.237618e-06	7.185255e-10	2.251713e+01	5.039712e+01
2.590000e-06	3.275376e-06	7.280164e-10	2.277972e+01	5.105022e+01
2.600000e-06	3.312952e-06	7.383383e-10	2.304106e+01	5.168098e+01
2.610000e-06	3.350303e-06	7.471217e-10	2.330083e+01	5.228972e+01
2.620000e-06	3.387366e-06	7.540646e-10	2.355860e+01	5.287682e+01
2.630000e-06	3.424122e-06	7.603465e-10	2.381424e+01	5.344274e+01
2.640000e-06	3.460593e-06	7.660102e-10	2.406788e+01	5.398795e+01
2.650000e-06	3.496812e-06	7.719362e-10	2.431978e+01	5.451297e+01
2.660000e-06	3.532862e-06	7.804872e-10	2.457050e+01	5.501840e+01
2.670000e-06	3.568769e-06	7.887356e-10	2.482023e+01	5.550483e+01
2.680000e-06	3.604516e-06	7.965018e-10	2.506884e+01	5.597291e+01
2.690000e-06	3.640169e-06	8.050939e-10	2.531681e+01	5.642331e+01
2.700000e-06	3.675697e-06	8.105919e-10	2.556390e+01	5.685673e+01
2.710000e-06	3.711032e-06	8.132741e-10	2.580965e+01	5.727386e+01
2.720000e-06	3.746108e-06	8.177237e-10	2.605359e+01	5.767543e+01
2.730000e-06	3.780766e-06	8.233006e-10	2.629463e+01	5.806217e+01
2.740000e-06	3.814878e-06	8.302965e-10	2.653188e+01	5.843478e+01
2.750000e-06	3.848497e-06	8.396241e-10	2.676570e+01	5.879399e+01
2.760000e-06	3.881660e-06	8.490046e-10	2.699634e+01	5.914050e+01
2.770000e-06	3.914388e-06	8.555357e-10	2.722396e+01	5.947499e+01
2.780000e-06	3.946801e-06	8.610664e-10	2.744938e+01	5.979815e+01
2.790000e-06	3.978968e-06	8.660800e-10	2.767310e+01	6.011061e+01
2.800000e-06	4.010911e-06	8.676556e-10	2.789526e+01	6.041299e+01
2.810000e-06	4.042666e-06	8.671354e-10	2.811611e+01	6.070588e+01
2.820000e-06	4.074249e-06	8.707404e-10	2.833576e+01	6.098984e+01
2.830000e-06	4.105664e-06	8.799443e-10	2.855425e+01	6.126539e+01
2.840000e-06	4.136847e-06	8.902625e-10	2.877113e+01	6.153303e+01
2.850000e-06	4.167695e-06	8.995947e-10	2.898566e+01	6.179321e+01
2.860000e-06	4.198174e-06	9.060730e-10	2.919764e+01	6.204635e+01
2.870000e-06	4.228305e-06	9.094531e-10	2.940720e+01	6.229285e+01
2.880000e-06	4.258173e-06	9.106078e-10	2.961493e+01	6.253305e+01
2.890000e-06	4.287853e-06	9.125657e-10	2.982135e+01	6.276728e+01
2.900000e-06	4.317324e-06	9.167627e-10	3.002632e+01	6.299582e+01
