# Temperatura_=_-10.98
# Concentracion g/m^3_=_1620.0
# C_Vs_to_Am_M_A/Vsm_=_65563218390.804596
# pendiente_HvsI_1/m_=_3716.3
# ordenada_HvsI_A/m_=_1297.0
# frecuencia_Hz_=_135111.17659360025

Tiempo_(s)	Campo_(V.s)	Magnetizacion_(V.s)	Campo_(kA/m)	Magnetizacion_(A/m)
0.000000e+00	-5.525513e-06	-8.916590e-10	-3.837106e+01	-6.064012e+01
1.000000e-08	-5.525549e-06	-8.924500e-10	-3.837131e+01	-6.063041e+01
2.000000e-08	-5.525324e-06	-8.890316e-10	-3.836974e+01	-6.062212e+01
3.000000e-08	-5.524700e-06	-8.818619e-10	-3.836541e+01	-6.061551e+01
4.000000e-08	-5.523514e-06	-8.726978e-10	-3.835717e+01	-6.061080e+01
5.000000e-08	-5.521786e-06	-8.646515e-10	-3.834517e+01	-6.060821e+01
6.000000e-08	-5.519522e-06	-8.547630e-10	-3.832945e+01	-6.060796e+01
7.000000e-08	-5.516630e-06	-8.620151e-10	-3.830937e+01	-6.061021e+01
8.000000e-08	-5.513205e-06	-9.068284e-10	-3.828558e+01	-6.061510e+01
9.000000e-08	-5.509366e-06	-9.219348e-10	-3.825893e+01	-6.062270e+01
1.000000e-07	-5.505131e-06	-8.712699e-10	-3.822952e+01	-6.063304e+01
1.100000e-07	-5.500623e-06	-8.596090e-10	-3.819821e+01	-6.064609e+01
1.200000e-07	-5.495922e-06	-8.716650e-10	-3.816557e+01	-6.066173e+01
1.300000e-07	-5.490865e-06	-8.908499e-10	-3.813045e+01	-6.067979e+01
1.400000e-07	-5.485361e-06	-8.531264e-10	-3.809223e+01	-6.069999e+01
1.500000e-07	-5.479555e-06	-8.435738e-10	-3.805191e+01	-6.072202e+01
1.600000e-07	-5.473428e-06	-8.943740e-10	-3.800936e+01	-6.074547e+01
1.700000e-07	-5.466836e-06	-8.944518e-10	-3.796358e+01	-6.076986e+01
1.800000e-07	-5.459809e-06	-8.841859e-10	-3.791478e+01	-6.079464e+01
1.900000e-07	-5.452382e-06	-8.688159e-10	-3.786321e+01	-6.081922e+01
2.000000e-07	-5.444659e-06	-9.127586e-10	-3.780958e+01	-6.084296e+01
2.100000e-07	-5.436717e-06	-9.091717e-10	-3.775442e+01	-6.086518e+01
2.200000e-07	-5.428600e-06	-9.054968e-10	-3.769806e+01	-6.088518e+01
2.300000e-07	-5.420239e-06	-8.918005e-10	-3.764000e+01	-6.090223e+01
2.400000e-07	-5.411336e-06	-9.180475e-10	-3.757817e+01	-6.091563e+01
2.500000e-07	-5.401695e-06	-9.220457e-10	-3.751122e+01	-6.092469e+01
2.600000e-07	-5.391406e-06	-9.158231e-10	-3.743977e+01	-6.092874e+01
2.700000e-07	-5.380539e-06	-9.053520e-10	-3.736431e+01	-6.092719e+01
2.800000e-07	-5.369123e-06	-9.158515e-10	-3.728503e+01	-6.091949e+01
2.900000e-07	-5.357305e-06	-9.222563e-10	-3.720296e+01	-6.090516e+01
3.000000e-07	-5.345206e-06	-9.088644e-10	-3.711894e+01	-6.088382e+01
3.100000e-07	-5.332710e-06	-9.002391e-10	-3.703217e+01	-6.085519e+01
3.200000e-07	-5.319679e-06	-9.144873e-10	-3.694167e+01	-6.081908e+01
3.300000e-07	-5.306277e-06	-9.395668e-10	-3.684861e+01	-6.077544e+01
3.400000e-07	-5.292591e-06	-9.141637e-10	-3.675357e+01	-6.072432e+01
3.500000e-07	-5.278448e-06	-9.066050e-10	-3.665536e+01	-6.066590e+01
3.600000e-07	-5.263853e-06	-9.244759e-10	-3.655400e+01	-6.060046e+01
3.700000e-07	-5.248845e-06	-9.169793e-10	-3.644978e+01	-6.052842e+01
3.800000e-07	-5.233188e-06	-8.707476e-10	-3.634105e+01	-6.045029e+01
3.900000e-07	-5.216903e-06	-9.008584e-10	-3.622796e+01	-6.036670e+01
4.000000e-07	-5.200335e-06	-9.328994e-10	-3.611291e+01	-6.027837e+01
4.100000e-07	-5.183416e-06	-9.001241e-10	-3.599542e+01	-6.018609e+01
4.200000e-07	-5.166153e-06	-8.838912e-10	-3.587554e+01	-6.009073e+01
4.300000e-07	-5.148735e-06	-9.402632e-10	-3.575458e+01	-5.999319e+01
4.400000e-07	-5.130993e-06	-9.138676e-10	-3.563137e+01	-5.989443e+01
4.500000e-07	-5.112686e-06	-8.654552e-10	-3.550425e+01	-5.979541e+01
4.600000e-07	-5.093888e-06	-8.957495e-10	-3.537370e+01	-5.969708e+01
4.700000e-07	-5.074772e-06	-9.217919e-10	-3.524096e+01	-5.960040e+01
4.800000e-07	-5.055342e-06	-8.701572e-10	-3.510603e+01	-5.950626e+01
4.900000e-07	-5.035676e-06	-8.929783e-10	-3.496946e+01	-5.941550e+01
5.000000e-07	-5.015849e-06	-9.337935e-10	-3.483177e+01	-5.932892e+01
5.100000e-07	-4.995838e-06	-8.939156e-10	-3.469281e+01	-5.924719e+01
5.200000e-07	-4.975466e-06	-8.724074e-10	-3.455134e+01	-5.917091e+01
5.300000e-07	-4.954678e-06	-9.251879e-10	-3.440698e+01	-5.910057e+01
5.400000e-07	-4.933543e-06	-9.008990e-10	-3.426021e+01	-5.903652e+01
5.500000e-07	-4.912085e-06	-8.601854e-10	-3.411120e+01	-5.897902e+01
5.600000e-07	-4.890295e-06	-9.026711e-10	-3.395989e+01	-5.892817e+01
5.700000e-07	-4.868184e-06	-9.171560e-10	-3.380634e+01	-5.888398e+01
5.800000e-07	-4.845715e-06	-8.739241e-10	-3.365031e+01	-5.884629e+01
5.900000e-07	-4.822836e-06	-8.932103e-10	-3.349143e+01	-5.881485e+01
6.000000e-07	-4.799681e-06	-9.205300e-10	-3.333063e+01	-5.878929e+01
6.100000e-07	-4.776280e-06	-8.807341e-10	-3.316813e+01	-5.876914e+01
6.200000e-07	-4.752582e-06	-8.759206e-10	-3.300356e+01	-5.875382e+01
6.300000e-07	-4.728665e-06	-9.049719e-10	-3.283747e+01	-5.874269e+01
6.400000e-07	-4.704454e-06	-8.866169e-10	-3.266934e+01	-5.873503e+01
6.500000e-07	-4.679829e-06	-8.688176e-10	-3.249834e+01	-5.873009e+01
6.600000e-07	-4.654800e-06	-8.980052e-10	-3.232453e+01	-5.872706e+01
6.700000e-07	-4.629329e-06	-8.934317e-10	-3.214765e+01	-5.872514e+01
6.800000e-07	-4.603318e-06	-8.773470e-10	-3.196702e+01	-5.872352e+01
6.900000e-07	-4.576693e-06	-8.902015e-10	-3.178212e+01	-5.872141e+01
7.000000e-07	-4.549532e-06	-8.954893e-10	-3.159351e+01	-5.871805e+01
7.100000e-07	-4.521994e-06	-8.695065e-10	-3.140228e+01	-5.871274e+01
7.200000e-07	-4.494256e-06	-8.718078e-10	-3.120965e+01	-5.870482e+01
7.300000e-07	-4.466373e-06	-8.757476e-10	-3.101603e+01	-5.869373e+01
7.400000e-07	-4.438304e-06	-8.648355e-10	-3.082110e+01	-5.867897e+01
7.500000e-07	-4.409988e-06	-8.646245e-10	-3.062447e+01	-5.866013e+01
7.600000e-07	-4.381395e-06	-8.822326e-10	-3.042591e+01	-5.863691e+01
7.700000e-07	-4.352560e-06	-8.749078e-10	-3.022567e+01	-5.860909e+01
7.800000e-07	-4.323439e-06	-8.674848e-10	-3.002344e+01	-5.857655e+01
7.900000e-07	-4.293966e-06	-8.701663e-10	-2.981877e+01	-5.853927e+01
8.000000e-07	-4.264148e-06	-8.652623e-10	-2.961170e+01	-5.849731e+01
8.100000e-07	-4.234037e-06	-8.510103e-10	-2.940260e+01	-5.845082e+01
8.200000e-07	-4.203650e-06	-8.584618e-10	-2.919159e+01	-5.840002e+01
8.300000e-07	-4.172993e-06	-8.658335e-10	-2.897869e+01	-5.834518e+01
8.400000e-07	-4.142053e-06	-8.618155e-10	-2.876384e+01	-5.828664e+01
8.500000e-07	-4.110833e-06	-8.654182e-10	-2.854703e+01	-5.822477e+01
8.600000e-07	-4.079370e-06	-8.721763e-10	-2.832854e+01	-5.815997e+01
8.700000e-07	-4.047743e-06	-8.621957e-10	-2.810892e+01	-5.809264e+01
8.800000e-07	-4.015943e-06	-8.536873e-10	-2.788809e+01	-5.802319e+01
8.900000e-07	-3.983948e-06	-8.566840e-10	-2.766590e+01	-5.795201e+01
9.000000e-07	-3.951756e-06	-8.520743e-10	-2.744235e+01	-5.787947e+01
9.100000e-07	-3.919273e-06	-8.498657e-10	-2.721677e+01	-5.780588e+01
9.200000e-07	-3.886402e-06	-8.598886e-10	-2.698851e+01	-5.773153e+01
9.300000e-07	-3.853128e-06	-8.649960e-10	-2.675744e+01	-5.765662e+01
9.400000e-07	-3.819400e-06	-8.563884e-10	-2.652322e+01	-5.758131e+01
9.500000e-07	-3.785088e-06	-8.557403e-10	-2.628495e+01	-5.750568e+01
9.600000e-07	-3.750311e-06	-8.532675e-10	-2.604345e+01	-5.742974e+01
9.700000e-07	-3.715197e-06	-8.434591e-10	-2.579960e+01	-5.735344e+01
9.800000e-07	-3.679733e-06	-8.391789e-10	-2.555333e+01	-5.727664e+01
9.900000e-07	-3.644074e-06	-8.459409e-10	-2.530570e+01	-5.719914e+01
1.000000e-06	-3.608341e-06	-8.447782e-10	-2.505755e+01	-5.712069e+01
1.010000e-06	-3.572516e-06	-8.452990e-10	-2.480877e+01	-5.704097e+01
1.020000e-06	-3.536565e-06	-8.499622e-10	-2.455912e+01	-5.695962e+01
1.030000e-06	-3.500449e-06	-8.502991e-10	-2.430832e+01	-5.687626e+01
1.040000e-06	-3.464082e-06	-8.418835e-10	-2.405577e+01	-5.679047e+01
1.050000e-06	-3.427420e-06	-8.389312e-10	-2.380118e+01	-5.670181e+01
1.060000e-06	-3.390480e-06	-8.355262e-10	-2.354465e+01	-5.660985e+01
1.070000e-06	-3.353207e-06	-8.326158e-10	-2.328582e+01	-5.651419e+01
1.080000e-06	-3.315661e-06	-8.347195e-10	-2.302509e+01	-5.641443e+01
1.090000e-06	-3.277952e-06	-8.411034e-10	-2.276322e+01	-5.631020e+01
1.100000e-06	-3.240070e-06	-8.375868e-10	-2.250016e+01	-5.620119e+01
1.110000e-06	-3.202000e-06	-8.326658e-10	-2.223579e+01	-5.608714e+01
1.120000e-06	-3.163683e-06	-8.317574e-10	-2.196970e+01	-5.596786e+01
1.130000e-06	-3.125102e-06	-8.272926e-10	-2.170178e+01	-5.584319e+01
1.140000e-06	-3.086262e-06	-8.200982e-10	-2.143206e+01	-5.571309e+01
1.150000e-06	-3.047220e-06	-8.179759e-10	-2.116094e+01	-5.557755e+01
1.160000e-06	-3.008084e-06	-8.170890e-10	-2.088917e+01	-5.543665e+01
1.170000e-06	-2.968762e-06	-8.146323e-10	-2.061610e+01	-5.529054e+01
1.180000e-06	-2.929211e-06	-8.162077e-10	-2.034145e+01	-5.513943e+01
1.190000e-06	-2.889521e-06	-8.192084e-10	-2.006582e+01	-5.498358e+01
1.200000e-06	-2.849727e-06	-8.163403e-10	-1.978948e+01	-5.482331e+01
1.210000e-06	-2.809831e-06	-8.102033e-10	-1.951243e+01	-5.465898e+01
1.220000e-06	-2.769804e-06	-8.072921e-10	-1.923447e+01	-5.449098e+01
1.230000e-06	-2.729628e-06	-8.044544e-10	-1.895547e+01	-5.431972e+01
1.240000e-06	-2.689248e-06	-8.040941e-10	-1.867506e+01	-5.414560e+01
1.250000e-06	-2.648593e-06	-8.048515e-10	-1.839274e+01	-5.396903e+01
1.260000e-06	-2.607683e-06	-8.061190e-10	-1.810865e+01	-5.379039e+01
1.270000e-06	-2.566552e-06	-8.023050e-10	-1.782302e+01	-5.361003e+01
1.280000e-06	-2.525182e-06	-7.983642e-10	-1.753573e+01	-5.342827e+01
1.290000e-06	-2.483549e-06	-7.946408e-10	-1.724661e+01	-5.324534e+01
1.300000e-06	-2.441571e-06	-7.884075e-10	-1.695510e+01	-5.306145e+01
1.310000e-06	-2.399230e-06	-7.803363e-10	-1.666107e+01	-5.287669e+01
1.320000e-06	-2.356542e-06	-7.768064e-10	-1.636463e+01	-5.269111e+01
1.330000e-06	-2.313647e-06	-7.745212e-10	-1.606676e+01	-5.250465e+01
1.340000e-06	-2.270570e-06	-7.728569e-10	-1.576761e+01	-5.231717e+01
1.350000e-06	-2.227226e-06	-7.709563e-10	-1.546662e+01	-5.212843e+01
1.360000e-06	-2.183690e-06	-7.664851e-10	-1.516429e+01	-5.193814e+01
1.370000e-06	-2.140007e-06	-7.584514e-10	-1.486094e+01	-5.174588e+01
1.380000e-06	-2.096274e-06	-7.506376e-10	-1.455724e+01	-5.155118e+01
1.390000e-06	-2.052510e-06	-7.441315e-10	-1.425333e+01	-5.135349e+01
1.400000e-06	-2.008683e-06	-7.390905e-10	-1.394898e+01	-5.115219e+01
1.410000e-06	-1.964756e-06	-7.346875e-10	-1.364394e+01	-5.094662e+01
1.420000e-06	-1.920695e-06	-7.330775e-10	-1.333796e+01	-5.073607e+01
1.430000e-06	-1.876553e-06	-7.323875e-10	-1.303143e+01	-5.051981e+01
1.440000e-06	-1.832360e-06	-7.280315e-10	-1.272454e+01	-5.029707e+01
1.450000e-06	-1.788053e-06	-7.205304e-10	-1.241685e+01	-5.006708e+01
1.460000e-06	-1.743565e-06	-7.121810e-10	-1.210791e+01	-4.982909e+01
1.470000e-06	-1.698979e-06	-7.044645e-10	-1.179829e+01	-4.958236e+01
1.480000e-06	-1.654327e-06	-6.991403e-10	-1.148821e+01	-4.932615e+01
1.490000e-06	-1.609519e-06	-6.963059e-10	-1.117705e+01	-4.905980e+01
1.500000e-06	-1.564509e-06	-6.929725e-10	-1.086448e+01	-4.878266e+01
1.510000e-06	-1.519353e-06	-6.898663e-10	-1.055091e+01	-4.849414e+01
1.520000e-06	-1.474137e-06	-6.863488e-10	-1.023691e+01	-4.819370e+01
1.530000e-06	-1.428842e-06	-6.799696e-10	-9.922371e+00	-4.788086e+01
1.540000e-06	-1.383470e-06	-6.731254e-10	-9.607287e+00	-4.755519e+01
1.550000e-06	-1.338032e-06	-6.677214e-10	-9.291752e+00	-4.721630e+01
1.560000e-06	-1.292496e-06	-6.620133e-10	-8.975536e+00	-4.686388e+01
1.570000e-06	-1.246831e-06	-6.567150e-10	-8.658420e+00	-4.649763e+01
1.580000e-06	-1.201131e-06	-6.509546e-10	-8.341066e+00	-4.611730e+01
1.590000e-06	-1.155354e-06	-6.474748e-10	-8.023173e+00	-4.572267e+01
1.600000e-06	-1.109416e-06	-6.435645e-10	-7.704163e+00	-4.531352e+01
1.610000e-06	-1.063391e-06	-6.375962e-10	-7.384551e+00	-4.488963e+01
1.620000e-06	-1.017293e-06	-6.297256e-10	-7.064429e+00	-4.445080e+01
1.630000e-06	-9.711245e-07	-6.207962e-10	-6.743821e+00	-4.399677e+01
1.640000e-06	-9.249059e-07	-6.113656e-10	-6.422864e+00	-4.352726e+01
1.650000e-06	-8.786692e-07	-6.024878e-10	-6.101780e+00	-4.304196e+01
1.660000e-06	-8.323682e-07	-5.938153e-10	-5.780250e+00	-4.254048e+01
1.670000e-06	-7.859325e-07	-5.857517e-10	-5.457785e+00	-4.202237e+01
1.680000e-06	-7.394290e-07	-5.765113e-10	-5.134848e+00	-4.148711e+01
1.690000e-06	-6.929059e-07	-5.690560e-10	-4.811776e+00	-4.093407e+01
1.700000e-06	-6.463652e-07	-5.625824e-10	-4.488581e+00	-4.036258e+01
1.710000e-06	-5.998438e-07	-5.560175e-10	-4.165521e+00	-3.977183e+01
1.720000e-06	-5.532892e-07	-5.503775e-10	-3.842230e+00	-3.916097e+01
1.730000e-06	-5.066483e-07	-5.429080e-10	-3.518339e+00	-3.852904e+01
1.740000e-06	-4.599543e-07	-5.314648e-10	-3.194080e+00	-3.787499e+01
1.750000e-06	-4.132367e-07	-5.175126e-10	-2.869658e+00	-3.719774e+01
1.760000e-06	-3.664501e-07	-5.054156e-10	-2.544755e+00	-3.649611e+01
1.770000e-06	-3.195817e-07	-4.957594e-10	-2.219285e+00	-3.576890e+01
1.780000e-06	-2.726718e-07	-4.872235e-10	-1.893526e+00	-3.501488e+01
1.790000e-06	-2.257552e-07	-4.790154e-10	-1.567721e+00	-3.423281e+01
1.800000e-06	-1.789224e-07	-4.697372e-10	-1.242499e+00	-3.342147e+01
1.810000e-06	-1.320814e-07	-4.574311e-10	-9.172185e-01	-3.257965e+01
1.820000e-06	-8.519707e-08	-4.439451e-10	-5.916376e-01	-3.170621e+01
1.830000e-06	-3.832683e-08	-4.303570e-10	-2.661546e-01	-3.080009e+01
1.840000e-06	8.644376e-09	-4.176153e-10	6.002951e-02	-2.986032e+01
1.850000e-06	5.565132e-08	-4.040177e-10	3.864618e-01	-2.888607e+01
1.860000e-06	1.025497e-07	-3.894678e-10	7.121399e-01	-2.787663e+01
1.870000e-06	1.493633e-07	-3.740237e-10	1.037230e+00	-2.683146e+01
1.880000e-06	1.961848e-07	-3.582629e-10	1.362375e+00	-2.575023e+01
1.890000e-06	2.430389e-07	-3.429326e-10	1.687746e+00	-2.463277e+01
1.900000e-06	2.898741e-07	-3.291048e-10	2.012985e+00	-2.347914e+01
1.910000e-06	3.366432e-07	-3.170329e-10	2.337765e+00	-2.228963e+01
1.920000e-06	3.833753e-07	-3.039846e-10	2.662289e+00	-2.106473e+01
1.930000e-06	4.300862e-07	-2.853782e-10	2.986666e+00	-1.980521e+01
1.940000e-06	4.766832e-07	-2.623157e-10	3.310252e+00	-1.851202e+01
1.950000e-06	5.232501e-07	-2.393457e-10	3.633628e+00	-1.718639e+01
1.960000e-06	5.698183e-07	-2.203183e-10	3.957014e+00	-1.582975e+01
1.970000e-06	6.162739e-07	-2.050015e-10	4.279617e+00	-1.444376e+01
1.980000e-06	6.626775e-07	-1.907631e-10	4.601860e+00	-1.303027e+01
1.990000e-06	7.090823e-07	-1.730172e-10	4.924110e+00	-1.159133e+01
2.000000e-06	7.554679e-07	-1.499930e-10	5.246228e+00	-1.012915e+01
2.010000e-06	8.017933e-07	-1.246036e-10	5.567928e+00	-8.646106e+00
2.020000e-06	8.480527e-07	-9.925303e-11	5.889169e+00	-7.144689e+00
2.030000e-06	8.943210e-07	-7.623639e-11	6.210472e+00	-5.627497e+00
2.040000e-06	9.405612e-07	-5.639111e-11	6.531579e+00	-4.097204e+00
2.050000e-06	9.867289e-07	-3.704758e-11	6.852184e+00	-2.556540e+00
2.060000e-06	1.032838e-06	-1.617930e-11	7.172379e+00	-1.008257e+00
2.070000e-06	1.078833e-06	4.779590e-12	7.491786e+00	5.448888e-01
2.080000e-06	1.124768e-06	2.765794e-11	7.810775e+00	2.100166e+00
2.090000e-06	1.170642e-06	5.362414e-11	8.129338e+00	3.654892e+00
2.100000e-06	1.216399e-06	7.927344e-11	8.447094e+00	5.206453e+00
2.110000e-06	1.262108e-06	1.023237e-10	8.764513e+00	6.752327e+00
2.120000e-06	1.307729e-06	1.228687e-10	9.081317e+00	8.290099e+00
2.130000e-06	1.353249e-06	1.404220e-10	9.397426e+00	9.817480e+00
2.140000e-06	1.398682e-06	1.580037e-10	9.712928e+00	1.133232e+01
2.150000e-06	1.444020e-06	1.794316e-10	1.002777e+01	1.283260e+01
2.160000e-06	1.489236e-06	2.035723e-10	1.034176e+01	1.431649e+01
2.170000e-06	1.534310e-06	2.269356e-10	1.065477e+01	1.578228e+01
2.180000e-06	1.579234e-06	2.476985e-10	1.096674e+01	1.722845e+01
2.190000e-06	1.624060e-06	2.657693e-10	1.127803e+01	1.865363e+01
2.200000e-06	1.668801e-06	2.824227e-10	1.158873e+01	2.005660e+01
2.210000e-06	1.713351e-06	2.971736e-10	1.189809e+01	2.143631e+01
2.220000e-06	1.757672e-06	3.113383e-10	1.220587e+01	2.279182e+01
2.230000e-06	1.801852e-06	3.266167e-10	1.251268e+01	2.412237e+01
2.240000e-06	1.846041e-06	3.425697e-10	1.281954e+01	2.542729e+01
2.250000e-06	1.890175e-06	3.606372e-10	1.312602e+01	2.670603e+01
2.260000e-06	1.934166e-06	3.808885e-10	1.343151e+01	2.795814e+01
2.270000e-06	1.978092e-06	3.993509e-10	1.373655e+01	2.918328e+01
2.280000e-06	2.021985e-06	4.153309e-10	1.404136e+01	3.038115e+01
2.290000e-06	2.065792e-06	4.312407e-10	1.434557e+01	3.155154e+01
2.300000e-06	2.109540e-06	4.455727e-10	1.464937e+01	3.269427e+01
2.310000e-06	2.153260e-06	4.575497e-10	1.495297e+01	3.380923e+01
2.320000e-06	2.196833e-06	4.708647e-10	1.525556e+01	3.489632e+01
2.330000e-06	2.240249e-06	4.849860e-10	1.555705e+01	3.595547e+01
2.340000e-06	2.283513e-06	4.983816e-10	1.585749e+01	3.698663e+01
2.350000e-06	2.326600e-06	5.135010e-10	1.615671e+01	3.798978e+01
2.360000e-06	2.369422e-06	5.284862e-10	1.645408e+01	3.896489e+01
2.370000e-06	2.411892e-06	5.400144e-10	1.674900e+01	3.991194e+01
2.380000e-06	2.454053e-06	5.503005e-10	1.704178e+01	4.083094e+01
2.390000e-06	2.495967e-06	5.612791e-10	1.733285e+01	4.172190e+01
2.400000e-06	2.537542e-06	5.724489e-10	1.762156e+01	4.258483e+01
2.410000e-06	2.578636e-06	5.845262e-10	1.790693e+01	4.341978e+01
2.420000e-06	2.619476e-06	5.976233e-10	1.819054e+01	4.422683e+01
2.430000e-06	2.660149e-06	6.102985e-10	1.847298e+01	4.500607e+01
2.440000e-06	2.700546e-06	6.217613e-10	1.875352e+01	4.575763e+01
2.450000e-06	2.740706e-06	6.319698e-10	1.903240e+01	4.648170e+01
2.460000e-06	2.780727e-06	6.405969e-10	1.931032e+01	4.717849e+01
2.470000e-06	2.820628e-06	6.485072e-10	1.958741e+01	4.784829e+01
2.480000e-06	2.860434e-06	6.574073e-10	1.986383e+01	4.849144e+01
2.490000e-06	2.900188e-06	6.677544e-10	2.013990e+01	4.910833e+01
2.500000e-06	2.939805e-06	6.785836e-10	2.041501e+01	4.969945e+01
2.510000e-06	2.979267e-06	6.888373e-10	2.068905e+01	5.026531e+01
2.520000e-06	3.018582e-06	6.975833e-10	2.096207e+01	5.080653e+01
2.530000e-06	3.057624e-06	7.049540e-10	2.123319e+01	5.132378e+01
2.540000e-06	3.096381e-06	7.106968e-10	2.150233e+01	5.181781e+01
2.550000e-06	3.134890e-06	7.154477e-10	2.176975e+01	5.228939e+01
2.560000e-06	3.173148e-06	7.207364e-10	2.203543e+01	5.273940e+01
2.570000e-06	3.211192e-06	7.259796e-10	2.229962e+01	5.316873e+01
2.580000e-06	3.249083e-06	7.315924e-10	2.256274e+01	5.357834e+01
2.590000e-06	3.286785e-06	7.386231e-10	2.282456e+01	5.396918e+01
2.600000e-06	3.324301e-06	7.454821e-10	2.308509e+01	5.434226e+01
2.610000e-06	3.361585e-06	7.517898e-10	2.334400e+01	5.469859e+01
2.620000e-06	3.398589e-06	7.562813e-10	2.360097e+01	5.503917e+01
2.630000e-06	3.435383e-06	7.592784e-10	2.385648e+01	5.536500e+01
2.640000e-06	3.471942e-06	7.629222e-10	2.411035e+01	5.567705e+01
2.650000e-06	3.508281e-06	7.682086e-10	2.436271e+01	5.597626e+01
2.660000e-06	3.544448e-06	7.745463e-10	2.461386e+01	5.626351e+01
2.670000e-06	3.580437e-06	7.792296e-10	2.486378e+01	5.653967e+01
2.680000e-06	3.616260e-06	7.819514e-10	2.511255e+01	5.680549e+01
2.690000e-06	3.651963e-06	7.840263e-10	2.536048e+01	5.706170e+01
2.700000e-06	3.687507e-06	7.857115e-10	2.560732e+01	5.730894e+01
2.710000e-06	3.722815e-06	7.886934e-10	2.585250e+01	5.754776e+01
2.720000e-06	3.757804e-06	7.962409e-10	2.609548e+01	5.777866e+01
2.730000e-06	3.792399e-06	8.050733e-10	2.633572e+01	5.800203e+01
2.740000e-06	3.826573e-06	8.129670e-10	2.657304e+01	5.821820e+01
2.750000e-06	3.860207e-06	8.197310e-10	2.680660e+01	5.842742e+01
2.760000e-06	3.893366e-06	8.246587e-10	2.703687e+01	5.862987e+01
2.770000e-06	3.926149e-06	8.278539e-10	2.726452e+01	5.882566e+01
2.780000e-06	3.958496e-06	8.293816e-10	2.748916e+01	5.901485e+01
2.790000e-06	3.990556e-06	8.309323e-10	2.771179e+01	5.919745e+01
2.800000e-06	4.022509e-06	8.340835e-10	2.793368e+01	5.937341e+01
2.810000e-06	4.054335e-06	8.381110e-10	2.815469e+01	5.954269e+01
2.820000e-06	4.085974e-06	8.442329e-10	2.837440e+01	5.970519e+01
2.830000e-06	4.117448e-06	8.516085e-10	2.859297e+01	5.986082e+01
2.840000e-06	4.148725e-06	8.573248e-10	2.881017e+01	6.000949e+01
2.850000e-06	4.179702e-06	8.611437e-10	2.902528e+01	6.015111e+01
2.860000e-06	4.210253e-06	8.636826e-10	2.923744e+01	6.028561e+01
2.870000e-06	4.240436e-06	8.648674e-10	2.944704e+01	6.041296e+01
2.880000e-06	4.270410e-06	8.661835e-10	2.965519e+01	6.053314e+01
2.890000e-06	4.300153e-06	8.698435e-10	2.986174e+01	6.064619e+01
2.900000e-06	4.329642e-06	8.735033e-10	3.006652e+01	6.075218e+01
