# Temperatura_=_-13.58
# Concentracion g/m^3_=_1620.0
# C_Vs_to_Am_M_A/Vsm_=_65563218390.804596
# pendiente_HvsI_1/m_=_3716.3
# ordenada_HvsI_A/m_=_1297.0
# frecuencia_Hz_=_135108.05902794137

Tiempo_(s)	Campo_(V.s)	Magnetizacion_(V.s)	Campo_(kA/m)	Magnetizacion_(A/m)
0.000000e+00	-5.516021e-06	-8.971377e-10	-3.837095e+01	-6.222371e+01
1.000000e-08	-5.516084e-06	-8.969746e-10	-3.837138e+01	-6.218322e+01
2.000000e-08	-5.515869e-06	-8.971348e-10	-3.836989e+01	-6.214150e+01
3.000000e-08	-5.515199e-06	-8.959905e-10	-3.836522e+01	-6.209902e+01
4.000000e-08	-5.513909e-06	-8.929828e-10	-3.835625e+01	-6.205631e+01
5.000000e-08	-5.512056e-06	-8.888424e-10	-3.834336e+01	-6.201390e+01
6.000000e-08	-5.509687e-06	-8.868127e-10	-3.832688e+01	-6.197233e+01
7.000000e-08	-5.506767e-06	-8.929167e-10	-3.830657e+01	-6.193213e+01
8.000000e-08	-5.503328e-06	-8.703333e-10	-3.828265e+01	-6.189381e+01
9.000000e-08	-5.499430e-06	-8.336693e-10	-3.825553e+01	-6.185784e+01
1.000000e-07	-5.495227e-06	-8.937650e-10	-3.822630e+01	-6.182465e+01
1.100000e-07	-5.490791e-06	-9.847696e-10	-3.819544e+01	-6.179460e+01
1.200000e-07	-5.486015e-06	-8.778521e-10	-3.816222e+01	-6.176797e+01
1.300000e-07	-5.480957e-06	-8.032693e-10	-3.812703e+01	-6.174498e+01
1.400000e-07	-5.475624e-06	-8.422139e-10	-3.808993e+01	-6.172575e+01
1.500000e-07	-5.469861e-06	-9.704862e-10	-3.804984e+01	-6.171030e+01
1.600000e-07	-5.463669e-06	-9.071827e-10	-3.800677e+01	-6.169855e+01
1.700000e-07	-5.457062e-06	-7.846653e-10	-3.796081e+01	-6.169032e+01
1.800000e-07	-5.450074e-06	-8.759884e-10	-3.791220e+01	-6.168533e+01
1.900000e-07	-5.442723e-06	-9.820175e-10	-3.786106e+01	-6.168322e+01
2.000000e-07	-5.435029e-06	-9.618503e-10	-3.780754e+01	-6.168351e+01
2.100000e-07	-5.427074e-06	-8.351245e-10	-3.775220e+01	-6.168567e+01
2.200000e-07	-5.418919e-06	-8.833931e-10	-3.769547e+01	-6.168907e+01
2.300000e-07	-5.410492e-06	-9.456561e-10	-3.763685e+01	-6.169303e+01
2.400000e-07	-5.401530e-06	-9.615627e-10	-3.757451e+01	-6.169684e+01
2.500000e-07	-5.391930e-06	-8.918079e-10	-3.750773e+01	-6.169973e+01
2.600000e-07	-5.381683e-06	-9.094665e-10	-3.743645e+01	-6.170095e+01
2.700000e-07	-5.370717e-06	-9.258413e-10	-3.736017e+01	-6.169972e+01
2.800000e-07	-5.359257e-06	-9.312138e-10	-3.728045e+01	-6.169531e+01
2.900000e-07	-5.347468e-06	-8.928541e-10	-3.719844e+01	-6.168700e+01
3.000000e-07	-5.335294e-06	-8.999015e-10	-3.711376e+01	-6.167414e+01
3.100000e-07	-5.322706e-06	-9.361164e-10	-3.702619e+01	-6.165616e+01
3.200000e-07	-5.309791e-06	-9.550913e-10	-3.693635e+01	-6.163255e+01
3.300000e-07	-5.296489e-06	-9.167091e-10	-3.684382e+01	-6.160292e+01
3.400000e-07	-5.282733e-06	-8.965960e-10	-3.674813e+01	-6.156697e+01
3.500000e-07	-5.268607e-06	-9.459309e-10	-3.664987e+01	-6.152453e+01
3.600000e-07	-5.254061e-06	-9.332014e-10	-3.654868e+01	-6.147555e+01
3.700000e-07	-5.238916e-06	-8.789843e-10	-3.644333e+01	-6.142010e+01
3.800000e-07	-5.223206e-06	-9.121248e-10	-3.633404e+01	-6.135840e+01
3.900000e-07	-5.207099e-06	-9.631764e-10	-3.622200e+01	-6.129077e+01
4.000000e-07	-5.190484e-06	-8.742676e-10	-3.610642e+01	-6.121765e+01
4.100000e-07	-5.173505e-06	-8.706806e-10	-3.598831e+01	-6.113962e+01
4.200000e-07	-5.156312e-06	-9.660193e-10	-3.586871e+01	-6.105735e+01
4.300000e-07	-5.138763e-06	-9.239091e-10	-3.574663e+01	-6.097158e+01
4.400000e-07	-5.120847e-06	-8.069228e-10	-3.562201e+01	-6.088316e+01
4.500000e-07	-5.102581e-06	-9.186343e-10	-3.549494e+01	-6.079297e+01
4.600000e-07	-5.083915e-06	-9.618723e-10	-3.536510e+01	-6.070195e+01
4.700000e-07	-5.064808e-06	-8.296655e-10	-3.523218e+01	-6.061107e+01
4.800000e-07	-5.045398e-06	-8.429608e-10	-3.509716e+01	-6.052127e+01
4.900000e-07	-5.025863e-06	-9.810454e-10	-3.496127e+01	-6.043352e+01
5.000000e-07	-5.006100e-06	-8.812384e-10	-3.482379e+01	-6.034870e+01
5.100000e-07	-4.986104e-06	-8.250880e-10	-3.468470e+01	-6.026769e+01
5.200000e-07	-4.965879e-06	-9.532355e-10	-3.454401e+01	-6.019125e+01
5.300000e-07	-4.945265e-06	-9.354305e-10	-3.440061e+01	-6.012008e+01
5.400000e-07	-4.924152e-06	-8.064945e-10	-3.425374e+01	-6.005476e+01
5.500000e-07	-4.902668e-06	-9.055746e-10	-3.410430e+01	-5.999577e+01
5.600000e-07	-4.880926e-06	-9.581604e-10	-3.395305e+01	-5.994344e+01
5.700000e-07	-4.858856e-06	-8.311112e-10	-3.379953e+01	-5.989798e+01
5.800000e-07	-4.836451e-06	-8.501958e-10	-3.364367e+01	-5.985947e+01
5.900000e-07	-4.813722e-06	-9.573298e-10	-3.348556e+01	-5.982782e+01
6.000000e-07	-4.790594e-06	-8.744840e-10	-3.332467e+01	-5.980284e+01
6.100000e-07	-4.767147e-06	-8.318607e-10	-3.316157e+01	-5.978418e+01
6.200000e-07	-4.743513e-06	-9.263467e-10	-3.299717e+01	-5.977136e+01
6.300000e-07	-4.719624e-06	-9.014856e-10	-3.283099e+01	-5.976380e+01
6.400000e-07	-4.695480e-06	-8.345293e-10	-3.266304e+01	-5.976081e+01
6.500000e-07	-4.670995e-06	-8.907101e-10	-3.249271e+01	-5.976160e+01
6.600000e-07	-4.645890e-06	-9.075032e-10	-3.231808e+01	-5.976530e+01
6.700000e-07	-4.620194e-06	-8.455032e-10	-3.213932e+01	-5.977101e+01
6.800000e-07	-4.593958e-06	-8.786944e-10	-3.195682e+01	-5.977778e+01
6.900000e-07	-4.567239e-06	-9.131952e-10	-3.177096e+01	-5.978462e+01
7.000000e-07	-4.540188e-06	-8.698162e-10	-3.158279e+01	-5.979056e+01
7.100000e-07	-4.512891e-06	-8.570948e-10	-3.139290e+01	-5.979467e+01
7.200000e-07	-4.485409e-06	-8.920240e-10	-3.120173e+01	-5.979603e+01
7.300000e-07	-4.457703e-06	-8.682558e-10	-3.100900e+01	-5.979378e+01
7.400000e-07	-4.429763e-06	-8.562279e-10	-3.081464e+01	-5.978715e+01
7.500000e-07	-4.401473e-06	-8.792857e-10	-3.061785e+01	-5.977546e+01
7.600000e-07	-4.372802e-06	-8.823329e-10	-3.041840e+01	-5.975810e+01
7.700000e-07	-4.343829e-06	-8.604872e-10	-3.021686e+01	-5.973462e+01
7.800000e-07	-4.314609e-06	-8.732311e-10	-3.001360e+01	-5.970464e+01
7.900000e-07	-4.285184e-06	-8.715901e-10	-2.980891e+01	-5.966795e+01
8.000000e-07	-4.255546e-06	-8.576853e-10	-2.960274e+01	-5.962443e+01
8.100000e-07	-4.225583e-06	-8.623589e-10	-2.939430e+01	-5.957411e+01
8.200000e-07	-4.195224e-06	-8.778274e-10	-2.918312e+01	-5.951712e+01
8.300000e-07	-4.164562e-06	-8.650708e-10	-2.896983e+01	-5.945373e+01
8.400000e-07	-4.133605e-06	-8.684875e-10	-2.875448e+01	-5.938431e+01
8.500000e-07	-4.102442e-06	-8.818725e-10	-2.853771e+01	-5.930932e+01
8.600000e-07	-4.071157e-06	-8.725513e-10	-2.832008e+01	-5.922931e+01
8.700000e-07	-4.039674e-06	-8.600717e-10	-2.810107e+01	-5.914491e+01
8.800000e-07	-4.007965e-06	-8.728037e-10	-2.788050e+01	-5.905679e+01
8.900000e-07	-3.976059e-06	-8.709607e-10	-2.765855e+01	-5.896567e+01
9.000000e-07	-3.943932e-06	-8.572772e-10	-2.743507e+01	-5.887228e+01
9.100000e-07	-3.911479e-06	-8.649593e-10	-2.720931e+01	-5.877736e+01
9.200000e-07	-3.878670e-06	-8.690021e-10	-2.698108e+01	-5.868165e+01
9.300000e-07	-3.845466e-06	-8.550769e-10	-2.675011e+01	-5.858585e+01
9.400000e-07	-3.811757e-06	-8.553397e-10	-2.651562e+01	-5.849060e+01
9.500000e-07	-3.777516e-06	-8.663246e-10	-2.627743e+01	-5.839650e+01
9.600000e-07	-3.742858e-06	-8.525967e-10	-2.603634e+01	-5.830408e+01
9.700000e-07	-3.707860e-06	-8.425980e-10	-2.579288e+01	-5.821379e+01
9.800000e-07	-3.672554e-06	-8.512264e-10	-2.554729e+01	-5.812596e+01
9.900000e-07	-3.637033e-06	-8.530407e-10	-2.530019e+01	-5.804086e+01
1.000000e-06	-3.601377e-06	-8.425296e-10	-2.505216e+01	-5.795865e+01
1.010000e-06	-3.565583e-06	-8.520561e-10	-2.480316e+01	-5.787936e+01
1.020000e-06	-3.529658e-06	-8.561850e-10	-2.455326e+01	-5.780296e+01
1.030000e-06	-3.493597e-06	-8.487196e-10	-2.430241e+01	-5.772929e+01
1.040000e-06	-3.457317e-06	-8.470316e-10	-2.405004e+01	-5.765810e+01
1.050000e-06	-3.420691e-06	-8.550956e-10	-2.379526e+01	-5.758907e+01
1.060000e-06	-3.383749e-06	-8.470868e-10	-2.353828e+01	-5.752178e+01
1.070000e-06	-3.346524e-06	-8.431453e-10	-2.327934e+01	-5.745575e+01
1.080000e-06	-3.309104e-06	-8.481532e-10	-2.301903e+01	-5.739045e+01
1.090000e-06	-3.271538e-06	-8.473718e-10	-2.275771e+01	-5.732529e+01
1.100000e-06	-3.233684e-06	-8.379531e-10	-2.249439e+01	-5.725968e+01
1.110000e-06	-3.195614e-06	-8.421584e-10	-2.222956e+01	-5.719297e+01
1.120000e-06	-3.157469e-06	-8.445666e-10	-2.196422e+01	-5.712455e+01
1.130000e-06	-3.119196e-06	-8.372313e-10	-2.169797e+01	-5.705377e+01
1.140000e-06	-3.080531e-06	-8.355575e-10	-2.142901e+01	-5.698004e+01
1.150000e-06	-3.041543e-06	-8.395685e-10	-2.115780e+01	-5.690279e+01
1.160000e-06	-3.002423e-06	-8.335897e-10	-2.088567e+01	-5.682149e+01
1.170000e-06	-2.963069e-06	-8.278708e-10	-2.061191e+01	-5.673567e+01
1.180000e-06	-2.923555e-06	-8.300089e-10	-2.033704e+01	-5.664490e+01
1.190000e-06	-2.883962e-06	-8.304627e-10	-2.006163e+01	-5.654884e+01
1.200000e-06	-2.844243e-06	-8.283617e-10	-1.978533e+01	-5.644719e+01
1.210000e-06	-2.804414e-06	-8.302355e-10	-1.950827e+01	-5.633973e+01
1.220000e-06	-2.764490e-06	-8.300308e-10	-1.923054e+01	-5.622632e+01
1.230000e-06	-2.724363e-06	-8.241935e-10	-1.895141e+01	-5.610689e+01
1.240000e-06	-2.684053e-06	-8.230878e-10	-1.867100e+01	-5.598140e+01
1.250000e-06	-2.643668e-06	-8.232107e-10	-1.839007e+01	-5.584990e+01
1.260000e-06	-2.603011e-06	-8.199016e-10	-1.810725e+01	-5.571250e+01
1.270000e-06	-2.561959e-06	-8.137725e-10	-1.782168e+01	-5.556932e+01
1.280000e-06	-2.520621e-06	-8.148257e-10	-1.753413e+01	-5.542054e+01
1.290000e-06	-2.478961e-06	-8.113320e-10	-1.724433e+01	-5.526636e+01
1.300000e-06	-2.436913e-06	-8.037989e-10	-1.695183e+01	-5.510701e+01
1.310000e-06	-2.394580e-06	-7.989690e-10	-1.665735e+01	-5.494270e+01
1.320000e-06	-2.351979e-06	-7.986983e-10	-1.636100e+01	-5.477367e+01
1.330000e-06	-2.309131e-06	-7.944125e-10	-1.606295e+01	-5.460011e+01
1.340000e-06	-2.266137e-06	-7.922560e-10	-1.576386e+01	-5.442223e+01
1.350000e-06	-2.222959e-06	-7.911240e-10	-1.546351e+01	-5.424017e+01
1.360000e-06	-2.179527e-06	-7.864831e-10	-1.516138e+01	-5.405406e+01
1.370000e-06	-2.135928e-06	-7.806659e-10	-1.485810e+01	-5.386397e+01
1.380000e-06	-2.092295e-06	-7.773325e-10	-1.455458e+01	-5.366993e+01
1.390000e-06	-2.048625e-06	-7.723335e-10	-1.425079e+01	-5.347191e+01
1.400000e-06	-2.004920e-06	-7.687823e-10	-1.394677e+01	-5.326981e+01
1.410000e-06	-1.961144e-06	-7.670958e-10	-1.364225e+01	-5.306350e+01
1.420000e-06	-1.917232e-06	-7.663543e-10	-1.333679e+01	-5.285277e+01
1.430000e-06	-1.873190e-06	-7.638367e-10	-1.303042e+01	-5.263736e+01
1.440000e-06	-1.829013e-06	-7.599062e-10	-1.272311e+01	-5.241695e+01
1.450000e-06	-1.784780e-06	-7.541866e-10	-1.241542e+01	-5.219116e+01
1.460000e-06	-1.740511e-06	-7.466375e-10	-1.210747e+01	-5.195958e+01
1.470000e-06	-1.696051e-06	-7.392316e-10	-1.179819e+01	-5.172174e+01
1.480000e-06	-1.651374e-06	-7.349115e-10	-1.148741e+01	-5.147712e+01
1.490000e-06	-1.606545e-06	-7.325623e-10	-1.117556e+01	-5.122518e+01
1.500000e-06	-1.561645e-06	-7.285481e-10	-1.086322e+01	-5.096535e+01
1.510000e-06	-1.516681e-06	-7.261565e-10	-1.055045e+01	-5.069703e+01
1.520000e-06	-1.471542e-06	-7.242214e-10	-1.023645e+01	-5.041959e+01
1.530000e-06	-1.426220e-06	-7.192295e-10	-9.921173e+00	-5.013239e+01
1.540000e-06	-1.380857e-06	-7.119203e-10	-9.605617e+00	-4.983479e+01
1.550000e-06	-1.335442e-06	-7.049639e-10	-9.289698e+00	-4.952612e+01
1.560000e-06	-1.289954e-06	-6.961020e-10	-8.973269e+00	-4.920572e+01
1.570000e-06	-1.244399e-06	-6.885348e-10	-8.656377e+00	-4.887291e+01
1.580000e-06	-1.198699e-06	-6.838724e-10	-8.338475e+00	-4.852702e+01
1.590000e-06	-1.152986e-06	-6.806668e-10	-8.020483e+00	-4.816737e+01
1.600000e-06	-1.107205e-06	-6.747988e-10	-7.702019e+00	-4.779326e+01
1.610000e-06	-1.061247e-06	-6.665948e-10	-7.382321e+00	-4.740401e+01
1.620000e-06	-1.015213e-06	-6.564710e-10	-7.062098e+00	-4.699892e+01
1.630000e-06	-9.691779e-07	-6.471208e-10	-6.741865e+00	-4.657727e+01
1.640000e-06	-9.231048e-07	-6.392745e-10	-6.421368e+00	-4.613833e+01
1.650000e-06	-8.769251e-07	-6.331363e-10	-6.100129e+00	-4.568138e+01
1.660000e-06	-8.306651e-07	-6.250202e-10	-5.778332e+00	-4.520564e+01
1.670000e-06	-7.843650e-07	-6.161654e-10	-5.456256e+00	-4.471033e+01
1.680000e-06	-7.380212e-07	-6.067011e-10	-5.133876e+00	-4.419466e+01
1.690000e-06	-6.916365e-07	-5.959969e-10	-4.811211e+00	-4.365780e+01
1.700000e-06	-6.452096e-07	-5.849093e-10	-4.488254e+00	-4.309888e+01
1.710000e-06	-5.987998e-07	-5.778787e-10	-4.165414e+00	-4.251705e+01
1.720000e-06	-5.523700e-07	-5.707307e-10	-3.842436e+00	-4.191140e+01
1.730000e-06	-5.059101e-07	-5.611047e-10	-3.519248e+00	-4.128101e+01
1.740000e-06	-4.593700e-07	-5.518047e-10	-3.195503e+00	-4.062496e+01
1.750000e-06	-4.127412e-07	-5.395559e-10	-2.871140e+00	-3.994231e+01
1.760000e-06	-3.661063e-07	-5.258537e-10	-2.546735e+00	-3.923211e+01
1.770000e-06	-3.193693e-07	-5.139787e-10	-2.221620e+00	-3.849342e+01
1.780000e-06	-2.725130e-07	-5.028721e-10	-1.895675e+00	-3.772534e+01
1.790000e-06	-2.256372e-07	-4.931844e-10	-1.569594e+00	-3.692697e+01
1.800000e-06	-1.788068e-07	-4.843715e-10	-1.243828e+00	-3.609745e+01
1.810000e-06	-1.320183e-07	-4.723874e-10	-9.183553e-01	-3.523598e+01
1.820000e-06	-8.533961e-08	-4.590181e-10	-5.936455e-01	-3.434183e+01
1.830000e-06	-3.870781e-08	-4.460409e-10	-2.692620e-01	-3.341433e+01
1.840000e-06	8.003216e-09	-4.311070e-10	5.567255e-02	-3.245292e+01
1.850000e-06	5.468024e-08	-4.143311e-10	3.803706e-01	-3.145713e+01
1.860000e-06	1.013494e-07	-3.969424e-10	7.050142e-01	-3.042662e+01
1.870000e-06	1.481157e-07	-3.783417e-10	1.030333e+00	-2.936118e+01
1.880000e-06	1.948406e-07	-3.618180e-10	1.355364e+00	-2.826074e+01
1.890000e-06	2.415792e-07	-3.474810e-10	1.680491e+00	-2.712538e+01
1.900000e-06	2.883334e-07	-3.327764e-10	2.005725e+00	-2.595534e+01
1.910000e-06	3.348751e-07	-3.165736e-10	2.329482e+00	-2.475104e+01
1.920000e-06	3.814256e-07	-2.998172e-10	2.653300e+00	-2.351308e+01
1.930000e-06	4.281576e-07	-2.810228e-10	2.978381e+00	-2.224221e+01
1.940000e-06	4.748288e-07	-2.615709e-10	3.303039e+00	-2.093938e+01
1.950000e-06	5.213667e-07	-2.429977e-10	3.626768e+00	-1.960572e+01
1.960000e-06	5.678497e-07	-2.269844e-10	3.950117e+00	-1.824253e+01
1.970000e-06	6.142847e-07	-2.112646e-10	4.273132e+00	-1.685128e+01
1.980000e-06	6.605991e-07	-1.942588e-10	4.595307e+00	-1.543360e+01
1.990000e-06	7.068572e-07	-1.748118e-10	4.917091e+00	-1.399126e+01
2.000000e-06	7.531238e-07	-1.520735e-10	5.238934e+00	-1.252620e+01
2.010000e-06	7.994119e-07	-1.275702e-10	5.560927e+00	-1.104046e+01
2.020000e-06	8.457208e-07	-1.041949e-10	5.883064e+00	-9.536195e+00
2.030000e-06	8.919582e-07	-8.328544e-11	6.204704e+00	-8.015669e+00
2.040000e-06	9.380835e-07	-6.425127e-11	6.525564e+00	-6.481209e+00
2.050000e-06	9.840955e-07	-4.550277e-11	6.845636e+00	-4.935206e+00
2.060000e-06	1.030017e-06	-2.661877e-11	7.165076e+00	-3.380091e+00
2.070000e-06	1.075856e-06	-5.937439e-12	7.483945e+00	-1.818316e+00
2.080000e-06	1.121546e-06	1.779121e-11	7.801782e+00	-2.523341e-01
2.090000e-06	1.167133e-06	4.181051e-11	8.118894e+00	1.315415e+00
2.100000e-06	1.212704e-06	6.496645e-11	8.435898e+00	2.882527e+00
2.110000e-06	1.258237e-06	8.756931e-11	8.752640e+00	4.446646e+00
2.120000e-06	1.303665e-06	1.076610e-10	9.068652e+00	6.005484e+00
2.130000e-06	1.349016e-06	1.256497e-10	9.384126e+00	7.556830e+00
2.140000e-06	1.394340e-06	1.448831e-10	9.699409e+00	9.098565e+00
2.150000e-06	1.439551e-06	1.659852e-10	1.001391e+01	1.062867e+01
2.160000e-06	1.484645e-06	1.892059e-10	1.032760e+01	1.214525e+01
2.170000e-06	1.529661e-06	2.131812e-10	1.064074e+01	1.364651e+01
2.180000e-06	1.574583e-06	2.359282e-10	1.095323e+01	1.513078e+01
2.190000e-06	1.619374e-06	2.568205e-10	1.126481e+01	1.659653e+01
2.200000e-06	1.663975e-06	2.763207e-10	1.157506e+01	1.804234e+01
2.210000e-06	1.708415e-06	2.930035e-10	1.188420e+01	1.946693e+01
2.220000e-06	1.752717e-06	3.085947e-10	1.219238e+01	2.086914e+01
2.230000e-06	1.796879e-06	3.256390e-10	1.249958e+01	2.224793e+01
2.240000e-06	1.840938e-06	3.444989e-10	1.280607e+01	2.360237e+01
2.250000e-06	1.884884e-06	3.642589e-10	1.311177e+01	2.493166e+01
2.260000e-06	1.928759e-06	3.839381e-10	1.341697e+01	2.623508e+01
2.270000e-06	1.972542e-06	4.010113e-10	1.372154e+01	2.751203e+01
2.280000e-06	2.016225e-06	4.171647e-10	1.402541e+01	2.876198e+01
2.290000e-06	2.059889e-06	4.336399e-10	1.432915e+01	2.998449e+01
2.300000e-06	2.103512e-06	4.492583e-10	1.463260e+01	3.117921e+01
2.310000e-06	2.147119e-06	4.635521e-10	1.493595e+01	3.234584e+01
2.320000e-06	2.190690e-06	4.780748e-10	1.523903e+01	3.348414e+01
2.330000e-06	2.234111e-06	4.935518e-10	1.554108e+01	3.459394e+01
2.340000e-06	2.277338e-06	5.087488e-10	1.584178e+01	3.567511e+01
2.350000e-06	2.320400e-06	5.237843e-10	1.614134e+01	3.672757e+01
2.360000e-06	2.363325e-06	5.384065e-10	1.643993e+01	3.775127e+01
2.370000e-06	2.405922e-06	5.516362e-10	1.673625e+01	3.874621e+01
2.380000e-06	2.448099e-06	5.632605e-10	1.702964e+01	3.971243e+01
2.390000e-06	2.489911e-06	5.743358e-10	1.732050e+01	4.065000e+01
2.400000e-06	2.531440e-06	5.868388e-10	1.760939e+01	4.155902e+01
2.410000e-06	2.572753e-06	6.010372e-10	1.789677e+01	4.243963e+01
2.420000e-06	2.613808e-06	6.142344e-10	1.818236e+01	4.329201e+01
2.430000e-06	2.654581e-06	6.265429e-10	1.846599e+01	4.411638e+01
2.440000e-06	2.695029e-06	6.378989e-10	1.874736e+01	4.491298e+01
2.450000e-06	2.735187e-06	6.478379e-10	1.902671e+01	4.568212e+01
2.460000e-06	2.775187e-06	6.570082e-10	1.930496e+01	4.642412e+01
2.470000e-06	2.815129e-06	6.662669e-10	1.958280e+01	4.713937e+01
2.480000e-06	2.854973e-06	6.754852e-10	1.985997e+01	4.782829e+01
2.490000e-06	2.894674e-06	6.851858e-10	2.013614e+01	4.849136e+01
2.500000e-06	2.934196e-06	6.945203e-10	2.041106e+01	4.912908e+01
2.510000e-06	2.973519e-06	7.036097e-10	2.068461e+01	4.974202e+01
2.520000e-06	3.012681e-06	7.120681e-10	2.095703e+01	5.033078e+01
2.530000e-06	3.051727e-06	7.187667e-10	2.122864e+01	5.089601e+01
2.540000e-06	3.090550e-06	7.232066e-10	2.149871e+01	5.143839e+01
2.550000e-06	3.129119e-06	7.279505e-10	2.176700e+01	5.195864e+01
2.560000e-06	3.167481e-06	7.352694e-10	2.203386e+01	5.245749e+01
2.570000e-06	3.205532e-06	7.428916e-10	2.229855e+01	5.293573e+01
2.580000e-06	3.243355e-06	7.502151e-10	2.256166e+01	5.339413e+01
2.590000e-06	3.281056e-06	7.551435e-10	2.282392e+01	5.383350e+01
2.600000e-06	3.318617e-06	7.594436e-10	2.308520e+01	5.425464e+01
2.610000e-06	3.355977e-06	7.636345e-10	2.334509e+01	5.465835e+01
2.620000e-06	3.393071e-06	7.679525e-10	2.360312e+01	5.504542e+01
2.630000e-06	3.429855e-06	7.723943e-10	2.385901e+01	5.541661e+01
2.640000e-06	3.466317e-06	7.777496e-10	2.411264e+01	5.577269e+01
2.650000e-06	3.502523e-06	7.846984e-10	2.436451e+01	5.611436e+01
2.660000e-06	3.538531e-06	7.894927e-10	2.461499e+01	5.644231e+01
2.670000e-06	3.574416e-06	7.919283e-10	2.486461e+01	5.675716e+01
2.680000e-06	3.610179e-06	7.930813e-10	2.511339e+01	5.705953e+01
2.690000e-06	3.645808e-06	7.962575e-10	2.536123e+01	5.734994e+01
2.700000e-06	3.681320e-06	7.990002e-10	2.560827e+01	5.762889e+01
2.710000e-06	3.716567e-06	8.011245e-10	2.585345e+01	5.789681e+01
2.720000e-06	3.751527e-06	8.067245e-10	2.609664e+01	5.815410e+01
2.730000e-06	3.786248e-06	8.124633e-10	2.633817e+01	5.840108e+01
2.740000e-06	3.820509e-06	8.171606e-10	2.657650e+01	5.863805e+01
2.750000e-06	3.854192e-06	8.205362e-10	2.681081e+01	5.886525e+01
2.760000e-06	3.887363e-06	8.238793e-10	2.704155e+01	5.908287e+01
2.770000e-06	3.920079e-06	8.288871e-10	2.726913e+01	5.929110e+01
2.780000e-06	3.952469e-06	8.342339e-10	2.749445e+01	5.949006e+01
2.790000e-06	3.984561e-06	8.397920e-10	2.771769e+01	5.967988e+01
2.800000e-06	4.016407e-06	8.434646e-10	2.793922e+01	5.986066e+01
2.810000e-06	4.048106e-06	8.441844e-10	2.815973e+01	6.003250e+01
2.820000e-06	4.079616e-06	8.429007e-10	2.837892e+01	6.019550e+01
2.830000e-06	4.110937e-06	8.431413e-10	2.859680e+01	6.034978e+01
2.840000e-06	4.142062e-06	8.461287e-10	2.881331e+01	6.049545e+01
2.850000e-06	4.172869e-06	8.514356e-10	2.902762e+01	6.063266e+01
2.860000e-06	4.203291e-06	8.575256e-10	2.923923e+01	6.076158e+01
2.870000e-06	4.233398e-06	8.608059e-10	2.944867e+01	6.088242e+01
2.880000e-06	4.263246e-06	8.613260e-10	2.965630e+01	6.099542e+01
2.890000e-06	4.292863e-06	8.623788e-10	2.986232e+01	6.110085e+01
2.900000e-06	4.322242e-06	8.641221e-10	3.006669e+01	6.119904e+01
