# Temperatura_=_-19.18
# Concentracion g/m^3_=_1620.0
# C_Vs_to_Am_M_A/Vsm_=_65563218390.804596
# pendiente_HvsI_1/m_=_3716.3
# ordenada_HvsI_A/m_=_1297.0
# frecuencia_Hz_=_135110.33501738467

Tiempo_(s)	Campo_(V.s)	Magnetizacion_(V.s)	Campo_(kA/m)	Magnetizacion_(A/m)
0.000000e+00	-5.502327e-06	-7.666486e-10	-3.835562e+01	-5.009593e+01
1.000000e-08	-5.502577e-06	-7.673638e-10	-3.835737e+01	-5.012701e+01
2.000000e-08	-5.502588e-06	-7.676031e-10	-3.835745e+01	-5.016321e+01
3.000000e-08	-5.502317e-06	-7.652233e-10	-3.835556e+01	-5.020482e+01
4.000000e-08	-5.501595e-06	-7.614652e-10	-3.835053e+01	-5.025212e+01
5.000000e-08	-5.500327e-06	-7.574675e-10	-3.834168e+01	-5.030536e+01
6.000000e-08	-5.498616e-06	-7.506841e-10	-3.832976e+01	-5.036472e+01
7.000000e-08	-5.496406e-06	-7.431039e-10	-3.831435e+01	-5.043033e+01
8.000000e-08	-5.493550e-06	-7.490483e-10	-3.829444e+01	-5.050226e+01
9.000000e-08	-5.490197e-06	-7.713106e-10	-3.827107e+01	-5.058051e+01
1.000000e-07	-5.486412e-06	-7.828088e-10	-3.824469e+01	-5.066499e+01
1.100000e-07	-5.482153e-06	-7.535103e-10	-3.821500e+01	-5.075553e+01
1.200000e-07	-5.477597e-06	-7.148282e-10	-3.818324e+01	-5.085187e+01
1.300000e-07	-5.472980e-06	-7.227000e-10	-3.815105e+01	-5.095366e+01
1.400000e-07	-5.468089e-06	-7.599834e-10	-3.811696e+01	-5.106044e+01
1.500000e-07	-5.462678e-06	-7.527834e-10	-3.807924e+01	-5.117170e+01
1.600000e-07	-5.456857e-06	-7.317683e-10	-3.803866e+01	-5.128679e+01
1.700000e-07	-5.450681e-06	-7.364930e-10	-3.799562e+01	-5.140502e+01
1.800000e-07	-5.444070e-06	-7.956150e-10	-3.794953e+01	-5.152559e+01
1.900000e-07	-5.436999e-06	-8.040792e-10	-3.790024e+01	-5.164765e+01
2.000000e-07	-5.429665e-06	-8.020594e-10	-3.784911e+01	-5.177029e+01
2.100000e-07	-5.422096e-06	-7.652921e-10	-3.779635e+01	-5.189256e+01
2.200000e-07	-5.414173e-06	-7.844314e-10	-3.774112e+01	-5.201347e+01
2.300000e-07	-5.405954e-06	-7.888648e-10	-3.768383e+01	-5.213203e+01
2.400000e-07	-5.397541e-06	-7.996147e-10	-3.762518e+01	-5.224722e+01
2.500000e-07	-5.388650e-06	-7.897641e-10	-3.756320e+01	-5.235807e+01
2.600000e-07	-5.379053e-06	-8.093960e-10	-3.749631e+01	-5.246363e+01
2.700000e-07	-5.368798e-06	-8.082018e-10	-3.742482e+01	-5.256300e+01
2.800000e-07	-5.357970e-06	-7.807008e-10	-3.734934e+01	-5.265535e+01
2.900000e-07	-5.346608e-06	-7.748122e-10	-3.727014e+01	-5.273993e+01
3.000000e-07	-5.334793e-06	-7.912144e-10	-3.718778e+01	-5.281608e+01
3.100000e-07	-5.322676e-06	-7.977989e-10	-3.710332e+01	-5.288328e+01
3.200000e-07	-5.310145e-06	-7.817806e-10	-3.701596e+01	-5.294110e+01
3.300000e-07	-5.297123e-06	-8.187786e-10	-3.692519e+01	-5.298925e+01
3.400000e-07	-5.283788e-06	-8.355551e-10	-3.683223e+01	-5.302759e+01
3.500000e-07	-5.270189e-06	-8.328496e-10	-3.673744e+01	-5.305612e+01
3.600000e-07	-5.256145e-06	-7.961950e-10	-3.663954e+01	-5.307496e+01
3.700000e-07	-5.241679e-06	-8.197525e-10	-3.653870e+01	-5.308441e+01
3.800000e-07	-5.226856e-06	-8.072897e-10	-3.643537e+01	-5.308490e+01
3.900000e-07	-5.211350e-06	-7.930748e-10	-3.632728e+01	-5.307697e+01
4.000000e-07	-5.195058e-06	-7.857954e-10	-3.621372e+01	-5.306131e+01
4.100000e-07	-5.178490e-06	-8.289446e-10	-3.609822e+01	-5.303872e+01
4.200000e-07	-5.161698e-06	-8.187400e-10	-3.598117e+01	-5.301011e+01
4.300000e-07	-5.144468e-06	-8.031725e-10	-3.586106e+01	-5.297645e+01
4.400000e-07	-5.126987e-06	-8.115657e-10	-3.573921e+01	-5.293879e+01
4.500000e-07	-5.109348e-06	-8.240041e-10	-3.561625e+01	-5.289824e+01
4.600000e-07	-5.091211e-06	-7.836207e-10	-3.548982e+01	-5.285592e+01
4.700000e-07	-5.072544e-06	-7.718642e-10	-3.535969e+01	-5.281298e+01
4.800000e-07	-5.053571e-06	-7.911943e-10	-3.522744e+01	-5.277054e+01
4.900000e-07	-5.034284e-06	-7.968567e-10	-3.509299e+01	-5.272970e+01
5.000000e-07	-5.014730e-06	-7.886219e-10	-3.495668e+01	-5.269150e+01
5.100000e-07	-4.994924e-06	-8.130849e-10	-3.481862e+01	-5.265692e+01
5.200000e-07	-4.974871e-06	-8.182111e-10	-3.467883e+01	-5.262685e+01
5.300000e-07	-4.954557e-06	-7.973952e-10	-3.453723e+01	-5.260208e+01
5.400000e-07	-4.933843e-06	-7.950938e-10	-3.439284e+01	-5.258327e+01
5.500000e-07	-4.912699e-06	-7.989321e-10	-3.424545e+01	-5.257098e+01
5.600000e-07	-4.891221e-06	-7.794768e-10	-3.409573e+01	-5.256562e+01
5.700000e-07	-4.869427e-06	-7.739544e-10	-3.394381e+01	-5.256746e+01
5.800000e-07	-4.847382e-06	-7.968420e-10	-3.379013e+01	-5.257664e+01
5.900000e-07	-4.825085e-06	-7.950827e-10	-3.363471e+01	-5.259316e+01
6.000000e-07	-4.802383e-06	-7.873369e-10	-3.347645e+01	-5.261686e+01
6.100000e-07	-4.779232e-06	-7.906312e-10	-3.331508e+01	-5.264747e+01
6.200000e-07	-4.755809e-06	-7.907390e-10	-3.315180e+01	-5.268459e+01
6.300000e-07	-4.732201e-06	-7.750457e-10	-3.298723e+01	-5.272772e+01
6.400000e-07	-4.708383e-06	-7.797775e-10	-3.282120e+01	-5.277623e+01
6.500000e-07	-4.684366e-06	-7.814994e-10	-3.265379e+01	-5.282945e+01
6.600000e-07	-4.660078e-06	-7.823498e-10	-3.248447e+01	-5.288660e+01
6.700000e-07	-4.635280e-06	-7.864038e-10	-3.231161e+01	-5.294688e+01
6.800000e-07	-4.609905e-06	-8.011176e-10	-3.213473e+01	-5.300944e+01
6.900000e-07	-4.583937e-06	-7.973092e-10	-3.195371e+01	-5.307343e+01
7.000000e-07	-4.557305e-06	-7.979348e-10	-3.176807e+01	-5.313801e+01
7.100000e-07	-4.530242e-06	-7.917741e-10	-3.157941e+01	-5.320234e+01
7.200000e-07	-4.502881e-06	-7.862358e-10	-3.138869e+01	-5.326563e+01
7.300000e-07	-4.475264e-06	-7.794601e-10	-3.119617e+01	-5.332716e+01
7.400000e-07	-4.447506e-06	-7.855978e-10	-3.100268e+01	-5.338626e+01
7.500000e-07	-4.419587e-06	-7.847319e-10	-3.080806e+01	-5.344234e+01
7.600000e-07	-4.391441e-06	-7.908644e-10	-3.061186e+01	-5.349492e+01
7.700000e-07	-4.362998e-06	-7.961343e-10	-3.041359e+01	-5.354361e+01
7.800000e-07	-4.334172e-06	-7.958105e-10	-3.021265e+01	-5.358810e+01
7.900000e-07	-4.304985e-06	-7.874567e-10	-3.000919e+01	-5.362821e+01
8.000000e-07	-4.275525e-06	-7.851331e-10	-2.980383e+01	-5.366386e+01
8.100000e-07	-4.245779e-06	-7.796100e-10	-2.959648e+01	-5.369506e+01
8.200000e-07	-4.215791e-06	-7.752291e-10	-2.938744e+01	-5.372192e+01
8.300000e-07	-4.185587e-06	-7.806061e-10	-2.917689e+01	-5.374466e+01
8.400000e-07	-4.155079e-06	-7.899331e-10	-2.896423e+01	-5.376355e+01
8.500000e-07	-4.124254e-06	-7.925844e-10	-2.874935e+01	-5.377893e+01
8.600000e-07	-4.093161e-06	-7.928159e-10	-2.853261e+01	-5.379121e+01
8.700000e-07	-4.061773e-06	-7.953711e-10	-2.831381e+01	-5.380084e+01
8.800000e-07	-4.030167e-06	-7.905475e-10	-2.809349e+01	-5.380828e+01
8.900000e-07	-3.998446e-06	-7.863736e-10	-2.787237e+01	-5.381403e+01
9.000000e-07	-3.966595e-06	-7.858362e-10	-2.765034e+01	-5.381854e+01
9.100000e-07	-3.934544e-06	-7.886418e-10	-2.742692e+01	-5.382230e+01
9.200000e-07	-3.902169e-06	-7.898208e-10	-2.720124e+01	-5.382573e+01
9.300000e-07	-3.869409e-06	-7.972733e-10	-2.697288e+01	-5.382923e+01
9.400000e-07	-3.836177e-06	-7.988020e-10	-2.674123e+01	-5.383312e+01
9.500000e-07	-3.802432e-06	-7.959095e-10	-2.650600e+01	-5.383768e+01
9.600000e-07	-3.768216e-06	-7.886328e-10	-2.626748e+01	-5.384310e+01
9.700000e-07	-3.733533e-06	-7.854777e-10	-2.602571e+01	-5.384952e+01
9.800000e-07	-3.698474e-06	-7.790918e-10	-2.578132e+01	-5.385698e+01
9.900000e-07	-3.663133e-06	-7.792530e-10	-2.553497e+01	-5.386543e+01
1.000000e-06	-3.627601e-06	-7.807260e-10	-2.528728e+01	-5.387477e+01
1.010000e-06	-3.591931e-06	-7.846976e-10	-2.503863e+01	-5.388479e+01
1.020000e-06	-3.556175e-06	-7.868161e-10	-2.478938e+01	-5.389525e+01
1.030000e-06	-3.520343e-06	-7.912196e-10	-2.453961e+01	-5.390581e+01
1.040000e-06	-3.484315e-06	-7.902129e-10	-2.428846e+01	-5.391609e+01
1.050000e-06	-3.448086e-06	-7.876071e-10	-2.403592e+01	-5.392567e+01
1.060000e-06	-3.411653e-06	-7.824508e-10	-2.378195e+01	-5.393409e+01
1.070000e-06	-3.374938e-06	-7.791519e-10	-2.352602e+01	-5.394087e+01
1.080000e-06	-3.337911e-06	-7.793579e-10	-2.326791e+01	-5.394552e+01
1.090000e-06	-3.300548e-06	-7.854126e-10	-2.300746e+01	-5.394757e+01
1.100000e-06	-3.262907e-06	-7.900406e-10	-2.274507e+01	-5.394655e+01
1.110000e-06	-3.225105e-06	-7.909125e-10	-2.248156e+01	-5.394203e+01
1.120000e-06	-3.187122e-06	-7.900509e-10	-2.221679e+01	-5.393362e+01
1.130000e-06	-3.148968e-06	-7.901824e-10	-2.195083e+01	-5.392097e+01
1.140000e-06	-3.110570e-06	-7.894090e-10	-2.168317e+01	-5.390379e+01
1.150000e-06	-3.071907e-06	-7.867908e-10	-2.141365e+01	-5.388189e+01
1.160000e-06	-3.032983e-06	-7.865819e-10	-2.114232e+01	-5.385510e+01
1.170000e-06	-2.993770e-06	-7.862157e-10	-2.086897e+01	-5.382335e+01
1.180000e-06	-2.954342e-06	-7.852813e-10	-2.059413e+01	-5.378666e+01
1.190000e-06	-2.914797e-06	-7.851603e-10	-2.031847e+01	-5.374509e+01
1.200000e-06	-2.875167e-06	-7.864704e-10	-2.004222e+01	-5.369880e+01
1.210000e-06	-2.835425e-06	-7.838374e-10	-1.976518e+01	-5.364799e+01
1.220000e-06	-2.795618e-06	-7.817962e-10	-1.948770e+01	-5.359294e+01
1.230000e-06	-2.755721e-06	-7.791787e-10	-1.920958e+01	-5.353397e+01
1.240000e-06	-2.715686e-06	-7.797054e-10	-1.893050e+01	-5.347144e+01
1.250000e-06	-2.675463e-06	-7.807682e-10	-1.865012e+01	-5.340574e+01
1.260000e-06	-2.635014e-06	-7.837703e-10	-1.836816e+01	-5.333728e+01
1.270000e-06	-2.594361e-06	-7.852874e-10	-1.808477e+01	-5.326647e+01
1.280000e-06	-2.553470e-06	-7.860922e-10	-1.779973e+01	-5.319371e+01
1.290000e-06	-2.512326e-06	-7.818668e-10	-1.751292e+01	-5.311937e+01
1.300000e-06	-2.470988e-06	-7.773062e-10	-1.722477e+01	-5.304382e+01
1.310000e-06	-2.429383e-06	-7.718287e-10	-1.693474e+01	-5.296735e+01
1.320000e-06	-2.387335e-06	-7.699231e-10	-1.664163e+01	-5.289020e+01
1.330000e-06	-2.344902e-06	-7.711672e-10	-1.634584e+01	-5.281256e+01
1.340000e-06	-2.302173e-06	-7.731750e-10	-1.604799e+01	-5.273452e+01
1.350000e-06	-2.259258e-06	-7.731596e-10	-1.574884e+01	-5.265613e+01
1.360000e-06	-2.216156e-06	-7.721714e-10	-1.544838e+01	-5.257733e+01
1.370000e-06	-2.172797e-06	-7.690934e-10	-1.514614e+01	-5.249796e+01
1.380000e-06	-2.129268e-06	-7.644505e-10	-1.484270e+01	-5.241781e+01
1.390000e-06	-2.085608e-06	-7.597868e-10	-1.453836e+01	-5.233656e+01
1.400000e-06	-2.041853e-06	-7.573377e-10	-1.423335e+01	-5.225381e+01
1.410000e-06	-1.998041e-06	-7.574709e-10	-1.392795e+01	-5.216909e+01
1.420000e-06	-1.954189e-06	-7.570130e-10	-1.362226e+01	-5.208185e+01
1.430000e-06	-1.910265e-06	-7.550798e-10	-1.331608e+01	-5.199149e+01
1.440000e-06	-1.866322e-06	-7.534746e-10	-1.300976e+01	-5.189734e+01
1.450000e-06	-1.822285e-06	-7.494869e-10	-1.270279e+01	-5.179871e+01
1.460000e-06	-1.778040e-06	-7.422168e-10	-1.239436e+01	-5.169484e+01
1.470000e-06	-1.733770e-06	-7.374994e-10	-1.208577e+01	-5.158498e+01
1.480000e-06	-1.689456e-06	-7.346889e-10	-1.177686e+01	-5.146836e+01
1.490000e-06	-1.644961e-06	-7.339232e-10	-1.146670e+01	-5.134420e+01
1.500000e-06	-1.600364e-06	-7.299161e-10	-1.115582e+01	-5.121172e+01
1.510000e-06	-1.555547e-06	-7.263838e-10	-1.084341e+01	-5.107018e+01
1.520000e-06	-1.510498e-06	-7.231382e-10	-1.052938e+01	-5.091885e+01
1.530000e-06	-1.465354e-06	-7.220786e-10	-1.021469e+01	-5.075702e+01
1.540000e-06	-1.420160e-06	-7.206877e-10	-9.899652e+00	-5.058404e+01
1.550000e-06	-1.374948e-06	-7.185849e-10	-9.584488e+00	-5.039927e+01
1.560000e-06	-1.329626e-06	-7.148790e-10	-9.268556e+00	-5.020212e+01
1.570000e-06	-1.284210e-06	-7.109263e-10	-8.951976e+00	-4.999204e+01
1.580000e-06	-1.238725e-06	-7.064629e-10	-8.634906e+00	-4.976852e+01
1.590000e-06	-1.193065e-06	-7.018592e-10	-8.316617e+00	-4.953106e+01
1.600000e-06	-1.147305e-06	-7.000614e-10	-7.997632e+00	-4.927920e+01
1.610000e-06	-1.101536e-06	-6.990951e-10	-7.678587e+00	-4.901252e+01
1.620000e-06	-1.055688e-06	-6.972039e-10	-7.358988e+00	-4.873056e+01
1.630000e-06	-1.009745e-06	-6.935585e-10	-7.038732e+00	-4.843290e+01
1.640000e-06	-9.636980e-07	-6.862522e-10	-6.717747e+00	-4.811911e+01
1.650000e-06	-9.175575e-07	-6.785548e-10	-6.396111e+00	-4.778873e+01
1.660000e-06	-8.713718e-07	-6.707469e-10	-6.074159e+00	-4.744127e+01
1.670000e-06	-8.251588e-07	-6.645264e-10	-5.752018e+00	-4.707621e+01
1.680000e-06	-7.789176e-07	-6.584866e-10	-5.429679e+00	-4.669300e+01
1.690000e-06	-7.326356e-07	-6.524254e-10	-5.107057e+00	-4.629101e+01
1.700000e-06	-6.863671e-07	-6.466371e-10	-4.784529e+00	-4.586958e+01
1.710000e-06	-6.400181e-07	-6.383489e-10	-4.461439e+00	-4.542795e+01
1.720000e-06	-5.935783e-07	-6.296676e-10	-4.137716e+00	-4.496535e+01
1.730000e-06	-5.471390e-07	-6.237789e-10	-3.813997e+00	-4.448089e+01
1.740000e-06	-5.006531e-07	-6.182350e-10	-3.489953e+00	-4.397365e+01
1.750000e-06	-4.541440e-07	-6.092148e-10	-3.165748e+00	-4.344265e+01
1.760000e-06	-4.076028e-07	-5.976727e-10	-2.841318e+00	-4.288685e+01
1.770000e-06	-3.609381e-07	-5.848313e-10	-2.516028e+00	-4.230517e+01
1.780000e-06	-3.142565e-07	-5.752605e-10	-2.190619e+00	-4.169651e+01
1.790000e-06	-2.676383e-07	-5.687838e-10	-1.865653e+00	-4.105974e+01
1.800000e-06	-2.210762e-07	-5.639659e-10	-1.541078e+00	-4.039373e+01
1.810000e-06	-1.745320e-07	-5.570339e-10	-1.216628e+00	-3.969737e+01
1.820000e-06	-1.278990e-07	-5.469379e-10	-8.915583e-01	-3.896960e+01
1.830000e-06	-8.113918e-08	-5.347523e-10	-5.656051e-01	-3.820938e+01
1.840000e-06	-3.436355e-08	-5.225524e-10	-2.395415e-01	-3.741578e+01
1.850000e-06	1.236197e-08	-5.094558e-10	8.617286e-02	-3.658795e+01
1.860000e-06	5.907939e-08	-4.976090e-10	4.118306e-01	-3.572514e+01
1.870000e-06	1.058086e-07	-4.867696e-10	7.375705e-01	-3.482676e+01
1.880000e-06	1.525909e-07	-4.764678e-10	1.063681e+00	-3.389237e+01
1.890000e-06	1.993945e-07	-4.651379e-10	1.389940e+00	-3.292168e+01
1.900000e-06	2.460615e-07	-4.503270e-10	1.715246e+00	-3.191461e+01
1.910000e-06	2.926739e-07	-4.324272e-10	2.040171e+00	-3.087127e+01
1.920000e-06	3.393481e-07	-4.159327e-10	2.365528e+00	-2.979196e+01
1.930000e-06	3.859699e-07	-4.007456e-10	2.690519e+00	-2.867724e+01
1.940000e-06	4.325566e-07	-3.836931e-10	3.015266e+00	-2.752784e+01
1.950000e-06	4.791151e-07	-3.661693e-10	3.339816e+00	-2.634476e+01
1.960000e-06	5.255846e-07	-3.511511e-10	3.663746e+00	-2.512918e+01
1.970000e-06	5.719422e-07	-3.369726e-10	3.986895e+00	-2.388252e+01
1.980000e-06	6.182035e-07	-3.209918e-10	4.309373e+00	-2.260640e+01
1.990000e-06	6.644688e-07	-3.031732e-10	4.631880e+00	-2.130264e+01
2.000000e-06	7.106746e-07	-2.829525e-10	4.953971e+00	-1.997324e+01
2.010000e-06	7.568174e-07	-2.598074e-10	5.275623e+00	-1.862035e+01
2.020000e-06	8.030187e-07	-2.360457e-10	5.597683e+00	-1.724629e+01
2.030000e-06	8.492187e-07	-2.145013e-10	5.919734e+00	-1.585347e+01
2.040000e-06	8.952743e-07	-1.961215e-10	6.240779e+00	-1.444444e+01
2.050000e-06	9.411753e-07	-1.803642e-10	6.560746e+00	-1.302178e+01
2.060000e-06	9.870377e-07	-1.631214e-10	6.880443e+00	-1.158816e+01
2.070000e-06	1.032954e-06	-1.434222e-10	7.200517e+00	-1.014625e+01
2.080000e-06	1.078846e-06	-1.218082e-10	7.520421e+00	-8.698723e+00
2.090000e-06	1.124586e-06	-9.957675e-11	7.839262e+00	-7.248227e+00
2.100000e-06	1.170235e-06	-7.697750e-11	8.157476e+00	-5.797359e+00
2.110000e-06	1.215807e-06	-5.541722e-11	8.475145e+00	-4.348643e+00
2.120000e-06	1.261319e-06	-3.576896e-11	8.792404e+00	-2.904506e+00
2.130000e-06	1.306814e-06	-1.826577e-11	9.109540e+00	-1.467267e+00
2.140000e-06	1.352190e-06	-1.905441e-12	9.425849e+00	-3.911166e-02
2.150000e-06	1.397279e-06	1.538050e-11	9.740155e+00	1.377915e+00
2.160000e-06	1.442240e-06	3.520713e-11	1.005357e+01	2.781922e+00
2.170000e-06	1.487214e-06	5.637572e-11	1.036708e+01	4.171180e+00
2.180000e-06	1.532064e-06	7.790208e-11	1.067971e+01	5.544124e+00
2.190000e-06	1.576742e-06	9.922780e-11	1.099116e+01	6.899359e+00
2.200000e-06	1.621309e-06	1.192316e-10	1.130182e+01	8.235656e+00
2.210000e-06	1.665753e-06	1.369382e-10	1.161164e+01	9.551950e+00
2.220000e-06	1.710079e-06	1.523389e-10	1.192062e+01	1.084733e+01
2.230000e-06	1.754335e-06	1.672326e-10	1.222912e+01	1.212105e+01
2.240000e-06	1.798503e-06	1.823473e-10	1.253700e+01	1.337247e+01
2.250000e-06	1.842582e-06	1.974035e-10	1.284427e+01	1.460110e+01
2.260000e-06	1.886543e-06	2.139369e-10	1.315072e+01	1.580657e+01
2.270000e-06	1.930393e-06	2.329324e-10	1.345638e+01	1.698858e+01
2.280000e-06	1.974195e-06	2.525364e-10	1.376172e+01	1.814695e+01
2.290000e-06	2.017977e-06	2.711311e-10	1.406691e+01	1.928153e+01
2.300000e-06	2.061713e-06	2.876782e-10	1.437179e+01	2.039226e+01
2.310000e-06	2.105391e-06	3.012262e-10	1.467626e+01	2.147909e+01
2.320000e-06	2.148939e-06	3.130941e-10	1.497982e+01	2.254202e+01
2.330000e-06	2.192333e-06	3.253462e-10	1.528232e+01	2.358105e+01
2.340000e-06	2.235645e-06	3.393157e-10	1.558424e+01	2.459620e+01
2.350000e-06	2.278845e-06	3.551820e-10	1.588537e+01	2.558745e+01
2.360000e-06	2.321797e-06	3.705945e-10	1.618479e+01	2.655481e+01
2.370000e-06	2.364353e-06	3.844275e-10	1.648143e+01	2.749826e+01
2.380000e-06	2.406479e-06	3.961658e-10	1.677508e+01	2.841774e+01
2.390000e-06	2.448296e-06	4.070096e-10	1.706658e+01	2.931320e+01
2.400000e-06	2.489910e-06	4.167696e-10	1.735666e+01	3.018454e+01
2.410000e-06	2.531282e-06	4.278106e-10	1.764506e+01	3.103166e+01
2.420000e-06	2.572306e-06	4.418219e-10	1.793104e+01	3.185444e+01
2.430000e-06	2.612978e-06	4.538563e-10	1.821455e+01	3.265276e+01
2.440000e-06	2.653433e-06	4.630862e-10	1.849655e+01	3.342649e+01
2.450000e-06	2.693691e-06	4.718947e-10	1.877718e+01	3.417550e+01
2.460000e-06	2.733824e-06	4.814133e-10	1.905694e+01	3.489969e+01
2.470000e-06	2.773880e-06	4.910860e-10	1.933616e+01	3.559897e+01
2.480000e-06	2.813793e-06	5.021351e-10	1.961439e+01	3.627331e+01
2.490000e-06	2.853556e-06	5.141467e-10	1.989157e+01	3.692269e+01
2.500000e-06	2.893168e-06	5.236833e-10	2.016770e+01	3.754716e+01
2.510000e-06	2.932649e-06	5.313571e-10	2.044292e+01	3.814682e+01
2.520000e-06	2.971927e-06	5.381593e-10	2.071671e+01	3.872185e+01
2.530000e-06	3.010973e-06	5.450843e-10	2.098889e+01	3.927247e+01
2.540000e-06	3.049839e-06	5.528438e-10	2.125982e+01	3.979901e+01
2.550000e-06	3.088386e-06	5.591259e-10	2.152852e+01	4.030186e+01
2.560000e-06	3.126655e-06	5.638460e-10	2.179529e+01	4.078148e+01
2.570000e-06	3.164815e-06	5.693262e-10	2.206129e+01	4.123843e+01
2.580000e-06	3.202855e-06	5.762004e-10	2.232646e+01	4.167332e+01
2.590000e-06	3.240682e-06	5.849498e-10	2.259015e+01	4.208685e+01
2.600000e-06	3.278296e-06	5.949716e-10	2.285235e+01	4.247977e+01
2.610000e-06	3.315714e-06	6.034688e-10	2.311318e+01	4.285291e+01
2.620000e-06	3.352852e-06	6.086756e-10	2.337207e+01	4.320712e+01
2.630000e-06	3.389684e-06	6.109234e-10	2.362881e+01	4.354332e+01
2.640000e-06	3.426237e-06	6.126873e-10	2.388362e+01	4.386243e+01
2.650000e-06	3.462591e-06	6.155500e-10	2.413703e+01	4.416542e+01
2.660000e-06	3.498742e-06	6.192424e-10	2.438903e+01	4.445324e+01
2.670000e-06	3.534729e-06	6.245450e-10	2.463989e+01	4.472684e+01
2.680000e-06	3.570657e-06	6.300151e-10	2.489034e+01	4.498718e+01
2.690000e-06	3.606478e-06	6.337630e-10	2.514004e+01	4.523517e+01
2.700000e-06	3.642147e-06	6.352943e-10	2.538868e+01	4.547168e+01
2.710000e-06	3.677635e-06	6.350199e-10	2.563606e+01	4.569756e+01
2.720000e-06	3.712815e-06	6.364012e-10	2.588129e+01	4.591359e+01
2.730000e-06	3.747544e-06	6.421145e-10	2.612339e+01	4.612048e+01
2.740000e-06	3.781760e-06	6.493007e-10	2.636190e+01	4.631890e+01
2.750000e-06	3.815568e-06	6.560045e-10	2.659757e+01	4.650944e+01
2.760000e-06	3.849002e-06	6.613644e-10	2.683062e+01	4.669261e+01
2.770000e-06	3.882036e-06	6.635893e-10	2.706090e+01	4.686885e+01
2.780000e-06	3.914750e-06	6.650305e-10	2.728894e+01	4.703855e+01
2.790000e-06	3.947129e-06	6.663641e-10	2.751465e+01	4.720200e+01
2.800000e-06	3.979246e-06	6.682900e-10	2.773853e+01	4.735946e+01
2.810000e-06	4.011160e-06	6.720690e-10	2.796100e+01	4.751111e+01
2.820000e-06	4.042830e-06	6.773191e-10	2.818176e+01	4.765708e+01
2.830000e-06	4.074276e-06	6.818621e-10	2.840097e+01	4.779745e+01
2.840000e-06	4.105451e-06	6.855621e-10	2.861828e+01	4.793228e+01
2.850000e-06	4.136379e-06	6.881600e-10	2.883387e+01	4.806158e+01
2.860000e-06	4.167056e-06	6.892512e-10	2.904772e+01	4.818536e+01
2.870000e-06	4.197410e-06	6.908649e-10	2.925931e+01	4.830360e+01
2.880000e-06	4.227466e-06	6.931959e-10	2.946882e+01	4.841629e+01
2.890000e-06	4.257260e-06	6.956006e-10	2.967651e+01	4.852343e+01
2.900000e-06	4.286821e-06	6.974565e-10	2.988258e+01	4.862501e+01
