# Temperatura_=_3.56
# Concentracion g/m^3_=_1620.0
# C_Vs_to_Am_M_A/Vsm_=_65563218390.804596
# pendiente_HvsI_1/m_=_3716.3
# ordenada_HvsI_A/m_=_1297.0
# frecuencia_Hz_=_135105.10225128374

Tiempo_(s)	Campo_(V.s)	Magnetizacion_(V.s)	Campo_(kA/m)	Magnetizacion_(A/m)
0.000000e+00	-5.543375e-06	-1.288088e-09	-3.836584e+01	-8.544062e+01
1.000000e-08	-5.543513e-06	-1.288037e-09	-3.836679e+01	-8.541048e+01
2.000000e-08	-5.543382e-06	-1.284355e-09	-3.836589e+01	-8.538096e+01
3.000000e-08	-5.542861e-06	-1.280427e-09	-3.836228e+01	-8.535232e+01
4.000000e-08	-5.541787e-06	-1.280193e-09	-3.835485e+01	-8.532484e+01
5.000000e-08	-5.540088e-06	-1.290240e-09	-3.834309e+01	-8.529877e+01
6.000000e-08	-5.537772e-06	-1.295017e-09	-3.832706e+01	-8.527430e+01
7.000000e-08	-5.534883e-06	-1.257226e-09	-3.830707e+01	-8.525162e+01
8.000000e-08	-5.531580e-06	-1.212918e-09	-3.828421e+01	-8.523085e+01
9.000000e-08	-5.527929e-06	-1.252469e-09	-3.825894e+01	-8.521206e+01
1.000000e-07	-5.523843e-06	-1.335589e-09	-3.823066e+01	-8.519527e+01
1.100000e-07	-5.519333e-06	-1.341803e-09	-3.819944e+01	-8.518043e+01
1.200000e-07	-5.514620e-06	-1.258957e-09	-3.816683e+01	-8.516743e+01
1.300000e-07	-5.509704e-06	-1.230555e-09	-3.813280e+01	-8.515611e+01
1.400000e-07	-5.504330e-06	-1.291646e-09	-3.809561e+01	-8.514621e+01
1.500000e-07	-5.498541e-06	-1.304335e-09	-3.805555e+01	-8.513744e+01
1.600000e-07	-5.492470e-06	-1.250649e-09	-3.801352e+01	-8.512942e+01
1.700000e-07	-5.485935e-06	-1.232153e-09	-3.796830e+01	-8.512172e+01
1.800000e-07	-5.478835e-06	-1.301935e-09	-3.791915e+01	-8.511386e+01
1.900000e-07	-5.471365e-06	-1.355210e-09	-3.786745e+01	-8.510530e+01
2.000000e-07	-5.463650e-06	-1.295422e-09	-3.781406e+01	-8.509548e+01
2.100000e-07	-5.455675e-06	-1.251366e-09	-3.775887e+01	-8.508378e+01
2.200000e-07	-5.447431e-06	-1.268032e-09	-3.770181e+01	-8.506958e+01
2.300000e-07	-5.438908e-06	-1.311989e-09	-3.764282e+01	-8.505224e+01
2.400000e-07	-5.429981e-06	-1.292140e-09	-3.758104e+01	-8.503113e+01
2.500000e-07	-5.420333e-06	-1.281323e-09	-3.751426e+01	-8.500561e+01
2.600000e-07	-5.410009e-06	-1.289679e-09	-3.744281e+01	-8.497508e+01
2.700000e-07	-5.399160e-06	-1.287388e-09	-3.736773e+01	-8.493897e+01
2.800000e-07	-5.387668e-06	-1.264353e-09	-3.728819e+01	-8.489677e+01
2.900000e-07	-5.375702e-06	-1.265448e-09	-3.720537e+01	-8.484799e+01
3.000000e-07	-5.363486e-06	-1.274890e-09	-3.712082e+01	-8.479224e+01
3.100000e-07	-5.350969e-06	-1.276449e-09	-3.703419e+01	-8.472919e+01
3.200000e-07	-5.337943e-06	-1.280236e-09	-3.694404e+01	-8.465859e+01
3.300000e-07	-5.324490e-06	-1.283063e-09	-3.685093e+01	-8.458028e+01
3.400000e-07	-5.310761e-06	-1.284657e-09	-3.675591e+01	-8.449421e+01
3.500000e-07	-5.296588e-06	-1.263999e-09	-3.665782e+01	-8.440039e+01
3.600000e-07	-5.281923e-06	-1.265043e-09	-3.655632e+01	-8.429894e+01
3.700000e-07	-5.266938e-06	-1.275269e-09	-3.645261e+01	-8.419009e+01
3.800000e-07	-5.251482e-06	-1.279973e-09	-3.634564e+01	-8.407414e+01
3.900000e-07	-5.235371e-06	-1.250727e-09	-3.623413e+01	-8.395148e+01
4.000000e-07	-5.218930e-06	-1.256138e-09	-3.612035e+01	-8.382260e+01
4.100000e-07	-5.202180e-06	-1.277813e-09	-3.600442e+01	-8.368802e+01
4.200000e-07	-5.184966e-06	-1.270825e-09	-3.588528e+01	-8.354836e+01
4.300000e-07	-5.167396e-06	-1.240571e-09	-3.576368e+01	-8.340427e+01
4.400000e-07	-5.149543e-06	-1.254112e-09	-3.564012e+01	-8.325646e+01
4.500000e-07	-5.131251e-06	-1.264871e-09	-3.551352e+01	-8.310564e+01
4.600000e-07	-5.112502e-06	-1.247187e-09	-3.538376e+01	-8.295254e+01
4.700000e-07	-5.093501e-06	-1.231714e-09	-3.525225e+01	-8.279791e+01
4.800000e-07	-5.074136e-06	-1.246907e-09	-3.511823e+01	-8.264245e+01
4.900000e-07	-5.054385e-06	-1.245984e-09	-3.498153e+01	-8.248687e+01
5.000000e-07	-5.034440e-06	-1.241799e-09	-3.484349e+01	-8.233180e+01
5.100000e-07	-5.014334e-06	-1.247671e-09	-3.470434e+01	-8.217785e+01
5.200000e-07	-4.993923e-06	-1.248807e-09	-3.456307e+01	-8.202554e+01
5.300000e-07	-4.973159e-06	-1.234086e-09	-3.441936e+01	-8.187534e+01
5.400000e-07	-4.952053e-06	-1.231319e-09	-3.427328e+01	-8.172761e+01
5.500000e-07	-4.930538e-06	-1.228161e-09	-3.412438e+01	-8.158265e+01
5.600000e-07	-4.908671e-06	-1.216923e-09	-3.397304e+01	-8.144064e+01
5.700000e-07	-4.886465e-06	-1.212142e-09	-3.381935e+01	-8.130169e+01
5.800000e-07	-4.863860e-06	-1.219109e-09	-3.366290e+01	-8.116580e+01
5.900000e-07	-4.840898e-06	-1.223022e-09	-3.350398e+01	-8.103286e+01
6.000000e-07	-4.817691e-06	-1.216887e-09	-3.334336e+01	-8.090268e+01
6.100000e-07	-4.794236e-06	-1.209590e-09	-3.318103e+01	-8.077498e+01
6.200000e-07	-4.770444e-06	-1.206168e-09	-3.301637e+01	-8.064941e+01
6.300000e-07	-4.746396e-06	-1.204942e-09	-3.284993e+01	-8.052553e+01
6.400000e-07	-4.722103e-06	-1.198763e-09	-3.268179e+01	-8.040283e+01
6.500000e-07	-4.697417e-06	-1.199922e-09	-3.251095e+01	-8.028076e+01
6.600000e-07	-4.672340e-06	-1.202343e-09	-3.233738e+01	-8.015874e+01
6.700000e-07	-4.646767e-06	-1.201027e-09	-3.216040e+01	-8.003612e+01
6.800000e-07	-4.620586e-06	-1.196995e-09	-3.197920e+01	-7.991227e+01
6.900000e-07	-4.593919e-06	-1.202475e-09	-3.179463e+01	-7.978654e+01
7.000000e-07	-4.566830e-06	-1.194862e-09	-3.160715e+01	-7.965829e+01
7.100000e-07	-4.539395e-06	-1.180232e-09	-3.141727e+01	-7.952690e+01
7.200000e-07	-4.511739e-06	-1.175964e-09	-3.122586e+01	-7.939178e+01
7.300000e-07	-4.483884e-06	-1.180721e-09	-3.103308e+01	-7.925240e+01
7.400000e-07	-4.455853e-06	-1.172229e-09	-3.083907e+01	-7.910825e+01
7.500000e-07	-4.427606e-06	-1.170645e-09	-3.064357e+01	-7.895891e+01
7.600000e-07	-4.399011e-06	-1.173492e-09	-3.044567e+01	-7.880401e+01
7.700000e-07	-4.370088e-06	-1.168045e-09	-3.024549e+01	-7.864326e+01
7.800000e-07	-4.340903e-06	-1.157455e-09	-3.004350e+01	-7.847643e+01
7.900000e-07	-4.311399e-06	-1.159482e-09	-2.983931e+01	-7.830338e+01
8.000000e-07	-4.281505e-06	-1.157492e-09	-2.963240e+01	-7.812405e+01
8.100000e-07	-4.251376e-06	-1.148971e-09	-2.942388e+01	-7.793845e+01
8.200000e-07	-4.220987e-06	-1.146250e-09	-2.921356e+01	-7.774664e+01
8.300000e-07	-4.190259e-06	-1.150662e-09	-2.900089e+01	-7.754877e+01
8.400000e-07	-4.159249e-06	-1.146988e-09	-2.878627e+01	-7.734504e+01
8.500000e-07	-4.127963e-06	-1.143829e-09	-2.856973e+01	-7.713571e+01
8.600000e-07	-4.096506e-06	-1.141735e-09	-2.835202e+01	-7.692106e+01
8.700000e-07	-4.064849e-06	-1.131867e-09	-2.813293e+01	-7.670143e+01
8.800000e-07	-4.032979e-06	-1.121707e-09	-2.791235e+01	-7.647715e+01
8.900000e-07	-4.000988e-06	-1.120210e-09	-2.769094e+01	-7.624860e+01
9.000000e-07	-3.968804e-06	-1.120966e-09	-2.746820e+01	-7.601614e+01
9.100000e-07	-3.936217e-06	-1.118122e-09	-2.724266e+01	-7.578012e+01
9.200000e-07	-3.903176e-06	-1.118520e-09	-2.701398e+01	-7.554088e+01
9.300000e-07	-3.869673e-06	-1.116298e-09	-2.678211e+01	-7.529874e+01
9.400000e-07	-3.835649e-06	-1.109682e-09	-2.654663e+01	-7.505397e+01
9.500000e-07	-3.801166e-06	-1.102925e-09	-2.630797e+01	-7.480682e+01
9.600000e-07	-3.766342e-06	-1.096362e-09	-2.606695e+01	-7.455747e+01
9.700000e-07	-3.731178e-06	-1.085125e-09	-2.582358e+01	-7.430606e+01
9.800000e-07	-3.695715e-06	-1.082327e-09	-2.557814e+01	-7.405269e+01
9.900000e-07	-3.660083e-06	-1.085084e-09	-2.533153e+01	-7.379739e+01
1.000000e-06	-3.624353e-06	-1.086193e-09	-2.508424e+01	-7.354014e+01
1.010000e-06	-3.588507e-06	-1.082591e-09	-2.483615e+01	-7.328086e+01
1.020000e-06	-3.552464e-06	-1.082218e-09	-2.458669e+01	-7.301943e+01
1.030000e-06	-3.516206e-06	-1.077909e-09	-2.433575e+01	-7.275567e+01
1.040000e-06	-3.479690e-06	-1.069472e-09	-2.408302e+01	-7.248939e+01
1.050000e-06	-3.442885e-06	-1.060544e-09	-2.382829e+01	-7.222034e+01
1.060000e-06	-3.405883e-06	-1.052011e-09	-2.357221e+01	-7.194824e+01
1.070000e-06	-3.368602e-06	-1.044058e-09	-2.331418e+01	-7.167281e+01
1.080000e-06	-3.331012e-06	-1.044864e-09	-2.305402e+01	-7.139375e+01
1.090000e-06	-3.293198e-06	-1.048012e-09	-2.279231e+01	-7.111075e+01
1.100000e-06	-3.255163e-06	-1.046101e-09	-2.252907e+01	-7.082352e+01
1.110000e-06	-3.216893e-06	-1.041087e-09	-2.226420e+01	-7.053177e+01
1.120000e-06	-3.178399e-06	-1.035557e-09	-2.199778e+01	-7.023524e+01
1.130000e-06	-3.139687e-06	-1.025303e-09	-2.172986e+01	-6.993371e+01
1.140000e-06	-3.100690e-06	-1.014706e-09	-2.145996e+01	-6.962697e+01
1.150000e-06	-3.061482e-06	-1.007323e-09	-2.118860e+01	-6.931486e+01
1.160000e-06	-3.022212e-06	-1.002487e-09	-2.091681e+01	-6.899726e+01
1.170000e-06	-2.982833e-06	-9.987912e-10	-2.064426e+01	-6.867411e+01
1.180000e-06	-2.943250e-06	-9.987358e-10	-2.037031e+01	-6.834537e+01
1.190000e-06	-2.903544e-06	-9.986333e-10	-2.009551e+01	-6.801108e+01
1.200000e-06	-2.863761e-06	-9.914382e-10	-1.982016e+01	-6.767130e+01
1.210000e-06	-2.823854e-06	-9.832679e-10	-1.954397e+01	-6.732613e+01
1.220000e-06	-2.783774e-06	-9.770003e-10	-1.926657e+01	-6.697574e+01
1.230000e-06	-2.743504e-06	-9.716628e-10	-1.898786e+01	-6.662029e+01
1.240000e-06	-2.703025e-06	-9.661479e-10	-1.870770e+01	-6.626001e+01
1.250000e-06	-2.662302e-06	-9.635844e-10	-1.842586e+01	-6.589511e+01
1.260000e-06	-2.621237e-06	-9.590671e-10	-1.814165e+01	-6.552585e+01
1.270000e-06	-2.579798e-06	-9.532142e-10	-1.785485e+01	-6.515248e+01
1.280000e-06	-2.538168e-06	-9.491202e-10	-1.756672e+01	-6.477523e+01
1.290000e-06	-2.496287e-06	-9.439652e-10	-1.727687e+01	-6.439435e+01
1.300000e-06	-2.453968e-06	-9.340533e-10	-1.698397e+01	-6.401005e+01
1.310000e-06	-2.411280e-06	-9.253854e-10	-1.668853e+01	-6.362252e+01
1.320000e-06	-2.368311e-06	-9.193587e-10	-1.639114e+01	-6.323190e+01
1.330000e-06	-2.325161e-06	-9.126508e-10	-1.609250e+01	-6.283830e+01
1.340000e-06	-2.281860e-06	-9.039640e-10	-1.579281e+01	-6.244179e+01
1.350000e-06	-2.238378e-06	-8.971824e-10	-1.549187e+01	-6.204236e+01
1.360000e-06	-2.194748e-06	-8.890987e-10	-1.518991e+01	-6.163998e+01
1.370000e-06	-2.151004e-06	-8.797423e-10	-1.488716e+01	-6.123452e+01
1.380000e-06	-2.107238e-06	-8.712767e-10	-1.458425e+01	-6.082580e+01
1.390000e-06	-2.063406e-06	-8.644987e-10	-1.428088e+01	-6.041360e+01
1.400000e-06	-2.019544e-06	-8.579215e-10	-1.397732e+01	-5.999761e+01
1.410000e-06	-1.975682e-06	-8.535932e-10	-1.367374e+01	-5.957746e+01
1.420000e-06	-1.931683e-06	-8.504520e-10	-1.336923e+01	-5.915274e+01
1.430000e-06	-1.887559e-06	-8.455292e-10	-1.306384e+01	-5.872296e+01
1.440000e-06	-1.843308e-06	-8.400496e-10	-1.275758e+01	-5.828759e+01
1.450000e-06	-1.798883e-06	-8.331443e-10	-1.245011e+01	-5.784607e+01
1.460000e-06	-1.754253e-06	-8.230781e-10	-1.214123e+01	-5.739776e+01
1.470000e-06	-1.709449e-06	-8.123760e-10	-1.183114e+01	-5.694202e+01
1.480000e-06	-1.664565e-06	-8.048824e-10	-1.152050e+01	-5.647817e+01
1.490000e-06	-1.619633e-06	-7.973405e-10	-1.120952e+01	-5.600550e+01
1.500000e-06	-1.574595e-06	-7.899825e-10	-1.089781e+01	-5.552328e+01
1.510000e-06	-1.529393e-06	-7.854162e-10	-1.058497e+01	-5.503079e+01
1.520000e-06	-1.484034e-06	-7.808133e-10	-1.027104e+01	-5.452726e+01
1.530000e-06	-1.438599e-06	-7.735017e-10	-9.956579e+00	-5.401196e+01
1.540000e-06	-1.393090e-06	-7.628692e-10	-9.641614e+00	-5.348414e+01
1.550000e-06	-1.347415e-06	-7.503823e-10	-9.325494e+00	-5.294305e+01
1.560000e-06	-1.301669e-06	-7.386212e-10	-9.008887e+00	-5.238794e+01
1.570000e-06	-1.255934e-06	-7.275520e-10	-8.692348e+00	-5.181809e+01
1.580000e-06	-1.210141e-06	-7.194942e-10	-8.375415e+00	-5.123276e+01
1.590000e-06	-1.164294e-06	-7.157262e-10	-8.058111e+00	-5.063123e+01
1.600000e-06	-1.118314e-06	-7.108267e-10	-7.739879e+00	-5.001278e+01
1.610000e-06	-1.072149e-06	-7.025480e-10	-7.420368e+00	-4.937670e+01
1.620000e-06	-1.025953e-06	-6.935870e-10	-7.100648e+00	-4.872227e+01
1.630000e-06	-9.797215e-07	-6.822578e-10	-6.780678e+00	-4.804877e+01
1.640000e-06	-9.333374e-07	-6.701214e-10	-6.459652e+00	-4.735548e+01
1.650000e-06	-8.868887e-07	-6.566081e-10	-6.138180e+00	-4.664168e+01
1.660000e-06	-8.404304e-07	-6.419655e-10	-5.816640e+00	-4.590663e+01
1.670000e-06	-7.939033e-07	-6.280744e-10	-5.494625e+00	-4.514957e+01
1.680000e-06	-7.473033e-07	-6.161181e-10	-5.172106e+00	-4.436975e+01
1.690000e-06	-7.006184e-07	-6.041464e-10	-4.848998e+00	-4.356639e+01
1.700000e-06	-6.539682e-07	-5.905442e-10	-4.526130e+00	-4.273869e+01
1.710000e-06	-6.073419e-07	-5.780270e-10	-4.203429e+00	-4.188584e+01
1.720000e-06	-5.606089e-07	-5.670936e-10	-3.879989e+00	-4.100704e+01
1.730000e-06	-5.137976e-07	-5.537241e-10	-3.556006e+00	-4.010146e+01
1.740000e-06	-4.669433e-07	-5.382034e-10	-3.231727e+00	-3.916827e+01
1.750000e-06	-4.200670e-07	-5.208163e-10	-2.907295e+00	-3.820664e+01
1.760000e-06	-3.732291e-07	-5.028790e-10	-2.583128e+00	-3.721576e+01
1.770000e-06	-3.263701e-07	-4.861931e-10	-2.258816e+00	-3.619483e+01
1.780000e-06	-2.793695e-07	-4.707985e-10	-1.933524e+00	-3.514308e+01
1.790000e-06	-2.323591e-07	-4.589955e-10	-1.608163e+00	-3.405978e+01
1.800000e-06	-1.853394e-07	-4.469303e-10	-1.282738e+00	-3.294426e+01
1.810000e-06	-1.382826e-07	-4.301904e-10	-9.570577e-01	-3.179589e+01
1.820000e-06	-9.125865e-08	-4.116284e-10	-6.316034e-01	-3.061415e+01
1.830000e-06	-4.421700e-08	-3.939691e-10	-3.060270e-01	-2.939857e+01
1.840000e-06	2.828944e-09	-3.764679e-10	1.957919e-02	-2.814883e+01
1.850000e-06	4.989654e-08	-3.578067e-10	3.453352e-01	-2.686469e+01
1.860000e-06	9.691423e-08	-3.364137e-10	6.707459e-01	-2.554606e+01
1.870000e-06	1.438743e-07	-3.142750e-10	9.957580e-01	-2.419298e+01
1.880000e-06	1.908123e-07	-2.945170e-10	1.320617e+00	-2.280567e+01
1.890000e-06	2.377858e-07	-2.780011e-10	1.645722e+00	-2.138447e+01
1.900000e-06	2.847210e-07	-2.611295e-10	1.970561e+00	-1.992994e+01
1.910000e-06	3.315977e-07	-2.423914e-10	2.294996e+00	-1.844279e+01
1.920000e-06	3.785339e-07	-2.223932e-10	2.619843e+00	-1.692393e+01
1.930000e-06	4.253841e-07	-1.983250e-10	2.944094e+00	-1.537444e+01
1.940000e-06	4.722125e-07	-1.712288e-10	3.268195e+00	-1.379560e+01
1.950000e-06	5.191007e-07	-1.447893e-10	3.592709e+00	-1.218888e+01
1.960000e-06	5.659719e-07	-1.221718e-10	3.917106e+00	-1.055593e+01
1.970000e-06	6.128059e-07	-1.025130e-10	4.241245e+00	-8.898556e+00
1.980000e-06	6.594820e-07	-8.379763e-11	4.564292e+00	-7.218759e+00
1.990000e-06	7.060242e-07	-6.247123e-11	4.886412e+00	-5.518681e+00
2.000000e-06	7.525533e-07	-3.658719e-11	5.208440e+00	-3.800606e+00
2.010000e-06	7.990965e-07	-7.906275e-12	5.530567e+00	-2.066948e+00
2.020000e-06	8.455808e-07	1.999534e-11	5.852287e+00	-3.202297e-01
2.030000e-06	8.919784e-07	4.478839e-11	6.173405e+00	1.436936e+00
2.040000e-06	9.382799e-07	6.592891e-11	6.493859e+00	3.201865e+00
2.050000e-06	9.845830e-07	8.893000e-11	6.814324e+00	4.971821e+00
2.060000e-06	1.030852e-06	1.132074e-10	7.134556e+00	6.744041e+00
2.070000e-06	1.076920e-06	1.352098e-10	7.453390e+00	8.515755e+00
2.080000e-06	1.122915e-06	1.601933e-10	7.771726e+00	1.028421e+01
2.090000e-06	1.168829e-06	1.856975e-10	8.089494e+00	1.204668e+01
2.100000e-06	1.214650e-06	2.100314e-10	8.406626e+00	1.380052e+01
2.110000e-06	1.260390e-06	2.326186e-10	8.723194e+00	1.554314e+01
2.120000e-06	1.306045e-06	2.555172e-10	9.039172e+00	1.727207e+01
2.130000e-06	1.351660e-06	2.778502e-10	9.354874e+00	1.898492e+01
2.140000e-06	1.397173e-06	2.993142e-10	9.669870e+00	2.067948e+01
2.150000e-06	1.442598e-06	3.223605e-10	9.984259e+00	2.235364e+01
2.160000e-06	1.487988e-06	3.463775e-10	1.029840e+01	2.400548e+01
2.170000e-06	1.533299e-06	3.696216e-10	1.061200e+01	2.563324e+01
2.180000e-06	1.578461e-06	3.929171e-10	1.092457e+01	2.723531e+01
2.190000e-06	1.623478e-06	4.160186e-10	1.123613e+01	2.881030e+01
2.200000e-06	1.668377e-06	4.393345e-10	1.154688e+01	3.035697e+01
2.210000e-06	1.713111e-06	4.583968e-10	1.185649e+01	3.187428e+01
2.220000e-06	1.757611e-06	4.753152e-10	1.216447e+01	3.336136e+01
2.230000e-06	1.801935e-06	4.934775e-10	1.247124e+01	3.481754e+01
2.240000e-06	1.846183e-06	5.121567e-10	1.277748e+01	3.624230e+01
2.250000e-06	1.890403e-06	5.312380e-10	1.308353e+01	3.763529e+01
2.260000e-06	1.934555e-06	5.506243e-10	1.338910e+01	3.899632e+01
2.270000e-06	1.978561e-06	5.711268e-10	1.369367e+01	4.032534e+01
2.280000e-06	2.022456e-06	5.914873e-10	1.399747e+01	4.162243e+01
2.290000e-06	2.066281e-06	6.113059e-10	1.430078e+01	4.288782e+01
2.300000e-06	2.110075e-06	6.278030e-10	1.460388e+01	4.412180e+01
2.310000e-06	2.153809e-06	6.416478e-10	1.490657e+01	4.532479e+01
2.320000e-06	2.197416e-06	6.554278e-10	1.520837e+01	4.649728e+01
2.330000e-06	2.240885e-06	6.684766e-10	1.550922e+01	4.763984e+01
2.340000e-06	2.284297e-06	6.824715e-10	1.580968e+01	4.875306e+01
2.350000e-06	2.327652e-06	7.008048e-10	1.610974e+01	4.983761e+01
2.360000e-06	2.370797e-06	7.191021e-10	1.640835e+01	5.089417e+01
2.370000e-06	2.413665e-06	7.338916e-10	1.670504e+01	5.192344e+01
2.380000e-06	2.456259e-06	7.460398e-10	1.699983e+01	5.292614e+01
2.390000e-06	2.498551e-06	7.572276e-10	1.729254e+01	5.390298e+01
2.400000e-06	2.540487e-06	7.668065e-10	1.758277e+01	5.485467e+01
2.410000e-06	2.582060e-06	7.782604e-10	1.787050e+01	5.578188e+01
2.420000e-06	2.623267e-06	7.913758e-10	1.815570e+01	5.668531e+01
2.430000e-06	2.664156e-06	8.058658e-10	1.843869e+01	5.756558e+01
2.440000e-06	2.704812e-06	8.206477e-10	1.872007e+01	5.842332e+01
2.450000e-06	2.745217e-06	8.340888e-10	1.899971e+01	5.925913e+01
2.460000e-06	2.785453e-06	8.462919e-10	1.927819e+01	6.007356e+01
2.470000e-06	2.825559e-06	8.573006e-10	1.955577e+01	6.086715e+01
2.480000e-06	2.865496e-06	8.662521e-10	1.983217e+01	6.164038e+01
2.490000e-06	2.905336e-06	8.752952e-10	2.010790e+01	6.239375e+01
2.500000e-06	2.945113e-06	8.856530e-10	2.038320e+01	6.312769e+01
2.510000e-06	2.984709e-06	8.960460e-10	2.065725e+01	6.384263e+01
2.520000e-06	3.024004e-06	9.071816e-10	2.092921e+01	6.453897e+01
2.530000e-06	3.063175e-06	9.203484e-10	2.120031e+01	6.521710e+01
2.540000e-06	3.102270e-06	9.318978e-10	2.147089e+01	6.587737e+01
2.550000e-06	3.141092e-06	9.407058e-10	2.173958e+01	6.652015e+01
2.560000e-06	3.179589e-06	9.493246e-10	2.200602e+01	6.714578e+01
2.570000e-06	3.217916e-06	9.565127e-10	2.227128e+01	6.775459e+01
2.580000e-06	3.256020e-06	9.626890e-10	2.253500e+01	6.834691e+01
2.590000e-06	3.293835e-06	9.699209e-10	2.279672e+01	6.892306e+01
2.600000e-06	3.331436e-06	9.789270e-10	2.305695e+01	6.948338e+01
2.610000e-06	3.368858e-06	9.870743e-10	2.331595e+01	7.002817e+01
2.620000e-06	3.406133e-06	9.944158e-10	2.357393e+01	7.055775e+01
2.630000e-06	3.443177e-06	1.000502e-09	2.383032e+01	7.107245e+01
2.640000e-06	3.479897e-06	1.005787e-09	2.408445e+01	7.157256e+01
2.650000e-06	3.516288e-06	1.011823e-09	2.433632e+01	7.205841e+01
2.660000e-06	3.552474e-06	1.019495e-09	2.458676e+01	7.253031e+01
2.670000e-06	3.588526e-06	1.027140e-09	2.483628e+01	7.298856e+01
2.680000e-06	3.624421e-06	1.035100e-09	2.508471e+01	7.343347e+01
2.690000e-06	3.660149e-06	1.043572e-09	2.533199e+01	7.386534e+01
2.700000e-06	3.695740e-06	1.049965e-09	2.557831e+01	7.428447e+01
2.710000e-06	3.731134e-06	1.054877e-09	2.582327e+01	7.469114e+01
2.720000e-06	3.766312e-06	1.060753e-09	2.606674e+01	7.508565e+01
2.730000e-06	3.801210e-06	1.067541e-09	2.630827e+01	7.546826e+01
2.740000e-06	3.835708e-06	1.075166e-09	2.654703e+01	7.583924e+01
2.750000e-06	3.869803e-06	1.082947e-09	2.678301e+01	7.619887e+01
2.760000e-06	3.903384e-06	1.089393e-09	2.701542e+01	7.654740e+01
2.770000e-06	3.936434e-06	1.094065e-09	2.724416e+01	7.688509e+01
2.780000e-06	3.969067e-06	1.099728e-09	2.747001e+01	7.721217e+01
2.790000e-06	4.001364e-06	1.104993e-09	2.769354e+01	7.752891e+01
2.800000e-06	4.033448e-06	1.108929e-09	2.791560e+01	7.783553e+01
2.810000e-06	4.065372e-06	1.112769e-09	2.813654e+01	7.813227e+01
2.820000e-06	4.097123e-06	1.118790e-09	2.835629e+01	7.841939e+01
2.830000e-06	4.128637e-06	1.126064e-09	2.857440e+01	7.869712e+01
2.840000e-06	4.159931e-06	1.130750e-09	2.879099e+01	7.896571e+01
2.850000e-06	4.190992e-06	1.135176e-09	2.900596e+01	7.922540e+01
2.860000e-06	4.221733e-06	1.141240e-09	2.921872e+01	7.947645e+01
2.870000e-06	4.252092e-06	1.147320e-09	2.942884e+01	7.971912e+01
2.880000e-06	4.282133e-06	1.152108e-09	2.963675e+01	7.995368e+01
2.890000e-06	4.311974e-06	1.157824e-09	2.984328e+01	8.018041e+01
2.900000e-06	4.341527e-06	1.163992e-09	3.004782e+01	8.039959e+01
