# Temperatura_=_-8.45
# Concentracion g/m^3_=_1620.0
# C_Vs_to_Am_M_A/Vsm_=_65563218390.804596
# pendiente_HvsI_1/m_=_3716.3
# ordenada_HvsI_A/m_=_1297.0
# frecuencia_Hz_=_135108.3097376975

Tiempo_(s)	Campo_(V.s)	Magnetizacion_(V.s)	Campo_(kA/m)	Magnetizacion_(A/m)
0.000000e+00	-5.509921e-06	-1.025354e-09	-3.836447e+01	-6.892711e+01
1.000000e-08	-5.509931e-06	-1.023542e-09	-3.836454e+01	-6.892334e+01
2.000000e-08	-5.509777e-06	-1.022979e-09	-3.836346e+01	-6.892025e+01
3.000000e-08	-5.509369e-06	-1.022629e-09	-3.836063e+01	-6.891715e+01
4.000000e-08	-5.508536e-06	-1.022524e-09	-3.835482e+01	-6.891331e+01
5.000000e-08	-5.507089e-06	-1.020308e-09	-3.834475e+01	-6.890801e+01
6.000000e-08	-5.505059e-06	-1.021806e-09	-3.833061e+01	-6.890051e+01
7.000000e-08	-5.502485e-06	-1.033069e-09	-3.831269e+01	-6.889009e+01
8.000000e-08	-5.499294e-06	-1.040762e-09	-3.829047e+01	-6.887605e+01
9.000000e-08	-5.495619e-06	-1.018014e-09	-3.826489e+01	-6.885770e+01
1.000000e-07	-5.491534e-06	-9.696765e-10	-3.823644e+01	-6.883441e+01
1.100000e-07	-5.487203e-06	-9.669271e-10	-3.820629e+01	-6.880562e+01
1.200000e-07	-5.482739e-06	-1.000408e-09	-3.817521e+01	-6.877081e+01
1.300000e-07	-5.477924e-06	-1.031399e-09	-3.814168e+01	-6.872953e+01
1.400000e-07	-5.472609e-06	-1.022327e-09	-3.810467e+01	-6.868143e+01
1.500000e-07	-5.466894e-06	-9.914317e-10	-3.806488e+01	-6.862621e+01
1.600000e-07	-5.460886e-06	-1.005970e-09	-3.802305e+01	-6.856369e+01
1.700000e-07	-5.454481e-06	-1.012652e-09	-3.797845e+01	-6.849377e+01
1.800000e-07	-5.447608e-06	-9.945942e-10	-3.793060e+01	-6.841642e+01
1.900000e-07	-5.440441e-06	-1.010854e-09	-3.788069e+01	-6.833175e+01
2.000000e-07	-5.433028e-06	-1.028659e-09	-3.782908e+01	-6.823990e+01
2.100000e-07	-5.425306e-06	-1.044162e-09	-3.777531e+01	-6.814114e+01
2.200000e-07	-5.417282e-06	-1.013924e-09	-3.771944e+01	-6.803580e+01
2.300000e-07	-5.408953e-06	-1.002810e-09	-3.766145e+01	-6.792428e+01
2.400000e-07	-5.400264e-06	-9.924038e-10	-3.760095e+01	-6.780707e+01
2.500000e-07	-5.390906e-06	-1.001448e-09	-3.753579e+01	-6.768467e+01
2.600000e-07	-5.380746e-06	-9.910960e-10	-3.746505e+01	-6.755769e+01
2.700000e-07	-5.370083e-06	-9.785232e-10	-3.739080e+01	-6.742672e+01
2.800000e-07	-5.358994e-06	-9.692470e-10	-3.731360e+01	-6.729241e+01
2.900000e-07	-5.347456e-06	-9.767164e-10	-3.723326e+01	-6.715542e+01
3.000000e-07	-5.335500e-06	-9.653527e-10	-3.715001e+01	-6.701641e+01
3.100000e-07	-5.323125e-06	-9.508575e-10	-3.706385e+01	-6.687604e+01
3.200000e-07	-5.310303e-06	-9.719102e-10	-3.697457e+01	-6.673495e+01
3.300000e-07	-5.297059e-06	-9.840447e-10	-3.688235e+01	-6.659376e+01
3.400000e-07	-5.283479e-06	-9.741113e-10	-3.678780e+01	-6.645306e+01
3.500000e-07	-5.269554e-06	-9.601774e-10	-3.669084e+01	-6.631337e+01
3.600000e-07	-5.255266e-06	-9.894600e-10	-3.659136e+01	-6.617520e+01
3.700000e-07	-5.240564e-06	-9.749248e-10	-3.648899e+01	-6.603899e+01
3.800000e-07	-5.225286e-06	-9.564986e-10	-3.638261e+01	-6.590510e+01
3.900000e-07	-5.209295e-06	-9.641667e-10	-3.627127e+01	-6.577386e+01
4.000000e-07	-5.192867e-06	-9.870222e-10	-3.615689e+01	-6.564552e+01
4.100000e-07	-5.176225e-06	-9.596303e-10	-3.604101e+01	-6.552025e+01
4.200000e-07	-5.159187e-06	-9.610484e-10	-3.592238e+01	-6.539819e+01
4.300000e-07	-5.141766e-06	-9.855570e-10	-3.580108e+01	-6.527938e+01
4.400000e-07	-5.124072e-06	-9.780879e-10	-3.567788e+01	-6.516383e+01
4.500000e-07	-5.106059e-06	-9.431812e-10	-3.555246e+01	-6.505147e+01
4.600000e-07	-5.087572e-06	-9.578092e-10	-3.542374e+01	-6.494219e+01
4.700000e-07	-5.068671e-06	-9.607788e-10	-3.529214e+01	-6.483584e+01
4.800000e-07	-5.049468e-06	-9.402609e-10	-3.515842e+01	-6.473223e+01
4.900000e-07	-5.029897e-06	-9.394961e-10	-3.502216e+01	-6.463112e+01
5.000000e-07	-5.010086e-06	-9.572774e-10	-3.488422e+01	-6.453227e+01
5.100000e-07	-4.990085e-06	-9.449746e-10	-3.474496e+01	-6.443540e+01
5.200000e-07	-4.969778e-06	-9.465577e-10	-3.460356e+01	-6.434024e+01
5.300000e-07	-4.949119e-06	-9.628215e-10	-3.445972e+01	-6.424650e+01
5.400000e-07	-4.928136e-06	-9.504176e-10	-3.431362e+01	-6.415391e+01
5.500000e-07	-4.906766e-06	-9.313169e-10	-3.416482e+01	-6.406219e+01
5.600000e-07	-4.885047e-06	-9.460632e-10	-3.401360e+01	-6.397109e+01
5.700000e-07	-4.863067e-06	-9.489721e-10	-3.386056e+01	-6.388037e+01
5.800000e-07	-4.840762e-06	-9.298375e-10	-3.370525e+01	-6.378983e+01
5.900000e-07	-4.818126e-06	-9.308910e-10	-3.354764e+01	-6.369928e+01
6.000000e-07	-4.795160e-06	-9.335976e-10	-3.338773e+01	-6.360856e+01
6.100000e-07	-4.771822e-06	-9.248544e-10	-3.322524e+01	-6.351756e+01
6.200000e-07	-4.748249e-06	-9.255222e-10	-3.306110e+01	-6.342618e+01
6.300000e-07	-4.724495e-06	-9.346154e-10	-3.289571e+01	-6.333434e+01
6.400000e-07	-4.700499e-06	-9.263803e-10	-3.272863e+01	-6.324203e+01
6.500000e-07	-4.676257e-06	-9.216334e-10	-3.255984e+01	-6.314923e+01
6.600000e-07	-4.651544e-06	-9.181655e-10	-3.238776e+01	-6.305595e+01
6.700000e-07	-4.626303e-06	-9.159511e-10	-3.221201e+01	-6.296222e+01
6.800000e-07	-4.600575e-06	-9.133017e-10	-3.203288e+01	-6.286809e+01
6.900000e-07	-4.574287e-06	-9.170858e-10	-3.184984e+01	-6.277361e+01
7.000000e-07	-4.547525e-06	-9.128792e-10	-3.166350e+01	-6.267885e+01
7.100000e-07	-4.520362e-06	-9.159327e-10	-3.147437e+01	-6.258387e+01
7.200000e-07	-4.492871e-06	-9.135186e-10	-3.128295e+01	-6.248872e+01
7.300000e-07	-4.465119e-06	-9.060887e-10	-3.108972e+01	-6.239344e+01
7.400000e-07	-4.437140e-06	-8.977513e-10	-3.089491e+01	-6.229806e+01
7.500000e-07	-4.409001e-06	-8.994623e-10	-3.069899e+01	-6.220259e+01
7.600000e-07	-4.380662e-06	-8.953554e-10	-3.050166e+01	-6.210702e+01
7.700000e-07	-4.351978e-06	-8.938531e-10	-3.030195e+01	-6.201130e+01
7.800000e-07	-4.322937e-06	-8.927927e-10	-3.009974e+01	-6.191537e+01
7.900000e-07	-4.293583e-06	-8.905012e-10	-2.989535e+01	-6.181913e+01
8.000000e-07	-4.263901e-06	-8.831642e-10	-2.968868e+01	-6.172244e+01
8.100000e-07	-4.233943e-06	-8.810503e-10	-2.948009e+01	-6.162515e+01
8.200000e-07	-4.203782e-06	-8.822469e-10	-2.927009e+01	-6.152705e+01
8.300000e-07	-4.173406e-06	-8.837988e-10	-2.905859e+01	-6.142794e+01
8.400000e-07	-4.142675e-06	-8.819945e-10	-2.884461e+01	-6.132756e+01
8.500000e-07	-4.111578e-06	-8.811126e-10	-2.862809e+01	-6.122565e+01
8.600000e-07	-4.080103e-06	-8.823947e-10	-2.840894e+01	-6.112190e+01
8.700000e-07	-4.048388e-06	-8.799591e-10	-2.818811e+01	-6.101603e+01
8.800000e-07	-4.016578e-06	-8.764457e-10	-2.796662e+01	-6.090771e+01
8.900000e-07	-3.984588e-06	-8.725558e-10	-2.774389e+01	-6.079663e+01
9.000000e-07	-3.952390e-06	-8.663743e-10	-2.751969e+01	-6.068248e+01
9.100000e-07	-3.920013e-06	-8.606140e-10	-2.729426e+01	-6.056493e+01
9.200000e-07	-3.887415e-06	-8.623580e-10	-2.706729e+01	-6.044370e+01
9.300000e-07	-3.854459e-06	-8.615111e-10	-2.683782e+01	-6.031850e+01
9.400000e-07	-3.821080e-06	-8.577165e-10	-2.660541e+01	-6.018908e+01
9.500000e-07	-3.787272e-06	-8.526925e-10	-2.637001e+01	-6.005521e+01
9.600000e-07	-3.752941e-06	-8.481411e-10	-2.613097e+01	-5.991670e+01
9.700000e-07	-3.718020e-06	-8.388556e-10	-2.588782e+01	-5.977338e+01
9.800000e-07	-3.682770e-06	-8.347826e-10	-2.564238e+01	-5.962513e+01
9.900000e-07	-3.647395e-06	-8.326667e-10	-2.539608e+01	-5.947189e+01
1.000000e-06	-3.611819e-06	-8.309310e-10	-2.514837e+01	-5.931361e+01
1.010000e-06	-3.576012e-06	-8.289578e-10	-2.489905e+01	-5.915030e+01
1.020000e-06	-3.540058e-06	-8.321099e-10	-2.464871e+01	-5.898202e+01
1.030000e-06	-3.504007e-06	-8.323727e-10	-2.439769e+01	-5.880887e+01
1.040000e-06	-3.467749e-06	-8.304888e-10	-2.414524e+01	-5.863098e+01
1.050000e-06	-3.431236e-06	-8.249708e-10	-2.389101e+01	-5.844853e+01
1.060000e-06	-3.394474e-06	-8.190760e-10	-2.363504e+01	-5.826174e+01
1.070000e-06	-3.357422e-06	-8.129049e-10	-2.337705e+01	-5.807084e+01
1.080000e-06	-3.320161e-06	-8.117708e-10	-2.311761e+01	-5.787611e+01
1.090000e-06	-3.282651e-06	-8.123926e-10	-2.285644e+01	-5.767784e+01
1.100000e-06	-3.244906e-06	-8.097243e-10	-2.259363e+01	-5.747634e+01
1.110000e-06	-3.206935e-06	-8.049091e-10	-2.232924e+01	-5.727191e+01
1.120000e-06	-3.168776e-06	-8.037062e-10	-2.206355e+01	-5.706489e+01
1.130000e-06	-3.130393e-06	-8.024489e-10	-2.179630e+01	-5.685559e+01
1.140000e-06	-3.091762e-06	-7.993736e-10	-2.152732e+01	-5.664431e+01
1.150000e-06	-3.052965e-06	-7.962062e-10	-2.125718e+01	-5.643136e+01
1.160000e-06	-3.013979e-06	-7.926568e-10	-2.098573e+01	-5.621700e+01
1.170000e-06	-2.974812e-06	-7.873577e-10	-2.071301e+01	-5.600148e+01
1.180000e-06	-2.935409e-06	-7.829736e-10	-2.043866e+01	-5.578503e+01
1.190000e-06	-2.895820e-06	-7.823077e-10	-2.016301e+01	-5.556782e+01
1.200000e-06	-2.856085e-06	-7.781415e-10	-1.988634e+01	-5.535000e+01
1.210000e-06	-2.816208e-06	-7.742881e-10	-1.960869e+01	-5.513167e+01
1.220000e-06	-2.776211e-06	-7.724143e-10	-1.933020e+01	-5.491290e+01
1.230000e-06	-2.736070e-06	-7.712584e-10	-1.905070e+01	-5.469370e+01
1.240000e-06	-2.695775e-06	-7.683111e-10	-1.877013e+01	-5.447404e+01
1.250000e-06	-2.655279e-06	-7.672915e-10	-1.848817e+01	-5.425384e+01
1.260000e-06	-2.614602e-06	-7.661956e-10	-1.820495e+01	-5.403300e+01
1.270000e-06	-2.573748e-06	-7.638540e-10	-1.792049e+01	-5.381134e+01
1.280000e-06	-2.532697e-06	-7.585862e-10	-1.763466e+01	-5.358868e+01
1.290000e-06	-2.491442e-06	-7.551918e-10	-1.734741e+01	-5.336476e+01
1.300000e-06	-2.449936e-06	-7.519595e-10	-1.705841e+01	-5.313932e+01
1.310000e-06	-2.408041e-06	-7.489135e-10	-1.676670e+01	-5.291206e+01
1.320000e-06	-2.365709e-06	-7.474073e-10	-1.647195e+01	-5.268264e+01
1.330000e-06	-2.323070e-06	-7.469026e-10	-1.617507e+01	-5.245072e+01
1.340000e-06	-2.280139e-06	-7.450430e-10	-1.587615e+01	-5.221592e+01
1.350000e-06	-2.236986e-06	-7.427973e-10	-1.557568e+01	-5.197787e+01
1.360000e-06	-2.193642e-06	-7.386671e-10	-1.527389e+01	-5.173618e+01
1.370000e-06	-2.150097e-06	-7.335415e-10	-1.497069e+01	-5.149044e+01
1.380000e-06	-2.106416e-06	-7.269203e-10	-1.466655e+01	-5.124026e+01
1.390000e-06	-2.062607e-06	-7.206848e-10	-1.436152e+01	-5.098525e+01
1.400000e-06	-2.018728e-06	-7.147580e-10	-1.405599e+01	-5.072500e+01
1.410000e-06	-1.974792e-06	-7.098899e-10	-1.375008e+01	-5.045915e+01
1.420000e-06	-1.930749e-06	-7.089856e-10	-1.344342e+01	-5.018730e+01
1.430000e-06	-1.886634e-06	-7.082960e-10	-1.313625e+01	-4.990911e+01
1.440000e-06	-1.842480e-06	-7.055629e-10	-1.282882e+01	-4.962420e+01
1.450000e-06	-1.798274e-06	-7.010558e-10	-1.252102e+01	-4.933224e+01
1.460000e-06	-1.753947e-06	-6.938765e-10	-1.221238e+01	-4.903288e+01
1.470000e-06	-1.709489e-06	-6.834846e-10	-1.190283e+01	-4.872579e+01
1.480000e-06	-1.664921e-06	-6.746182e-10	-1.159251e+01	-4.841065e+01
1.490000e-06	-1.620200e-06	-6.693708e-10	-1.128112e+01	-4.808713e+01
1.500000e-06	-1.575329e-06	-6.667410e-10	-1.096870e+01	-4.775490e+01
1.510000e-06	-1.530284e-06	-6.637945e-10	-1.065506e+01	-4.741362e+01
1.520000e-06	-1.485125e-06	-6.618774e-10	-1.034062e+01	-4.706295e+01
1.530000e-06	-1.439967e-06	-6.579444e-10	-1.002620e+01	-4.670252e+01
1.540000e-06	-1.394696e-06	-6.497965e-10	-9.710991e+00	-4.633196e+01
1.550000e-06	-1.349281e-06	-6.415097e-10	-9.394769e+00	-4.595085e+01
1.560000e-06	-1.303840e-06	-6.339220e-10	-9.078377e+00	-4.555877e+01
1.570000e-06	-1.258352e-06	-6.247411e-10	-8.761649e+00	-4.515523e+01
1.580000e-06	-1.212732e-06	-6.155036e-10	-8.444005e+00	-4.473973e+01
1.590000e-06	-1.166970e-06	-6.107843e-10	-8.125376e+00	-4.431172e+01
1.600000e-06	-1.121143e-06	-6.089350e-10	-7.806294e+00	-4.387060e+01
1.610000e-06	-1.075344e-06	-6.043099e-10	-7.487404e+00	-4.341571e+01
1.620000e-06	-1.029482e-06	-5.971986e-10	-7.168076e+00	-4.294637e+01
1.630000e-06	-9.834420e-07	-5.888239e-10	-6.847509e+00	-4.246182e+01
1.640000e-06	-9.373264e-07	-5.798090e-10	-6.526415e+00	-4.196126e+01
1.650000e-06	-8.911644e-07	-5.695825e-10	-6.204998e+00	-4.144385e+01
1.660000e-06	-8.449123e-07	-5.596764e-10	-5.882954e+00	-4.090867e+01
1.670000e-06	-7.986447e-07	-5.497835e-10	-5.560802e+00	-4.035479e+01
1.680000e-06	-7.523399e-07	-5.392959e-10	-5.238391e+00	-3.978122e+01
1.690000e-06	-7.059148e-07	-5.288646e-10	-4.915142e+00	-3.918692e+01
1.700000e-06	-6.594424e-07	-5.184307e-10	-4.591564e+00	-3.857086e+01
1.710000e-06	-6.129442e-07	-5.084178e-10	-4.267807e+00	-3.793194e+01
1.720000e-06	-5.664284e-07	-5.016763e-10	-3.943927e+00	-3.726908e+01
1.730000e-06	-5.199687e-07	-4.950119e-10	-3.620437e+00	-3.658117e+01
1.740000e-06	-4.734668e-07	-4.846306e-10	-3.296654e+00	-3.586712e+01
1.750000e-06	-4.268732e-07	-4.723886e-10	-2.972232e+00	-3.512585e+01
1.760000e-06	-3.802453e-07	-4.585316e-10	-2.647571e+00	-3.435632e+01
1.770000e-06	-3.335419e-07	-4.458298e-10	-2.322385e+00	-3.355749e+01
1.780000e-06	-2.868114e-07	-4.363818e-10	-1.997010e+00	-3.272841e+01
1.790000e-06	-2.401630e-07	-4.280703e-10	-1.672207e+00	-3.186817e+01
1.800000e-06	-1.935671e-07	-4.190481e-10	-1.347768e+00	-3.097594e+01
1.810000e-06	-1.469573e-07	-4.070828e-10	-1.023234e+00	-3.005099e+01
1.820000e-06	-1.002868e-07	-3.953799e-10	-6.982768e-01	-2.909266e+01
1.830000e-06	-5.359730e-08	-3.814794e-10	-3.731872e-01	-2.810042e+01
1.840000e-06	-6.828266e-09	-3.658591e-10	-4.754384e-02	-2.707387e+01
1.850000e-06	3.998063e-08	-3.488287e-10	2.783770e-01	-2.601271e+01
1.860000e-06	8.671075e-08	-3.305866e-10	6.037495e-01	-2.491680e+01
1.870000e-06	1.333813e-07	-3.122668e-10	9.287074e-01	-2.378615e+01
1.880000e-06	1.799936e-07	-2.949045e-10	1.253259e+00	-2.262092e+01
1.890000e-06	2.266916e-07	-2.826716e-10	1.578408e+00	-2.142141e+01
1.900000e-06	2.734162e-07	-2.700361e-10	1.903742e+00	-2.018812e+01
1.910000e-06	3.200338e-07	-2.551404e-10	2.228331e+00	-1.892168e+01
1.920000e-06	3.666525e-07	-2.384585e-10	2.552928e+00	-1.762291e+01
1.930000e-06	4.132523e-07	-2.182100e-10	2.877392e+00	-1.629279e+01
1.940000e-06	4.597424e-07	-1.950144e-10	3.201094e+00	-1.493245e+01
1.950000e-06	5.061609e-07	-1.724020e-10	3.524296e+00	-1.354320e+01
1.960000e-06	5.525042e-07	-1.545882e-10	3.846975e+00	-1.212648e+01
1.970000e-06	5.988532e-07	-1.394625e-10	4.169694e+00	-1.068390e+01
1.980000e-06	6.452424e-07	-1.224759e-10	4.492693e+00	-9.217196e+00
1.990000e-06	6.915648e-07	-1.030096e-10	4.815227e+00	-7.728224e+00
2.000000e-06	7.378422e-07	-7.881464e-11	5.137447e+00	-6.218967e+00
2.010000e-06	7.840957e-07	-5.279369e-11	5.459501e+00	-4.691506e+00
2.020000e-06	8.302996e-07	-2.755937e-11	5.781209e+00	-3.148012e+00
2.030000e-06	8.764884e-07	-6.075657e-12	6.102812e+00	-1.590733e+00
2.040000e-06	9.226583e-07	1.239471e-11	6.424284e+00	-2.197221e-02
2.050000e-06	9.687515e-07	3.126551e-11	6.745222e+00	1.555919e+00
2.060000e-06	1.014718e-06	5.203931e-11	7.065275e+00	3.140562e+00
2.070000e-06	1.060524e-06	7.383292e-11	7.384212e+00	4.729569e+00
2.080000e-06	1.106260e-06	9.887495e-11	7.702662e+00	6.320555e+00
2.090000e-06	1.151949e-06	1.262377e-10	8.020792e+00	7.911153e+00
2.100000e-06	1.197572e-06	1.514522e-10	8.338454e+00	9.499036e+00
2.110000e-06	1.243131e-06	1.737657e-10	8.655673e+00	1.108192e+01
2.120000e-06	1.288566e-06	1.933383e-10	8.972022e+00	1.265760e+01
2.130000e-06	1.333876e-06	2.102367e-10	9.287509e+00	1.422393e+01
2.140000e-06	1.379095e-06	2.274602e-10	9.602359e+00	1.577887e+01
2.150000e-06	1.424210e-06	2.484381e-10	9.916489e+00	1.732046e+01
2.160000e-06	1.469171e-06	2.728499e-10	1.022954e+01	1.884687e+01
2.170000e-06	1.514057e-06	2.974388e-10	1.054207e+01	2.035637e+01
2.180000e-06	1.558901e-06	3.195403e-10	1.085431e+01	2.184737e+01
2.190000e-06	1.603602e-06	3.403970e-10	1.116555e+01	2.331839e+01
2.200000e-06	1.648183e-06	3.599528e-10	1.147596e+01	2.476808e+01
2.210000e-06	1.692720e-06	3.762172e-10	1.178607e+01	2.619525e+01
2.220000e-06	1.737180e-06	3.904758e-10	1.209564e+01	2.759881e+01
2.230000e-06	1.781502e-06	4.069048e-10	1.240424e+01	2.897782e+01
2.240000e-06	1.825749e-06	4.243791e-10	1.271232e+01	3.033146e+01
2.250000e-06	1.869958e-06	4.413968e-10	1.302014e+01	3.165905e+01
2.260000e-06	1.914070e-06	4.601453e-10	1.332728e+01	3.295999e+01
2.270000e-06	1.958079e-06	4.820919e-10	1.363371e+01	3.423384e+01
2.280000e-06	2.002025e-06	5.044274e-10	1.393970e+01	3.548023e+01
2.290000e-06	2.045924e-06	5.243601e-10	1.424536e+01	3.669892e+01
2.300000e-06	2.089682e-06	5.407510e-10	1.455003e+01	3.788972e+01
2.310000e-06	2.133261e-06	5.547185e-10	1.485347e+01	3.905255e+01
2.320000e-06	2.176751e-06	5.677858e-10	1.515628e+01	4.018739e+01
2.330000e-06	2.220096e-06	5.809677e-10	1.545808e+01	4.129427e+01
2.340000e-06	2.263177e-06	5.955205e-10	1.575805e+01	4.237331e+01
2.350000e-06	2.305966e-06	6.118840e-10	1.605598e+01	4.342463e+01
2.360000e-06	2.348478e-06	6.287244e-10	1.635198e+01	4.444840e+01
2.370000e-06	2.390732e-06	6.422175e-10	1.664619e+01	4.544483e+01
2.380000e-06	2.432673e-06	6.527544e-10	1.693821e+01	4.641415e+01
2.390000e-06	2.474265e-06	6.621572e-10	1.722781e+01	4.735658e+01
2.400000e-06	2.515621e-06	6.721801e-10	1.751576e+01	4.827237e+01
2.410000e-06	2.556799e-06	6.848785e-10	1.780248e+01	4.916177e+01
2.420000e-06	2.597646e-06	6.983649e-10	1.808688e+01	5.002504e+01
2.430000e-06	2.638230e-06	7.114133e-10	1.836947e+01	5.086241e+01
2.440000e-06	2.678750e-06	7.207410e-10	1.865160e+01	5.167414e+01
2.450000e-06	2.719104e-06	7.303598e-10	1.893257e+01	5.246046e+01
2.460000e-06	2.759234e-06	7.395967e-10	1.921199e+01	5.322163e+01
2.470000e-06	2.799233e-06	7.505117e-10	1.949049e+01	5.395787e+01
2.480000e-06	2.839148e-06	7.621944e-10	1.976842e+01	5.466943e+01
2.490000e-06	2.878924e-06	7.751525e-10	2.004537e+01	5.535654e+01
2.500000e-06	2.918475e-06	7.879128e-10	2.032075e+01	5.601947e+01
2.510000e-06	2.957836e-06	7.978761e-10	2.059482e+01	5.665846e+01
2.520000e-06	2.996991e-06	8.040462e-10	2.086744e+01	5.727379e+01
2.530000e-06	3.035931e-06	8.093803e-10	2.113857e+01	5.786576e+01
2.540000e-06	3.074680e-06	8.147048e-10	2.140838e+01	5.843467e+01
2.550000e-06	3.113242e-06	8.198233e-10	2.167687e+01	5.898088e+01
2.560000e-06	3.151631e-06	8.265548e-10	2.194417e+01	5.950475e+01
2.570000e-06	3.189796e-06	8.344174e-10	2.220990e+01	6.000670e+01
2.580000e-06	3.227819e-06	8.426429e-10	2.247465e+01	6.048715e+01
2.590000e-06	3.265634e-06	8.499326e-10	2.273795e+01	6.094661e+01
2.600000e-06	3.303198e-06	8.573324e-10	2.299950e+01	6.138558e+01
2.610000e-06	3.340523e-06	8.631692e-10	2.325939e+01	6.180462e+01
2.620000e-06	3.377496e-06	8.681093e-10	2.351682e+01	6.220435e+01
2.630000e-06	3.414172e-06	8.715180e-10	2.377219e+01	6.258540e+01
2.640000e-06	3.450704e-06	8.759700e-10	2.402655e+01	6.294846e+01
2.650000e-06	3.487078e-06	8.818183e-10	2.427982e+01	6.329423e+01
2.660000e-06	3.523294e-06	8.890866e-10	2.453199e+01	6.362345e+01
2.670000e-06	3.559415e-06	8.938141e-10	2.478349e+01	6.393690e+01
2.680000e-06	3.595358e-06	8.960322e-10	2.503376e+01	6.423538e+01
2.690000e-06	3.631129e-06	8.972985e-10	2.528282e+01	6.451967e+01
2.700000e-06	3.666600e-06	8.996998e-10	2.552980e+01	6.479061e+01
2.710000e-06	3.701714e-06	9.015484e-10	2.577429e+01	6.504899e+01
2.720000e-06	3.736520e-06	9.058814e-10	2.601663e+01	6.529565e+01
2.730000e-06	3.770938e-06	9.127071e-10	2.625628e+01	6.553137e+01
2.740000e-06	3.804913e-06	9.200013e-10	2.649284e+01	6.575694e+01
2.750000e-06	3.838434e-06	9.260812e-10	2.672624e+01	6.597311e+01
2.760000e-06	3.871605e-06	9.315380e-10	2.695721e+01	6.618061e+01
2.770000e-06	3.904511e-06	9.360620e-10	2.718633e+01	6.638012e+01
2.780000e-06	3.937123e-06	9.407207e-10	2.741340e+01	6.657227e+01
2.790000e-06	3.969462e-06	9.450244e-10	2.763856e+01	6.675767e+01
2.800000e-06	4.001575e-06	9.477153e-10	2.786216e+01	6.693686e+01
2.810000e-06	4.033502e-06	9.485293e-10	2.808446e+01	6.711031e+01
2.820000e-06	4.065195e-06	9.500163e-10	2.830514e+01	6.727845e+01
2.830000e-06	4.096601e-06	9.537519e-10	2.852381e+01	6.744166e+01
2.840000e-06	4.127723e-06	9.574126e-10	2.874050e+01	6.760024e+01
2.850000e-06	4.158561e-06	9.617419e-10	2.895522e+01	6.775443e+01
2.860000e-06	4.189089e-06	9.664733e-10	2.916778e+01	6.790445e+01
2.870000e-06	4.219285e-06	9.693539e-10	2.937803e+01	6.805042e+01
2.880000e-06	4.249258e-06	9.715672e-10	2.958673e+01	6.819244e+01
2.890000e-06	4.278978e-06	9.756814e-10	2.979366e+01	6.833055e+01
2.900000e-06	4.308415e-06	9.795360e-10	2.999862e+01	6.846475e+01
