# Temperatura_=_10.22
# Concentracion g/m^3_=_1620.0
# C_Vs_to_Am_M_A/Vsm_=_65563218390.804596
# pendiente_HvsI_1/m_=_3716.3
# ordenada_HvsI_A/m_=_1297.0
# frecuencia_Hz_=_135102.0626148168

Tiempo_(s)	Campo_(V.s)	Magnetizacion_(V.s)	Campo_(kA/m)	Magnetizacion_(A/m)
0.000000e+00	-5.532118e-06	-1.356554e-09	-3.837194e+01	-9.183167e+01
1.000000e-08	-5.532315e-06	-1.356517e-09	-3.837331e+01	-9.183432e+01
2.000000e-08	-5.532270e-06	-1.356347e-09	-3.837299e+01	-9.183728e+01
3.000000e-08	-5.531920e-06	-1.355917e-09	-3.837057e+01	-9.184040e+01
4.000000e-08	-5.531054e-06	-1.353920e-09	-3.836456e+01	-9.184353e+01
5.000000e-08	-5.529656e-06	-1.348339e-09	-3.835487e+01	-9.184653e+01
6.000000e-08	-5.527680e-06	-1.343735e-09	-3.834116e+01	-9.184919e+01
7.000000e-08	-5.525124e-06	-1.353495e-09	-3.832343e+01	-9.185133e+01
8.000000e-08	-5.522095e-06	-1.377280e-09	-3.830242e+01	-9.185273e+01
9.000000e-08	-5.518581e-06	-1.370264e-09	-3.827805e+01	-9.185315e+01
1.000000e-07	-5.514561e-06	-1.299896e-09	-3.825016e+01	-9.185233e+01
1.100000e-07	-5.510225e-06	-1.285085e-09	-3.822009e+01	-9.184998e+01
1.200000e-07	-5.505799e-06	-1.364147e-09	-3.818939e+01	-9.184580e+01
1.300000e-07	-5.501037e-06	-1.411150e-09	-3.815636e+01	-9.183945e+01
1.400000e-07	-5.495779e-06	-1.318011e-09	-3.811989e+01	-9.183059e+01
1.500000e-07	-5.490209e-06	-1.271239e-09	-3.808125e+01	-9.181883e+01
1.600000e-07	-5.484342e-06	-1.343199e-09	-3.804056e+01	-9.180378e+01
1.700000e-07	-5.478008e-06	-1.420521e-09	-3.799662e+01	-9.178503e+01
1.800000e-07	-5.471090e-06	-1.346569e-09	-3.794864e+01	-9.176214e+01
1.900000e-07	-5.463839e-06	-1.302890e-09	-3.789834e+01	-9.173467e+01
2.000000e-07	-5.456413e-06	-1.351289e-09	-3.784684e+01	-9.170220e+01
2.100000e-07	-5.448702e-06	-1.401175e-09	-3.779335e+01	-9.166426e+01
2.200000e-07	-5.440700e-06	-1.371082e-09	-3.773784e+01	-9.162043e+01
2.300000e-07	-5.432444e-06	-1.340258e-09	-3.768058e+01	-9.157029e+01
2.400000e-07	-5.423723e-06	-1.367574e-09	-3.762009e+01	-9.151344e+01
2.500000e-07	-5.414293e-06	-1.396872e-09	-3.755468e+01	-9.144949e+01
2.600000e-07	-5.404316e-06	-1.385221e-09	-3.748548e+01	-9.137812e+01
2.700000e-07	-5.393819e-06	-1.336931e-09	-3.741267e+01	-9.129904e+01
2.800000e-07	-5.382692e-06	-1.346723e-09	-3.733549e+01	-9.121200e+01
2.900000e-07	-5.371112e-06	-1.369287e-09	-3.725517e+01	-9.111681e+01
3.000000e-07	-5.359295e-06	-1.363789e-09	-3.717321e+01	-9.101335e+01
3.100000e-07	-5.347063e-06	-1.320980e-09	-3.708836e+01	-9.090156e+01
3.200000e-07	-5.334248e-06	-1.358376e-09	-3.699947e+01	-9.078147e+01
3.300000e-07	-5.321037e-06	-1.398045e-09	-3.690784e+01	-9.065316e+01
3.400000e-07	-5.307565e-06	-1.382419e-09	-3.681439e+01	-9.051680e+01
3.500000e-07	-5.293681e-06	-1.318205e-09	-3.671809e+01	-9.037264e+01
3.600000e-07	-5.279300e-06	-1.350064e-09	-3.661834e+01	-9.022101e+01
3.700000e-07	-5.264632e-06	-1.366729e-09	-3.651660e+01	-9.006230e+01
3.800000e-07	-5.249542e-06	-1.329254e-09	-3.641193e+01	-8.989698e+01
3.900000e-07	-5.233623e-06	-1.324457e-09	-3.630152e+01	-8.972559e+01
4.000000e-07	-5.217274e-06	-1.387530e-09	-3.618812e+01	-8.954872e+01
4.100000e-07	-5.200660e-06	-1.347576e-09	-3.607288e+01	-8.936702e+01
4.200000e-07	-5.183586e-06	-1.288249e-09	-3.595445e+01	-8.918117e+01
4.300000e-07	-5.166169e-06	-1.352772e-09	-3.583364e+01	-8.899189e+01
4.400000e-07	-5.148486e-06	-1.385154e-09	-3.571099e+01	-8.879992e+01
4.500000e-07	-5.130434e-06	-1.289251e-09	-3.558577e+01	-8.860601e+01
4.600000e-07	-5.111931e-06	-1.291592e-09	-3.545744e+01	-8.841091e+01
4.700000e-07	-5.093123e-06	-1.380698e-09	-3.532698e+01	-8.821533e+01
4.800000e-07	-5.073940e-06	-1.326541e-09	-3.519392e+01	-8.801999e+01
4.900000e-07	-5.054433e-06	-1.269345e-09	-3.505862e+01	-8.782555e+01
5.000000e-07	-5.034775e-06	-1.350163e-09	-3.492227e+01	-8.763261e+01
5.100000e-07	-5.014916e-06	-1.358280e-09	-3.478452e+01	-8.744173e+01
5.200000e-07	-4.994661e-06	-1.269090e-09	-3.464403e+01	-8.725338e+01
5.300000e-07	-4.973970e-06	-1.322110e-09	-3.450051e+01	-8.706797e+01
5.400000e-07	-4.952991e-06	-1.368550e-09	-3.435500e+01	-8.688581e+01
5.500000e-07	-4.931667e-06	-1.278582e-09	-3.420709e+01	-8.670712e+01
5.600000e-07	-4.910046e-06	-1.262552e-09	-3.405712e+01	-8.653202e+01
5.700000e-07	-4.888228e-06	-1.348785e-09	-3.390579e+01	-8.636054e+01
5.800000e-07	-4.866021e-06	-1.304388e-09	-3.375175e+01	-8.619262e+01
5.900000e-07	-4.843352e-06	-1.256818e-09	-3.359451e+01	-8.602808e+01
6.000000e-07	-4.820316e-06	-1.319973e-09	-3.343473e+01	-8.586668e+01
6.100000e-07	-4.796967e-06	-1.324703e-09	-3.327278e+01	-8.570806e+01
6.200000e-07	-4.773403e-06	-1.252791e-09	-3.310933e+01	-8.555180e+01
6.300000e-07	-4.749659e-06	-1.281802e-09	-3.294464e+01	-8.539740e+01
6.400000e-07	-4.725587e-06	-1.308649e-09	-3.277767e+01	-8.524430e+01
6.500000e-07	-4.701149e-06	-1.263419e-09	-3.260817e+01	-8.509189e+01
6.600000e-07	-4.676347e-06	-1.261443e-09	-3.243613e+01	-8.493952e+01
6.700000e-07	-4.651162e-06	-1.298337e-09	-3.226144e+01	-8.478650e+01
6.800000e-07	-4.625371e-06	-1.268966e-09	-3.208256e+01	-8.463213e+01
6.900000e-07	-4.598878e-06	-1.254473e-09	-3.189879e+01	-8.447573e+01
7.000000e-07	-4.571935e-06	-1.282908e-09	-3.171191e+01	-8.431658e+01
7.100000e-07	-4.544689e-06	-1.272865e-09	-3.152293e+01	-8.415403e+01
7.200000e-07	-4.517202e-06	-1.241884e-09	-3.133227e+01	-8.398742e+01
7.300000e-07	-4.489522e-06	-1.253743e-09	-3.114027e+01	-8.381617e+01
7.400000e-07	-4.461664e-06	-1.258098e-09	-3.094705e+01	-8.363972e+01
7.500000e-07	-4.433555e-06	-1.238319e-09	-3.075208e+01	-8.345758e+01
7.600000e-07	-4.405212e-06	-1.240820e-09	-3.055548e+01	-8.326933e+01
7.700000e-07	-4.376505e-06	-1.246740e-09	-3.035637e+01	-8.307462e+01
7.800000e-07	-4.347369e-06	-1.231424e-09	-3.015427e+01	-8.287316e+01
7.900000e-07	-4.318015e-06	-1.223410e-09	-2.995067e+01	-8.266474e+01
8.000000e-07	-4.288462e-06	-1.228499e-09	-2.974568e+01	-8.244924e+01
8.100000e-07	-4.258551e-06	-1.214868e-09	-2.953821e+01	-8.222660e+01
8.200000e-07	-4.228316e-06	-1.210618e-09	-2.932850e+01	-8.199682e+01
8.300000e-07	-4.197813e-06	-1.221340e-09	-2.911692e+01	-8.175997e+01
8.400000e-07	-4.167068e-06	-1.218262e-09	-2.890367e+01	-8.151620e+01
8.500000e-07	-4.136067e-06	-1.204279e-09	-2.868864e+01	-8.126567e+01
8.600000e-07	-4.104813e-06	-1.210925e-09	-2.847185e+01	-8.100862e+01
8.700000e-07	-4.073293e-06	-1.206101e-09	-2.825322e+01	-8.074532e+01
8.800000e-07	-4.041513e-06	-1.189269e-09	-2.803279e+01	-8.047604e+01
8.900000e-07	-4.009603e-06	-1.185571e-09	-2.781146e+01	-8.020109e+01
9.000000e-07	-3.977501e-06	-1.189141e-09	-2.758879e+01	-7.992079e+01
9.100000e-07	-3.945081e-06	-1.174997e-09	-2.736392e+01	-7.963545e+01
9.200000e-07	-3.912253e-06	-1.173615e-09	-2.713622e+01	-7.934536e+01
9.300000e-07	-3.879061e-06	-1.179018e-09	-2.690599e+01	-7.905082e+01
9.400000e-07	-3.845413e-06	-1.168464e-09	-2.667260e+01	-7.875208e+01
9.500000e-07	-3.811274e-06	-1.156008e-09	-2.643580e+01	-7.844938e+01
9.600000e-07	-3.776713e-06	-1.160632e-09	-2.619608e+01	-7.814292e+01
9.700000e-07	-3.741756e-06	-1.152170e-09	-2.595361e+01	-7.783287e+01
9.800000e-07	-3.706501e-06	-1.135322e-09	-2.570907e+01	-7.751934e+01
9.900000e-07	-3.671066e-06	-1.133904e-09	-2.546329e+01	-7.720242e+01
1.000000e-06	-3.635491e-06	-1.135549e-09	-2.521653e+01	-7.688216e+01
1.010000e-06	-3.599730e-06	-1.124387e-09	-2.496849e+01	-7.655857e+01
1.020000e-06	-3.563789e-06	-1.121043e-09	-2.471920e+01	-7.623164e+01
1.030000e-06	-3.527690e-06	-1.125357e-09	-2.446881e+01	-7.590130e+01
1.040000e-06	-3.491444e-06	-1.118334e-09	-2.421739e+01	-7.556749e+01
1.050000e-06	-3.454917e-06	-1.108430e-09	-2.396404e+01	-7.523012e+01
1.060000e-06	-3.418072e-06	-1.106269e-09	-2.370847e+01	-7.488907e+01
1.070000e-06	-3.381001e-06	-1.099519e-09	-2.345134e+01	-7.454424e+01
1.080000e-06	-3.343672e-06	-1.088047e-09	-2.319242e+01	-7.419552e+01
1.090000e-06	-3.306152e-06	-1.089055e-09	-2.293217e+01	-7.384281e+01
1.100000e-06	-3.268376e-06	-1.089116e-09	-2.267015e+01	-7.348602e+01
1.110000e-06	-3.230352e-06	-1.079917e-09	-2.240641e+01	-7.312508e+01
1.120000e-06	-3.192180e-06	-1.074039e-09	-2.214164e+01	-7.275993e+01
1.130000e-06	-3.153755e-06	-1.073531e-09	-2.187512e+01	-7.239057e+01
1.140000e-06	-3.115039e-06	-1.063201e-09	-2.160657e+01	-7.201700e+01
1.150000e-06	-3.076069e-06	-1.052797e-09	-2.133627e+01	-7.163925e+01
1.160000e-06	-3.036898e-06	-1.048152e-09	-2.106457e+01	-7.125741e+01
1.170000e-06	-2.997566e-06	-1.043087e-09	-2.079175e+01	-7.087157e+01
1.180000e-06	-2.958077e-06	-1.034869e-09	-2.051785e+01	-7.048187e+01
1.190000e-06	-2.918455e-06	-1.032721e-09	-2.024302e+01	-7.008845e+01
1.200000e-06	-2.878747e-06	-1.028068e-09	-1.996760e+01	-6.969150e+01
1.210000e-06	-2.838885e-06	-1.018475e-09	-1.969111e+01	-6.929120e+01
1.220000e-06	-2.798842e-06	-1.009917e-09	-1.941336e+01	-6.888775e+01
1.230000e-06	-2.758648e-06	-1.006630e-09	-1.913457e+01	-6.848135e+01
1.240000e-06	-2.718250e-06	-9.993477e-10	-1.885436e+01	-6.807219e+01
1.250000e-06	-2.677672e-06	-9.938433e-10	-1.857290e+01	-6.766045e+01
1.260000e-06	-2.636918e-06	-9.920347e-10	-1.829022e+01	-6.724627e+01
1.270000e-06	-2.595859e-06	-9.865658e-10	-1.800543e+01	-6.682979e+01
1.280000e-06	-2.554510e-06	-9.766751e-10	-1.771862e+01	-6.641107e+01
1.290000e-06	-2.512913e-06	-9.681531e-10	-1.743009e+01	-6.599016e+01
1.300000e-06	-2.470945e-06	-9.596755e-10	-1.713900e+01	-6.556705e+01
1.310000e-06	-2.428570e-06	-9.498881e-10	-1.684507e+01	-6.514164e+01
1.320000e-06	-2.385844e-06	-9.424393e-10	-1.654872e+01	-6.471380e+01
1.330000e-06	-2.342843e-06	-9.381785e-10	-1.625046e+01	-6.428333e+01
1.340000e-06	-2.299653e-06	-9.330793e-10	-1.595088e+01	-6.384994e+01
1.350000e-06	-2.256270e-06	-9.266495e-10	-1.564997e+01	-6.341331e+01
1.360000e-06	-2.212735e-06	-9.170770e-10	-1.534800e+01	-6.297300e+01
1.370000e-06	-2.169139e-06	-9.055124e-10	-1.504560e+01	-6.252856e+01
1.380000e-06	-2.125505e-06	-8.936008e-10	-1.474295e+01	-6.207944e+01
1.390000e-06	-2.081776e-06	-8.836261e-10	-1.443964e+01	-6.162505e+01
1.400000e-06	-2.037911e-06	-8.776686e-10	-1.413539e+01	-6.116475e+01
1.410000e-06	-1.993990e-06	-8.705583e-10	-1.383074e+01	-6.069785e+01
1.420000e-06	-1.950046e-06	-8.646756e-10	-1.352593e+01	-6.022363e+01
1.430000e-06	-1.906000e-06	-8.575184e-10	-1.322042e+01	-5.974136e+01
1.440000e-06	-1.861880e-06	-8.494611e-10	-1.291439e+01	-5.925027e+01
1.450000e-06	-1.817662e-06	-8.376304e-10	-1.260769e+01	-5.874959e+01
1.460000e-06	-1.773267e-06	-8.251319e-10	-1.229976e+01	-5.823857e+01
1.470000e-06	-1.728716e-06	-8.142534e-10	-1.199074e+01	-5.771645e+01
1.480000e-06	-1.684030e-06	-8.071696e-10	-1.168079e+01	-5.718251e+01
1.490000e-06	-1.639166e-06	-8.000656e-10	-1.136960e+01	-5.663603e+01
1.500000e-06	-1.594089e-06	-7.922688e-10	-1.105694e+01	-5.607637e+01
1.510000e-06	-1.548896e-06	-7.831487e-10	-1.074347e+01	-5.550287e+01
1.520000e-06	-1.503645e-06	-7.735875e-10	-1.042960e+01	-5.491496e+01
1.530000e-06	-1.458325e-06	-7.631704e-10	-1.011525e+01	-5.431211e+01
1.540000e-06	-1.412887e-06	-7.532134e-10	-9.800086e+00	-5.369380e+01
1.550000e-06	-1.367363e-06	-7.436912e-10	-9.484317e+00	-5.305960e+01
1.560000e-06	-1.321789e-06	-7.349303e-10	-9.168210e+00	-5.240910e+01
1.570000e-06	-1.276132e-06	-7.250680e-10	-8.851523e+00	-5.174193e+01
1.580000e-06	-1.230381e-06	-7.153130e-10	-8.534185e+00	-5.105775e+01
1.590000e-06	-1.184587e-06	-7.083465e-10	-8.216547e+00	-5.035625e+01
1.600000e-06	-1.138681e-06	-7.012550e-10	-7.898134e+00	-4.963714e+01
1.610000e-06	-1.092619e-06	-6.913608e-10	-7.578636e+00	-4.890013e+01
1.620000e-06	-1.046519e-06	-6.788413e-10	-7.258880e+00	-4.814495e+01
1.630000e-06	-1.000448e-06	-6.660613e-10	-6.939319e+00	-4.737130e+01
1.640000e-06	-9.543223e-07	-6.532445e-10	-6.619381e+00	-4.657886e+01
1.650000e-06	-9.080588e-07	-6.417055e-10	-6.298488e+00	-4.576728e+01
1.660000e-06	-8.617201e-07	-6.302026e-10	-5.977073e+00	-4.493619e+01
1.670000e-06	-8.153921e-07	-6.175155e-10	-5.655732e+00	-4.408515e+01
1.680000e-06	-7.690349e-07	-6.036426e-10	-5.334189e+00	-4.321367e+01
1.690000e-06	-7.225887e-07	-5.896817e-10	-5.012029e+00	-4.232121e+01
1.700000e-06	-6.761385e-07	-5.713949e-10	-4.689840e+00	-4.140716e+01
1.710000e-06	-6.295705e-07	-5.530213e-10	-4.366834e+00	-4.047086e+01
1.720000e-06	-5.828567e-07	-5.377612e-10	-4.042817e+00	-3.951155e+01
1.730000e-06	-5.361467e-07	-5.249236e-10	-3.718827e+00	-3.852844e+01
1.740000e-06	-4.893969e-07	-5.116024e-10	-3.394561e+00	-3.752068e+01
1.750000e-06	-4.425486e-07	-4.966734e-10	-3.069611e+00	-3.648736e+01
1.760000e-06	-3.956613e-07	-4.799725e-10	-2.744390e+00	-3.542754e+01
1.770000e-06	-3.487737e-07	-4.626827e-10	-2.419168e+00	-3.434023e+01
1.780000e-06	-3.018845e-07	-4.466297e-10	-2.093935e+00	-3.322447e+01
1.790000e-06	-2.549776e-07	-4.310526e-10	-1.768579e+00	-3.207926e+01
1.800000e-06	-2.080284e-07	-4.151117e-10	-1.442929e+00	-3.090364e+01
1.810000e-06	-1.610899e-07	-3.981407e-10	-1.117354e+00	-2.969669e+01
1.820000e-06	-1.141826e-07	-3.812891e-10	-7.919947e-01	-2.845754e+01
1.830000e-06	-6.722032e-08	-3.653015e-10	-4.662543e-01	-2.718541e+01
1.840000e-06	-2.019272e-08	-3.491258e-10	-1.400610e-01	-2.587962e+01
1.850000e-06	2.680369e-08	-3.315191e-10	1.859161e-01	-2.453959e+01
1.860000e-06	7.372075e-08	-3.118033e-10	5.113427e-01	-2.316491e+01
1.870000e-06	1.206323e-07	-2.897024e-10	8.367315e-01	-2.175532e+01
1.880000e-06	1.675853e-07	-2.661110e-10	1.162407e+00	-2.031072e+01
1.890000e-06	2.145072e-07	-2.443033e-10	1.487868e+00	-1.883123e+01
1.900000e-06	2.614360e-07	-2.251615e-10	1.813375e+00	-1.731717e+01
1.910000e-06	3.083098e-07	-2.062233e-10	2.138502e+00	-1.576905e+01
1.920000e-06	3.551358e-07	-1.880458e-10	2.463297e+00	-1.418764e+01
1.930000e-06	4.018715e-07	-1.673710e-10	2.787466e+00	-1.257393e+01
1.940000e-06	4.484861e-07	-1.410615e-10	3.110795e+00	-1.092913e+01
1.950000e-06	4.951223e-07	-1.135050e-10	3.434273e+00	-9.254685e+00
1.960000e-06	5.416883e-07	-8.798791e-11	3.757265e+00	-7.552278e+00
1.970000e-06	5.882019e-07	-6.678321e-11	4.079893e+00	-5.823797e+00
1.980000e-06	6.347356e-07	-4.749186e-11	4.402661e+00	-4.071337e+00
1.990000e-06	6.811918e-07	-2.589763e-11	4.724890e+00	-2.297185e+00
2.000000e-06	7.275977e-07	-1.317503e-13	5.046772e+00	-5.038022e-01
2.010000e-06	7.740116e-07	3.013071e-11	5.368708e+00	1.306199e+00
2.020000e-06	8.203988e-07	6.101493e-11	5.690460e+00	3.130074e+00
2.030000e-06	8.667540e-07	8.978332e-11	6.011989e+00	4.964973e+00
2.040000e-06	9.130190e-07	1.130701e-10	6.332893e+00	6.807967e+00
2.050000e-06	9.591939e-07	1.340369e-10	6.653172e+00	8.656072e+00
2.060000e-06	1.005241e-06	1.561653e-10	6.972565e+00	1.050628e+01
2.070000e-06	1.051169e-06	1.811762e-10	7.291129e+00	1.235558e+01
2.080000e-06	1.097063e-06	2.091254e-10	7.609458e+00	1.420100e+01
2.090000e-06	1.142912e-06	2.389113e-10	7.927482e+00	1.603961e+01
2.100000e-06	1.188699e-06	2.690325e-10	8.245070e+00	1.786857e+01
2.110000e-06	1.234418e-06	2.956285e-10	8.562187e+00	1.968516e+01
2.120000e-06	1.280116e-06	3.190146e-10	8.879155e+00	2.148675e+01
2.130000e-06	1.325761e-06	3.408207e-10	9.195758e+00	2.327089e+01
2.140000e-06	1.371301e-06	3.617985e-10	9.511632e+00	2.503527e+01
2.150000e-06	1.416694e-06	3.851653e-10	9.826493e+00	2.677778e+01
2.160000e-06	1.462011e-06	4.109901e-10	1.014081e+01	2.849647e+01
2.170000e-06	1.507273e-06	4.371377e-10	1.045477e+01	3.018960e+01
2.180000e-06	1.552429e-06	4.616138e-10	1.076797e+01	3.185562e+01
2.190000e-06	1.597442e-06	4.848658e-10	1.108019e+01	3.349320e+01
2.200000e-06	1.642290e-06	5.065331e-10	1.139127e+01	3.510119e+01
2.210000e-06	1.686978e-06	5.256627e-10	1.170124e+01	3.667865e+01
2.220000e-06	1.731501e-06	5.434674e-10	1.201006e+01	3.822480e+01
2.230000e-06	1.775840e-06	5.614003e-10	1.231760e+01	3.973907e+01
2.240000e-06	1.820030e-06	5.791837e-10	1.262411e+01	4.122104e+01
2.250000e-06	1.864122e-06	5.970828e-10	1.292994e+01	4.267044e+01
2.260000e-06	1.908114e-06	6.178958e-10	1.323508e+01	4.408714e+01
2.270000e-06	1.952094e-06	6.399049e-10	1.354014e+01	4.547115e+01
2.280000e-06	1.996055e-06	6.594815e-10	1.384506e+01	4.682255e+01
2.290000e-06	2.039928e-06	6.768318e-10	1.414937e+01	4.814154e+01
2.300000e-06	2.083766e-06	6.937189e-10	1.445344e+01	4.942838e+01
2.310000e-06	2.127575e-06	7.095937e-10	1.475731e+01	5.068338e+01
2.320000e-06	2.171294e-06	7.255888e-10	1.506055e+01	5.190690e+01
2.330000e-06	2.214899e-06	7.415042e-10	1.536301e+01	5.309933e+01
2.340000e-06	2.258354e-06	7.578676e-10	1.566442e+01	5.426106e+01
2.350000e-06	2.301646e-06	7.752873e-10	1.596470e+01	5.539249e+01
2.360000e-06	2.344851e-06	7.917690e-10	1.626438e+01	5.649403e+01
2.370000e-06	2.387839e-06	8.048002e-10	1.656256e+01	5.756606e+01
2.380000e-06	2.430513e-06	8.158527e-10	1.685855e+01	5.860893e+01
2.390000e-06	2.472890e-06	8.270276e-10	1.715249e+01	5.962301e+01
2.400000e-06	2.514940e-06	8.393082e-10	1.744416e+01	6.060861e+01
2.410000e-06	2.556607e-06	8.533693e-10	1.773317e+01	6.156604e+01
2.420000e-06	2.597788e-06	8.678545e-10	1.801881e+01	6.249558e+01
2.430000e-06	2.638642e-06	8.821970e-10	1.830218e+01	6.339751e+01
2.440000e-06	2.679315e-06	8.940240e-10	1.858430e+01	6.427208e+01
2.450000e-06	2.719818e-06	9.025047e-10	1.886523e+01	6.511956e+01
2.460000e-06	2.760079e-06	9.098062e-10	1.914449e+01	6.594023e+01
2.470000e-06	2.800184e-06	9.181324e-10	1.942267e+01	6.673435e+01
2.480000e-06	2.840214e-06	9.293156e-10	1.970032e+01	6.750223e+01
2.490000e-06	2.880115e-06	9.427668e-10	1.997709e+01	6.824422e+01
2.500000e-06	2.919902e-06	9.560736e-10	2.025306e+01	6.896068e+01
2.510000e-06	2.959562e-06	9.675006e-10	2.052815e+01	6.965202e+01
2.520000e-06	2.999061e-06	9.771898e-10	2.080212e+01	7.031874e+01
2.530000e-06	3.038366e-06	9.849188e-10	2.107475e+01	7.096134e+01
2.540000e-06	3.077394e-06	9.901451e-10	2.134546e+01	7.158042e+01
2.550000e-06	3.116169e-06	9.936786e-10	2.161441e+01	7.217664e+01
2.560000e-06	3.154727e-06	9.989075e-10	2.188186e+01	7.275071e+01
2.570000e-06	3.193049e-06	1.007697e-09	2.214766e+01	7.330340e+01
2.580000e-06	3.231152e-06	1.018553e-09	2.241195e+01	7.383556e+01
2.590000e-06	3.269016e-06	1.029473e-09	2.267459e+01	7.434809e+01
2.600000e-06	3.306664e-06	1.038441e-09	2.293572e+01	7.484194e+01
2.610000e-06	3.344062e-06	1.044582e-09	2.319512e+01	7.531809e+01
2.620000e-06	3.381195e-06	1.049643e-09	2.345268e+01	7.577757e+01
2.630000e-06	3.418100e-06	1.055853e-09	2.370866e+01	7.622144e+01
2.640000e-06	3.454763e-06	1.062619e-09	2.396297e+01	7.665075e+01
2.650000e-06	3.491222e-06	1.069323e-09	2.421586e+01	7.706658e+01
2.660000e-06	3.527485e-06	1.076195e-09	2.446738e+01	7.746999e+01
2.670000e-06	3.563572e-06	1.083505e-09	2.471769e+01	7.786201e+01
2.680000e-06	3.599497e-06	1.090580e-09	2.496688e+01	7.824365e+01
2.690000e-06	3.635265e-06	1.096790e-09	2.521497e+01	7.861589e+01
2.700000e-06	3.670929e-06	1.102483e-09	2.546234e+01	7.897962e+01
2.710000e-06	3.706405e-06	1.108191e-09	2.570841e+01	7.933569e+01
2.720000e-06	3.741608e-06	1.114490e-09	2.595258e+01	7.968489e+01
2.730000e-06	3.776462e-06	1.122060e-09	2.619434e+01	8.002790e+01
2.740000e-06	3.810938e-06	1.129714e-09	2.643347e+01	8.036533e+01
2.750000e-06	3.845020e-06	1.135528e-09	2.666987e+01	8.069771e+01
2.760000e-06	3.878630e-06	1.140568e-09	2.690300e+01	8.102547e+01
2.770000e-06	3.911783e-06	1.146279e-09	2.713295e+01	8.134894e+01
2.780000e-06	3.944479e-06	1.152629e-09	2.735974e+01	8.166838e+01
2.790000e-06	3.976799e-06	1.159103e-09	2.758392e+01	8.198394e+01
2.800000e-06	4.008888e-06	1.165622e-09	2.780649e+01	8.229570e+01
2.810000e-06	4.040881e-06	1.170371e-09	2.802841e+01	8.260366e+01
2.820000e-06	4.072758e-06	1.174124e-09	2.824951e+01	8.290775e+01
2.830000e-06	4.104417e-06	1.179677e-09	2.846911e+01	8.320785e+01
2.840000e-06	4.135806e-06	1.186081e-09	2.868683e+01	8.350376e+01
2.850000e-06	4.166823e-06	1.192570e-09	2.890196e+01	8.379528e+01
2.860000e-06	4.197485e-06	1.200731e-09	2.911465e+01	8.408213e+01
2.870000e-06	4.227828e-06	1.209201e-09	2.932511e+01	8.436406e+01
2.880000e-06	4.257881e-06	1.214429e-09	2.953356e+01	8.464078e+01
2.890000e-06	4.287697e-06	1.217427e-09	2.974037e+01	8.491200e+01
2.900000e-06	4.317229e-06	1.222243e-09	2.994522e+01	8.517747e+01
