# Temperatura_=_6.93
# Concentracion g/m^3_=_1620.0
# C_Vs_to_Am_M_A/Vsm_=_65563218390.804596
# pendiente_HvsI_1/m_=_3716.3
# ordenada_HvsI_A/m_=_1297.0
# frecuencia_Hz_=_135105.14266661258

Tiempo_(s)	Campo_(V.s)	Magnetizacion_(V.s)	Campo_(kA/m)	Magnetizacion_(A/m)
0.000000e+00	-5.551725e-06	-1.304423e-09	-3.836566e+01	-8.822416e+01
1.000000e-08	-5.552005e-06	-1.304220e-09	-3.836759e+01	-8.819075e+01
2.000000e-08	-5.552112e-06	-1.304511e-09	-3.836833e+01	-8.815174e+01
3.000000e-08	-5.551875e-06	-1.306199e-09	-3.836670e+01	-8.810719e+01
4.000000e-08	-5.551079e-06	-1.305223e-09	-3.836120e+01	-8.805726e+01
5.000000e-08	-5.549607e-06	-1.299640e-09	-3.835102e+01	-8.800216e+01
6.000000e-08	-5.547415e-06	-1.289240e-09	-3.833587e+01	-8.794218e+01
7.000000e-08	-5.544573e-06	-1.277110e-09	-3.831623e+01	-8.787765e+01
8.000000e-08	-5.541285e-06	-1.288350e-09	-3.829351e+01	-8.780898e+01
9.000000e-08	-5.537654e-06	-1.324259e-09	-3.826842e+01	-8.773658e+01
1.000000e-07	-5.533560e-06	-1.339923e-09	-3.824013e+01	-8.766090e+01
1.100000e-07	-5.529073e-06	-1.315242e-09	-3.820912e+01	-8.758242e+01
1.200000e-07	-5.524434e-06	-1.279760e-09	-3.817706e+01	-8.750161e+01
1.300000e-07	-5.519607e-06	-1.264783e-09	-3.814370e+01	-8.741893e+01
1.400000e-07	-5.514439e-06	-1.313940e-09	-3.810799e+01	-8.733483e+01
1.500000e-07	-5.508873e-06	-1.299892e-09	-3.806953e+01	-8.724971e+01
1.600000e-07	-5.502936e-06	-1.286813e-09	-3.802849e+01	-8.716396e+01
1.700000e-07	-5.496627e-06	-1.262885e-09	-3.798490e+01	-8.707789e+01
1.800000e-07	-5.489838e-06	-1.299812e-09	-3.793798e+01	-8.699179e+01
1.900000e-07	-5.482599e-06	-1.327148e-09	-3.788795e+01	-8.690586e+01
2.000000e-07	-5.475064e-06	-1.304349e-09	-3.783589e+01	-8.682024e+01
2.100000e-07	-5.467321e-06	-1.283491e-09	-3.778238e+01	-8.673502e+01
2.200000e-07	-5.459342e-06	-1.285486e-09	-3.772723e+01	-8.665021e+01
2.300000e-07	-5.451021e-06	-1.325348e-09	-3.766974e+01	-8.656574e+01
2.400000e-07	-5.442197e-06	-1.306390e-09	-3.760876e+01	-8.648151e+01
2.500000e-07	-5.432653e-06	-1.300331e-09	-3.754280e+01	-8.639733e+01
2.600000e-07	-5.422378e-06	-1.290309e-09	-3.747180e+01	-8.631296e+01
2.700000e-07	-5.411553e-06	-1.308289e-09	-3.739699e+01	-8.622815e+01
2.800000e-07	-5.400254e-06	-1.286708e-09	-3.731891e+01	-8.614256e+01
2.900000e-07	-5.388603e-06	-1.285165e-09	-3.723839e+01	-8.605585e+01
3.000000e-07	-5.376691e-06	-1.285013e-09	-3.715607e+01	-8.596767e+01
3.100000e-07	-5.364392e-06	-1.307970e-09	-3.707107e+01	-8.587765e+01
3.200000e-07	-5.351581e-06	-1.304044e-09	-3.698254e+01	-8.578541e+01
3.300000e-07	-5.338344e-06	-1.306319e-09	-3.689107e+01	-8.569061e+01
3.400000e-07	-5.324746e-06	-1.299514e-09	-3.679710e+01	-8.559291e+01
3.500000e-07	-5.310715e-06	-1.301566e-09	-3.670014e+01	-8.549201e+01
3.600000e-07	-5.296176e-06	-1.290578e-09	-3.659967e+01	-8.538765e+01
3.700000e-07	-5.281097e-06	-1.275781e-09	-3.649546e+01	-8.527960e+01
3.800000e-07	-5.265483e-06	-1.263609e-09	-3.638756e+01	-8.516771e+01
3.900000e-07	-5.249377e-06	-1.270626e-09	-3.627626e+01	-8.505187e+01
4.000000e-07	-5.232834e-06	-1.272993e-09	-3.616194e+01	-8.493201e+01
4.100000e-07	-5.216018e-06	-1.264455e-09	-3.604572e+01	-8.480816e+01
4.200000e-07	-5.198939e-06	-1.270106e-09	-3.592770e+01	-8.468038e+01
4.300000e-07	-5.181508e-06	-1.270577e-09	-3.580724e+01	-8.454878e+01
4.400000e-07	-5.163726e-06	-1.258169e-09	-3.568436e+01	-8.441355e+01
4.500000e-07	-5.145608e-06	-1.248464e-09	-3.555915e+01	-8.427490e+01
4.600000e-07	-5.127108e-06	-1.265319e-09	-3.543131e+01	-8.413311e+01
4.700000e-07	-5.108165e-06	-1.243317e-09	-3.530040e+01	-8.398846e+01
4.800000e-07	-5.088867e-06	-1.227544e-09	-3.516704e+01	-8.384128e+01
4.900000e-07	-5.069355e-06	-1.244871e-09	-3.503220e+01	-8.369191e+01
5.000000e-07	-5.049655e-06	-1.264066e-09	-3.489606e+01	-8.354070e+01
5.100000e-07	-5.029762e-06	-1.231974e-09	-3.475859e+01	-8.338797e+01
5.200000e-07	-5.009523e-06	-1.233874e-09	-3.461873e+01	-8.323407e+01
5.300000e-07	-4.988839e-06	-1.247361e-09	-3.447579e+01	-8.307930e+01
5.400000e-07	-4.967767e-06	-1.233076e-09	-3.433017e+01	-8.292392e+01
5.500000e-07	-4.946316e-06	-1.212358e-09	-3.418193e+01	-8.276819e+01
5.600000e-07	-4.924620e-06	-1.232331e-09	-3.403200e+01	-8.261229e+01
5.700000e-07	-4.902568e-06	-1.217625e-09	-3.387960e+01	-8.245635e+01
5.800000e-07	-4.880099e-06	-1.196330e-09	-3.372433e+01	-8.230047e+01
5.900000e-07	-4.857308e-06	-1.209858e-09	-3.356683e+01	-8.214466e+01
6.000000e-07	-4.834200e-06	-1.222073e-09	-3.340714e+01	-8.198889e+01
6.100000e-07	-4.810832e-06	-1.196605e-09	-3.324565e+01	-8.183306e+01
6.200000e-07	-4.787256e-06	-1.200566e-09	-3.308273e+01	-8.167701e+01
6.300000e-07	-4.763495e-06	-1.212952e-09	-3.291853e+01	-8.152054e+01
6.400000e-07	-4.739486e-06	-1.193981e-09	-3.275261e+01	-8.136339e+01
6.500000e-07	-4.714998e-06	-1.180785e-09	-3.258339e+01	-8.120524e+01
6.600000e-07	-4.689862e-06	-1.194105e-09	-3.240968e+01	-8.104576e+01
6.700000e-07	-4.664156e-06	-1.187291e-09	-3.223204e+01	-8.088457e+01
6.800000e-07	-4.638000e-06	-1.175026e-09	-3.205128e+01	-8.072128e+01
6.900000e-07	-4.611319e-06	-1.184453e-09	-3.186690e+01	-8.055548e+01
7.000000e-07	-4.584167e-06	-1.184543e-09	-3.167926e+01	-8.038677e+01
7.100000e-07	-4.556716e-06	-1.171543e-09	-3.148956e+01	-8.021475e+01
7.200000e-07	-4.529087e-06	-1.167436e-09	-3.129863e+01	-8.003905e+01
7.300000e-07	-4.501370e-06	-1.169829e-09	-3.110709e+01	-7.985929e+01
7.400000e-07	-4.473465e-06	-1.160291e-09	-3.091425e+01	-7.967517e+01
7.500000e-07	-4.445311e-06	-1.160630e-09	-3.071969e+01	-7.948641e+01
7.600000e-07	-4.416905e-06	-1.161751e-09	-3.052339e+01	-7.929279e+01
7.700000e-07	-4.388155e-06	-1.157427e-09	-3.032471e+01	-7.909412e+01
7.800000e-07	-4.359017e-06	-1.145166e-09	-3.012335e+01	-7.889030e+01
7.900000e-07	-4.329558e-06	-1.142423e-09	-2.991977e+01	-7.868127e+01
8.000000e-07	-4.299833e-06	-1.137167e-09	-2.971436e+01	-7.846704e+01
8.100000e-07	-4.269784e-06	-1.131338e-09	-2.950670e+01	-7.824767e+01
8.200000e-07	-4.239337e-06	-1.129372e-09	-2.929629e+01	-7.802329e+01
8.300000e-07	-4.208541e-06	-1.136939e-09	-2.908347e+01	-7.779408e+01
8.400000e-07	-4.177504e-06	-1.132617e-09	-2.886899e+01	-7.756026e+01
8.500000e-07	-4.146277e-06	-1.127738e-09	-2.865319e+01	-7.732213e+01
8.600000e-07	-4.114868e-06	-1.119096e-09	-2.843614e+01	-7.707997e+01
8.700000e-07	-4.083294e-06	-1.110002e-09	-2.821795e+01	-7.683413e+01
8.800000e-07	-4.051565e-06	-1.098409e-09	-2.799868e+01	-7.658497e+01
8.900000e-07	-4.019626e-06	-1.096816e-09	-2.777796e+01	-7.633285e+01
9.000000e-07	-3.987387e-06	-1.093164e-09	-2.755517e+01	-7.607812e+01
9.100000e-07	-3.954739e-06	-1.091301e-09	-2.732955e+01	-7.582116e+01
9.200000e-07	-3.921695e-06	-1.090824e-09	-2.710120e+01	-7.556230e+01
9.300000e-07	-3.888271e-06	-1.090076e-09	-2.687022e+01	-7.530183e+01
9.400000e-07	-3.854307e-06	-1.085181e-09	-2.663551e+01	-7.504005e+01
9.500000e-07	-3.819839e-06	-1.080700e-09	-2.639731e+01	-7.477717e+01
9.600000e-07	-3.785018e-06	-1.075509e-09	-2.615668e+01	-7.451337e+01
9.700000e-07	-3.749924e-06	-1.064850e-09	-2.591416e+01	-7.424878e+01
9.800000e-07	-3.714588e-06	-1.056656e-09	-2.566997e+01	-7.398347e+01
9.900000e-07	-3.679041e-06	-1.050475e-09	-2.542432e+01	-7.371744e+01
1.000000e-06	-3.643379e-06	-1.045620e-09	-2.517787e+01	-7.345065e+01
1.010000e-06	-3.607576e-06	-1.042938e-09	-2.493046e+01	-7.318298e+01
1.020000e-06	-3.571568e-06	-1.047293e-09	-2.468162e+01	-7.291426e+01
1.030000e-06	-3.535320e-06	-1.050483e-09	-2.443112e+01	-7.264425e+01
1.040000e-06	-3.498800e-06	-1.049345e-09	-2.417875e+01	-7.237270e+01
1.050000e-06	-3.462071e-06	-1.043219e-09	-2.392493e+01	-7.209929e+01
1.060000e-06	-3.425114e-06	-1.034582e-09	-2.366953e+01	-7.182365e+01
1.070000e-06	-3.387866e-06	-1.022051e-09	-2.341213e+01	-7.154540e+01
1.080000e-06	-3.350340e-06	-1.017104e-09	-2.315280e+01	-7.126415e+01
1.090000e-06	-3.312560e-06	-1.016022e-09	-2.289172e+01	-7.097948e+01
1.100000e-06	-3.274581e-06	-1.014758e-09	-2.262927e+01	-7.069097e+01
1.110000e-06	-3.236388e-06	-1.009863e-09	-2.236533e+01	-7.039820e+01
1.120000e-06	-3.197973e-06	-1.008607e-09	-2.209986e+01	-7.010080e+01
1.130000e-06	-3.159349e-06	-1.002271e-09	-2.183294e+01	-6.979837e+01
1.140000e-06	-3.120463e-06	-9.929852e-10	-2.156422e+01	-6.949057e+01
1.150000e-06	-3.081422e-06	-9.827009e-10	-2.129442e+01	-6.917710e+01
1.160000e-06	-3.042239e-06	-9.742497e-10	-2.102365e+01	-6.885770e+01
1.170000e-06	-3.002852e-06	-9.651150e-10	-2.075146e+01	-6.853213e+01
1.180000e-06	-2.963336e-06	-9.603193e-10	-2.047838e+01	-6.820024e+01
1.190000e-06	-2.923695e-06	-9.570539e-10	-2.020444e+01	-6.786189e+01
1.200000e-06	-2.883953e-06	-9.509305e-10	-1.992980e+01	-6.751703e+01
1.210000e-06	-2.844060e-06	-9.431358e-10	-1.965411e+01	-6.716564e+01
1.220000e-06	-2.803952e-06	-9.372378e-10	-1.937694e+01	-6.680774e+01
1.230000e-06	-2.763677e-06	-9.318442e-10	-1.909862e+01	-6.644341e+01
1.240000e-06	-2.723206e-06	-9.278686e-10	-1.881894e+01	-6.607276e+01
1.250000e-06	-2.682398e-06	-9.272456e-10	-1.853693e+01	-6.569595e+01
1.260000e-06	-2.641218e-06	-9.249777e-10	-1.825236e+01	-6.531315e+01
1.270000e-06	-2.599690e-06	-9.178049e-10	-1.796538e+01	-6.492456e+01
1.280000e-06	-2.557813e-06	-9.083124e-10	-1.767598e+01	-6.453039e+01
1.290000e-06	-2.515718e-06	-9.004134e-10	-1.738508e+01	-6.413085e+01
1.300000e-06	-2.473418e-06	-8.928940e-10	-1.709276e+01	-6.372617e+01
1.310000e-06	-2.430745e-06	-8.869504e-10	-1.679786e+01	-6.331654e+01
1.320000e-06	-2.387747e-06	-8.828608e-10	-1.650073e+01	-6.290215e+01
1.330000e-06	-2.344583e-06	-8.803275e-10	-1.620244e+01	-6.248315e+01
1.340000e-06	-2.301278e-06	-8.763429e-10	-1.590317e+01	-6.205968e+01
1.350000e-06	-2.257892e-06	-8.706965e-10	-1.560335e+01	-6.163180e+01
1.360000e-06	-2.214385e-06	-8.616006e-10	-1.530269e+01	-6.119958e+01
1.370000e-06	-2.170747e-06	-8.517949e-10	-1.500113e+01	-6.076299e+01
1.380000e-06	-2.127055e-06	-8.416389e-10	-1.469919e+01	-6.032198e+01
1.390000e-06	-2.083308e-06	-8.324769e-10	-1.439687e+01	-5.987644e+01
1.400000e-06	-2.039507e-06	-8.253864e-10	-1.409418e+01	-5.942619e+01
1.410000e-06	-1.995610e-06	-8.218047e-10	-1.379083e+01	-5.897102e+01
1.420000e-06	-1.951556e-06	-8.175936e-10	-1.348639e+01	-5.851063e+01
1.430000e-06	-1.907393e-06	-8.121719e-10	-1.318120e+01	-5.804471e+01
1.440000e-06	-1.863138e-06	-8.059869e-10	-1.287537e+01	-5.757286e+01
1.450000e-06	-1.818756e-06	-7.981994e-10	-1.256866e+01	-5.709466e+01
1.460000e-06	-1.774280e-06	-7.879931e-10	-1.226131e+01	-5.660962e+01
1.470000e-06	-1.729665e-06	-7.768473e-10	-1.195300e+01	-5.611724e+01
1.480000e-06	-1.684876e-06	-7.656031e-10	-1.164347e+01	-5.561695e+01
1.490000e-06	-1.639873e-06	-7.548450e-10	-1.133248e+01	-5.510819e+01
1.500000e-06	-1.594721e-06	-7.449223e-10	-1.102046e+01	-5.459032e+01
1.510000e-06	-1.549503e-06	-7.377764e-10	-1.070797e+01	-5.406273e+01
1.520000e-06	-1.504129e-06	-7.333723e-10	-1.039441e+01	-5.352476e+01
1.530000e-06	-1.458579e-06	-7.306890e-10	-1.007963e+01	-5.297574e+01
1.540000e-06	-1.412921e-06	-7.253163e-10	-9.764111e+00	-5.241499e+01
1.550000e-06	-1.367201e-06	-7.171810e-10	-9.448156e+00	-5.184180e+01
1.560000e-06	-1.321434e-06	-7.073788e-10	-9.131878e+00	-5.125549e+01
1.570000e-06	-1.275608e-06	-6.974743e-10	-8.815195e+00	-5.065534e+01
1.580000e-06	-1.229763e-06	-6.860206e-10	-8.498383e+00	-5.004063e+01
1.590000e-06	-1.183896e-06	-6.768998e-10	-8.181412e+00	-4.941063e+01
1.600000e-06	-1.137883e-06	-6.698016e-10	-7.863434e+00	-4.876461e+01
1.610000e-06	-1.091776e-06	-6.614971e-10	-7.544808e+00	-4.810183e+01
1.620000e-06	-1.045559e-06	-6.541342e-10	-7.225422e+00	-4.742151e+01
1.630000e-06	-9.991795e-07	-6.453665e-10	-6.904913e+00	-4.672290e+01
1.640000e-06	-9.527309e-07	-6.350012e-10	-6.583926e+00	-4.600521e+01
1.650000e-06	-9.062456e-07	-6.220507e-10	-6.262686e+00	-4.526762e+01
1.660000e-06	-8.597318e-07	-6.071406e-10	-5.941248e+00	-4.450933e+01
1.670000e-06	-8.131372e-07	-5.915241e-10	-5.619252e+00	-4.372949e+01
1.680000e-06	-7.664444e-07	-5.773108e-10	-5.296578e+00	-4.292725e+01
1.690000e-06	-7.196906e-07	-5.644200e-10	-4.973481e+00	-4.210171e+01
1.700000e-06	-6.728591e-07	-5.516608e-10	-4.649849e+00	-4.125200e+01
1.710000e-06	-6.259934e-07	-5.381509e-10	-4.325980e+00	-4.037720e+01
1.720000e-06	-5.790961e-07	-5.261652e-10	-4.001892e+00	-3.947639e+01
1.730000e-06	-5.321960e-07	-5.131777e-10	-3.677785e+00	-3.854864e+01
1.740000e-06	-4.853512e-07	-4.980598e-10	-3.354060e+00	-3.759303e+01
1.750000e-06	-4.384272e-07	-4.809887e-10	-3.029788e+00	-3.660864e+01
1.760000e-06	-3.913559e-07	-4.620483e-10	-2.704497e+00	-3.559457e+01
1.770000e-06	-3.442239e-07	-4.418279e-10	-2.378788e+00	-3.454994e+01
1.780000e-06	-2.971324e-07	-4.236604e-10	-2.053358e+00	-3.347390e+01
1.790000e-06	-2.500346e-07	-4.092273e-10	-1.727885e+00	-3.236568e+01
1.800000e-06	-2.028678e-07	-3.956505e-10	-1.401935e+00	-3.122453e+01
1.810000e-06	-1.556758e-07	-3.792105e-10	-1.075810e+00	-3.004980e+01
1.820000e-06	-1.085599e-07	-3.625542e-10	-7.502119e-01	-2.884094e+01
1.830000e-06	-6.152070e-08	-3.454790e-10	-4.251439e-01	-2.759746e+01
1.840000e-06	-1.450533e-08	-3.269245e-10	-1.002403e-01	-2.631902e+01
1.850000e-06	3.250806e-08	-3.066736e-10	2.246497e-01	-2.500540e+01
1.860000e-06	7.959335e-08	-2.850766e-10	5.500365e-01	-2.365651e+01
1.870000e-06	1.266999e-07	-2.642458e-10	8.755705e-01	-2.227244e+01
1.880000e-06	1.737640e-07	-2.442104e-10	1.200810e+00	-2.085342e+01
1.890000e-06	2.208289e-07	-2.253319e-10	1.526057e+00	-1.939985e+01
1.900000e-06	2.679556e-07	-2.070834e-10	1.851730e+00	-1.791233e+01
1.910000e-06	3.150675e-07	-1.892435e-10	2.177300e+00	-1.639163e+01
1.920000e-06	3.621587e-07	-1.699260e-10	2.502728e+00	-1.483871e+01
1.930000e-06	4.093003e-07	-1.480896e-10	2.828504e+00	-1.325474e+01
1.940000e-06	4.564160e-07	-1.244184e-10	3.154101e+00	-1.164105e+01
1.950000e-06	5.033833e-07	-1.010754e-10	3.478672e+00	-9.999185e+00
1.960000e-06	5.502527e-07	-8.080551e-11	3.802567e+00	-8.330849e+00
1.970000e-06	5.970589e-07	-6.190399e-11	4.126026e+00	-6.637930e+00
1.980000e-06	6.437573e-07	-4.160732e-11	4.448738e+00	-4.922480e+00
1.990000e-06	6.904332e-07	-1.807703e-11	4.771296e+00	-3.186699e+00
2.000000e-06	7.371105e-07	9.562125e-12	5.093863e+00	-1.432925e+00
2.010000e-06	7.836852e-07	3.936874e-11	5.415722e+00	3.363836e-01
2.020000e-06	8.301686e-07	6.966662e-11	5.736949e+00	2.118665e+00
2.030000e-06	8.765654e-07	9.538939e-11	6.057578e+00	3.911273e+00
2.040000e-06	9.229537e-07	1.181000e-10	6.378148e+00	5.711497e+00
2.050000e-06	9.693270e-07	1.398949e-10	6.698615e+00	7.516583e+00
2.060000e-06	1.015563e-06	1.613516e-10	7.018131e+00	9.323755e+00
2.070000e-06	1.061686e-06	1.827445e-10	7.336867e+00	1.113023e+01
2.080000e-06	1.107733e-06	2.079584e-10	7.655081e+00	1.293326e+01
2.090000e-06	1.153731e-06	2.381507e-10	7.972953e+00	1.473012e+01
2.100000e-06	1.199618e-06	2.680729e-10	8.290059e+00	1.651815e+01
2.110000e-06	1.245430e-06	2.955298e-10	8.606648e+00	1.829478e+01
2.120000e-06	1.291204e-06	3.179408e-10	8.922971e+00	2.005752e+01
2.130000e-06	1.336887e-06	3.352790e-10	9.238668e+00	2.180400e+01
2.140000e-06	1.382529e-06	3.498068e-10	9.554084e+00	2.353198e+01
2.150000e-06	1.428172e-06	3.677504e-10	9.869501e+00	2.523935e+01
2.160000e-06	1.473725e-06	3.923031e-10	1.018430e+01	2.692416e+01
2.170000e-06	1.519127e-06	4.185068e-10	1.049806e+01	2.858461e+01
2.180000e-06	1.564433e-06	4.460727e-10	1.081114e+01	3.021906e+01
2.190000e-06	1.609589e-06	4.745394e-10	1.112320e+01	3.182604e+01
2.200000e-06	1.654577e-06	4.980746e-10	1.143409e+01	3.340424e+01
2.210000e-06	1.699463e-06	5.130958e-10	1.174428e+01	3.495255e+01
2.220000e-06	1.744212e-06	5.232049e-10	1.205352e+01	3.646999e+01
2.230000e-06	1.788808e-06	5.359396e-10	1.236171e+01	3.795577e+01
2.240000e-06	1.833271e-06	5.514942e-10	1.266897e+01	3.940924e+01
2.250000e-06	1.877505e-06	5.707564e-10	1.297465e+01	4.082990e+01
2.260000e-06	1.921527e-06	5.947587e-10	1.327887e+01	4.221742e+01
2.270000e-06	1.965485e-06	6.218217e-10	1.358265e+01	4.357158e+01
2.280000e-06	2.009433e-06	6.477807e-10	1.388636e+01	4.489229e+01
2.290000e-06	2.053267e-06	6.675203e-10	1.418927e+01	4.617959e+01
2.300000e-06	2.096962e-06	6.793290e-10	1.449123e+01	4.743361e+01
2.310000e-06	2.140634e-06	6.877757e-10	1.479303e+01	4.865459e+01
2.320000e-06	2.184270e-06	6.988760e-10	1.509458e+01	4.984284e+01
2.330000e-06	2.227862e-06	7.131290e-10	1.539582e+01	5.099876e+01
2.340000e-06	2.271391e-06	7.309816e-10	1.569663e+01	5.212280e+01
2.350000e-06	2.314799e-06	7.515252e-10	1.599661e+01	5.321550e+01
2.360000e-06	2.358100e-06	7.712871e-10	1.629585e+01	5.427741e+01
2.370000e-06	2.401270e-06	7.872279e-10	1.659417e+01	5.530915e+01
2.380000e-06	2.444222e-06	7.996382e-10	1.689100e+01	5.631136e+01
2.390000e-06	2.486851e-06	8.110028e-10	1.718559e+01	5.728472e+01
2.400000e-06	2.529118e-06	8.228159e-10	1.747768e+01	5.822992e+01
2.410000e-06	2.571096e-06	8.353215e-10	1.776777e+01	5.914769e+01
2.420000e-06	2.612747e-06	8.483376e-10	1.805561e+01	6.003876e+01
2.430000e-06	2.653971e-06	8.621503e-10	1.834049e+01	6.090387e+01
2.440000e-06	2.694890e-06	8.756836e-10	1.862326e+01	6.174378e+01
2.450000e-06	2.735611e-06	8.876813e-10	1.890467e+01	6.255925e+01
2.460000e-06	2.776074e-06	8.974733e-10	1.918429e+01	6.335103e+01
2.470000e-06	2.816305e-06	9.069711e-10	1.946231e+01	6.411991e+01
2.480000e-06	2.856319e-06	9.181381e-10	1.973883e+01	6.486664e+01
2.490000e-06	2.896148e-06	9.293782e-10	2.001407e+01	6.559199e+01
2.500000e-06	2.935870e-06	9.412286e-10	2.028857e+01	6.629672e+01
2.510000e-06	2.975490e-06	9.526114e-10	2.056237e+01	6.698158e+01
2.520000e-06	3.014990e-06	9.619173e-10	2.083534e+01	6.764731e+01
2.530000e-06	3.054360e-06	9.694708e-10	2.110741e+01	6.829465e+01
2.540000e-06	3.093512e-06	9.762844e-10	2.137797e+01	6.892432e+01
2.550000e-06	3.132441e-06	9.832060e-10	2.164699e+01	6.953699e+01
2.560000e-06	3.171207e-06	9.902813e-10	2.191489e+01	7.013337e+01
2.570000e-06	3.209716e-06	9.991124e-10	2.218101e+01	7.071408e+01
2.580000e-06	3.247954e-06	1.009334e-09	2.244526e+01	7.127975e+01
2.590000e-06	3.285985e-06	1.019727e-09	2.270807e+01	7.183096e+01
2.600000e-06	3.323787e-06	1.030505e-09	2.296931e+01	7.236826e+01
2.610000e-06	3.361331e-06	1.039816e-09	2.322876e+01	7.289215e+01
2.620000e-06	3.398631e-06	1.046476e-09	2.348652e+01	7.340308e+01
2.630000e-06	3.435774e-06	1.050941e-09	2.374320e+01	7.390148e+01
2.640000e-06	3.472688e-06	1.054486e-09	2.399830e+01	7.438769e+01
2.650000e-06	3.509237e-06	1.058537e-09	2.425087e+01	7.486202e+01
2.660000e-06	3.545505e-06	1.064502e-09	2.450151e+01	7.532473e+01
2.670000e-06	3.581528e-06	1.070990e-09	2.475045e+01	7.577602e+01
2.680000e-06	3.617356e-06	1.077150e-09	2.499804e+01	7.621603e+01
2.690000e-06	3.653056e-06	1.084459e-09	2.524475e+01	7.664486e+01
2.700000e-06	3.688628e-06	1.092294e-09	2.549057e+01	7.706256e+01
2.710000e-06	3.724126e-06	1.098702e-09	2.573588e+01	7.746913e+01
2.720000e-06	3.759492e-06	1.103259e-09	2.598028e+01	7.786454e+01
2.730000e-06	3.794569e-06	1.108283e-09	2.622269e+01	7.824872e+01
2.740000e-06	3.829335e-06	1.113327e-09	2.646294e+01	7.862157e+01
2.750000e-06	3.863661e-06	1.117594e-09	2.670015e+01	7.898299e+01
2.760000e-06	3.897483e-06	1.122616e-09	2.693388e+01	7.933285e+01
2.770000e-06	3.930809e-06	1.128011e-09	2.716418e+01	7.967102e+01
2.780000e-06	3.963614e-06	1.132575e-09	2.739088e+01	7.999739e+01
2.790000e-06	3.996031e-06	1.137031e-09	2.761491e+01	8.031184e+01
2.800000e-06	4.028140e-06	1.141700e-09	2.783680e+01	8.061432e+01
2.810000e-06	4.059985e-06	1.145038e-09	2.805687e+01	8.090476e+01
2.820000e-06	4.091683e-06	1.147899e-09	2.827592e+01	8.118317e+01
2.830000e-06	4.123291e-06	1.151446e-09	2.849434e+01	8.144960e+01
2.840000e-06	4.154742e-06	1.154204e-09	2.871169e+01	8.170416e+01
2.850000e-06	4.185944e-06	1.156889e-09	2.892731e+01	8.194700e+01
2.860000e-06	4.216833e-06	1.161067e-09	2.914078e+01	8.217837e+01
2.870000e-06	4.247366e-06	1.165262e-09	2.935178e+01	8.239856e+01
2.880000e-06	4.277500e-06	1.169151e-09	2.956002e+01	8.260794e+01
2.890000e-06	4.307265e-06	1.175380e-09	2.976572e+01	8.280695e+01
2.900000e-06	4.336819e-06	1.181948e-09	2.996995e+01	8.299611e+01
