# Temperatura_=_2.55
# Concentracion g/m^3_=_1620.0
# C_Vs_to_Am_M_A/Vsm_=_65563218390.804596
# pendiente_HvsI_1/m_=_3716.3
# ordenada_HvsI_A/m_=_1297.0
# frecuencia_Hz_=_135109.79009655202

Tiempo_(s)	Campo_(V.s)	Magnetizacion_(V.s)	Campo_(kA/m)	Magnetizacion_(A/m)
0.000000e+00	-5.513866e-06	-1.247025e-09	-3.837577e+01	-8.209357e+01
1.000000e-08	-5.513978e-06	-1.243539e-09	-3.837654e+01	-8.203150e+01
2.000000e-08	-5.513866e-06	-1.241494e-09	-3.837576e+01	-8.197103e+01
3.000000e-08	-5.513547e-06	-1.238798e-09	-3.837355e+01	-8.191249e+01
4.000000e-08	-5.512792e-06	-1.237071e-09	-3.836829e+01	-8.185613e+01
5.000000e-08	-5.511423e-06	-1.233761e-09	-3.835877e+01	-8.180218e+01
6.000000e-08	-5.509478e-06	-1.227171e-09	-3.834522e+01	-8.175082e+01
7.000000e-08	-5.506954e-06	-1.224468e-09	-3.832766e+01	-8.170214e+01
8.000000e-08	-5.503906e-06	-1.227413e-09	-3.830645e+01	-8.165622e+01
9.000000e-08	-5.500389e-06	-1.231803e-09	-3.828197e+01	-8.161303e+01
1.000000e-07	-5.496446e-06	-1.253973e-09	-3.825452e+01	-8.157250e+01
1.100000e-07	-5.492123e-06	-1.281029e-09	-3.822444e+01	-8.153447e+01
1.200000e-07	-5.487504e-06	-1.210229e-09	-3.819229e+01	-8.149874e+01
1.300000e-07	-5.482709e-06	-1.168458e-09	-3.815891e+01	-8.146502e+01
1.400000e-07	-5.477594e-06	-1.193480e-09	-3.812332e+01	-8.143298e+01
1.500000e-07	-5.472046e-06	-1.262458e-09	-3.808471e+01	-8.140221e+01
1.600000e-07	-5.466147e-06	-1.250786e-09	-3.804365e+01	-8.137225e+01
1.700000e-07	-5.459893e-06	-1.185479e-09	-3.800012e+01	-8.134261e+01
1.800000e-07	-5.453227e-06	-1.217981e-09	-3.795373e+01	-8.131273e+01
1.900000e-07	-5.446118e-06	-1.254191e-09	-3.790425e+01	-8.128204e+01
2.000000e-07	-5.438696e-06	-1.262957e-09	-3.785259e+01	-8.124994e+01
2.100000e-07	-5.431008e-06	-1.210394e-09	-3.779908e+01	-8.121581e+01
2.200000e-07	-5.423114e-06	-1.230467e-09	-3.774414e+01	-8.117904e+01
2.300000e-07	-5.415047e-06	-1.250916e-09	-3.768800e+01	-8.113901e+01
2.400000e-07	-5.406618e-06	-1.259056e-09	-3.762934e+01	-8.109512e+01
2.500000e-07	-5.397447e-06	-1.225530e-09	-3.756551e+01	-8.104682e+01
2.600000e-07	-5.387408e-06	-1.231166e-09	-3.749564e+01	-8.099356e+01
2.700000e-07	-5.376754e-06	-1.229102e-09	-3.742148e+01	-8.093487e+01
2.800000e-07	-5.365654e-06	-1.228409e-09	-3.734423e+01	-8.087032e+01
2.900000e-07	-5.354161e-06	-1.217294e-09	-3.726424e+01	-8.079954e+01
3.000000e-07	-5.342276e-06	-1.220349e-09	-3.718153e+01	-8.072224e+01
3.100000e-07	-5.330021e-06	-1.223256e-09	-3.709623e+01	-8.063821e+01
3.200000e-07	-5.317385e-06	-1.227626e-09	-3.700828e+01	-8.054730e+01
3.300000e-07	-5.304317e-06	-1.226537e-09	-3.691734e+01	-8.044948e+01
3.400000e-07	-5.290878e-06	-1.211437e-09	-3.682380e+01	-8.034476e+01
3.500000e-07	-5.277077e-06	-1.226043e-09	-3.672775e+01	-8.023327e+01
3.600000e-07	-5.262774e-06	-1.225415e-09	-3.662820e+01	-8.011520e+01
3.700000e-07	-5.247947e-06	-1.206058e-09	-3.652500e+01	-7.999084e+01
3.800000e-07	-5.232639e-06	-1.197815e-09	-3.641847e+01	-7.986053e+01
3.900000e-07	-5.216769e-06	-1.217863e-09	-3.630801e+01	-7.972468e+01
4.000000e-07	-5.200355e-06	-1.181795e-09	-3.619377e+01	-7.958378e+01
4.100000e-07	-5.183659e-06	-1.172369e-09	-3.607757e+01	-7.943836e+01
4.200000e-07	-5.166750e-06	-1.211664e-09	-3.595989e+01	-7.928896e+01
4.300000e-07	-5.149517e-06	-1.210039e-09	-3.583995e+01	-7.913620e+01
4.400000e-07	-5.132009e-06	-1.144520e-09	-3.571810e+01	-7.898068e+01
4.500000e-07	-5.114170e-06	-1.177786e-09	-3.559393e+01	-7.882301e+01
4.600000e-07	-5.095849e-06	-1.204858e-09	-3.546643e+01	-7.866380e+01
4.700000e-07	-5.077059e-06	-1.145016e-09	-3.533565e+01	-7.850365e+01
4.800000e-07	-5.057866e-06	-1.127705e-09	-3.520207e+01	-7.834312e+01
4.900000e-07	-5.038387e-06	-1.205818e-09	-3.506650e+01	-7.818272e+01
5.000000e-07	-5.018673e-06	-1.177348e-09	-3.492929e+01	-7.802293e+01
5.100000e-07	-4.998756e-06	-1.127943e-09	-3.479067e+01	-7.786416e+01
5.200000e-07	-4.978678e-06	-1.174691e-09	-3.465093e+01	-7.770674e+01
5.300000e-07	-4.958294e-06	-1.190519e-09	-3.450906e+01	-7.755095e+01
5.400000e-07	-4.937514e-06	-1.118710e-09	-3.436443e+01	-7.739699e+01
5.500000e-07	-4.916349e-06	-1.136956e-09	-3.421713e+01	-7.724496e+01
5.600000e-07	-4.894733e-06	-1.175449e-09	-3.406668e+01	-7.709489e+01
5.700000e-07	-4.872756e-06	-1.124877e-09	-3.391373e+01	-7.694674e+01
5.800000e-07	-4.850560e-06	-1.111713e-09	-3.375925e+01	-7.680037e+01
5.900000e-07	-4.828028e-06	-1.167884e-09	-3.360242e+01	-7.665559e+01
6.000000e-07	-4.805032e-06	-1.146724e-09	-3.344238e+01	-7.651212e+01
6.100000e-07	-4.781678e-06	-1.106812e-09	-3.327983e+01	-7.636962e+01
6.200000e-07	-4.758074e-06	-1.139245e-09	-3.311555e+01	-7.622771e+01
6.300000e-07	-4.734288e-06	-1.142115e-09	-3.295001e+01	-7.608597e+01
6.400000e-07	-4.710379e-06	-1.104884e-09	-3.278360e+01	-7.594392e+01
6.500000e-07	-4.686143e-06	-1.116092e-09	-3.261493e+01	-7.580107e+01
6.600000e-07	-4.661437e-06	-1.139684e-09	-3.244297e+01	-7.565694e+01
6.700000e-07	-4.636372e-06	-1.114949e-09	-3.226852e+01	-7.551102e+01
6.800000e-07	-4.610790e-06	-1.115297e-09	-3.209048e+01	-7.536282e+01
6.900000e-07	-4.584579e-06	-1.131481e-09	-3.190805e+01	-7.521190e+01
7.000000e-07	-4.557844e-06	-1.121626e-09	-3.172198e+01	-7.505781e+01
7.100000e-07	-4.530652e-06	-1.100634e-09	-3.153273e+01	-7.490018e+01
7.200000e-07	-4.503155e-06	-1.108575e-09	-3.134135e+01	-7.473867e+01
7.300000e-07	-4.475462e-06	-1.105753e-09	-3.114862e+01	-7.457301e+01
7.400000e-07	-4.447619e-06	-1.096617e-09	-3.095483e+01	-7.440299e+01
7.500000e-07	-4.419622e-06	-1.093276e-09	-3.075997e+01	-7.422847e+01
7.600000e-07	-4.391403e-06	-1.097818e-09	-3.056357e+01	-7.404939e+01
7.700000e-07	-4.362915e-06	-1.087471e-09	-3.036530e+01	-7.386575e+01
7.800000e-07	-4.334082e-06	-1.084230e-09	-3.016463e+01	-7.367762e+01
7.900000e-07	-4.304829e-06	-1.081569e-09	-2.996103e+01	-7.348515e+01
8.000000e-07	-4.275223e-06	-1.078346e-09	-2.975498e+01	-7.328854e+01
8.100000e-07	-4.245379e-06	-1.073562e-09	-2.954727e+01	-7.308806e+01
8.200000e-07	-4.215343e-06	-1.076543e-09	-2.933822e+01	-7.288403e+01
8.300000e-07	-4.184957e-06	-1.073071e-09	-2.912674e+01	-7.267681e+01
8.400000e-07	-4.154210e-06	-1.069757e-09	-2.891275e+01	-7.246677e+01
8.500000e-07	-4.123151e-06	-1.070635e-09	-2.869657e+01	-7.225434e+01
8.600000e-07	-4.091779e-06	-1.070383e-09	-2.847823e+01	-7.203992e+01
8.700000e-07	-4.060225e-06	-1.063678e-09	-2.825862e+01	-7.182394e+01
8.800000e-07	-4.028530e-06	-1.060624e-09	-2.803803e+01	-7.160680e+01
8.900000e-07	-3.996697e-06	-1.057808e-09	-2.781647e+01	-7.138888e+01
9.000000e-07	-3.964712e-06	-1.050437e-09	-2.759386e+01	-7.117052e+01
9.100000e-07	-3.932500e-06	-1.047280e-09	-2.736967e+01	-7.095203e+01
9.200000e-07	-3.900028e-06	-1.046663e-09	-2.714367e+01	-7.073363e+01
9.300000e-07	-3.867262e-06	-1.042552e-09	-2.691562e+01	-7.051553e+01
9.400000e-07	-3.834001e-06	-1.036978e-09	-2.668413e+01	-7.029781e+01
9.500000e-07	-3.800161e-06	-1.036320e-09	-2.644861e+01	-7.008053e+01
9.600000e-07	-3.765882e-06	-1.026922e-09	-2.621003e+01	-6.986364e+01
9.700000e-07	-3.731163e-06	-1.016287e-09	-2.596839e+01	-6.964702e+01
9.800000e-07	-3.696020e-06	-1.012003e-09	-2.572381e+01	-6.943049e+01
9.900000e-07	-3.660536e-06	-1.012863e-09	-2.547684e+01	-6.921375e+01
1.000000e-06	-3.624817e-06	-1.006547e-09	-2.522824e+01	-6.899647e+01
1.010000e-06	-3.589003e-06	-1.005395e-09	-2.497898e+01	-6.877824e+01
1.020000e-06	-3.553117e-06	-1.005558e-09	-2.472922e+01	-6.855858e+01
1.030000e-06	-3.517144e-06	-1.000912e-09	-2.447885e+01	-6.833697e+01
1.040000e-06	-3.481013e-06	-9.931852e-10	-2.422738e+01	-6.811285e+01
1.050000e-06	-3.444634e-06	-9.923774e-10	-2.397419e+01	-6.788562e+01
1.060000e-06	-3.407933e-06	-9.857290e-10	-2.371876e+01	-6.765467e+01
1.070000e-06	-3.370926e-06	-9.776358e-10	-2.346119e+01	-6.741938e+01
1.080000e-06	-3.333669e-06	-9.740554e-10	-2.320189e+01	-6.717915e+01
1.090000e-06	-3.296186e-06	-9.739242e-10	-2.294101e+01	-6.693336e+01
1.100000e-06	-3.258481e-06	-9.673442e-10	-2.267859e+01	-6.668146e+01
1.110000e-06	-3.220630e-06	-9.635938e-10	-2.241515e+01	-6.642292e+01
1.120000e-06	-3.182577e-06	-9.619618e-10	-2.215031e+01	-6.615726e+01
1.130000e-06	-3.144207e-06	-9.565879e-10	-2.188326e+01	-6.588408e+01
1.140000e-06	-3.105557e-06	-9.493865e-10	-2.161426e+01	-6.560302e+01
1.150000e-06	-3.066743e-06	-9.455478e-10	-2.134412e+01	-6.531383e+01
1.160000e-06	-3.027725e-06	-9.399027e-10	-2.107256e+01	-6.501629e+01
1.170000e-06	-2.988415e-06	-9.319151e-10	-2.079897e+01	-6.471033e+01
1.180000e-06	-2.948957e-06	-9.271001e-10	-2.052434e+01	-6.439590e+01
1.190000e-06	-2.909392e-06	-9.239357e-10	-2.024898e+01	-6.407307e+01
1.200000e-06	-2.869717e-06	-9.182467e-10	-1.997284e+01	-6.374199e+01
1.210000e-06	-2.829922e-06	-9.121528e-10	-1.969587e+01	-6.340287e+01
1.220000e-06	-2.790016e-06	-9.071405e-10	-1.941814e+01	-6.305602e+01
1.230000e-06	-2.750005e-06	-8.990837e-10	-1.913967e+01	-6.270178e+01
1.240000e-06	-2.709848e-06	-8.930375e-10	-1.886018e+01	-6.234058e+01
1.250000e-06	-2.669487e-06	-8.895089e-10	-1.857927e+01	-6.197286e+01
1.260000e-06	-2.628906e-06	-8.872567e-10	-1.829683e+01	-6.159912e+01
1.270000e-06	-2.588100e-06	-8.817699e-10	-1.801283e+01	-6.121988e+01
1.280000e-06	-2.547001e-06	-8.776024e-10	-1.772679e+01	-6.083567e+01
1.290000e-06	-2.505653e-06	-8.738733e-10	-1.743901e+01	-6.044700e+01
1.300000e-06	-2.463991e-06	-8.668499e-10	-1.714905e+01	-6.005439e+01
1.310000e-06	-2.421935e-06	-8.583351e-10	-1.685634e+01	-5.965832e+01
1.320000e-06	-2.379616e-06	-8.519283e-10	-1.656181e+01	-5.925923e+01
1.330000e-06	-2.337036e-06	-8.439915e-10	-1.626546e+01	-5.885752e+01
1.340000e-06	-2.294183e-06	-8.370091e-10	-1.596721e+01	-5.845353e+01
1.350000e-06	-2.251137e-06	-8.336318e-10	-1.566761e+01	-5.804751e+01
1.360000e-06	-2.207754e-06	-8.294409e-10	-1.536567e+01	-5.763967e+01
1.370000e-06	-2.164133e-06	-8.202513e-10	-1.506208e+01	-5.723011e+01
1.380000e-06	-2.120433e-06	-8.106032e-10	-1.475793e+01	-5.681886e+01
1.390000e-06	-2.076680e-06	-8.036508e-10	-1.445341e+01	-5.640585e+01
1.400000e-06	-2.032890e-06	-7.998335e-10	-1.414864e+01	-5.599092e+01
1.410000e-06	-1.989022e-06	-7.956584e-10	-1.384332e+01	-5.557383e+01
1.420000e-06	-1.945088e-06	-7.921025e-10	-1.353755e+01	-5.515425e+01
1.430000e-06	-1.901083e-06	-7.860888e-10	-1.323128e+01	-5.473174e+01
1.440000e-06	-1.856960e-06	-7.759797e-10	-1.292419e+01	-5.430582e+01
1.450000e-06	-1.812763e-06	-7.635673e-10	-1.261659e+01	-5.387591e+01
1.460000e-06	-1.768496e-06	-7.541435e-10	-1.230850e+01	-5.344136e+01
1.470000e-06	-1.724102e-06	-7.455213e-10	-1.199952e+01	-5.300147e+01
1.480000e-06	-1.679627e-06	-7.400520e-10	-1.168998e+01	-5.255549e+01
1.490000e-06	-1.635015e-06	-7.353387e-10	-1.137948e+01	-5.210260e+01
1.500000e-06	-1.590198e-06	-7.271234e-10	-1.106757e+01	-5.164198e+01
1.510000e-06	-1.545205e-06	-7.191041e-10	-1.075442e+01	-5.117276e+01
1.520000e-06	-1.500107e-06	-7.117607e-10	-1.044054e+01	-5.069406e+01
1.530000e-06	-1.454963e-06	-7.035947e-10	-1.012634e+01	-5.020498e+01
1.540000e-06	-1.409669e-06	-6.934725e-10	-9.811105e+00	-4.970463e+01
1.550000e-06	-1.364188e-06	-6.845580e-10	-9.494563e+00	-4.919211e+01
1.560000e-06	-1.318652e-06	-6.785093e-10	-9.177638e+00	-4.866654e+01
1.570000e-06	-1.273083e-06	-6.696190e-10	-8.860488e+00	-4.812705e+01
1.580000e-06	-1.227475e-06	-6.594915e-10	-8.543060e+00	-4.757277e+01
1.590000e-06	-1.181778e-06	-6.504286e-10	-8.225015e+00	-4.700288e+01
1.600000e-06	-1.135947e-06	-6.413601e-10	-7.906036e+00	-4.641654e+01
1.610000e-06	-1.090016e-06	-6.330646e-10	-7.586362e+00	-4.581297e+01
1.620000e-06	-1.044041e-06	-6.252984e-10	-7.266387e+00	-4.519140e+01
1.630000e-06	-9.980481e-07	-6.186161e-10	-6.946281e+00	-4.455105e+01
1.640000e-06	-9.520440e-07	-6.096545e-10	-6.626098e+00	-4.389120e+01
1.650000e-06	-9.059743e-07	-5.990284e-10	-6.305459e+00	-4.321112e+01
1.660000e-06	-8.597779e-07	-5.863747e-10	-5.983938e+00	-4.251009e+01
1.670000e-06	-8.134979e-07	-5.731196e-10	-5.661836e+00	-4.178740e+01
1.680000e-06	-7.671642e-07	-5.588704e-10	-5.339360e+00	-4.104237e+01
1.690000e-06	-7.207995e-07	-5.447066e-10	-5.016668e+00	-4.027428e+01
1.700000e-06	-6.744432e-07	-5.313671e-10	-4.694034e+00	-3.948243e+01
1.710000e-06	-6.281169e-07	-5.185720e-10	-4.371610e+00	-3.866614e+01
1.720000e-06	-5.818041e-07	-5.061831e-10	-4.049278e+00	-3.782468e+01
1.730000e-06	-5.353406e-07	-4.948381e-10	-3.725898e+00	-3.695737e+01
1.740000e-06	-4.886988e-07	-4.820389e-10	-3.401278e+00	-3.606348e+01
1.750000e-06	-4.419287e-07	-4.663263e-10	-3.075765e+00	-3.514230e+01
1.760000e-06	-3.950907e-07	-4.474646e-10	-2.749778e+00	-3.419313e+01
1.770000e-06	-3.483136e-07	-4.304377e-10	-2.424216e+00	-3.321528e+01
1.780000e-06	-3.015996e-07	-4.161185e-10	-2.099093e+00	-3.220805e+01
1.790000e-06	-2.549238e-07	-4.031364e-10	-1.774235e+00	-3.117079e+01
1.800000e-06	-2.083005e-07	-3.895476e-10	-1.449743e+00	-3.010287e+01
1.810000e-06	-1.617327e-07	-3.735880e-10	-1.125638e+00	-2.900368e+01
1.820000e-06	-1.150665e-07	-3.557748e-10	-8.008470e-01	-2.787269e+01
1.830000e-06	-6.825694e-08	-3.386525e-10	-4.750591e-01	-2.670942e+01
1.840000e-06	-2.146999e-08	-3.237938e-10	-1.494283e-01	-2.551347e+01
1.850000e-06	2.524195e-08	-3.067880e-10	1.756806e-01	-2.428452e+01
1.860000e-06	7.197188e-08	-2.872339e-10	5.009146e-01	-2.302235e+01
1.870000e-06	1.186757e-07	-2.672617e-10	8.259669e-01	-2.172685e+01
1.880000e-06	1.653674e-07	-2.475752e-10	1.150935e+00	-2.039806e+01
1.890000e-06	2.121057e-07	-2.281364e-10	1.476227e+00	-1.903612e+01
1.900000e-06	2.587959e-07	-2.097351e-10	1.801185e+00	-1.764134e+01
1.910000e-06	3.054719e-07	-1.915954e-10	2.126043e+00	-1.621419e+01
1.920000e-06	3.521972e-07	-1.738235e-10	2.451245e+00	-1.475529e+01
1.930000e-06	3.989756e-07	-1.560937e-10	2.776816e+00	-1.326544e+01
1.940000e-06	4.457461e-07	-1.353389e-10	3.102333e+00	-1.174563e+01
1.950000e-06	4.923728e-07	-1.118511e-10	3.426849e+00	-1.019700e+01
1.960000e-06	5.388268e-07	-9.063268e-11	3.750162e+00	-8.620907e+00
1.970000e-06	5.852423e-07	-7.100918e-11	4.073207e+00	-7.018857e+00
1.980000e-06	6.316657e-07	-5.162290e-11	4.396309e+00	-5.392545e+00
1.990000e-06	6.779712e-07	-3.187270e-11	4.718589e+00	-3.743834e+00
2.000000e-06	7.242369e-07	-9.671075e-12	5.040592e+00	-2.074743e+00
2.010000e-06	7.705074e-07	1.616489e-11	5.362628e+00	-3.874460e-01
2.020000e-06	8.166956e-07	4.244483e-11	5.684092e+00	1.315750e+00
2.030000e-06	8.628282e-07	6.602530e-11	6.005168e+00	3.032416e+00
2.040000e-06	9.089135e-07	8.756219e-11	6.325916e+00	4.760014e+00
2.050000e-06	9.549822e-07	1.092932e-10	6.646547e+00	6.495925e+00
2.060000e-06	1.001067e-06	1.329917e-10	6.967291e+00	8.237456e+00
2.070000e-06	1.047082e-06	1.574327e-10	7.287551e+00	9.981870e+00
2.080000e-06	1.093005e-06	1.820017e-10	7.607169e+00	1.172641e+01
2.090000e-06	1.138846e-06	2.072651e-10	7.926215e+00	1.346829e+01
2.100000e-06	1.184532e-06	2.319638e-10	8.244182e+00	1.520478e+01
2.110000e-06	1.230106e-06	2.558518e-10	8.561375e+00	1.693317e+01
2.120000e-06	1.275607e-06	2.791034e-10	8.878057e+00	1.865079e+01
2.130000e-06	1.321070e-06	3.008675e-10	9.194471e+00	2.035509e+01
2.140000e-06	1.366501e-06	3.209694e-10	9.510666e+00	2.204358e+01
2.150000e-06	1.411777e-06	3.423535e-10	9.825775e+00	2.371393e+01
2.160000e-06	1.456840e-06	3.662819e-10	1.013941e+01	2.536390e+01
2.170000e-06	1.501831e-06	3.911582e-10	1.045254e+01	2.699142e+01
2.180000e-06	1.546740e-06	4.156802e-10	1.076510e+01	2.859458e+01
2.190000e-06	1.591546e-06	4.383105e-10	1.107695e+01	3.017165e+01
2.200000e-06	1.636306e-06	4.584085e-10	1.138847e+01	3.172104e+01
2.210000e-06	1.680861e-06	4.757313e-10	1.169857e+01	3.324140e+01
2.220000e-06	1.725184e-06	4.913329e-10	1.200705e+01	3.473151e+01
2.230000e-06	1.769408e-06	5.071653e-10	1.231484e+01	3.619037e+01
2.240000e-06	1.813590e-06	5.248611e-10	1.262234e+01	3.761717e+01
2.250000e-06	1.857760e-06	5.439337e-10	1.292976e+01	3.901127e+01
2.260000e-06	1.901889e-06	5.656551e-10	1.323689e+01	4.037221e+01
2.270000e-06	1.945873e-06	5.889983e-10	1.354302e+01	4.169970e+01
2.280000e-06	1.989743e-06	6.098708e-10	1.384834e+01	4.299362e+01
2.290000e-06	2.033588e-06	6.275308e-10	1.415350e+01	4.425399e+01
2.300000e-06	2.077385e-06	6.436062e-10	1.445832e+01	4.548097e+01
2.310000e-06	2.121074e-06	6.577454e-10	1.476239e+01	4.667486e+01
2.320000e-06	2.164651e-06	6.715587e-10	1.506568e+01	4.783606e+01
2.330000e-06	2.208098e-06	6.865685e-10	1.536807e+01	4.896508e+01
2.340000e-06	2.251377e-06	7.017965e-10	1.566928e+01	5.006250e+01
2.350000e-06	2.294476e-06	7.174026e-10	1.596924e+01	5.112898e+01
2.360000e-06	2.337346e-06	7.339374e-10	1.626761e+01	5.216524e+01
2.370000e-06	2.379896e-06	7.500440e-10	1.656376e+01	5.317205e+01
2.380000e-06	2.422139e-06	7.647187e-10	1.685776e+01	5.415018e+01
2.390000e-06	2.464053e-06	7.791019e-10	1.714947e+01	5.510045e+01
2.400000e-06	2.505686e-06	7.933517e-10	1.743924e+01	5.602368e+01
2.410000e-06	2.547035e-06	8.067986e-10	1.772702e+01	5.692067e+01
2.420000e-06	2.588075e-06	8.205680e-10	1.801265e+01	5.779222e+01
2.430000e-06	2.628917e-06	8.321910e-10	1.829691e+01	5.863912e+01
2.440000e-06	2.669513e-06	8.428307e-10	1.857945e+01	5.946210e+01
2.450000e-06	2.709858e-06	8.536285e-10	1.886025e+01	6.026190e+01
2.460000e-06	2.749989e-06	8.672824e-10	1.913955e+01	6.103919e+01
2.470000e-06	2.789963e-06	8.802848e-10	1.941777e+01	6.179461e+01
2.480000e-06	2.829808e-06	8.910576e-10	1.969509e+01	6.252876e+01
2.490000e-06	2.869578e-06	9.015098e-10	1.997188e+01	6.324221e+01
2.500000e-06	2.909291e-06	9.106450e-10	2.024828e+01	6.393546e+01
2.510000e-06	2.948829e-06	9.188805e-10	2.052346e+01	6.460900e+01
2.520000e-06	2.988046e-06	9.259675e-10	2.079640e+01	6.526326e+01
2.530000e-06	3.026990e-06	9.351630e-10	2.106744e+01	6.589864e+01
2.540000e-06	3.065789e-06	9.444020e-10	2.133748e+01	6.651552e+01
2.550000e-06	3.104367e-06	9.519744e-10	2.160598e+01	6.711423e+01
2.560000e-06	3.142704e-06	9.616196e-10	2.187280e+01	6.769509e+01
2.570000e-06	3.180869e-06	9.724579e-10	2.213842e+01	6.825840e+01
2.580000e-06	3.218916e-06	9.798949e-10	2.240323e+01	6.880441e+01
2.590000e-06	3.256824e-06	9.846534e-10	2.266705e+01	6.933341e+01
2.600000e-06	3.294518e-06	9.899203e-10	2.292941e+01	6.984565e+01
2.610000e-06	3.331991e-06	9.970145e-10	2.319021e+01	7.034136e+01
2.620000e-06	3.369160e-06	1.001747e-09	2.344890e+01	7.082081e+01
2.630000e-06	3.406016e-06	1.007358e-09	2.370541e+01	7.128422e+01
2.640000e-06	3.442652e-06	1.013916e-09	2.396040e+01	7.173186e+01
2.650000e-06	3.479013e-06	1.020129e-09	2.421346e+01	7.216397e+01
2.660000e-06	3.515165e-06	1.026640e-09	2.446507e+01	7.258082e+01
2.670000e-06	3.551186e-06	1.032656e-09	2.471578e+01	7.298268e+01
2.680000e-06	3.587037e-06	1.036743e-09	2.496530e+01	7.336983e+01
2.690000e-06	3.622757e-06	1.041004e-09	2.521390e+01	7.374256e+01
2.700000e-06	3.658297e-06	1.046182e-09	2.546125e+01	7.410117e+01
2.710000e-06	3.693618e-06	1.050406e-09	2.570709e+01	7.444597e+01
2.720000e-06	3.728755e-06	1.055855e-09	2.595163e+01	7.477729e+01
2.730000e-06	3.763547e-06	1.062610e-09	2.619378e+01	7.509546e+01
2.740000e-06	3.797916e-06	1.067702e-09	2.643299e+01	7.540082e+01
2.750000e-06	3.831883e-06	1.071439e-09	2.666939e+01	7.569373e+01
2.760000e-06	3.865414e-06	1.075903e-09	2.690277e+01	7.597455e+01
2.770000e-06	3.898431e-06	1.079767e-09	2.713255e+01	7.624364e+01
2.780000e-06	3.930961e-06	1.081971e-09	2.735896e+01	7.650138e+01
2.790000e-06	3.963205e-06	1.085544e-09	2.758337e+01	7.674815e+01
2.800000e-06	3.995273e-06	1.090247e-09	2.780657e+01	7.698434e+01
2.810000e-06	4.027156e-06	1.092665e-09	2.802846e+01	7.721033e+01
2.820000e-06	4.058852e-06	1.094974e-09	2.824906e+01	7.742653e+01
2.830000e-06	4.090381e-06	1.098519e-09	2.846850e+01	7.763332e+01
2.840000e-06	4.121660e-06	1.102078e-09	2.868620e+01	7.783111e+01
2.850000e-06	4.152680e-06	1.105414e-09	2.890210e+01	7.802029e+01
2.860000e-06	4.183408e-06	1.109365e-09	2.911595e+01	7.820126e+01
2.870000e-06	4.213853e-06	1.113875e-09	2.932785e+01	7.837443e+01
2.880000e-06	4.243952e-06	1.119212e-09	2.953733e+01	7.854019e+01
2.890000e-06	4.273693e-06	1.124535e-09	2.974433e+01	7.869895e+01
2.900000e-06	4.303187e-06	1.128660e-09	2.994960e+01	7.885110e+01
