# Temperatura_=_-6.01
# Concentracion g/m^3_=_1620.0
# C_Vs_to_Am_M_A/Vsm_=_65563218390.804596
# pendiente_HvsI_1/m_=_3716.3
# ordenada_HvsI_A/m_=_1297.0
# frecuencia_Hz_=_135109.72888872703

Tiempo_(s)	Campo_(V.s)	Magnetizacion_(V.s)	Campo_(kA/m)	Magnetizacion_(A/m)
0.000000e+00	-5.513801e-06	-1.134545e-09	-3.836887e+01	-7.525648e+01
1.000000e-08	-5.514056e-06	-1.131207e-09	-3.837064e+01	-7.524686e+01
2.000000e-08	-5.514112e-06	-1.128271e-09	-3.837103e+01	-7.523685e+01
3.000000e-08	-5.513830e-06	-1.128039e-09	-3.836907e+01	-7.522600e+01
4.000000e-08	-5.513060e-06	-1.129150e-09	-3.836372e+01	-7.521385e+01
5.000000e-08	-5.511729e-06	-1.129219e-09	-3.835445e+01	-7.519993e+01
6.000000e-08	-5.509822e-06	-1.126740e-09	-3.834118e+01	-7.518375e+01
7.000000e-08	-5.507328e-06	-1.128659e-09	-3.832382e+01	-7.516483e+01
8.000000e-08	-5.504284e-06	-1.134671e-09	-3.830264e+01	-7.514271e+01
9.000000e-08	-5.500763e-06	-1.124920e-09	-3.827814e+01	-7.511692e+01
1.000000e-07	-5.496804e-06	-1.102866e-09	-3.825059e+01	-7.508704e+01
1.100000e-07	-5.492506e-06	-1.124829e-09	-3.822068e+01	-7.505263e+01
1.200000e-07	-5.488032e-06	-1.162036e-09	-3.818955e+01	-7.501333e+01
1.300000e-07	-5.483353e-06	-1.114103e-09	-3.815699e+01	-7.496876e+01
1.400000e-07	-5.478268e-06	-1.091955e-09	-3.812160e+01	-7.491863e+01
1.500000e-07	-5.472760e-06	-1.109378e-09	-3.808327e+01	-7.486264e+01
1.600000e-07	-5.466896e-06	-1.166130e-09	-3.804247e+01	-7.480058e+01
1.700000e-07	-5.460637e-06	-1.135353e-09	-3.799892e+01	-7.473224e+01
1.800000e-07	-5.453850e-06	-1.079742e-09	-3.795169e+01	-7.465750e+01
1.900000e-07	-5.446649e-06	-1.131866e-09	-3.790158e+01	-7.457626e+01
2.000000e-07	-5.439120e-06	-1.162549e-09	-3.784918e+01	-7.448848e+01
2.100000e-07	-5.431318e-06	-1.138307e-09	-3.779490e+01	-7.439418e+01
2.200000e-07	-5.423382e-06	-1.070146e-09	-3.773967e+01	-7.429340e+01
2.300000e-07	-5.415119e-06	-1.103053e-09	-3.768217e+01	-7.418626e+01
2.400000e-07	-5.406312e-06	-1.130543e-09	-3.762089e+01	-7.407291e+01
2.500000e-07	-5.396945e-06	-1.132578e-09	-3.755570e+01	-7.395356e+01
2.600000e-07	-5.387049e-06	-1.092739e-09	-3.748684e+01	-7.382846e+01
2.700000e-07	-5.376534e-06	-1.100389e-09	-3.741367e+01	-7.369789e+01
2.800000e-07	-5.365393e-06	-1.099874e-09	-3.733614e+01	-7.356219e+01
2.900000e-07	-5.353868e-06	-1.099245e-09	-3.725595e+01	-7.342172e+01
3.000000e-07	-5.341998e-06	-1.077408e-09	-3.717334e+01	-7.327689e+01
3.100000e-07	-5.329740e-06	-1.074828e-09	-3.708804e+01	-7.312813e+01
3.200000e-07	-5.317093e-06	-1.094744e-09	-3.700004e+01	-7.297589e+01
3.300000e-07	-5.304036e-06	-1.103108e-09	-3.690918e+01	-7.282067e+01
3.400000e-07	-5.290578e-06	-1.083134e-09	-3.681553e+01	-7.266296e+01
3.500000e-07	-5.276709e-06	-1.072342e-09	-3.671902e+01	-7.250329e+01
3.600000e-07	-5.262429e-06	-1.107428e-09	-3.661965e+01	-7.234219e+01
3.700000e-07	-5.247765e-06	-1.093252e-09	-3.651760e+01	-7.218019e+01
3.800000e-07	-5.232636e-06	-1.055245e-09	-3.641233e+01	-7.201784e+01
3.900000e-07	-5.216945e-06	-1.071322e-09	-3.630314e+01	-7.185569e+01
4.000000e-07	-5.200781e-06	-1.101631e-09	-3.619065e+01	-7.169426e+01
4.100000e-07	-5.184191e-06	-1.052219e-09	-3.607521e+01	-7.153408e+01
4.200000e-07	-5.167270e-06	-1.054072e-09	-3.595746e+01	-7.137566e+01
4.300000e-07	-5.150076e-06	-1.107277e-09	-3.583782e+01	-7.121949e+01
4.400000e-07	-5.132590e-06	-1.084677e-09	-3.571614e+01	-7.106604e+01
4.500000e-07	-5.114658e-06	-1.018222e-09	-3.559135e+01	-7.091574e+01
4.600000e-07	-5.096229e-06	-1.076936e-09	-3.546311e+01	-7.076900e+01
4.700000e-07	-5.077479e-06	-1.093433e-09	-3.533264e+01	-7.062619e+01
4.800000e-07	-5.058395e-06	-1.024300e-09	-3.519984e+01	-7.048762e+01
4.900000e-07	-5.038988e-06	-1.032395e-09	-3.506479e+01	-7.035359e+01
5.000000e-07	-5.019360e-06	-1.104478e-09	-3.492820e+01	-7.022431e+01
5.100000e-07	-4.999509e-06	-1.050610e-09	-3.479007e+01	-7.009997e+01
5.200000e-07	-4.979338e-06	-1.024271e-09	-3.464970e+01	-6.998069e+01
5.300000e-07	-4.958847e-06	-1.084930e-09	-3.450711e+01	-6.986653e+01
5.400000e-07	-4.938062e-06	-1.065849e-09	-3.436248e+01	-6.975750e+01
5.500000e-07	-4.916852e-06	-9.968431e-10	-3.421488e+01	-6.965354e+01
5.600000e-07	-4.895204e-06	-1.052253e-09	-3.406424e+01	-6.955454e+01
5.700000e-07	-4.873265e-06	-1.077671e-09	-3.391157e+01	-6.946033e+01
5.800000e-07	-4.851013e-06	-1.009813e-09	-3.375673e+01	-6.937066e+01
5.900000e-07	-4.828408e-06	-1.016262e-09	-3.359943e+01	-6.928524e+01
6.000000e-07	-4.805485e-06	-1.065438e-09	-3.343991e+01	-6.920372e+01
6.100000e-07	-4.782191e-06	-1.017769e-09	-3.327782e+01	-6.912570e+01
6.200000e-07	-4.758612e-06	-9.940041e-10	-3.311374e+01	-6.905072e+01
6.300000e-07	-4.734842e-06	-1.045010e-09	-3.294833e+01	-6.897830e+01
6.400000e-07	-4.710827e-06	-1.033421e-09	-3.278122e+01	-6.890789e+01
6.500000e-07	-4.686485e-06	-1.000215e-09	-3.261183e+01	-6.883893e+01
6.600000e-07	-4.661750e-06	-1.029914e-09	-3.243971e+01	-6.877082e+01
6.700000e-07	-4.636521e-06	-1.040259e-09	-3.226415e+01	-6.870296e+01
6.800000e-07	-4.610710e-06	-1.005971e-09	-3.208453e+01	-6.863472e+01
6.900000e-07	-4.584384e-06	-1.021647e-09	-3.190133e+01	-6.856547e+01
7.000000e-07	-4.557594e-06	-1.036729e-09	-3.171491e+01	-6.849461e+01
7.100000e-07	-4.530399e-06	-1.014328e-09	-3.152567e+01	-6.842150e+01
7.200000e-07	-4.502922e-06	-1.006640e-09	-3.133447e+01	-6.834558e+01
7.300000e-07	-4.475214e-06	-1.024599e-09	-3.114166e+01	-6.826628e+01
7.400000e-07	-4.447345e-06	-1.009466e-09	-3.094773e+01	-6.818307e+01
7.500000e-07	-4.419291e-06	-1.002214e-09	-3.075251e+01	-6.809549e+01
7.600000e-07	-4.390948e-06	-1.013988e-09	-3.055528e+01	-6.800310e+01
7.700000e-07	-4.362348e-06	-1.015791e-09	-3.035625e+01	-6.790553e+01
7.800000e-07	-4.333442e-06	-9.994283e-10	-3.015511e+01	-6.780246e+01
7.900000e-07	-4.304226e-06	-1.002357e-09	-2.995180e+01	-6.769364e+01
8.000000e-07	-4.274768e-06	-9.975720e-10	-2.974681e+01	-6.757890e+01
8.100000e-07	-4.244982e-06	-9.867182e-10	-2.953955e+01	-6.745812e+01
8.200000e-07	-4.214799e-06	-9.896448e-10	-2.932951e+01	-6.733125e+01
8.300000e-07	-4.184285e-06	-1.002272e-09	-2.911717e+01	-6.719831e+01
8.400000e-07	-4.153522e-06	-9.966938e-10	-2.890310e+01	-6.705940e+01
8.500000e-07	-4.122571e-06	-9.969994e-10	-2.868772e+01	-6.691468e+01
8.600000e-07	-4.091376e-06	-1.002130e-09	-2.847064e+01	-6.676434e+01
8.700000e-07	-4.059899e-06	-9.913586e-10	-2.825160e+01	-6.660867e+01
8.800000e-07	-4.028282e-06	-9.765706e-10	-2.803159e+01	-6.644797e+01
8.900000e-07	-3.996522e-06	-9.776242e-10	-2.781058e+01	-6.628260e+01
9.000000e-07	-3.964520e-06	-9.738573e-10	-2.758789e+01	-6.611295e+01
9.100000e-07	-3.932231e-06	-9.645413e-10	-2.736320e+01	-6.593944e+01
9.200000e-07	-3.899608e-06	-9.698928e-10	-2.713619e+01	-6.576249e+01
9.300000e-07	-3.866603e-06	-9.734649e-10	-2.690651e+01	-6.558254e+01
9.400000e-07	-3.833227e-06	-9.631922e-10	-2.667427e+01	-6.540003e+01
9.500000e-07	-3.799438e-06	-9.583661e-10	-2.643914e+01	-6.521537e+01
9.600000e-07	-3.765175e-06	-9.593796e-10	-2.620071e+01	-6.502896e+01
9.700000e-07	-3.730439e-06	-9.454860e-10	-2.595900e+01	-6.484118e+01
9.800000e-07	-3.695347e-06	-9.339792e-10	-2.571480e+01	-6.465236e+01
9.900000e-07	-3.660050e-06	-9.319805e-10	-2.546918e+01	-6.446278e+01
1.000000e-06	-3.624539e-06	-9.292371e-10	-2.522207e+01	-6.427270e+01
1.010000e-06	-3.588852e-06	-9.235300e-10	-2.497373e+01	-6.408228e+01
1.020000e-06	-3.553036e-06	-9.331880e-10	-2.472450e+01	-6.389166e+01
1.030000e-06	-3.517072e-06	-9.386899e-10	-2.447424e+01	-6.370088e+01
1.040000e-06	-3.480940e-06	-9.333956e-10	-2.422280e+01	-6.350995e+01
1.050000e-06	-3.444557e-06	-9.275128e-10	-2.396963e+01	-6.331880e+01
1.060000e-06	-3.407886e-06	-9.230154e-10	-2.371445e+01	-6.312730e+01
1.070000e-06	-3.370929e-06	-9.110889e-10	-2.345727e+01	-6.293524e+01
1.080000e-06	-3.333646e-06	-9.049739e-10	-2.319783e+01	-6.274238e+01
1.090000e-06	-3.296111e-06	-9.077681e-10	-2.293663e+01	-6.254842e+01
1.100000e-06	-3.258360e-06	-9.090063e-10	-2.267394e+01	-6.235301e+01
1.110000e-06	-3.220392e-06	-9.031485e-10	-2.240973e+01	-6.215575e+01
1.120000e-06	-3.182271e-06	-9.036241e-10	-2.214446e+01	-6.195623e+01
1.130000e-06	-3.144002e-06	-8.991587e-10	-2.187816e+01	-6.175400e+01
1.140000e-06	-3.105441e-06	-8.905103e-10	-2.160982e+01	-6.154861e+01
1.150000e-06	-3.066612e-06	-8.845774e-10	-2.133962e+01	-6.133958e+01
1.160000e-06	-3.027676e-06	-8.839304e-10	-2.106868e+01	-6.112646e+01
1.170000e-06	-2.988510e-06	-8.814839e-10	-2.079614e+01	-6.090880e+01
1.180000e-06	-2.949062e-06	-8.804617e-10	-2.052163e+01	-6.068618e+01
1.190000e-06	-2.909454e-06	-8.824258e-10	-2.024601e+01	-6.045820e+01
1.200000e-06	-2.869738e-06	-8.799274e-10	-1.996964e+01	-6.022449e+01
1.210000e-06	-2.829935e-06	-8.732173e-10	-1.969266e+01	-5.998475e+01
1.220000e-06	-2.790026e-06	-8.684760e-10	-1.941494e+01	-5.973871e+01
1.230000e-06	-2.749953e-06	-8.638726e-10	-1.913609e+01	-5.948616e+01
1.240000e-06	-2.709718e-06	-8.558618e-10	-1.885611e+01	-5.922695e+01
1.250000e-06	-2.669308e-06	-8.544543e-10	-1.857491e+01	-5.896099e+01
1.260000e-06	-2.628662e-06	-8.551295e-10	-1.829206e+01	-5.868823e+01
1.270000e-06	-2.587797e-06	-8.525294e-10	-1.800770e+01	-5.840872e+01
1.280000e-06	-2.546642e-06	-8.480120e-10	-1.772131e+01	-5.812253e+01
1.290000e-06	-2.505248e-06	-8.456442e-10	-1.743326e+01	-5.782980e+01
1.300000e-06	-2.463572e-06	-8.394366e-10	-1.714325e+01	-5.753073e+01
1.310000e-06	-2.421376e-06	-8.309680e-10	-1.684962e+01	-5.722554e+01
1.320000e-06	-2.378863e-06	-8.257541e-10	-1.655379e+01	-5.691451e+01
1.330000e-06	-2.336222e-06	-8.231943e-10	-1.625706e+01	-5.659793e+01
1.340000e-06	-2.293350e-06	-8.188288e-10	-1.595872e+01	-5.627612e+01
1.350000e-06	-2.250211e-06	-8.159534e-10	-1.565853e+01	-5.594940e+01
1.360000e-06	-2.206880e-06	-8.114742e-10	-1.535701e+01	-5.561811e+01
1.370000e-06	-2.163369e-06	-8.055327e-10	-1.505423e+01	-5.528256e+01
1.380000e-06	-2.119746e-06	-7.971815e-10	-1.475067e+01	-5.494306e+01
1.390000e-06	-2.076102e-06	-7.894090e-10	-1.444696e+01	-5.459987e+01
1.400000e-06	-2.032352e-06	-7.821715e-10	-1.414252e+01	-5.425322e+01
1.410000e-06	-1.988517e-06	-7.762477e-10	-1.383749e+01	-5.390329e+01
1.420000e-06	-1.944664e-06	-7.717855e-10	-1.353233e+01	-5.355022e+01
1.430000e-06	-1.900778e-06	-7.687259e-10	-1.322694e+01	-5.319406e+01
1.440000e-06	-1.856810e-06	-7.650215e-10	-1.292098e+01	-5.283481e+01
1.450000e-06	-1.812758e-06	-7.592969e-10	-1.261443e+01	-5.247237e+01
1.460000e-06	-1.768555e-06	-7.529931e-10	-1.230684e+01	-5.210658e+01
1.470000e-06	-1.724180e-06	-7.456279e-10	-1.199805e+01	-5.173719e+01
1.480000e-06	-1.679685e-06	-7.376455e-10	-1.168842e+01	-5.136387e+01
1.490000e-06	-1.635064e-06	-7.305050e-10	-1.137791e+01	-5.098618e+01
1.500000e-06	-1.590326e-06	-7.219554e-10	-1.106660e+01	-5.060362e+01
1.510000e-06	-1.545408e-06	-7.145377e-10	-1.075403e+01	-5.021560e+01
1.520000e-06	-1.500341e-06	-7.102522e-10	-1.044041e+01	-4.982142e+01
1.530000e-06	-1.455172e-06	-7.070775e-10	-1.012610e+01	-4.942036e+01
1.540000e-06	-1.409909e-06	-7.022805e-10	-9.811132e+00	-4.901156e+01
1.550000e-06	-1.364600e-06	-6.953740e-10	-9.495835e+00	-4.859415e+01
1.560000e-06	-1.319214e-06	-6.869987e-10	-9.180011e+00	-4.816717e+01
1.570000e-06	-1.273678e-06	-6.783645e-10	-8.863137e+00	-4.772962e+01
1.580000e-06	-1.227998e-06	-6.705492e-10	-8.545264e+00	-4.728045e+01
1.590000e-06	-1.182289e-06	-6.656091e-10	-8.227194e+00	-4.681857e+01
1.600000e-06	-1.136573e-06	-6.624568e-10	-7.909066e+00	-4.634287e+01
1.610000e-06	-1.090787e-06	-6.568468e-10	-7.590454e+00	-4.585221e+01
1.620000e-06	-1.044912e-06	-6.513352e-10	-7.271223e+00	-4.534546e+01
1.630000e-06	-9.989810e-07	-6.441250e-10	-6.951605e+00	-4.482146e+01
1.640000e-06	-9.529850e-07	-6.350312e-10	-6.631533e+00	-4.427906e+01
1.650000e-06	-9.068816e-07	-6.235998e-10	-6.310714e+00	-4.371715e+01
1.660000e-06	-8.607683e-07	-6.103540e-10	-5.989825e+00	-4.313460e+01
1.670000e-06	-8.146048e-07	-5.970148e-10	-5.668588e+00	-4.253033e+01
1.680000e-06	-7.682839e-07	-5.844786e-10	-5.346255e+00	-4.190327e+01
1.690000e-06	-7.218930e-07	-5.724310e-10	-5.023434e+00	-4.125242e+01
1.700000e-06	-6.754403e-07	-5.609981e-10	-4.700184e+00	-4.057680e+01
1.710000e-06	-6.289580e-07	-5.497981e-10	-4.376728e+00	-3.987547e+01
1.720000e-06	-5.825212e-07	-5.417617e-10	-4.053589e+00	-3.914754e+01
1.730000e-06	-5.360471e-07	-5.321548e-10	-3.730189e+00	-3.839220e+01
1.740000e-06	-4.894290e-07	-5.201309e-10	-3.405788e+00	-3.760866e+01
1.750000e-06	-4.427085e-07	-5.054982e-10	-3.080674e+00	-3.679620e+01
1.760000e-06	-3.959726e-07	-4.893700e-10	-2.755453e+00	-3.595419e+01
1.770000e-06	-3.492454e-07	-4.742384e-10	-2.430293e+00	-3.508202e+01
1.780000e-06	-3.025762e-07	-4.614772e-10	-2.105536e+00	-3.417916e+01
1.790000e-06	-2.558588e-07	-4.514680e-10	-1.780444e+00	-3.324517e+01
1.800000e-06	-2.090709e-07	-4.414124e-10	-1.454861e+00	-3.227964e+01
1.810000e-06	-1.622936e-07	-4.291166e-10	-1.129352e+00	-3.128227e+01
1.820000e-06	-1.154768e-07	-4.138904e-10	-8.035683e-01	-3.025281e+01
1.830000e-06	-6.866975e-08	-3.974115e-10	-4.778519e-01	-2.919109e+01
1.840000e-06	-2.191511e-08	-3.804117e-10	-1.525006e-01	-2.809703e+01
1.850000e-06	2.483318e-08	-3.636759e-10	1.728066e-01	-2.697063e+01
1.860000e-06	7.159336e-08	-3.465481e-10	4.981964e-01	-2.581197e+01
1.870000e-06	1.183942e-07	-3.285461e-10	8.238696e-01	-2.462123e+01
1.880000e-06	1.651680e-07	-3.110870e-10	1.149354e+00	-2.339867e+01
1.890000e-06	2.119199e-07	-2.957368e-10	1.474687e+00	-2.214467e+01
1.900000e-06	2.586713e-07	-2.802505e-10	1.800015e+00	-2.085969e+01
1.910000e-06	3.053716e-07	-2.641223e-10	2.124989e+00	-1.954431e+01
1.920000e-06	3.520312e-07	-2.466881e-10	2.449678e+00	-1.819921e+01
1.930000e-06	3.986664e-07	-2.273524e-10	2.774199e+00	-1.682518e+01
1.940000e-06	4.452336e-07	-2.062215e-10	3.098245e+00	-1.542313e+01
1.950000e-06	4.917599e-07	-1.862204e-10	3.422008e+00	-1.399408e+01
1.960000e-06	5.382997e-07	-1.677785e-10	3.745864e+00	-1.253919e+01
1.970000e-06	5.847368e-07	-1.496572e-10	4.069006e+00	-1.105970e+01
1.980000e-06	6.311297e-07	-1.309597e-10	4.391840e+00	-9.556997e+00
1.990000e-06	6.775699e-07	-1.106559e-10	4.715003e+00	-8.032577e+00
2.000000e-06	7.239568e-07	-8.654814e-11	5.037796e+00	-6.488045e+00
2.010000e-06	7.702230e-07	-5.883400e-11	5.359748e+00	-4.925119e+00
2.020000e-06	8.164111e-07	-3.037437e-11	5.681157e+00	-3.345619e+00
2.030000e-06	8.625827e-07	-5.259039e-12	6.002451e+00	-1.751467e+00
2.040000e-06	9.086593e-07	1.383122e-11	6.323085e+00	-1.446711e-01
2.050000e-06	9.546225e-07	2.950050e-11	6.642928e+00	1.472677e+00
2.060000e-06	1.000517e-06	4.671250e-11	6.962292e+00	3.098415e+00
2.070000e-06	1.046372e-06	6.759970e-11	7.281383e+00	4.730321e+00
2.080000e-06	1.092260e-06	9.282423e-11	7.600705e+00	6.366125e+00
2.090000e-06	1.138116e-06	1.207848e-10	7.919803e+00	8.003524e+00
2.100000e-06	1.183874e-06	1.473263e-10	8.238217e+00	9.640195e+00
2.110000e-06	1.229525e-06	1.708819e-10	8.555889e+00	1.127381e+01
2.120000e-06	1.275054e-06	1.929221e-10	8.872715e+00	1.290205e+01
2.130000e-06	1.320448e-06	2.121511e-10	9.188598e+00	1.452262e+01
2.140000e-06	1.365765e-06	2.282833e-10	9.503942e+00	1.613326e+01
2.150000e-06	1.411032e-06	2.465275e-10	9.818942e+00	1.773179e+01
2.160000e-06	1.456195e-06	2.701165e-10	1.013322e+01	1.931607e+01
2.170000e-06	1.501284e-06	2.961124e-10	1.044698e+01	2.088406e+01
2.180000e-06	1.546294e-06	3.200411e-10	1.076019e+01	2.243383e+01
2.190000e-06	1.591167e-06	3.425240e-10	1.107245e+01	2.396353e+01
2.200000e-06	1.635896e-06	3.615258e-10	1.138370e+01	2.547146e+01
2.210000e-06	1.680499e-06	3.784630e-10	1.169408e+01	2.695604e+01
2.220000e-06	1.724976e-06	3.943638e-10	1.200358e+01	2.841582e+01
2.230000e-06	1.769287e-06	4.111294e-10	1.231193e+01	2.984953e+01
2.240000e-06	1.813421e-06	4.280558e-10	1.261904e+01	3.125600e+01
2.250000e-06	1.857446e-06	4.463403e-10	1.292540e+01	3.263427e+01
2.260000e-06	1.901373e-06	4.672799e-10	1.323108e+01	3.398350e+01
2.270000e-06	1.945236e-06	4.879087e-10	1.353631e+01	3.530301e+01
2.280000e-06	1.989089e-06	5.073969e-10	1.384146e+01	3.659228e+01
2.290000e-06	2.032874e-06	5.259351e-10	1.414616e+01	3.785095e+01
2.300000e-06	2.076593e-06	5.442097e-10	1.445038e+01	3.907879e+01
2.310000e-06	2.120255e-06	5.606643e-10	1.475421e+01	4.027570e+01
2.320000e-06	2.163851e-06	5.754013e-10	1.505759e+01	4.144173e+01
2.330000e-06	2.207371e-06	5.894402e-10	1.536043e+01	4.257703e+01
2.340000e-06	2.250738e-06	6.034660e-10	1.566220e+01	4.368189e+01
2.350000e-06	2.293921e-06	6.194652e-10	1.596270e+01	4.475665e+01
2.360000e-06	2.336854e-06	6.365919e-10	1.626146e+01	4.580178e+01
2.370000e-06	2.379399e-06	6.524067e-10	1.655752e+01	4.681779e+01
2.380000e-06	2.421635e-06	6.676587e-10	1.685142e+01	4.780528e+01
2.390000e-06	2.463622e-06	6.800927e-10	1.714360e+01	4.876488e+01
2.400000e-06	2.505296e-06	6.906637e-10	1.743359e+01	4.969727e+01
2.410000e-06	2.546671e-06	7.015697e-10	1.772151e+01	5.060314e+01
2.420000e-06	2.587793e-06	7.146203e-10	1.800766e+01	5.148320e+01
2.430000e-06	2.628689e-06	7.283847e-10	1.829225e+01	5.233816e+01
2.440000e-06	2.669312e-06	7.413562e-10	1.857493e+01	5.316874e+01
2.450000e-06	2.709674e-06	7.533109e-10	1.885580e+01	5.397563e+01
2.460000e-06	2.749834e-06	7.640408e-10	1.913526e+01	5.475950e+01
2.470000e-06	2.789828e-06	7.731325e-10	1.941357e+01	5.552100e+01
2.480000e-06	2.829693e-06	7.824666e-10	1.969098e+01	5.626075e+01
2.490000e-06	2.869429e-06	7.942950e-10	1.996748e+01	5.697932e+01
2.500000e-06	2.909039e-06	8.070654e-10	2.024312e+01	5.767726e+01
2.510000e-06	2.948518e-06	8.176054e-10	2.051785e+01	5.835506e+01
2.520000e-06	2.987847e-06	8.281459e-10	2.079152e+01	5.901320e+01
2.530000e-06	3.027012e-06	8.384761e-10	2.106406e+01	5.965210e+01
2.540000e-06	3.065927e-06	8.463168e-10	2.133486e+01	6.027216e+01
2.550000e-06	3.104523e-06	8.525417e-10	2.160343e+01	6.087373e+01
2.560000e-06	3.142869e-06	8.578442e-10	2.187027e+01	6.145715e+01
2.570000e-06	3.181071e-06	8.638486e-10	2.213611e+01	6.202273e+01
2.580000e-06	3.219085e-06	8.701990e-10	2.240063e+01	6.257076e+01
2.590000e-06	3.256867e-06	8.778742e-10	2.266355e+01	6.310150e+01
2.600000e-06	3.294476e-06	8.860042e-10	2.292526e+01	6.361524e+01
2.610000e-06	3.331853e-06	8.952413e-10	2.318535e+01	6.411222e+01
2.620000e-06	3.369010e-06	9.033210e-10	2.344392e+01	6.459272e+01
2.630000e-06	3.405980e-06	9.089177e-10	2.370118e+01	6.505699e+01
2.640000e-06	3.442626e-06	9.148326e-10	2.395619e+01	6.550531e+01
2.650000e-06	3.478913e-06	9.206855e-10	2.420870e+01	6.593796e+01
2.660000e-06	3.514971e-06	9.267915e-10	2.445962e+01	6.635525e+01
2.670000e-06	3.550903e-06	9.332849e-10	2.470966e+01	6.675751e+01
2.680000e-06	3.586707e-06	9.383822e-10	2.495881e+01	6.714505e+01
2.690000e-06	3.622393e-06	9.455642e-10	2.520713e+01	6.751825e+01
2.700000e-06	3.657940e-06	9.505725e-10	2.545450e+01	6.787749e+01
2.710000e-06	3.693311e-06	9.541824e-10	2.570063e+01	6.822315e+01
2.720000e-06	3.728478e-06	9.596232e-10	2.594535e+01	6.855565e+01
2.730000e-06	3.763327e-06	9.669333e-10	2.618785e+01	6.887544e+01
2.740000e-06	3.797734e-06	9.730752e-10	2.642728e+01	6.918294e+01
2.750000e-06	3.831665e-06	9.782624e-10	2.666339e+01	6.947863e+01
2.760000e-06	3.865050e-06	9.836909e-10	2.689571e+01	6.976297e+01
2.770000e-06	3.897900e-06	9.863438e-10	2.712430e+01	7.003642e+01
2.780000e-06	3.930362e-06	9.918269e-10	2.735020e+01	7.029946e+01
2.790000e-06	3.962576e-06	9.983996e-10	2.757437e+01	7.055256e+01
2.800000e-06	3.994613e-06	1.003433e-09	2.779730e+01	7.079618e+01
2.810000e-06	4.026461e-06	1.006991e-09	2.801892e+01	7.103078e+01
2.820000e-06	4.058164e-06	1.010059e-09	2.823953e+01	7.125679e+01
2.830000e-06	4.089743e-06	1.013742e-09	2.845928e+01	7.147463e+01
2.840000e-06	4.121110e-06	1.016543e-09	2.867755e+01	7.168472e+01
2.850000e-06	4.152183e-06	1.019947e-09	2.889378e+01	7.188744e+01
2.860000e-06	4.182883e-06	1.025464e-09	2.910741e+01	7.208315e+01
2.870000e-06	4.213201e-06	1.030918e-09	2.931839e+01	7.227218e+01
2.880000e-06	4.243245e-06	1.037127e-09	2.952745e+01	7.245486e+01
2.890000e-06	4.273041e-06	1.042046e-09	2.973479e+01	7.263146e+01
2.900000e-06	4.302594e-06	1.045296e-09	2.994044e+01	7.280225e+01
