# Temperatura_=_-6.91
# Concentracion g/m^3_=_1620.0
# C_Vs_to_Am_M_A/Vsm_=_65563218390.804596
# pendiente_HvsI_1/m_=_3716.3
# ordenada_HvsI_A/m_=_1297.0
# frecuencia_Hz_=_135106.84960067217

Tiempo_(s)	Campo_(V.s)	Magnetizacion_(V.s)	Campo_(kA/m)	Magnetizacion_(A/m)
0.000000e+00	-5.533966e-06	-1.056965e-09	-3.836831e+01	-7.147163e+01
1.000000e-08	-5.534087e-06	-1.058125e-09	-3.836915e+01	-7.146649e+01
2.000000e-08	-5.533985e-06	-1.058695e-09	-3.836844e+01	-7.146226e+01
3.000000e-08	-5.533509e-06	-1.056661e-09	-3.836514e+01	-7.145837e+01
4.000000e-08	-5.532496e-06	-1.053219e-09	-3.835812e+01	-7.145418e+01
5.000000e-08	-5.530998e-06	-1.046619e-09	-3.834773e+01	-7.144903e+01
6.000000e-08	-5.529046e-06	-1.036667e-09	-3.833419e+01	-7.144219e+01
7.000000e-08	-5.526417e-06	-1.045764e-09	-3.831597e+01	-7.143293e+01
8.000000e-08	-5.523128e-06	-1.066547e-09	-3.829316e+01	-7.142049e+01
9.000000e-08	-5.519368e-06	-1.051652e-09	-3.826710e+01	-7.140408e+01
1.000000e-07	-5.515221e-06	-1.021398e-09	-3.823834e+01	-7.138296e+01
1.100000e-07	-5.510821e-06	-1.066686e-09	-3.820784e+01	-7.135637e+01
1.200000e-07	-5.506200e-06	-1.054361e-09	-3.817580e+01	-7.132357e+01
1.300000e-07	-5.501249e-06	-1.053753e-09	-3.814147e+01	-7.128389e+01
1.400000e-07	-5.495873e-06	-1.005261e-09	-3.810420e+01	-7.123668e+01
1.500000e-07	-5.490163e-06	-1.044528e-09	-3.806461e+01	-7.118137e+01
1.600000e-07	-5.484097e-06	-1.068498e-09	-3.802255e+01	-7.111742e+01
1.700000e-07	-5.477568e-06	-1.028783e-09	-3.797728e+01	-7.104443e+01
1.800000e-07	-5.470634e-06	-1.030406e-09	-3.792921e+01	-7.096203e+01
1.900000e-07	-5.463380e-06	-1.055732e-09	-3.787891e+01	-7.086998e+01
2.000000e-07	-5.455850e-06	-1.080551e-09	-3.782671e+01	-7.076812e+01
2.100000e-07	-5.447998e-06	-1.029223e-09	-3.777227e+01	-7.065641e+01
2.200000e-07	-5.439918e-06	-1.040319e-09	-3.771625e+01	-7.053490e+01
2.300000e-07	-5.431620e-06	-1.050832e-09	-3.765872e+01	-7.040378e+01
2.400000e-07	-5.422821e-06	-1.070103e-09	-3.759771e+01	-7.026331e+01
2.500000e-07	-5.413267e-06	-1.027866e-09	-3.753147e+01	-7.011390e+01
2.600000e-07	-5.403074e-06	-1.032328e-09	-3.746080e+01	-6.995602e+01
2.700000e-07	-5.392340e-06	-1.005945e-09	-3.738638e+01	-6.979026e+01
2.800000e-07	-5.381038e-06	-1.007068e-09	-3.730802e+01	-6.961732e+01
2.900000e-07	-5.369316e-06	-9.938884e-10	-3.722675e+01	-6.943795e+01
3.000000e-07	-5.357274e-06	-9.975216e-10	-3.714326e+01	-6.925299e+01
3.100000e-07	-5.344818e-06	-9.859482e-10	-3.705690e+01	-6.906335e+01
3.200000e-07	-5.331829e-06	-1.014802e-09	-3.696684e+01	-6.886997e+01
3.300000e-07	-5.318421e-06	-1.022429e-09	-3.687388e+01	-6.867384e+01
3.400000e-07	-5.304753e-06	-9.934278e-10	-3.677912e+01	-6.847598e+01
3.500000e-07	-5.290730e-06	-9.849254e-10	-3.668190e+01	-6.827740e+01
3.600000e-07	-5.276249e-06	-1.007019e-09	-3.658149e+01	-6.807911e+01
3.700000e-07	-5.261243e-06	-9.810326e-10	-3.647746e+01	-6.788212e+01
3.800000e-07	-5.245663e-06	-9.613944e-10	-3.636943e+01	-6.768737e+01
3.900000e-07	-5.229545e-06	-1.008295e-09	-3.625768e+01	-6.749579e+01
4.000000e-07	-5.212981e-06	-1.001903e-09	-3.614284e+01	-6.730821e+01
4.100000e-07	-5.196061e-06	-9.575782e-10	-3.602553e+01	-6.712543e+01
4.200000e-07	-5.178769e-06	-9.849164e-10	-3.590564e+01	-6.694812e+01
4.300000e-07	-5.161158e-06	-1.031387e-09	-3.578354e+01	-6.677688e+01
4.400000e-07	-5.143266e-06	-9.596410e-10	-3.565949e+01	-6.661222e+01
4.500000e-07	-5.125042e-06	-9.552749e-10	-3.553314e+01	-6.645451e+01
4.600000e-07	-5.106468e-06	-1.011713e-09	-3.540436e+01	-6.630404e+01
4.700000e-07	-5.087505e-06	-9.898731e-10	-3.527288e+01	-6.616096e+01
4.800000e-07	-5.068122e-06	-9.337980e-10	-3.513850e+01	-6.602532e+01
4.900000e-07	-5.048454e-06	-1.005246e-09	-3.500213e+01	-6.589705e+01
5.000000e-07	-5.028610e-06	-1.009985e-09	-3.486456e+01	-6.577597e+01
5.100000e-07	-5.008539e-06	-9.501361e-10	-3.472540e+01	-6.566179e+01
5.200000e-07	-4.988172e-06	-9.730130e-10	-3.458419e+01	-6.555412e+01
5.300000e-07	-4.967520e-06	-1.025456e-09	-3.444100e+01	-6.545250e+01
5.400000e-07	-4.946518e-06	-9.567032e-10	-3.429539e+01	-6.535637e+01
5.500000e-07	-4.925165e-06	-9.497899e-10	-3.414734e+01	-6.526510e+01
5.600000e-07	-4.903437e-06	-1.001285e-09	-3.399670e+01	-6.517801e+01
5.700000e-07	-4.881317e-06	-9.749825e-10	-3.384334e+01	-6.509438e+01
5.800000e-07	-4.858865e-06	-9.386341e-10	-3.368767e+01	-6.501346e+01
5.900000e-07	-4.835992e-06	-9.944599e-10	-3.352908e+01	-6.493448e+01
6.000000e-07	-4.812745e-06	-9.907437e-10	-3.336791e+01	-6.485667e+01
6.100000e-07	-4.789273e-06	-9.444336e-10	-3.320517e+01	-6.477926e+01
6.200000e-07	-4.765606e-06	-9.663346e-10	-3.304108e+01	-6.470153e+01
6.300000e-07	-4.741690e-06	-9.874119e-10	-3.287527e+01	-6.462279e+01
6.400000e-07	-4.717477e-06	-9.535328e-10	-3.270739e+01	-6.454237e+01
6.500000e-07	-4.692902e-06	-9.565641e-10	-3.253701e+01	-6.445971e+01
6.600000e-07	-4.667869e-06	-9.811530e-10	-3.236345e+01	-6.437427e+01
6.700000e-07	-4.642393e-06	-9.600835e-10	-3.218682e+01	-6.428560e+01
6.800000e-07	-4.616422e-06	-9.521222e-10	-3.200676e+01	-6.419336e+01
6.900000e-07	-4.589901e-06	-9.681135e-10	-3.182288e+01	-6.409724e+01
7.000000e-07	-4.562911e-06	-9.618778e-10	-3.163575e+01	-6.399705e+01
7.100000e-07	-4.535570e-06	-9.381376e-10	-3.144619e+01	-6.389269e+01
7.200000e-07	-4.507948e-06	-9.437104e-10	-3.125468e+01	-6.378411e+01
7.300000e-07	-4.480104e-06	-9.431260e-10	-3.106163e+01	-6.367137e+01
7.400000e-07	-4.452081e-06	-9.387212e-10	-3.086734e+01	-6.355459e+01
7.500000e-07	-4.423879e-06	-9.389207e-10	-3.067181e+01	-6.343396e+01
7.600000e-07	-4.395464e-06	-9.477590e-10	-3.047480e+01	-6.330973e+01
7.700000e-07	-4.366731e-06	-9.356413e-10	-3.027559e+01	-6.318219e+01
7.800000e-07	-4.337640e-06	-9.298440e-10	-3.007389e+01	-6.305167e+01
7.900000e-07	-4.308181e-06	-9.248989e-10	-2.986965e+01	-6.291853e+01
8.000000e-07	-4.278407e-06	-9.204904e-10	-2.966322e+01	-6.278316e+01
8.100000e-07	-4.248331e-06	-9.091218e-10	-2.945469e+01	-6.264593e+01
8.200000e-07	-4.217947e-06	-9.159859e-10	-2.924403e+01	-6.250722e+01
8.300000e-07	-4.187307e-06	-9.200770e-10	-2.903160e+01	-6.236738e+01
8.400000e-07	-4.156414e-06	-9.223386e-10	-2.881741e+01	-6.222675e+01
8.500000e-07	-4.125220e-06	-9.227119e-10	-2.860114e+01	-6.208561e+01
8.600000e-07	-4.093724e-06	-9.219820e-10	-2.838276e+01	-6.194421e+01
8.700000e-07	-4.061991e-06	-9.059169e-10	-2.816276e+01	-6.180275e+01
8.800000e-07	-4.030099e-06	-8.971909e-10	-2.794164e+01	-6.166135e+01
8.900000e-07	-3.998049e-06	-8.935668e-10	-2.771943e+01	-6.152009e+01
9.000000e-07	-3.965846e-06	-8.904378e-10	-2.749616e+01	-6.137897e+01
9.100000e-07	-3.933418e-06	-8.909233e-10	-2.727133e+01	-6.123794e+01
9.200000e-07	-3.900675e-06	-8.968595e-10	-2.704431e+01	-6.109688e+01
9.300000e-07	-3.867595e-06	-8.941208e-10	-2.681496e+01	-6.095560e+01
9.400000e-07	-3.833978e-06	-8.870490e-10	-2.658189e+01	-6.081386e+01
9.500000e-07	-3.799805e-06	-8.874460e-10	-2.634495e+01	-6.067138e+01
9.600000e-07	-3.765287e-06	-8.832815e-10	-2.610563e+01	-6.052781e+01
9.700000e-07	-3.730389e-06	-8.750457e-10	-2.586367e+01	-6.038279e+01
9.800000e-07	-3.695018e-06	-8.718999e-10	-2.561844e+01	-6.023592e+01
9.900000e-07	-3.659401e-06	-8.742251e-10	-2.537150e+01	-6.008679e+01
1.000000e-06	-3.623654e-06	-8.673808e-10	-2.512366e+01	-5.993499e+01
1.010000e-06	-3.587699e-06	-8.638160e-10	-2.487437e+01	-5.978009e+01
1.020000e-06	-3.551641e-06	-8.648202e-10	-2.462438e+01	-5.962172e+01
1.030000e-06	-3.515532e-06	-8.655598e-10	-2.437402e+01	-5.945948e+01
1.040000e-06	-3.479180e-06	-8.622138e-10	-2.412198e+01	-5.929306e+01
1.050000e-06	-3.442503e-06	-8.644150e-10	-2.386770e+01	-5.912215e+01
1.060000e-06	-3.405582e-06	-8.586159e-10	-2.361171e+01	-5.894653e+01
1.070000e-06	-3.368353e-06	-8.503326e-10	-2.335359e+01	-5.876600e+01
1.080000e-06	-3.330836e-06	-8.446383e-10	-2.309348e+01	-5.858045e+01
1.090000e-06	-3.293137e-06	-8.447229e-10	-2.283211e+01	-5.838984e+01
1.100000e-06	-3.255249e-06	-8.394114e-10	-2.256942e+01	-5.819417e+01
1.110000e-06	-3.217112e-06	-8.380808e-10	-2.230501e+01	-5.799353e+01
1.120000e-06	-3.178721e-06	-8.395229e-10	-2.203883e+01	-5.778808e+01
1.130000e-06	-3.140150e-06	-8.398905e-10	-2.177141e+01	-5.757803e+01
1.140000e-06	-3.101437e-06	-8.351000e-10	-2.150300e+01	-5.736365e+01
1.150000e-06	-3.062510e-06	-8.335615e-10	-2.123311e+01	-5.714526e+01
1.160000e-06	-3.023317e-06	-8.286152e-10	-2.096138e+01	-5.692323e+01
1.170000e-06	-2.983883e-06	-8.207624e-10	-2.068797e+01	-5.669795e+01
1.180000e-06	-2.944284e-06	-8.168674e-10	-2.041342e+01	-5.646986e+01
1.190000e-06	-2.904602e-06	-8.168860e-10	-2.013830e+01	-5.623936e+01
1.200000e-06	-2.864755e-06	-8.113475e-10	-1.986203e+01	-5.600691e+01
1.210000e-06	-2.824733e-06	-8.043254e-10	-1.958455e+01	-5.577291e+01
1.220000e-06	-2.784651e-06	-8.010900e-10	-1.930665e+01	-5.553776e+01
1.230000e-06	-2.744457e-06	-7.984650e-10	-1.902798e+01	-5.530181e+01
1.240000e-06	-2.704034e-06	-7.960554e-10	-1.874771e+01	-5.506538e+01
1.250000e-06	-2.663339e-06	-7.959910e-10	-1.846556e+01	-5.482871e+01
1.260000e-06	-2.622427e-06	-7.954318e-10	-1.818191e+01	-5.459198e+01
1.270000e-06	-2.581277e-06	-7.885101e-10	-1.789661e+01	-5.435531e+01
1.280000e-06	-2.539908e-06	-7.828820e-10	-1.760979e+01	-5.411873e+01
1.290000e-06	-2.498160e-06	-7.785533e-10	-1.732034e+01	-5.388216e+01
1.300000e-06	-2.455954e-06	-7.723812e-10	-1.702772e+01	-5.364547e+01
1.310000e-06	-2.413549e-06	-7.652511e-10	-1.673371e+01	-5.340841e+01
1.320000e-06	-2.370948e-06	-7.631646e-10	-1.643835e+01	-5.317066e+01
1.330000e-06	-2.328077e-06	-7.600203e-10	-1.614112e+01	-5.293180e+01
1.340000e-06	-2.284866e-06	-7.571057e-10	-1.584152e+01	-5.269133e+01
1.350000e-06	-2.241434e-06	-7.552577e-10	-1.554040e+01	-5.244869e+01
1.360000e-06	-2.197876e-06	-7.515729e-10	-1.523840e+01	-5.220323e+01
1.370000e-06	-2.154178e-06	-7.438159e-10	-1.493543e+01	-5.195425e+01
1.380000e-06	-2.110425e-06	-7.372873e-10	-1.463208e+01	-5.170100e+01
1.390000e-06	-2.066565e-06	-7.301078e-10	-1.432799e+01	-5.144270e+01
1.400000e-06	-2.022597e-06	-7.243532e-10	-1.402315e+01	-5.117854e+01
1.410000e-06	-1.978626e-06	-7.209657e-10	-1.371828e+01	-5.090770e+01
1.420000e-06	-1.934600e-06	-7.199449e-10	-1.341304e+01	-5.062934e+01
1.430000e-06	-1.890430e-06	-7.177290e-10	-1.310680e+01	-5.034266e+01
1.440000e-06	-1.846128e-06	-7.143187e-10	-1.279965e+01	-5.004687e+01
1.450000e-06	-1.801751e-06	-7.074793e-10	-1.249197e+01	-4.974122e+01
1.460000e-06	-1.757342e-06	-6.983773e-10	-1.218407e+01	-4.942500e+01
1.470000e-06	-1.712741e-06	-6.882381e-10	-1.187484e+01	-4.909754e+01
1.480000e-06	-1.667953e-06	-6.806689e-10	-1.156432e+01	-4.875825e+01
1.490000e-06	-1.623072e-06	-6.736783e-10	-1.125315e+01	-4.840659e+01
1.500000e-06	-1.578088e-06	-6.664239e-10	-1.094126e+01	-4.804210e+01
1.510000e-06	-1.533017e-06	-6.609305e-10	-1.062877e+01	-4.766438e+01
1.520000e-06	-1.487786e-06	-6.560582e-10	-1.031517e+01	-4.727310e+01
1.530000e-06	-1.442374e-06	-6.502941e-10	-1.000032e+01	-4.686800e+01
1.540000e-06	-1.396822e-06	-6.429229e-10	-9.684498e+00	-4.644885e+01
1.550000e-06	-1.351173e-06	-6.352003e-10	-9.368004e+00	-4.601553e+01
1.560000e-06	-1.305482e-06	-6.272540e-10	-9.051218e+00	-4.556792e+01
1.570000e-06	-1.259743e-06	-6.184227e-10	-8.734099e+00	-4.510594e+01
1.580000e-06	-1.213893e-06	-6.098622e-10	-8.416211e+00	-4.462956e+01
1.590000e-06	-1.167952e-06	-6.053014e-10	-8.097691e+00	-4.413874e+01
1.600000e-06	-1.121917e-06	-6.027673e-10	-7.778515e+00	-4.363344e+01
1.610000e-06	-1.075781e-06	-5.975606e-10	-7.458645e+00	-4.311361e+01
1.620000e-06	-1.029659e-06	-5.891638e-10	-7.138870e+00	-4.257917e+01
1.630000e-06	-9.835244e-07	-5.796140e-10	-6.819009e+00	-4.203001e+01
1.640000e-06	-9.372712e-07	-5.677458e-10	-6.498325e+00	-4.146596e+01
1.650000e-06	-8.909455e-07	-5.567788e-10	-6.177138e+00	-4.088677e+01
1.660000e-06	-8.445847e-07	-5.458960e-10	-5.855707e+00	-4.029213e+01
1.670000e-06	-7.981163e-07	-5.348947e-10	-5.533531e+00	-3.968165e+01
1.680000e-06	-7.515934e-07	-5.233940e-10	-5.210977e+00	-3.905484e+01
1.690000e-06	-7.050978e-07	-5.131077e-10	-4.888611e+00	-3.841113e+01
1.700000e-06	-6.584815e-07	-5.007249e-10	-4.565409e+00	-3.774982e+01
1.710000e-06	-6.118414e-07	-4.898000e-10	-4.242043e+00	-3.707015e+01
1.720000e-06	-5.652798e-07	-4.815477e-10	-3.919220e+00	-3.637124e+01
1.730000e-06	-5.186112e-07	-4.723599e-10	-3.595655e+00	-3.565214e+01
1.740000e-06	-4.718764e-07	-4.618797e-10	-3.271632e+00	-3.491180e+01
1.750000e-06	-4.250225e-07	-4.498600e-10	-2.946782e+00	-3.414912e+01
1.760000e-06	-3.781266e-07	-4.356055e-10	-2.621642e+00	-3.336292e+01
1.770000e-06	-3.313318e-07	-4.221201e-10	-2.297202e+00	-3.255199e+01
1.780000e-06	-2.844822e-07	-4.103125e-10	-1.972383e+00	-3.171510e+01
1.790000e-06	-2.375709e-07	-3.992852e-10	-1.647136e+00	-3.085101e+01
1.800000e-06	-1.906435e-07	-3.871717e-10	-1.321777e+00	-2.995848e+01
1.810000e-06	-1.436611e-07	-3.725725e-10	-9.960366e-01	-2.903631e+01
1.820000e-06	-9.673797e-08	-3.590928e-10	-6.707074e-01	-2.808338e+01
1.830000e-06	-4.979080e-08	-3.467545e-10	-3.452115e-01	-2.709862e+01
1.840000e-06	-2.772572e-09	-3.343676e-10	-1.922291e-02	-2.608107e+01
1.850000e-06	4.412455e-08	-3.209739e-10	3.059260e-01	-2.502991e+01
1.860000e-06	9.095445e-08	-3.056269e-10	6.306089e-01	-2.394443e+01
1.870000e-06	1.377735e-07	-2.879591e-10	9.552164e-01	-2.282412e+01
1.880000e-06	1.845836e-07	-2.702831e-10	1.279762e+00	-2.166862e+01
1.890000e-06	2.315102e-07	-2.533793e-10	1.605115e+00	-2.047778e+01
1.900000e-06	2.784927e-07	-2.355453e-10	1.930856e+00	-1.925165e+01
1.910000e-06	3.253736e-07	-2.182412e-10	2.255892e+00	-1.799053e+01
1.920000e-06	3.721712e-07	-2.031535e-10	2.580352e+00	-1.669489e+01
1.930000e-06	4.189380e-07	-1.852695e-10	2.904597e+00	-1.536549e+01
1.940000e-06	4.657383e-07	-1.635032e-10	3.229074e+00	-1.400328e+01
1.950000e-06	5.124963e-07	-1.411442e-10	3.553259e+00	-1.260945e+01
1.960000e-06	5.591107e-07	-1.219777e-10	3.876448e+00	-1.118544e+01
1.970000e-06	6.056440e-07	-1.033016e-10	4.199074e+00	-9.732875e+00
1.980000e-06	6.521714e-07	-8.391913e-11	4.521660e+00	-8.253599e+00
1.990000e-06	6.986614e-07	-6.297563e-11	4.843986e+00	-6.749646e+00
2.000000e-06	7.451225e-07	-3.755024e-11	5.166112e+00	-5.223225e+00
2.010000e-06	7.914706e-07	-9.353057e-12	5.487455e+00	-3.676697e+00
2.020000e-06	8.377662e-07	1.531435e-11	5.808433e+00	-2.112561e+00
2.030000e-06	8.840716e-07	3.604225e-11	6.129480e+00	-5.334238e-01
2.040000e-06	9.302888e-07	5.365580e-11	6.449914e+00	1.058019e+00
2.050000e-06	9.765586e-07	7.123839e-11	6.770714e+00	2.659012e+00
2.060000e-06	1.022810e-06	9.091552e-11	7.091385e+00	4.266762e+00
2.070000e-06	1.068876e-06	1.129687e-10	7.410772e+00	5.878465e+00
2.080000e-06	1.114805e-06	1.389356e-10	7.729206e+00	7.491334e+00
2.090000e-06	1.160688e-06	1.663446e-10	8.047327e+00	9.102620e+00
2.100000e-06	1.206557e-06	1.910200e-10	8.365346e+00	1.070964e+01
2.110000e-06	1.252305e-06	2.120156e-10	8.682527e+00	1.230978e+01
2.120000e-06	1.297940e-06	2.312160e-10	8.998928e+00	1.390055e+01
2.130000e-06	1.343499e-06	2.493147e-10	9.314797e+00	1.547959e+01
2.140000e-06	1.388950e-06	2.684893e-10	9.629920e+00	1.704464e+01
2.150000e-06	1.434300e-06	2.891070e-10	9.944346e+00	1.859364e+01
2.160000e-06	1.479581e-06	3.114012e-10	1.025829e+01	2.012466e+01
2.170000e-06	1.524758e-06	3.338942e-10	1.057151e+01	2.163594e+01
2.180000e-06	1.569770e-06	3.549879e-10	1.088359e+01	2.312593e+01
2.190000e-06	1.614670e-06	3.741299e-10	1.119490e+01	2.459322e+01
2.200000e-06	1.659500e-06	3.921471e-10	1.150571e+01	2.603659e+01
2.210000e-06	1.704158e-06	4.083302e-10	1.181534e+01	2.745501e+01
2.220000e-06	1.748612e-06	4.245114e-10	1.212354e+01	2.884760e+01
2.230000e-06	1.792969e-06	4.406125e-10	1.243108e+01	3.021367e+01
2.240000e-06	1.837290e-06	4.550665e-10	1.273837e+01	3.155265e+01
2.250000e-06	1.881535e-06	4.699567e-10	1.304513e+01	3.286415e+01
2.260000e-06	1.925642e-06	4.883458e-10	1.335094e+01	3.414788e+01
2.270000e-06	1.969640e-06	5.075117e-10	1.365598e+01	3.540369e+01
2.280000e-06	2.013604e-06	5.254303e-10	1.396080e+01	3.663153e+01
2.290000e-06	2.057548e-06	5.430923e-10	1.426547e+01	3.783144e+01
2.300000e-06	2.101435e-06	5.604608e-10	1.456975e+01	3.900353e+01
2.310000e-06	2.145245e-06	5.751842e-10	1.487349e+01	4.014797e+01
2.320000e-06	2.188977e-06	5.880725e-10	1.517670e+01	4.126501e+01
2.330000e-06	2.232631e-06	6.016044e-10	1.547937e+01	4.235488e+01
2.340000e-06	2.276086e-06	6.155826e-10	1.578065e+01	4.341789e+01
2.350000e-06	2.319312e-06	6.293402e-10	1.608034e+01	4.445432e+01
2.360000e-06	2.362340e-06	6.421214e-10	1.637867e+01	4.546448e+01
2.370000e-06	2.405011e-06	6.530021e-10	1.667451e+01	4.644867e+01
2.380000e-06	2.447336e-06	6.649952e-10	1.696796e+01	4.740716e+01
2.390000e-06	2.489355e-06	6.791262e-10	1.725929e+01	4.834024e+01
2.400000e-06	2.530939e-06	6.936557e-10	1.754760e+01	4.924814e+01
2.410000e-06	2.572273e-06	7.085327e-10	1.783418e+01	5.013109e+01
2.420000e-06	2.613492e-06	7.209778e-10	1.811996e+01	5.098931e+01
2.430000e-06	2.654454e-06	7.316947e-10	1.840396e+01	5.182299e+01
2.440000e-06	2.695070e-06	7.413506e-10	1.868556e+01	5.263229e+01
2.450000e-06	2.735432e-06	7.496007e-10	1.896540e+01	5.341737e+01
2.460000e-06	2.775690e-06	7.583182e-10	1.924452e+01	5.417839e+01
2.470000e-06	2.815844e-06	7.685919e-10	1.952292e+01	5.491550e+01
2.480000e-06	2.855848e-06	7.819298e-10	1.980028e+01	5.562884e+01
2.490000e-06	2.895688e-06	7.961364e-10	2.007649e+01	5.631857e+01
2.500000e-06	2.935412e-06	8.070037e-10	2.035191e+01	5.698488e+01
2.510000e-06	2.974997e-06	8.141440e-10	2.062636e+01	5.762797e+01
2.520000e-06	3.014378e-06	8.200285e-10	2.089940e+01	5.824805e+01
2.530000e-06	3.053562e-06	8.267433e-10	2.117108e+01	5.884540e+01
2.540000e-06	3.092509e-06	8.334664e-10	2.144110e+01	5.942032e+01
2.550000e-06	3.131197e-06	8.420147e-10	2.170934e+01	5.997316e+01
2.560000e-06	3.169598e-06	8.518513e-10	2.197558e+01	6.050430e+01
2.570000e-06	3.207819e-06	8.602805e-10	2.224057e+01	6.101418e+01
2.580000e-06	3.245926e-06	8.660176e-10	2.250478e+01	6.150331e+01
2.590000e-06	3.283852e-06	8.712025e-10	2.276773e+01	6.197222e+01
2.600000e-06	3.321596e-06	8.777792e-10	2.302942e+01	6.242150e+01
2.610000e-06	3.359103e-06	8.834570e-10	2.328946e+01	6.285178e+01
2.620000e-06	3.396341e-06	8.894960e-10	2.354764e+01	6.326375e+01
2.630000e-06	3.433252e-06	8.977251e-10	2.380355e+01	6.365812e+01
2.640000e-06	3.469864e-06	9.039577e-10	2.405739e+01	6.403565e+01
2.650000e-06	3.506242e-06	9.076007e-10	2.430962e+01	6.439710e+01
2.660000e-06	3.542431e-06	9.113614e-10	2.456052e+01	6.474328e+01
2.670000e-06	3.578479e-06	9.145680e-10	2.481045e+01	6.507500e+01
2.680000e-06	3.614390e-06	9.151277e-10	2.505943e+01	6.539306e+01
2.690000e-06	3.650177e-06	9.178847e-10	2.530755e+01	6.569829e+01
2.700000e-06	3.685811e-06	9.242621e-10	2.555460e+01	6.599147e+01
2.710000e-06	3.721223e-06	9.325998e-10	2.580013e+01	6.627338e+01
2.720000e-06	3.756302e-06	9.436025e-10	2.604334e+01	6.654479e+01
2.730000e-06	3.790981e-06	9.528309e-10	2.628378e+01	6.680640e+01
2.740000e-06	3.825177e-06	9.578305e-10	2.652086e+01	6.705891e+01
2.750000e-06	3.858913e-06	9.591163e-10	2.675477e+01	6.730293e+01
2.760000e-06	3.892250e-06	9.584927e-10	2.698590e+01	6.753906e+01
2.770000e-06	3.925132e-06	9.594996e-10	2.721387e+01	6.776783e+01
2.780000e-06	3.957659e-06	9.636702e-10	2.743940e+01	6.798970e+01
2.790000e-06	3.989907e-06	9.701185e-10	2.766298e+01	6.820510e+01
2.800000e-06	4.021980e-06	9.771106e-10	2.788535e+01	6.841437e+01
2.810000e-06	4.053946e-06	9.830650e-10	2.810697e+01	6.861782e+01
2.820000e-06	4.085738e-06	9.888788e-10	2.832740e+01	6.881567e+01
2.830000e-06	4.117346e-06	9.921131e-10	2.854654e+01	6.900811e+01
2.840000e-06	4.148695e-06	9.916693e-10	2.876389e+01	6.919527e+01
2.850000e-06	4.179662e-06	9.904680e-10	2.897860e+01	6.937724e+01
2.860000e-06	4.210335e-06	9.916581e-10	2.919126e+01	6.955406e+01
2.870000e-06	4.240737e-06	9.961000e-10	2.940204e+01	6.972572e+01
2.880000e-06	4.270861e-06	1.001361e-09	2.961090e+01	6.989220e+01
2.890000e-06	4.300715e-06	1.007515e-09	2.981788e+01	7.005345e+01
2.900000e-06	4.330273e-06	1.011386e-09	3.002281e+01	7.020939e+01
