# Temperatura_=_14.3
# Concentracion g/m^3_=_1620.0
# C_Vs_to_Am_M_A/Vsm_=_65563218390.804596
# pendiente_HvsI_1/m_=_3716.3
# ordenada_HvsI_A/m_=_1297.0
# frecuencia_Hz_=_135100.8803844209

Tiempo_(s)	Campo_(V.s)	Magnetizacion_(V.s)	Campo_(kA/m)	Magnetizacion_(A/m)
0.000000e+00	-5.530158e-06	-1.480440e-09	-3.837723e+01	-9.897664e+01
1.000000e-08	-5.530307e-06	-1.481969e-09	-3.837826e+01	-9.896248e+01
2.000000e-08	-5.530175e-06	-1.482301e-09	-3.837735e+01	-9.894667e+01
3.000000e-08	-5.529692e-06	-1.480958e-09	-3.837400e+01	-9.892925e+01
4.000000e-08	-5.528763e-06	-1.477602e-09	-3.836755e+01	-9.891026e+01
5.000000e-08	-5.527231e-06	-1.474274e-09	-3.835692e+01	-9.888972e+01
6.000000e-08	-5.525043e-06	-1.473417e-09	-3.834173e+01	-9.886767e+01
7.000000e-08	-5.522264e-06	-1.475838e-09	-3.832245e+01	-9.884409e+01
8.000000e-08	-5.518983e-06	-1.480445e-09	-3.829968e+01	-9.881895e+01
9.000000e-08	-5.515272e-06	-1.467986e-09	-3.827392e+01	-9.879220e+01
1.000000e-07	-5.511153e-06	-1.465034e-09	-3.824534e+01	-9.876375e+01
1.100000e-07	-5.506724e-06	-1.506264e-09	-3.821461e+01	-9.873349e+01
1.200000e-07	-5.502098e-06	-1.489149e-09	-3.818250e+01	-9.870125e+01
1.300000e-07	-5.497167e-06	-1.432065e-09	-3.814828e+01	-9.866686e+01
1.400000e-07	-5.491819e-06	-1.450373e-09	-3.811117e+01	-9.863007e+01
1.500000e-07	-5.486083e-06	-1.488370e-09	-3.807137e+01	-9.859062e+01
1.600000e-07	-5.479998e-06	-1.519912e-09	-3.802914e+01	-9.854822e+01
1.700000e-07	-5.473515e-06	-1.442109e-09	-3.798414e+01	-9.850253e+01
1.800000e-07	-5.466584e-06	-1.473195e-09	-3.793605e+01	-9.845320e+01
1.900000e-07	-5.459301e-06	-1.517434e-09	-3.788551e+01	-9.839984e+01
2.000000e-07	-5.451747e-06	-1.525923e-09	-3.783309e+01	-9.834205e+01
2.100000e-07	-5.443901e-06	-1.460895e-09	-3.777864e+01	-9.827943e+01
2.200000e-07	-5.435790e-06	-1.462661e-09	-3.772235e+01	-9.821157e+01
2.300000e-07	-5.427364e-06	-1.506744e-09	-3.766388e+01	-9.813806e+01
2.400000e-07	-5.418450e-06	-1.517389e-09	-3.760202e+01	-9.805850e+01
2.500000e-07	-5.408855e-06	-1.499348e-09	-3.753543e+01	-9.797252e+01
2.600000e-07	-5.398540e-06	-1.475850e-09	-3.746385e+01	-9.787979e+01
2.700000e-07	-5.387777e-06	-1.475531e-09	-3.738916e+01	-9.777999e+01
2.800000e-07	-5.376605e-06	-1.454223e-09	-3.731163e+01	-9.767288e+01
2.900000e-07	-5.364948e-06	-1.462934e-09	-3.723074e+01	-9.755824e+01
3.000000e-07	-5.352840e-06	-1.449139e-09	-3.714671e+01	-9.743592e+01
3.100000e-07	-5.340294e-06	-1.469080e-09	-3.705964e+01	-9.730586e+01
3.200000e-07	-5.327388e-06	-1.475430e-09	-3.697008e+01	-9.716803e+01
3.300000e-07	-5.314151e-06	-1.491486e-09	-3.687822e+01	-9.702249e+01
3.400000e-07	-5.300490e-06	-1.449654e-09	-3.678342e+01	-9.686937e+01
3.500000e-07	-5.286276e-06	-1.461303e-09	-3.668478e+01	-9.670888e+01
3.600000e-07	-5.271659e-06	-1.467100e-09	-3.658334e+01	-9.654128e+01
3.700000e-07	-5.256613e-06	-1.449117e-09	-3.647893e+01	-9.636693e+01
3.800000e-07	-5.240970e-06	-1.422988e-09	-3.637037e+01	-9.618622e+01
3.900000e-07	-5.224872e-06	-1.468862e-09	-3.625866e+01	-9.599962e+01
4.000000e-07	-5.208364e-06	-1.451733e-09	-3.614410e+01	-9.580764e+01
4.100000e-07	-5.191464e-06	-1.410119e-09	-3.602682e+01	-9.561084e+01
4.200000e-07	-5.174254e-06	-1.439458e-09	-3.590739e+01	-9.540981e+01
4.300000e-07	-5.156773e-06	-1.474408e-09	-3.578608e+01	-9.520515e+01
4.400000e-07	-5.138950e-06	-1.402607e-09	-3.566239e+01	-9.499750e+01
4.500000e-07	-5.120690e-06	-1.392797e-09	-3.553567e+01	-9.478747e+01
4.600000e-07	-5.101979e-06	-1.460184e-09	-3.540583e+01	-9.457568e+01
4.700000e-07	-5.082910e-06	-1.419696e-09	-3.527349e+01	-9.436271e+01
4.800000e-07	-5.063538e-06	-1.359804e-09	-3.513906e+01	-9.414913e+01
4.900000e-07	-5.043935e-06	-1.427373e-09	-3.500302e+01	-9.393544e+01
5.000000e-07	-5.024190e-06	-1.447057e-09	-3.486600e+01	-9.372212e+01
5.100000e-07	-5.004205e-06	-1.365435e-09	-3.472731e+01	-9.350955e+01
5.200000e-07	-4.983845e-06	-1.393047e-09	-3.458602e+01	-9.329808e+01
5.300000e-07	-4.963155e-06	-1.445322e-09	-3.444244e+01	-9.308797e+01
5.400000e-07	-4.942105e-06	-1.378892e-09	-3.429636e+01	-9.287938e+01
5.500000e-07	-4.920630e-06	-1.354450e-09	-3.414733e+01	-9.267244e+01
5.600000e-07	-4.898869e-06	-1.422757e-09	-3.399632e+01	-9.246714e+01
5.700000e-07	-4.876797e-06	-1.379828e-09	-3.384315e+01	-9.226343e+01
5.800000e-07	-4.854306e-06	-1.330620e-09	-3.368707e+01	-9.206118e+01
5.900000e-07	-4.831447e-06	-1.387944e-09	-3.352844e+01	-9.186015e+01
6.000000e-07	-4.808285e-06	-1.401373e-09	-3.336770e+01	-9.166008e+01
6.100000e-07	-4.784844e-06	-1.335603e-09	-3.320503e+01	-9.146060e+01
6.200000e-07	-4.761238e-06	-1.363557e-09	-3.304121e+01	-9.126132e+01
6.300000e-07	-4.737453e-06	-1.388437e-09	-3.287615e+01	-9.106179e+01
6.400000e-07	-4.713327e-06	-1.340372e-09	-3.270872e+01	-9.086154e+01
6.500000e-07	-4.688779e-06	-1.328515e-09	-3.253837e+01	-9.066005e+01
6.600000e-07	-4.663822e-06	-1.366152e-09	-3.236518e+01	-9.045680e+01
6.700000e-07	-4.638366e-06	-1.339481e-09	-3.218852e+01	-9.025129e+01
6.800000e-07	-4.612421e-06	-1.325523e-09	-3.200848e+01	-9.004298e+01
6.900000e-07	-4.585963e-06	-1.354542e-09	-3.182487e+01	-8.983140e+01
7.000000e-07	-4.558968e-06	-1.349844e-09	-3.163754e+01	-8.961607e+01
7.100000e-07	-4.531655e-06	-1.314117e-09	-3.144799e+01	-8.939657e+01
7.200000e-07	-4.504141e-06	-1.319315e-09	-3.125705e+01	-8.917252e+01
7.300000e-07	-4.476436e-06	-1.318343e-09	-3.106479e+01	-8.894358e+01
7.400000e-07	-4.448507e-06	-1.298063e-09	-3.087097e+01	-8.870949e+01
7.500000e-07	-4.420338e-06	-1.302773e-09	-3.067549e+01	-8.847003e+01
7.600000e-07	-4.391893e-06	-1.316701e-09	-3.047809e+01	-8.822506e+01
7.700000e-07	-4.363143e-06	-1.303008e-09	-3.027858e+01	-8.797449e+01
7.800000e-07	-4.334041e-06	-1.293994e-09	-3.007663e+01	-8.771829e+01
7.900000e-07	-4.304567e-06	-1.297335e-09	-2.987209e+01	-8.745650e+01
8.000000e-07	-4.274833e-06	-1.283023e-09	-2.966575e+01	-8.718922e+01
8.100000e-07	-4.244843e-06	-1.268325e-09	-2.945762e+01	-8.691658e+01
8.200000e-07	-4.214568e-06	-1.272470e-09	-2.924753e+01	-8.663878e+01
8.300000e-07	-4.184004e-06	-1.274105e-09	-2.903542e+01	-8.635604e+01
8.400000e-07	-4.153140e-06	-1.263238e-09	-2.882124e+01	-8.606860e+01
8.500000e-07	-4.121962e-06	-1.268254e-09	-2.860487e+01	-8.577674e+01
8.600000e-07	-4.090527e-06	-1.266329e-09	-2.838673e+01	-8.548073e+01
8.700000e-07	-4.058912e-06	-1.249060e-09	-2.816733e+01	-8.518087e+01
8.800000e-07	-4.027079e-06	-1.236771e-09	-2.794642e+01	-8.487741e+01
8.900000e-07	-3.995080e-06	-1.236562e-09	-2.772436e+01	-8.457061e+01
9.000000e-07	-3.962936e-06	-1.222538e-09	-2.750129e+01	-8.426071e+01
9.100000e-07	-3.930530e-06	-1.217866e-09	-2.727641e+01	-8.394791e+01
9.200000e-07	-3.897745e-06	-1.223847e-09	-2.704890e+01	-8.363236e+01
9.300000e-07	-3.864551e-06	-1.224172e-09	-2.681854e+01	-8.331418e+01
9.400000e-07	-3.830877e-06	-1.215476e-09	-2.658485e+01	-8.299345e+01
9.500000e-07	-3.796636e-06	-1.217672e-09	-2.634723e+01	-8.267018e+01
9.600000e-07	-3.761903e-06	-1.206713e-09	-2.610620e+01	-8.234436e+01
9.700000e-07	-3.726824e-06	-1.185337e-09	-2.586276e+01	-8.201589e+01
9.800000e-07	-3.691509e-06	-1.174516e-09	-2.561769e+01	-8.168468e+01
9.900000e-07	-3.655993e-06	-1.174482e-09	-2.537122e+01	-8.135053e+01
1.000000e-06	-3.620262e-06	-1.164851e-09	-2.512327e+01	-8.101326e+01
1.010000e-06	-3.584394e-06	-1.161637e-09	-2.487435e+01	-8.067262e+01
1.020000e-06	-3.548411e-06	-1.166248e-09	-2.462464e+01	-8.032835e+01
1.030000e-06	-3.512283e-06	-1.161730e-09	-2.437393e+01	-7.998017e+01
1.040000e-06	-3.475890e-06	-1.150945e-09	-2.412138e+01	-7.962777e+01
1.050000e-06	-3.439189e-06	-1.146475e-09	-2.386668e+01	-7.927087e+01
1.060000e-06	-3.402252e-06	-1.138348e-09	-2.361035e+01	-7.890917e+01
1.070000e-06	-3.365000e-06	-1.125324e-09	-2.335184e+01	-7.854240e+01
1.080000e-06	-3.327499e-06	-1.121215e-09	-2.309160e+01	-7.817031e+01
1.090000e-06	-3.289898e-06	-1.120743e-09	-2.283066e+01	-7.779266e+01
1.100000e-06	-3.252101e-06	-1.113789e-09	-2.256837e+01	-7.740927e+01
1.110000e-06	-3.214012e-06	-1.107130e-09	-2.230404e+01	-7.701999e+01
1.120000e-06	-3.175607e-06	-1.106342e-09	-2.203753e+01	-7.662472e+01
1.130000e-06	-3.136962e-06	-1.097545e-09	-2.176934e+01	-7.622340e+01
1.140000e-06	-3.098188e-06	-1.086008e-09	-2.150027e+01	-7.581602e+01
1.150000e-06	-3.059236e-06	-1.078089e-09	-2.122995e+01	-7.540265e+01
1.160000e-06	-3.020069e-06	-1.069764e-09	-2.095815e+01	-7.498336e+01
1.170000e-06	-2.980686e-06	-1.056536e-09	-2.068485e+01	-7.455831e+01
1.180000e-06	-2.941150e-06	-1.050998e-09	-2.041048e+01	-7.412768e+01
1.190000e-06	-2.901514e-06	-1.048316e-09	-2.013543e+01	-7.369168e+01
1.200000e-06	-2.861741e-06	-1.041470e-09	-1.985941e+01	-7.325057e+01
1.210000e-06	-2.821852e-06	-1.030829e-09	-1.958260e+01	-7.280462e+01
1.220000e-06	-2.781807e-06	-1.023638e-09	-1.930470e+01	-7.235412e+01
1.230000e-06	-2.741505e-06	-1.015010e-09	-1.902502e+01	-7.189936e+01
1.240000e-06	-2.700983e-06	-1.008530e-09	-1.874381e+01	-7.144063e+01
1.250000e-06	-2.660273e-06	-1.007083e-09	-1.846130e+01	-7.097821e+01
1.260000e-06	-2.619262e-06	-1.006112e-09	-1.817670e+01	-7.051234e+01
1.270000e-06	-2.577878e-06	-9.988228e-10	-1.788951e+01	-7.004325e+01
1.280000e-06	-2.536175e-06	-9.912901e-10	-1.760011e+01	-6.957110e+01
1.290000e-06	-2.494337e-06	-9.837243e-10	-1.730977e+01	-6.909604e+01
1.300000e-06	-2.452285e-06	-9.727214e-10	-1.701794e+01	-6.861812e+01
1.310000e-06	-2.409945e-06	-9.625185e-10	-1.672411e+01	-6.813736e+01
1.320000e-06	-2.367382e-06	-9.568163e-10	-1.642875e+01	-6.765370e+01
1.330000e-06	-2.324531e-06	-9.507040e-10	-1.613138e+01	-6.716702e+01
1.340000e-06	-2.281431e-06	-9.422741e-10	-1.583228e+01	-6.667712e+01
1.350000e-06	-2.238090e-06	-9.362130e-10	-1.553150e+01	-6.618372e+01
1.360000e-06	-2.194593e-06	-9.292056e-10	-1.522966e+01	-6.568649e+01
1.370000e-06	-2.151031e-06	-9.177794e-10	-1.492735e+01	-6.518503e+01
1.380000e-06	-2.107347e-06	-9.038154e-10	-1.462420e+01	-6.467886e+01
1.390000e-06	-2.063534e-06	-8.916032e-10	-1.432015e+01	-6.416745e+01
1.400000e-06	-2.019686e-06	-8.857335e-10	-1.401586e+01	-6.365023e+01
1.410000e-06	-1.975757e-06	-8.816603e-10	-1.371101e+01	-6.312657e+01
1.420000e-06	-1.931718e-06	-8.804347e-10	-1.340540e+01	-6.259581e+01
1.430000e-06	-1.887650e-06	-8.771521e-10	-1.309958e+01	-6.205726e+01
1.440000e-06	-1.843529e-06	-8.704009e-10	-1.279340e+01	-6.151021e+01
1.450000e-06	-1.799346e-06	-8.592021e-10	-1.248679e+01	-6.095395e+01
1.460000e-06	-1.754994e-06	-8.430590e-10	-1.217900e+01	-6.038776e+01
1.470000e-06	-1.710363e-06	-8.276420e-10	-1.186928e+01	-5.981091e+01
1.480000e-06	-1.665608e-06	-8.176523e-10	-1.155870e+01	-5.922270e+01
1.490000e-06	-1.620731e-06	-8.097915e-10	-1.124727e+01	-5.862246e+01
1.500000e-06	-1.575717e-06	-8.005121e-10	-1.093489e+01	-5.800952e+01
1.510000e-06	-1.530599e-06	-7.919431e-10	-1.062178e+01	-5.738324e+01
1.520000e-06	-1.485342e-06	-7.840027e-10	-1.030772e+01	-5.674303e+01
1.530000e-06	-1.439996e-06	-7.757987e-10	-9.993036e+00	-5.608832e+01
1.540000e-06	-1.394541e-06	-7.635903e-10	-9.677594e+00	-5.541856e+01
1.550000e-06	-1.349003e-06	-7.521793e-10	-9.361579e+00	-5.473325e+01
1.560000e-06	-1.303438e-06	-7.406661e-10	-9.045372e+00	-5.403190e+01
1.570000e-06	-1.257814e-06	-7.290667e-10	-8.728759e+00	-5.331405e+01
1.580000e-06	-1.212118e-06	-7.156455e-10	-8.411644e+00	-5.257926e+01
1.590000e-06	-1.166319e-06	-7.053742e-10	-8.093818e+00	-5.182709e+01
1.600000e-06	-1.120416e-06	-6.983897e-10	-7.775271e+00	-5.105711e+01
1.610000e-06	-1.074418e-06	-6.904421e-10	-7.456062e+00	-5.026889e+01
1.620000e-06	-1.028329e-06	-6.811011e-10	-7.136216e+00	-4.946196e+01
1.630000e-06	-9.822154e-07	-6.712416e-10	-6.816208e+00	-4.863588e+01
1.640000e-06	-9.360548e-07	-6.588496e-10	-6.495870e+00	-4.779013e+01
1.650000e-06	-8.897739e-07	-6.426321e-10	-6.174698e+00	-4.692419e+01
1.660000e-06	-8.433777e-07	-6.224369e-10	-5.852726e+00	-4.603749e+01
1.670000e-06	-7.968868e-07	-6.045214e-10	-5.530097e+00	-4.512940e+01
1.680000e-06	-7.503717e-07	-5.889153e-10	-5.207299e+00	-4.419926e+01
1.690000e-06	-7.038022e-07	-5.740187e-10	-4.884124e+00	-4.324635e+01
1.700000e-06	-6.571564e-07	-5.593372e-10	-4.560419e+00	-4.226990e+01
1.710000e-06	-6.105429e-07	-5.458335e-10	-4.236940e+00	-4.126909e+01
1.720000e-06	-5.639504e-07	-5.327220e-10	-3.913605e+00	-4.024307e+01
1.730000e-06	-5.172588e-07	-5.165128e-10	-3.589583e+00	-3.919093e+01
1.740000e-06	-4.704966e-07	-4.987193e-10	-3.265071e+00	-3.811174e+01
1.750000e-06	-4.236635e-07	-4.811221e-10	-2.940066e+00	-3.700455e+01
1.760000e-06	-3.767239e-07	-4.638636e-10	-2.614323e+00	-3.586840e+01
1.770000e-06	-3.298186e-07	-4.484068e-10	-2.288818e+00	-3.470234e+01
1.780000e-06	-2.829089e-07	-4.326025e-10	-1.963282e+00	-3.350544e+01
1.790000e-06	-2.359718e-07	-4.169569e-10	-1.637556e+00	-3.227681e+01
1.800000e-06	-1.890819e-07	-4.003949e-10	-1.312158e+00	-3.101561e+01
1.810000e-06	-1.421798e-07	-3.804097e-10	-9.866748e-01	-2.972108e+01
1.820000e-06	-9.526174e-08	-3.609447e-10	-6.610809e-01	-2.839257e+01
1.830000e-06	-4.839315e-08	-3.416502e-10	-3.358304e-01	-2.702951e+01
1.840000e-06	-1.560767e-09	-3.222381e-10	-1.083114e-02	-2.563149e+01
1.850000e-06	4.523686e-08	-3.020003e-10	3.139269e-01	-2.419823e+01
1.860000e-06	9.196705e-08	-2.806080e-10	6.382170e-01	-2.272965e+01
1.870000e-06	1.387171e-07	-2.569800e-10	9.626449e-01	-2.122582e+01
1.880000e-06	1.856319e-07	-2.338877e-10	1.288216e+00	-1.968700e+01
1.890000e-06	2.326412e-07	-2.119021e-10	1.614443e+00	-1.811370e+01
1.900000e-06	2.795302e-07	-1.891708e-10	1.939835e+00	-1.650658e+01
1.910000e-06	3.262876e-07	-1.676775e-10	2.264314e+00	-1.486659e+01
1.920000e-06	3.730578e-07	-1.483277e-10	2.588882e+00	-1.319484e+01
1.930000e-06	4.199118e-07	-1.265570e-10	2.914031e+00	-1.149271e+01
1.940000e-06	4.667147e-07	-1.002180e-10	3.238825e+00	-9.761767e+00
1.950000e-06	5.133830e-07	-7.095914e-11	3.562686e+00	-8.003813e+00
1.960000e-06	5.599368e-07	-4.632978e-11	3.885752e+00	-6.220843e+00
1.970000e-06	6.064737e-07	-2.456133e-11	4.208700e+00	-4.415043e+00
1.980000e-06	6.530595e-07	-1.715044e-12	4.531988e+00	-2.588776e+00
1.990000e-06	6.995642e-07	2.388957e-11	4.854714e+00	-7.445607e-01
2.000000e-06	7.459316e-07	5.306336e-11	5.176486e+00	1.114946e+00
2.010000e-06	7.922969e-07	8.530307e-11	5.498244e+00	2.986975e+00
2.020000e-06	8.386742e-07	1.170413e-10	5.820086e+00	4.868664e+00
2.030000e-06	8.849278e-07	1.446416e-10	6.141068e+00	6.757090e+00
2.040000e-06	9.310567e-07	1.667984e-10	6.461186e+00	8.649288e+00
2.050000e-06	9.771657e-07	1.882777e-10	6.781164e+00	1.054228e+01
2.060000e-06	1.023263e-06	2.126717e-10	7.101062e+00	1.243312e+01
2.070000e-06	1.069231e-06	2.390394e-10	7.420065e+00	1.431886e+01
2.080000e-06	1.115094e-06	2.680841e-10	7.738337e+00	1.619668e+01
2.090000e-06	1.160903e-06	2.979488e-10	8.056232e+00	1.806379e+01
2.100000e-06	1.206603e-06	3.262220e-10	8.373371e+00	1.991755e+01
2.110000e-06	1.252187e-06	3.506254e-10	8.689709e+00	2.175545e+01
2.120000e-06	1.297702e-06	3.729513e-10	9.005564e+00	2.357511e+01
2.130000e-06	1.343240e-06	3.943368e-10	9.321583e+00	2.537435e+01
2.140000e-06	1.388730e-06	4.164120e-10	9.637267e+00	2.715114e+01
2.150000e-06	1.434087e-06	4.411102e-10	9.952029e+00	2.890366e+01
2.160000e-06	1.479403e-06	4.686925e-10	1.026650e+01	3.063027e+01
2.170000e-06	1.524587e-06	4.944434e-10	1.058007e+01	3.232954e+01
2.180000e-06	1.569613e-06	5.176766e-10	1.089253e+01	3.400026e+01
2.190000e-06	1.614512e-06	5.399799e-10	1.120411e+01	3.564139e+01
2.200000e-06	1.659278e-06	5.620058e-10	1.151477e+01	3.725211e+01
2.210000e-06	1.703925e-06	5.816954e-10	1.182460e+01	3.883177e+01
2.220000e-06	1.748471e-06	5.999702e-10	1.213374e+01	4.037992e+01
2.230000e-06	1.792893e-06	6.192578e-10	1.244200e+01	4.189627e+01
2.240000e-06	1.837213e-06	6.387719e-10	1.274957e+01	4.338069e+01
2.250000e-06	1.881443e-06	6.577847e-10	1.305651e+01	4.483318e+01
2.260000e-06	1.925502e-06	6.793579e-10	1.336226e+01	4.625389e+01
2.270000e-06	1.969412e-06	7.012142e-10	1.366699e+01	4.764305e+01
2.280000e-06	2.013232e-06	7.205771e-10	1.397108e+01	4.900101e+01
2.290000e-06	2.056992e-06	7.384518e-10	1.427476e+01	5.032819e+01
2.300000e-06	2.100730e-06	7.551900e-10	1.457828e+01	5.162507e+01
2.310000e-06	2.144453e-06	7.707048e-10	1.488170e+01	5.289218e+01
2.320000e-06	2.188014e-06	7.878287e-10	1.518400e+01	5.413008e+01
2.330000e-06	2.231431e-06	8.062550e-10	1.548530e+01	5.533935e+01
2.340000e-06	2.274802e-06	8.240262e-10	1.578628e+01	5.652057e+01
2.350000e-06	2.317976e-06	8.400688e-10	1.608589e+01	5.767432e+01
2.360000e-06	2.360852e-06	8.536684e-10	1.638343e+01	5.880118e+01
2.370000e-06	2.403506e-06	8.649719e-10	1.667943e+01	5.990169e+01
2.380000e-06	2.445949e-06	8.773937e-10	1.697397e+01	6.097639e+01
2.390000e-06	2.488021e-06	8.924924e-10	1.726594e+01	6.202576e+01
2.400000e-06	2.529604e-06	9.090873e-10	1.755451e+01	6.305027e+01
2.410000e-06	2.570846e-06	9.275521e-10	1.784071e+01	6.405037e+01
2.420000e-06	2.611890e-06	9.442701e-10	1.812554e+01	6.502645e+01
2.430000e-06	2.652773e-06	9.567882e-10	1.840925e+01	6.597889e+01
2.440000e-06	2.693442e-06	9.658920e-10	1.869148e+01	6.690806e+01
2.450000e-06	2.733820e-06	9.758204e-10	1.897169e+01	6.781428e+01
2.460000e-06	2.773990e-06	9.862932e-10	1.925045e+01	6.869787e+01
2.470000e-06	2.813986e-06	9.988361e-10	1.952801e+01	6.955916e+01
2.480000e-06	2.853860e-06	1.016104e-09	1.980472e+01	7.039844e+01
2.490000e-06	2.893654e-06	1.033960e-09	2.008088e+01	7.121604e+01
2.500000e-06	2.933307e-06	1.048121e-09	2.035605e+01	7.201226e+01
2.510000e-06	2.972867e-06	1.058731e-09	2.063059e+01	7.278744e+01
2.520000e-06	3.012281e-06	1.065312e-09	2.090411e+01	7.354194e+01
2.530000e-06	3.051409e-06	1.070934e-09	2.117564e+01	7.427610e+01
2.540000e-06	3.090210e-06	1.076803e-09	2.144490e+01	7.499034e+01
2.550000e-06	3.128746e-06	1.083945e-09	2.171233e+01	7.568506e+01
2.560000e-06	3.167154e-06	1.095492e-09	2.197886e+01	7.636072e+01
2.570000e-06	3.205410e-06	1.109680e-09	2.224435e+01	7.701777e+01
2.580000e-06	3.243402e-06	1.122526e-09	2.250800e+01	7.765671e+01
2.590000e-06	3.281214e-06	1.132629e-09	2.277040e+01	7.827806e+01
2.600000e-06	3.318957e-06	1.141087e-09	2.303232e+01	7.888234e+01
2.610000e-06	3.356424e-06	1.146401e-09	2.329233e+01	7.947012e+01
2.620000e-06	3.393520e-06	1.148824e-09	2.354976e+01	8.004194e+01
2.630000e-06	3.430430e-06	1.153828e-09	2.380590e+01	8.059837e+01
2.640000e-06	3.467133e-06	1.161871e-09	2.406060e+01	8.113997e+01
2.650000e-06	3.503460e-06	1.171427e-09	2.431270e+01	8.166730e+01
2.660000e-06	3.539480e-06	1.182283e-09	2.456267e+01	8.218090e+01
2.670000e-06	3.575390e-06	1.191671e-09	2.481187e+01	8.268131e+01
2.680000e-06	3.611225e-06	1.197562e-09	2.506055e+01	8.316902e+01
2.690000e-06	3.646932e-06	1.201891e-09	2.530835e+01	8.364451e+01
2.700000e-06	3.682469e-06	1.206832e-09	2.555496e+01	8.410823e+01
2.710000e-06	3.717764e-06	1.211880e-09	2.579989e+01	8.456059e+01
2.720000e-06	3.752783e-06	1.217537e-09	2.604291e+01	8.500196e+01
2.730000e-06	3.787466e-06	1.224543e-09	2.628360e+01	8.543268e+01
2.740000e-06	3.821709e-06	1.232341e-09	2.652123e+01	8.585303e+01
2.750000e-06	3.855574e-06	1.240578e-09	2.675624e+01	8.626327e+01
2.760000e-06	3.889024e-06	1.247117e-09	2.698837e+01	8.666362e+01
2.770000e-06	3.921957e-06	1.251351e-09	2.721692e+01	8.705426e+01
2.780000e-06	3.954492e-06	1.256016e-09	2.744270e+01	8.743534e+01
2.790000e-06	3.986692e-06	1.263342e-09	2.766615e+01	8.780697e+01
2.800000e-06	4.018611e-06	1.271523e-09	2.788766e+01	8.816925e+01
2.810000e-06	4.050384e-06	1.277600e-09	2.810815e+01	8.852225e+01
2.820000e-06	4.082037e-06	1.284479e-09	2.832781e+01	8.886604e+01
2.830000e-06	4.113518e-06	1.291342e-09	2.854628e+01	8.920068e+01
2.840000e-06	4.144803e-06	1.296354e-09	2.876338e+01	8.952622e+01
2.850000e-06	4.175803e-06	1.300444e-09	2.897851e+01	8.984272e+01
2.860000e-06	4.206421e-06	1.304344e-09	2.919099e+01	9.015025e+01
2.870000e-06	4.236669e-06	1.308596e-09	2.940090e+01	9.044889e+01
2.880000e-06	4.266615e-06	1.314325e-09	2.960871e+01	9.073875e+01
2.890000e-06	4.296318e-06	1.322187e-09	2.981484e+01	9.101996e+01
2.900000e-06	4.325755e-06	1.331140e-09	3.001912e+01	9.129267e+01
