# Temperatura_=_13.62
# Concentracion g/m^3_=_1620.0
# C_Vs_to_Am_M_A/Vsm_=_65563218390.804596
# pendiente_HvsI_1/m_=_3716.3
# ordenada_HvsI_A/m_=_1297.0
# frecuencia_Hz_=_135103.18066344093

Tiempo_(s)	Campo_(V.s)	Magnetizacion_(V.s)	Campo_(kA/m)	Magnetizacion_(A/m)
0.000000e+00	-5.527408e-06	-1.485933e-09	-3.837083e+01	-9.908916e+01
1.000000e-08	-5.527592e-06	-1.482046e-09	-3.837210e+01	-9.904735e+01
2.000000e-08	-5.527543e-06	-1.477160e-09	-3.837176e+01	-9.900185e+01
3.000000e-08	-5.527115e-06	-1.472983e-09	-3.836879e+01	-9.895274e+01
4.000000e-08	-5.526162e-06	-1.469818e-09	-3.836218e+01	-9.890010e+01
5.000000e-08	-5.524707e-06	-1.468160e-09	-3.835208e+01	-9.884407e+01
6.000000e-08	-5.522655e-06	-1.476380e-09	-3.833783e+01	-9.878477e+01
7.000000e-08	-5.519997e-06	-1.512226e-09	-3.831938e+01	-9.872235e+01
8.000000e-08	-5.516797e-06	-1.520930e-09	-3.829716e+01	-9.865699e+01
9.000000e-08	-5.513119e-06	-1.435694e-09	-3.827163e+01	-9.858884e+01
1.000000e-07	-5.509115e-06	-1.359176e-09	-3.824384e+01	-9.851809e+01
1.100000e-07	-5.504815e-06	-1.443807e-09	-3.821399e+01	-9.844489e+01
1.200000e-07	-5.500242e-06	-1.538735e-09	-3.818224e+01	-9.836941e+01
1.300000e-07	-5.495352e-06	-1.510395e-09	-3.814830e+01	-9.829181e+01
1.400000e-07	-5.490122e-06	-1.402662e-09	-3.811199e+01	-9.821223e+01
1.500000e-07	-5.484581e-06	-1.457933e-09	-3.807352e+01	-9.813079e+01
1.600000e-07	-5.478598e-06	-1.551353e-09	-3.803199e+01	-9.804758e+01
1.700000e-07	-5.472133e-06	-1.510743e-09	-3.798711e+01	-9.796270e+01
1.800000e-07	-5.465306e-06	-1.398647e-09	-3.793972e+01	-9.787617e+01
1.900000e-07	-5.458170e-06	-1.427919e-09	-3.789018e+01	-9.778803e+01
2.000000e-07	-5.450709e-06	-1.524492e-09	-3.783839e+01	-9.769826e+01
2.100000e-07	-5.442955e-06	-1.532656e-09	-3.778456e+01	-9.760682e+01
2.200000e-07	-5.434946e-06	-1.468830e-09	-3.772896e+01	-9.751363e+01
2.300000e-07	-5.426683e-06	-1.456178e-09	-3.767160e+01	-9.741861e+01
2.400000e-07	-5.417949e-06	-1.494201e-09	-3.761097e+01	-9.732161e+01
2.500000e-07	-5.408630e-06	-1.496826e-09	-3.754628e+01	-9.722248e+01
2.600000e-07	-5.398739e-06	-1.470457e-09	-3.747762e+01	-9.712105e+01
2.700000e-07	-5.388218e-06	-1.449484e-09	-3.740458e+01	-9.701713e+01
2.800000e-07	-5.377102e-06	-1.477263e-09	-3.732741e+01	-9.691051e+01
2.900000e-07	-5.365557e-06	-1.477019e-09	-3.724727e+01	-9.680096e+01
3.000000e-07	-5.353643e-06	-1.454465e-09	-3.716456e+01	-9.668828e+01
3.100000e-07	-5.341247e-06	-1.432852e-09	-3.707851e+01	-9.657223e+01
3.200000e-07	-5.328400e-06	-1.487670e-09	-3.698933e+01	-9.645262e+01
3.300000e-07	-5.315234e-06	-1.490596e-09	-3.689793e+01	-9.632922e+01
3.400000e-07	-5.301721e-06	-1.449990e-09	-3.680412e+01	-9.620186e+01
3.500000e-07	-5.287749e-06	-1.437682e-09	-3.670713e+01	-9.607036e+01
3.600000e-07	-5.273433e-06	-1.489442e-09	-3.660775e+01	-9.593459e+01
3.700000e-07	-5.258718e-06	-1.452025e-09	-3.650560e+01	-9.579441e+01
3.800000e-07	-5.243403e-06	-1.420079e-09	-3.639928e+01	-9.564975e+01
3.900000e-07	-5.227558e-06	-1.464514e-09	-3.628929e+01	-9.550054e+01
4.000000e-07	-5.211333e-06	-1.469521e-09	-3.617666e+01	-9.534676e+01
4.100000e-07	-5.194729e-06	-1.392453e-09	-3.606140e+01	-9.518841e+01
4.200000e-07	-5.177689e-06	-1.422375e-09	-3.594310e+01	-9.502554e+01
4.300000e-07	-5.160292e-06	-1.489723e-09	-3.582234e+01	-9.485822e+01
4.400000e-07	-5.142602e-06	-1.419050e-09	-3.569953e+01	-9.468654e+01
4.500000e-07	-5.124499e-06	-1.367449e-09	-3.557386e+01	-9.451064e+01
4.600000e-07	-5.105929e-06	-1.446854e-09	-3.544495e+01	-9.433065e+01
4.700000e-07	-5.086947e-06	-1.445565e-09	-3.531318e+01	-9.414676e+01
4.800000e-07	-5.067655e-06	-1.364913e-09	-3.517926e+01	-9.395913e+01
4.900000e-07	-5.048191e-06	-1.406862e-09	-3.504414e+01	-9.376796e+01
5.000000e-07	-5.028494e-06	-1.448636e-09	-3.490740e+01	-9.357344e+01
5.100000e-07	-5.008524e-06	-1.384052e-09	-3.476877e+01	-9.337577e+01
5.200000e-07	-4.988284e-06	-1.384847e-09	-3.462827e+01	-9.317514e+01
5.300000e-07	-4.967666e-06	-1.445983e-09	-3.448514e+01	-9.297172e+01
5.400000e-07	-4.946616e-06	-1.382171e-09	-3.433901e+01	-9.276567e+01
5.500000e-07	-4.925144e-06	-1.334185e-09	-3.418995e+01	-9.255713e+01
5.600000e-07	-4.903387e-06	-1.394604e-09	-3.403892e+01	-9.234622e+01
5.700000e-07	-4.881368e-06	-1.398847e-09	-3.388607e+01	-9.213303e+01
5.800000e-07	-4.859019e-06	-1.338423e-09	-3.373092e+01	-9.191762e+01
5.900000e-07	-4.836393e-06	-1.368879e-09	-3.357386e+01	-9.170001e+01
6.000000e-07	-4.813397e-06	-1.389238e-09	-3.341422e+01	-9.148021e+01
6.100000e-07	-4.790036e-06	-1.342986e-09	-3.325205e+01	-9.125818e+01
6.200000e-07	-4.766457e-06	-1.334871e-09	-3.308836e+01	-9.103386e+01
6.300000e-07	-4.742649e-06	-1.363423e-09	-3.292309e+01	-9.080714e+01
6.400000e-07	-4.718555e-06	-1.337010e-09	-3.275583e+01	-9.057790e+01
6.500000e-07	-4.694176e-06	-1.324009e-09	-3.258659e+01	-9.034601e+01
6.600000e-07	-4.669402e-06	-1.341865e-09	-3.241462e+01	-9.011130e+01
6.700000e-07	-4.644088e-06	-1.334361e-09	-3.223889e+01	-8.987359e+01
6.800000e-07	-4.618139e-06	-1.315618e-09	-3.205875e+01	-8.963268e+01
6.900000e-07	-4.591693e-06	-1.328301e-09	-3.187517e+01	-8.938839e+01
7.000000e-07	-4.564861e-06	-1.326515e-09	-3.168890e+01	-8.914052e+01
7.100000e-07	-4.537635e-06	-1.309305e-09	-3.149990e+01	-8.888889e+01
7.200000e-07	-4.510091e-06	-1.308833e-09	-3.130869e+01	-8.863332e+01
7.300000e-07	-4.482365e-06	-1.311487e-09	-3.111622e+01	-8.837366e+01
7.400000e-07	-4.454543e-06	-1.300073e-09	-3.092308e+01	-8.810976e+01
7.500000e-07	-4.426481e-06	-1.297487e-09	-3.072828e+01	-8.784152e+01
7.600000e-07	-4.398022e-06	-1.298489e-09	-3.053072e+01	-8.756885e+01
7.700000e-07	-4.369265e-06	-1.290618e-09	-3.033109e+01	-8.729172e+01
7.800000e-07	-4.340232e-06	-1.286898e-09	-3.012954e+01	-8.701011e+01
7.900000e-07	-4.310843e-06	-1.285060e-09	-2.992553e+01	-8.672405e+01
8.000000e-07	-4.281261e-06	-1.274310e-09	-2.972018e+01	-8.643359e+01
8.100000e-07	-4.251445e-06	-1.266699e-09	-2.951319e+01	-8.613884e+01
8.200000e-07	-4.221269e-06	-1.270729e-09	-2.930371e+01	-8.583993e+01
8.300000e-07	-4.190829e-06	-1.262634e-09	-2.909240e+01	-8.553703e+01
8.400000e-07	-4.160067e-06	-1.252708e-09	-2.887885e+01	-8.523033e+01
8.500000e-07	-4.128987e-06	-1.252087e-09	-2.866310e+01	-8.492006e+01
8.600000e-07	-4.097695e-06	-1.253907e-09	-2.844587e+01	-8.460645e+01
8.700000e-07	-4.066192e-06	-1.244366e-09	-2.822718e+01	-8.428977e+01
8.800000e-07	-4.034516e-06	-1.242944e-09	-2.800729e+01	-8.397029e+01
8.900000e-07	-4.002628e-06	-1.239838e-09	-2.778593e+01	-8.364827e+01
9.000000e-07	-3.970438e-06	-1.227545e-09	-2.756246e+01	-8.332399e+01
9.100000e-07	-3.937904e-06	-1.219690e-09	-2.733662e+01	-8.299770e+01
9.200000e-07	-3.905046e-06	-1.225522e-09	-2.710852e+01	-8.266965e+01
9.300000e-07	-3.871694e-06	-1.221781e-09	-2.687699e+01	-8.234007e+01
9.400000e-07	-3.837887e-06	-1.213138e-09	-2.664231e+01	-8.200915e+01
9.500000e-07	-3.803798e-06	-1.211170e-09	-2.640566e+01	-8.167704e+01
9.600000e-07	-3.769285e-06	-1.207567e-09	-2.616608e+01	-8.134388e+01
9.700000e-07	-3.734382e-06	-1.190846e-09	-2.592378e+01	-8.100974e+01
9.800000e-07	-3.699207e-06	-1.182066e-09	-2.567960e+01	-8.067467e+01
9.900000e-07	-3.663815e-06	-1.180395e-09	-2.543391e+01	-8.033866e+01
1.000000e-06	-3.628238e-06	-1.173058e-09	-2.518694e+01	-8.000164e+01
1.010000e-06	-3.592509e-06	-1.166770e-09	-2.493891e+01	-7.966351e+01
1.020000e-06	-3.556638e-06	-1.168910e-09	-2.468990e+01	-7.932412e+01
1.030000e-06	-3.520518e-06	-1.165624e-09	-2.443915e+01	-7.898326e+01
1.040000e-06	-3.484168e-06	-1.154879e-09	-2.418682e+01	-7.864069e+01
1.050000e-06	-3.447586e-06	-1.147655e-09	-2.393287e+01	-7.829613e+01
1.060000e-06	-3.410684e-06	-1.140852e-09	-2.367670e+01	-7.794925e+01
1.070000e-06	-3.373528e-06	-1.131530e-09	-2.341876e+01	-7.759969e+01
1.080000e-06	-3.336106e-06	-1.128058e-09	-2.315898e+01	-7.724708e+01
1.090000e-06	-3.298444e-06	-1.128919e-09	-2.289754e+01	-7.689102e+01
1.100000e-06	-3.260612e-06	-1.120955e-09	-2.263491e+01	-7.653109e+01
1.110000e-06	-3.222642e-06	-1.110779e-09	-2.237133e+01	-7.616687e+01
1.120000e-06	-3.184496e-06	-1.106247e-09	-2.210652e+01	-7.579793e+01
1.130000e-06	-3.146059e-06	-1.100188e-09	-2.183969e+01	-7.542386e+01
1.140000e-06	-3.107320e-06	-1.088580e-09	-2.157077e+01	-7.504425e+01
1.150000e-06	-3.068392e-06	-1.082470e-09	-2.130053e+01	-7.465871e+01
1.160000e-06	-3.029301e-06	-1.078876e-09	-2.102916e+01	-7.426688e+01
1.170000e-06	-2.989973e-06	-1.072020e-09	-2.075615e+01	-7.386842e+01
1.180000e-06	-2.950485e-06	-1.064487e-09	-2.048203e+01	-7.346303e+01
1.190000e-06	-2.910905e-06	-1.061112e-09	-2.020727e+01	-7.305042e+01
1.200000e-06	-2.871213e-06	-1.053211e-09	-1.993174e+01	-7.263038e+01
1.210000e-06	-2.831409e-06	-1.042000e-09	-1.965542e+01	-7.220270e+01
1.220000e-06	-2.791478e-06	-1.032829e-09	-1.937822e+01	-7.176723e+01
1.230000e-06	-2.751328e-06	-1.026427e-09	-1.909950e+01	-7.132387e+01
1.240000e-06	-2.710938e-06	-1.018762e-09	-1.881912e+01	-7.087254e+01
1.250000e-06	-2.670327e-06	-1.013741e-09	-1.853720e+01	-7.041321e+01
1.260000e-06	-2.629440e-06	-1.009983e-09	-1.825336e+01	-6.994589e+01
1.270000e-06	-2.588342e-06	-1.005106e-09	-1.796807e+01	-6.947061e+01
1.280000e-06	-2.547038e-06	-9.989791e-10	-1.768134e+01	-6.898743e+01
1.290000e-06	-2.505420e-06	-9.919072e-10	-1.739243e+01	-6.849646e+01
1.300000e-06	-2.463416e-06	-9.808254e-10	-1.710083e+01	-6.799779e+01
1.310000e-06	-2.421014e-06	-9.691055e-10	-1.680649e+01	-6.749157e+01
1.320000e-06	-2.378257e-06	-9.603414e-10	-1.650967e+01	-6.697794e+01
1.330000e-06	-2.335303e-06	-9.525913e-10	-1.621149e+01	-6.645703e+01
1.340000e-06	-2.292271e-06	-9.439432e-10	-1.591277e+01	-6.592899e+01
1.350000e-06	-2.249073e-06	-9.362295e-10	-1.561288e+01	-6.539397e+01
1.360000e-06	-2.205635e-06	-9.275082e-10	-1.531134e+01	-6.485209e+01
1.370000e-06	-2.162036e-06	-9.170911e-10	-1.500868e+01	-6.430347e+01
1.380000e-06	-2.118370e-06	-9.064652e-10	-1.470556e+01	-6.374821e+01
1.390000e-06	-2.074611e-06	-8.971496e-10	-1.440178e+01	-6.318638e+01
1.400000e-06	-2.030780e-06	-8.906631e-10	-1.409751e+01	-6.261803e+01
1.410000e-06	-1.986926e-06	-8.846108e-10	-1.379308e+01	-6.204317e+01
1.420000e-06	-1.942991e-06	-8.784251e-10	-1.348809e+01	-6.146178e+01
1.430000e-06	-1.898909e-06	-8.713486e-10	-1.318208e+01	-6.087380e+01
1.440000e-06	-1.854723e-06	-8.638436e-10	-1.287534e+01	-6.027915e+01
1.450000e-06	-1.810457e-06	-8.551456e-10	-1.256805e+01	-5.967768e+01
1.460000e-06	-1.766095e-06	-8.455724e-10	-1.226009e+01	-5.906922e+01
1.470000e-06	-1.721598e-06	-8.342642e-10	-1.195120e+01	-5.845355e+01
1.480000e-06	-1.676901e-06	-8.232870e-10	-1.164091e+01	-5.783039e+01
1.490000e-06	-1.632043e-06	-8.112522e-10	-1.132951e+01	-5.719945e+01
1.500000e-06	-1.587087e-06	-7.996161e-10	-1.101743e+01	-5.656036e+01
1.510000e-06	-1.542101e-06	-7.897661e-10	-1.070514e+01	-5.591272e+01
1.520000e-06	-1.497040e-06	-7.826668e-10	-1.039233e+01	-5.525609e+01
1.530000e-06	-1.451715e-06	-7.760915e-10	-1.007769e+01	-5.458997e+01
1.540000e-06	-1.406174e-06	-7.671995e-10	-9.761545e+00	-5.391381e+01
1.550000e-06	-1.360638e-06	-7.560166e-10	-9.445443e+00	-5.322704e+01
1.560000e-06	-1.315078e-06	-7.438898e-10	-9.129167e+00	-5.252901e+01
1.570000e-06	-1.269385e-06	-7.308242e-10	-8.811967e+00	-5.181905e+01
1.580000e-06	-1.223633e-06	-7.201827e-10	-8.494364e+00	-5.109644e+01
1.590000e-06	-1.177843e-06	-7.127321e-10	-8.176489e+00	-5.036038e+01
1.600000e-06	-1.132042e-06	-7.070862e-10	-7.858548e+00	-4.961008e+01
1.610000e-06	-1.086140e-06	-6.998875e-10	-7.539898e+00	-4.884467e+01
1.620000e-06	-1.040072e-06	-6.888867e-10	-7.220095e+00	-4.806324e+01
1.630000e-06	-9.939478e-07	-6.757424e-10	-6.899906e+00	-4.726484e+01
1.640000e-06	-9.477752e-07	-6.621957e-10	-6.579380e+00	-4.644848e+01
1.650000e-06	-9.015584e-07	-6.469121e-10	-6.258547e+00	-4.561314e+01
1.660000e-06	-8.552377e-07	-6.303018e-10	-5.936992e+00	-4.475776e+01
1.670000e-06	-8.087895e-07	-6.155684e-10	-5.614552e+00	-4.388124e+01
1.680000e-06	-7.622667e-07	-6.016953e-10	-5.291595e+00	-4.298246e+01
1.690000e-06	-7.156958e-07	-5.880502e-10	-4.968303e+00	-4.206030e+01
1.700000e-06	-6.692085e-07	-5.735805e-10	-4.645592e+00	-4.111358e+01
1.710000e-06	-6.227363e-07	-5.580523e-10	-4.322986e+00	-4.014117e+01
1.720000e-06	-5.761925e-07	-5.417682e-10	-3.999882e+00	-3.914188e+01
1.730000e-06	-5.296541e-07	-5.249804e-10	-3.676817e+00	-3.811458e+01
1.740000e-06	-4.830375e-07	-5.074764e-10	-3.353208e+00	-3.705814e+01
1.750000e-06	-4.363291e-07	-4.882767e-10	-3.028962e+00	-3.597146e+01
1.760000e-06	-3.895525e-07	-4.680524e-10	-2.704242e+00	-3.485348e+01
1.770000e-06	-3.426775e-07	-4.509676e-10	-2.378840e+00	-3.370320e+01
1.780000e-06	-2.958027e-07	-4.356187e-10	-2.053439e+00	-3.251970e+01
1.790000e-06	-2.489490e-07	-4.205971e-10	-1.728184e+00	-3.130212e+01
1.800000e-06	-2.020503e-07	-4.050906e-10	-1.402617e+00	-3.004971e+01
1.810000e-06	-1.551984e-07	-3.869086e-10	-1.077375e+00	-2.876182e+01
1.820000e-06	-1.083737e-07	-3.656987e-10	-7.523213e-01	-2.743793e+01
1.830000e-06	-6.147053e-08	-3.434159e-10	-4.267235e-01	-2.607763e+01
1.840000e-06	-1.451782e-08	-3.214777e-10	-1.007815e-01	-2.468070e+01
1.850000e-06	3.241452e-08	-2.994853e-10	2.250190e-01	-2.324705e+01
1.860000e-06	7.928146e-08	-2.767399e-10	5.503656e-01	-2.177676e+01
1.870000e-06	1.261155e-07	-2.534459e-10	8.754839e-01	-2.027009e+01
1.880000e-06	1.729683e-07	-2.313338e-10	1.200732e+00	-1.872750e+01
1.890000e-06	2.197808e-07	-2.118303e-10	1.525701e+00	-1.714964e+01
1.900000e-06	2.666223e-07	-1.921835e-10	1.850871e+00	-1.553734e+01
1.910000e-06	3.134967e-07	-1.704885e-10	2.176269e+00	-1.389164e+01
1.920000e-06	3.603499e-07	-1.479902e-10	2.501521e+00	-1.221380e+01
1.930000e-06	4.071955e-07	-1.235286e-10	2.826719e+00	-1.050525e+01
1.940000e-06	4.540056e-07	-9.736193e-11	3.151671e+00	-8.767620e+00
1.950000e-06	5.007478e-07	-7.153392e-11	3.476151e+00	-7.002748e+00
1.960000e-06	5.473825e-07	-4.889551e-11	3.799886e+00	-5.212634e+00
1.970000e-06	5.939668e-07	-2.780191e-11	4.123270e+00	-3.399452e+00
1.980000e-06	6.405383e-07	-6.057821e-12	4.446566e+00	-1.565531e+00
1.990000e-06	6.870787e-07	1.872084e-11	4.769646e+00	2.866558e-01
2.000000e-06	7.335815e-07	4.729820e-11	5.092465e+00	2.154513e+00
2.010000e-06	7.800666e-07	7.753385e-11	5.415160e+00	4.035339e+00
2.020000e-06	8.264205e-07	1.065926e-10	5.736945e+00	5.926343e+00
2.030000e-06	8.726328e-07	1.336029e-10	6.057748e+00	7.824672e+00
2.040000e-06	9.188344e-07	1.583482e-10	6.378475e+00	9.727427e+00
2.050000e-06	9.650060e-07	1.822723e-10	6.698995e+00	1.163169e+01
2.060000e-06	1.011099e-06	2.073419e-10	7.018965e+00	1.353454e+01
2.070000e-06	1.057122e-06	2.334571e-10	7.338459e+00	1.543307e+01
2.080000e-06	1.103052e-06	2.611146e-10	7.657298e+00	1.732446e+01
2.090000e-06	1.148879e-06	2.897644e-10	7.975425e+00	1.920590e+01
2.100000e-06	1.194574e-06	3.179024e-10	8.292641e+00	2.107470e+01
2.110000e-06	1.240128e-06	3.426982e-10	8.608868e+00	2.292829e+01
2.120000e-06	1.285618e-06	3.651819e-10	8.924660e+00	2.476419e+01
2.130000e-06	1.331120e-06	3.882287e-10	9.240530e+00	2.658010e+01
2.140000e-06	1.376538e-06	4.111597e-10	9.555818e+00	2.837383e+01
2.150000e-06	1.421850e-06	4.349371e-10	9.870367e+00	3.014341e+01
2.160000e-06	1.467094e-06	4.602964e-10	1.018445e+01	3.188700e+01
2.170000e-06	1.512269e-06	4.848839e-10	1.049805e+01	3.360298e+01
2.180000e-06	1.557383e-06	5.072227e-10	1.081123e+01	3.528989e+01
2.190000e-06	1.602297e-06	5.289278e-10	1.112302e+01	3.694650e+01
2.200000e-06	1.647028e-06	5.505717e-10	1.143353e+01	3.857173e+01
2.210000e-06	1.691595e-06	5.693929e-10	1.174292e+01	4.016473e+01
2.220000e-06	1.736031e-06	5.861651e-10	1.205139e+01	4.172481e+01
2.230000e-06	1.780412e-06	6.033613e-10	1.235948e+01	4.325147e+01
2.240000e-06	1.824676e-06	6.225095e-10	1.266675e+01	4.474438e+01
2.250000e-06	1.868805e-06	6.427753e-10	1.297309e+01	4.620338e+01
2.260000e-06	1.912848e-06	6.638855e-10	1.327884e+01	4.762846e+01
2.270000e-06	1.956839e-06	6.851452e-10	1.358422e+01	4.901973e+01
2.280000e-06	2.000764e-06	7.052294e-10	1.388914e+01	5.037745e+01
2.290000e-06	2.044612e-06	7.247132e-10	1.419353e+01	5.170198e+01
2.300000e-06	2.088403e-06	7.420811e-10	1.449752e+01	5.299377e+01
2.310000e-06	2.132124e-06	7.570001e-10	1.480104e+01	5.425336e+01
2.320000e-06	2.175754e-06	7.729464e-10	1.510391e+01	5.548136e+01
2.330000e-06	2.219264e-06	7.889331e-10	1.540595e+01	5.667843e+01
2.340000e-06	2.262564e-06	8.054735e-10	1.570654e+01	5.784526e+01
2.350000e-06	2.305626e-06	8.242840e-10	1.600547e+01	5.898258e+01
2.360000e-06	2.348485e-06	8.420062e-10	1.630300e+01	6.009112e+01
2.370000e-06	2.391142e-06	8.556454e-10	1.659912e+01	6.117164e+01
2.380000e-06	2.433588e-06	8.688473e-10	1.689377e+01	6.222486e+01
2.390000e-06	2.475775e-06	8.826935e-10	1.718663e+01	6.325150e+01
2.400000e-06	2.517582e-06	8.951464e-10	1.747685e+01	6.425228e+01
2.410000e-06	2.558961e-06	9.090879e-10	1.776411e+01	6.522785e+01
2.420000e-06	2.600049e-06	9.248383e-10	1.804934e+01	6.617887e+01
2.430000e-06	2.640898e-06	9.410191e-10	1.833290e+01	6.710595e+01
2.440000e-06	2.681487e-06	9.568790e-10	1.861467e+01	6.800966e+01
2.450000e-06	2.721924e-06	9.705363e-10	1.889538e+01	6.889055e+01
2.460000e-06	2.762272e-06	9.816675e-10	1.917547e+01	6.974911e+01
2.470000e-06	2.802461e-06	9.924814e-10	1.945446e+01	7.058584e+01
2.480000e-06	2.842435e-06	1.003491e-09	1.973196e+01	7.140118e+01
2.490000e-06	2.882265e-06	1.015396e-09	2.000845e+01	7.219554e+01
2.500000e-06	2.921962e-06	1.028346e-09	2.028403e+01	7.296933e+01
2.510000e-06	2.961437e-06	1.040991e-09	2.055806e+01	7.372293e+01
2.520000e-06	3.000718e-06	1.052449e-09	2.083074e+01	7.445670e+01
2.530000e-06	3.039792e-06	1.063354e-09	2.110199e+01	7.517101e+01
2.540000e-06	3.078610e-06	1.072980e-09	2.137147e+01	7.586622e+01
2.550000e-06	3.117289e-06	1.081477e-09	2.163997e+01	7.654266e+01
2.560000e-06	3.155835e-06	1.091089e-09	2.190755e+01	7.720071e+01
2.570000e-06	3.194133e-06	1.100769e-09	2.217342e+01	7.784071e+01
2.580000e-06	3.232232e-06	1.109887e-09	2.243790e+01	7.846304e+01
2.590000e-06	3.270104e-06	1.118806e-09	2.270080e+01	7.906807e+01
2.600000e-06	3.307709e-06	1.127390e-09	2.296185e+01	7.965619e+01
2.610000e-06	3.345106e-06	1.135883e-09	2.322146e+01	8.022781e+01
2.620000e-06	3.382218e-06	1.143748e-09	2.347908e+01	8.078332e+01
2.630000e-06	3.419081e-06	1.151144e-09	2.373499e+01	8.132315e+01
2.640000e-06	3.455814e-06	1.157751e-09	2.398999e+01	8.184772e+01
2.650000e-06	3.492347e-06	1.163637e-09	2.424359e+01	8.235747e+01
2.660000e-06	3.528610e-06	1.169606e-09	2.449533e+01	8.285283e+01
2.670000e-06	3.564662e-06	1.174798e-09	2.474560e+01	8.333426e+01
2.680000e-06	3.600564e-06	1.179313e-09	2.499483e+01	8.380217e+01
2.690000e-06	3.636319e-06	1.184170e-09	2.524304e+01	8.425701e+01
2.700000e-06	3.671909e-06	1.188967e-09	2.549010e+01	8.469920e+01
2.710000e-06	3.707294e-06	1.194478e-09	2.573574e+01	8.512915e+01
2.720000e-06	3.742401e-06	1.202236e-09	2.597945e+01	8.554727e+01
2.730000e-06	3.777239e-06	1.210056e-09	2.622129e+01	8.595395e+01
2.740000e-06	3.811716e-06	1.215184e-09	2.646063e+01	8.634955e+01
2.750000e-06	3.845688e-06	1.220592e-09	2.669646e+01	8.673442e+01
2.760000e-06	3.879220e-06	1.227165e-09	2.692924e+01	8.710889e+01
2.770000e-06	3.912320e-06	1.232941e-09	2.715901e+01	8.747328e+01
2.780000e-06	3.945035e-06	1.239202e-09	2.738612e+01	8.782786e+01
2.790000e-06	3.977443e-06	1.246987e-09	2.761109e+01	8.817290e+01
2.800000e-06	4.009565e-06	1.254970e-09	2.783408e+01	8.850866e+01
2.810000e-06	4.041491e-06	1.260795e-09	2.805571e+01	8.883536e+01
2.820000e-06	4.073252e-06	1.266972e-09	2.827619e+01	8.915322e+01
2.830000e-06	4.104813e-06	1.272874e-09	2.849528e+01	8.946245e+01
2.840000e-06	4.136095e-06	1.277831e-09	2.871244e+01	8.976322e+01
2.850000e-06	4.167145e-06	1.285447e-09	2.892799e+01	9.005573e+01
2.860000e-06	4.197922e-06	1.294354e-09	2.914164e+01	9.034017e+01
2.870000e-06	4.228310e-06	1.301342e-09	2.935259e+01	9.061670e+01
2.880000e-06	4.258366e-06	1.306370e-09	2.956124e+01	9.088551e+01
2.890000e-06	4.288162e-06	1.311294e-09	2.976808e+01	9.114679e+01
2.900000e-06	4.317678e-06	1.314944e-09	2.997298e+01	9.140073e+01
