# Temperatura_=_10.06
# Concentracion g/m^3_=_1620.0
# C_Vs_to_Am_M_A/Vsm_=_65563218390.804596
# pendiente_HvsI_1/m_=_3716.3
# ordenada_HvsI_A/m_=_1297.0
# frecuencia_Hz_=_135102.87547630587

Tiempo_(s)	Campo_(V.s)	Magnetizacion_(V.s)	Campo_(kA/m)	Magnetizacion_(A/m)
0.000000e+00	-5.552336e-06	-1.373628e-09	-3.836395e+01	-9.297626e+01
1.000000e-08	-5.552600e-06	-1.370982e-09	-3.836577e+01	-9.293778e+01
2.000000e-08	-5.552648e-06	-1.366874e-09	-3.836610e+01	-9.289851e+01
3.000000e-08	-5.552409e-06	-1.364273e-09	-3.836445e+01	-9.285909e+01
4.000000e-08	-5.551825e-06	-1.362420e-09	-3.836042e+01	-9.282015e+01
5.000000e-08	-5.550668e-06	-1.359615e-09	-3.835242e+01	-9.278228e+01
6.000000e-08	-5.548861e-06	-1.351880e-09	-3.833994e+01	-9.274605e+01
7.000000e-08	-5.546401e-06	-1.343727e-09	-3.832294e+01	-9.271199e+01
8.000000e-08	-5.543324e-06	-1.349493e-09	-3.830168e+01	-9.268054e+01
9.000000e-08	-5.539849e-06	-1.370560e-09	-3.827767e+01	-9.265208e+01
1.000000e-07	-5.535969e-06	-1.401566e-09	-3.825086e+01	-9.262688e+01
1.100000e-07	-5.531716e-06	-1.420261e-09	-3.822148e+01	-9.260512e+01
1.200000e-07	-5.527191e-06	-1.361485e-09	-3.819021e+01	-9.258687e+01
1.300000e-07	-5.522437e-06	-1.301523e-09	-3.815736e+01	-9.257208e+01
1.400000e-07	-5.517414e-06	-1.326002e-09	-3.812265e+01	-9.256059e+01
1.500000e-07	-5.511964e-06	-1.384467e-09	-3.808500e+01	-9.255210e+01
1.600000e-07	-5.506045e-06	-1.385360e-09	-3.804410e+01	-9.254621e+01
1.700000e-07	-5.499765e-06	-1.326269e-09	-3.800070e+01	-9.254240e+01
1.800000e-07	-5.493107e-06	-1.340137e-09	-3.795470e+01	-9.254003e+01
1.900000e-07	-5.485993e-06	-1.398983e-09	-3.790555e+01	-9.253839e+01
2.000000e-07	-5.478557e-06	-1.402871e-09	-3.785417e+01	-9.253667e+01
2.100000e-07	-5.470922e-06	-1.356098e-09	-3.780142e+01	-9.253397e+01
2.200000e-07	-5.463038e-06	-1.357582e-09	-3.774694e+01	-9.252935e+01
2.300000e-07	-5.454902e-06	-1.399832e-09	-3.769073e+01	-9.252184e+01
2.400000e-07	-5.446451e-06	-1.409650e-09	-3.763233e+01	-9.251044e+01
2.500000e-07	-5.437385e-06	-1.393810e-09	-3.756969e+01	-9.249414e+01
2.600000e-07	-5.427515e-06	-1.390913e-09	-3.750149e+01	-9.247196e+01
2.700000e-07	-5.416966e-06	-1.401101e-09	-3.742861e+01	-9.244295e+01
2.800000e-07	-5.405903e-06	-1.394555e-09	-3.735216e+01	-9.240621e+01
2.900000e-07	-5.394411e-06	-1.381352e-09	-3.727276e+01	-9.236094e+01
3.000000e-07	-5.382537e-06	-1.379152e-09	-3.719072e+01	-9.230640e+01
3.100000e-07	-5.370327e-06	-1.392527e-09	-3.710636e+01	-9.224197e+01
3.200000e-07	-5.357674e-06	-1.404768e-09	-3.701893e+01	-9.216714e+01
3.300000e-07	-5.344541e-06	-1.399948e-09	-3.692819e+01	-9.208155e+01
3.400000e-07	-5.331073e-06	-1.385242e-09	-3.683513e+01	-9.198495e+01
3.500000e-07	-5.317294e-06	-1.387270e-09	-3.673992e+01	-9.187724e+01
3.600000e-07	-5.303111e-06	-1.389764e-09	-3.664192e+01	-9.175847e+01
3.700000e-07	-5.288444e-06	-1.370747e-09	-3.654058e+01	-9.162884e+01
3.800000e-07	-5.273354e-06	-1.366439e-09	-3.643632e+01	-9.148865e+01
3.900000e-07	-5.257699e-06	-1.382159e-09	-3.632815e+01	-9.133839e+01
4.000000e-07	-5.241319e-06	-1.369214e-09	-3.621497e+01	-9.117863e+01
4.100000e-07	-5.224501e-06	-1.354503e-09	-3.609877e+01	-9.101007e+01
4.200000e-07	-5.207505e-06	-1.379250e-09	-3.598133e+01	-9.083351e+01
4.300000e-07	-5.190211e-06	-1.378703e-09	-3.586184e+01	-9.064981e+01
4.400000e-07	-5.172483e-06	-1.337242e-09	-3.573935e+01	-9.045993e+01
4.500000e-07	-5.154414e-06	-1.349874e-09	-3.561450e+01	-9.026485e+01
4.600000e-07	-5.135908e-06	-1.379556e-09	-3.548663e+01	-9.006559e+01
4.700000e-07	-5.116961e-06	-1.336096e-09	-3.535572e+01	-8.986316e+01
4.800000e-07	-5.097750e-06	-1.311024e-09	-3.522298e+01	-8.965857e+01
4.900000e-07	-5.078314e-06	-1.359753e-09	-3.508869e+01	-8.945280e+01
5.000000e-07	-5.058658e-06	-1.357453e-09	-3.495287e+01	-8.924676e+01
5.100000e-07	-5.038727e-06	-1.316385e-09	-3.481516e+01	-8.904131e+01
5.200000e-07	-5.018519e-06	-1.342629e-09	-3.467553e+01	-8.883723e+01
5.300000e-07	-4.997983e-06	-1.361066e-09	-3.453363e+01	-8.863517e+01
5.400000e-07	-4.977070e-06	-1.314989e-09	-3.438914e+01	-8.843571e+01
5.500000e-07	-4.955815e-06	-1.311184e-09	-3.424227e+01	-8.823928e+01
5.600000e-07	-4.934230e-06	-1.338047e-09	-3.409313e+01	-8.804621e+01
5.700000e-07	-4.912332e-06	-1.306853e-09	-3.394183e+01	-8.785669e+01
5.800000e-07	-4.890146e-06	-1.287499e-09	-3.378854e+01	-8.767079e+01
5.900000e-07	-4.867613e-06	-1.324122e-09	-3.363284e+01	-8.748843e+01
6.000000e-07	-4.844630e-06	-1.323334e-09	-3.347404e+01	-8.730943e+01
6.100000e-07	-4.821273e-06	-1.292932e-09	-3.331266e+01	-8.713350e+01
6.200000e-07	-4.797653e-06	-1.303920e-09	-3.314945e+01	-8.696023e+01
6.300000e-07	-4.773888e-06	-1.309854e-09	-3.298525e+01	-8.678911e+01
6.400000e-07	-4.750023e-06	-1.285722e-09	-3.282035e+01	-8.661957e+01
6.500000e-07	-4.725770e-06	-1.286084e-09	-3.265277e+01	-8.645096e+01
6.600000e-07	-4.700975e-06	-1.295943e-09	-3.248145e+01	-8.628258e+01
6.700000e-07	-4.675661e-06	-1.283566e-09	-3.230655e+01	-8.611370e+01
6.800000e-07	-4.649749e-06	-1.282390e-09	-3.212751e+01	-8.594357e+01
6.900000e-07	-4.623328e-06	-1.290302e-09	-3.194495e+01	-8.577143e+01
7.000000e-07	-4.596442e-06	-1.281874e-09	-3.175918e+01	-8.559656e+01
7.100000e-07	-4.569137e-06	-1.272690e-09	-3.157052e+01	-8.541825e+01
7.200000e-07	-4.541578e-06	-1.270186e-09	-3.138010e+01	-8.523584e+01
7.300000e-07	-4.513905e-06	-1.261504e-09	-3.118889e+01	-8.504873e+01
7.400000e-07	-4.486117e-06	-1.256933e-09	-3.099689e+01	-8.485637e+01
7.500000e-07	-4.458132e-06	-1.258784e-09	-3.080353e+01	-8.465832e+01
7.600000e-07	-4.429827e-06	-1.255840e-09	-3.060795e+01	-8.445420e+01
7.700000e-07	-4.401083e-06	-1.253589e-09	-3.040935e+01	-8.424372e+01
7.800000e-07	-4.371961e-06	-1.253200e-09	-3.020813e+01	-8.402670e+01
7.900000e-07	-4.342485e-06	-1.244190e-09	-3.000447e+01	-8.380303e+01
8.000000e-07	-4.312676e-06	-1.236530e-09	-2.979850e+01	-8.357269e+01
8.100000e-07	-4.282672e-06	-1.236317e-09	-2.959118e+01	-8.333577e+01
8.200000e-07	-4.252438e-06	-1.232200e-09	-2.938228e+01	-8.309241e+01
8.300000e-07	-4.221879e-06	-1.225991e-09	-2.917114e+01	-8.284284e+01
8.400000e-07	-4.191025e-06	-1.226742e-09	-2.895795e+01	-8.258735e+01
8.500000e-07	-4.159874e-06	-1.226670e-09	-2.874271e+01	-8.232627e+01
8.600000e-07	-4.128443e-06	-1.218448e-09	-2.852554e+01	-8.205998e+01
8.700000e-07	-4.096802e-06	-1.208715e-09	-2.830692e+01	-8.178889e+01
8.800000e-07	-4.065042e-06	-1.201693e-09	-2.808747e+01	-8.151343e+01
8.900000e-07	-4.033164e-06	-1.195298e-09	-2.786721e+01	-8.123402e+01
9.000000e-07	-4.001054e-06	-1.190165e-09	-2.764534e+01	-8.095109e+01
9.100000e-07	-3.968643e-06	-1.191127e-09	-2.742140e+01	-8.066503e+01
9.200000e-07	-3.935891e-06	-1.192459e-09	-2.719510e+01	-8.037622e+01
9.300000e-07	-3.902728e-06	-1.188947e-09	-2.696596e+01	-8.008500e+01
9.400000e-07	-3.869073e-06	-1.183819e-09	-2.673342e+01	-7.979165e+01
9.500000e-07	-3.834853e-06	-1.179954e-09	-2.649698e+01	-7.949641e+01
9.600000e-07	-3.800165e-06	-1.171288e-09	-2.625730e+01	-7.919945e+01
9.700000e-07	-3.765155e-06	-1.159425e-09	-2.601540e+01	-7.890090e+01
9.800000e-07	-3.729828e-06	-1.154760e-09	-2.577130e+01	-7.860081e+01
9.900000e-07	-3.694263e-06	-1.151769e-09	-2.552557e+01	-7.829917e+01
1.000000e-06	-3.658592e-06	-1.147314e-09	-2.527909e+01	-7.799594e+01
1.010000e-06	-3.622808e-06	-1.144345e-09	-2.503185e+01	-7.769098e+01
1.020000e-06	-3.586890e-06	-1.142198e-09	-2.478367e+01	-7.738412e+01
1.030000e-06	-3.550819e-06	-1.137865e-09	-2.453443e+01	-7.707517e+01
1.040000e-06	-3.514493e-06	-1.133267e-09	-2.428344e+01	-7.676387e+01
1.050000e-06	-3.477822e-06	-1.128968e-09	-2.403006e+01	-7.644993e+01
1.060000e-06	-3.440885e-06	-1.119879e-09	-2.377485e+01	-7.613307e+01
1.070000e-06	-3.403719e-06	-1.109265e-09	-2.351805e+01	-7.581298e+01
1.080000e-06	-3.366288e-06	-1.102980e-09	-2.325941e+01	-7.548933e+01
1.090000e-06	-3.328623e-06	-1.099073e-09	-2.299917e+01	-7.516184e+01
1.100000e-06	-3.290757e-06	-1.095546e-09	-2.273754e+01	-7.483020e+01
1.110000e-06	-3.252676e-06	-1.092462e-09	-2.247441e+01	-7.449415e+01
1.120000e-06	-3.214352e-06	-1.088720e-09	-2.220961e+01	-7.415344e+01
1.130000e-06	-3.175803e-06	-1.082145e-09	-2.194326e+01	-7.380787e+01
1.140000e-06	-3.137073e-06	-1.070727e-09	-2.167565e+01	-7.345724e+01
1.150000e-06	-3.098080e-06	-1.062033e-09	-2.140623e+01	-7.310144e+01
1.160000e-06	-3.058832e-06	-1.056074e-09	-2.113505e+01	-7.274037e+01
1.170000e-06	-3.019442e-06	-1.047952e-09	-2.086288e+01	-7.237397e+01
1.180000e-06	-2.979896e-06	-1.042314e-09	-2.058964e+01	-7.200222e+01
1.190000e-06	-2.940244e-06	-1.041182e-09	-2.031566e+01	-7.162515e+01
1.200000e-06	-2.900482e-06	-1.038423e-09	-2.004092e+01	-7.124281e+01
1.210000e-06	-2.860545e-06	-1.029810e-09	-1.976498e+01	-7.085528e+01
1.220000e-06	-2.820434e-06	-1.019871e-09	-1.948783e+01	-7.046265e+01
1.230000e-06	-2.780183e-06	-1.011440e-09	-1.920971e+01	-7.006504e+01
1.240000e-06	-2.739711e-06	-1.003994e-09	-1.893007e+01	-6.966257e+01
1.250000e-06	-2.698993e-06	-1.000209e-09	-1.864873e+01	-6.925535e+01
1.260000e-06	-2.657993e-06	-9.995525e-10	-1.836544e+01	-6.884351e+01
1.270000e-06	-2.616713e-06	-9.970541e-10	-1.808021e+01	-6.842713e+01
1.280000e-06	-2.575156e-06	-9.912246e-10	-1.779308e+01	-6.800629e+01
1.290000e-06	-2.533323e-06	-9.835866e-10	-1.750403e+01	-6.758102e+01
1.300000e-06	-2.491271e-06	-9.735237e-10	-1.721347e+01	-6.715134e+01
1.310000e-06	-2.448807e-06	-9.612135e-10	-1.692007e+01	-6.671722e+01
1.320000e-06	-2.405915e-06	-9.545194e-10	-1.662370e+01	-6.627857e+01
1.330000e-06	-2.362869e-06	-9.517259e-10	-1.632628e+01	-6.583527e+01
1.340000e-06	-2.319672e-06	-9.475635e-10	-1.602781e+01	-6.538716e+01
1.350000e-06	-2.276233e-06	-9.422741e-10	-1.572766e+01	-6.493402e+01
1.360000e-06	-2.232651e-06	-9.337660e-10	-1.542653e+01	-6.447558e+01
1.370000e-06	-2.188971e-06	-9.224569e-10	-1.512473e+01	-6.401153e+01
1.380000e-06	-2.145158e-06	-9.120501e-10	-1.482200e+01	-6.354152e+01
1.390000e-06	-2.101261e-06	-9.019623e-10	-1.451869e+01	-6.306517e+01
1.400000e-06	-2.057383e-06	-8.937885e-10	-1.421552e+01	-6.258206e+01
1.410000e-06	-2.013484e-06	-8.888735e-10	-1.391220e+01	-6.209175e+01
1.420000e-06	-1.969496e-06	-8.839770e-10	-1.360826e+01	-6.159376e+01
1.430000e-06	-1.925367e-06	-8.771462e-10	-1.330335e+01	-6.108763e+01
1.440000e-06	-1.881120e-06	-8.690273e-10	-1.299762e+01	-6.057287e+01
1.450000e-06	-1.836707e-06	-8.592232e-10	-1.269076e+01	-6.004899e+01
1.460000e-06	-1.792183e-06	-8.468805e-10	-1.238311e+01	-5.951552e+01
1.470000e-06	-1.747557e-06	-8.339356e-10	-1.207477e+01	-5.897198e+01
1.480000e-06	-1.702659e-06	-8.232983e-10	-1.176455e+01	-5.841792e+01
1.490000e-06	-1.657532e-06	-8.158303e-10	-1.145274e+01	-5.785290e+01
1.500000e-06	-1.612325e-06	-8.071225e-10	-1.114038e+01	-5.727651e+01
1.510000e-06	-1.567103e-06	-7.965955e-10	-1.082792e+01	-5.668834e+01
1.520000e-06	-1.521831e-06	-7.871650e-10	-1.051511e+01	-5.608801e+01
1.530000e-06	-1.476410e-06	-7.798666e-10	-1.020128e+01	-5.547516e+01
1.540000e-06	-1.430850e-06	-7.714439e-10	-9.886477e+00	-5.484944e+01
1.550000e-06	-1.385239e-06	-7.604370e-10	-9.571328e+00	-5.421052e+01
1.560000e-06	-1.339536e-06	-7.489586e-10	-9.255544e+00	-5.355806e+01
1.570000e-06	-1.293720e-06	-7.362074e-10	-8.938975e+00	-5.289173e+01
1.580000e-06	-1.247873e-06	-7.233247e-10	-8.622198e+00	-5.221118e+01
1.590000e-06	-1.201881e-06	-7.145826e-10	-8.304414e+00	-5.151605e+01
1.600000e-06	-1.155713e-06	-7.083996e-10	-7.985419e+00	-5.080595e+01
1.610000e-06	-1.109518e-06	-6.994446e-10	-7.666231e+00	-5.008045e+01
1.620000e-06	-1.063285e-06	-6.880865e-10	-7.346782e+00	-4.933910e+01
1.630000e-06	-1.016982e-06	-6.756321e-10	-7.026852e+00	-4.858138e+01
1.640000e-06	-9.705842e-07	-6.609717e-10	-6.706266e+00	-4.780672e+01
1.650000e-06	-9.240821e-07	-6.448406e-10	-6.384959e+00	-4.701447e+01
1.660000e-06	-8.775062e-07	-6.287937e-10	-6.063142e+00	-4.620394e+01
1.670000e-06	-8.308961e-07	-6.151960e-10	-5.741089e+00	-4.537436e+01
1.680000e-06	-7.842455e-07	-6.033208e-10	-5.418756e+00	-4.452487e+01
1.690000e-06	-7.376019e-07	-5.899656e-10	-5.096471e+00	-4.365457e+01
1.700000e-06	-6.909621e-07	-5.738532e-10	-4.774213e+00	-4.276245e+01
1.710000e-06	-6.443031e-07	-5.566446e-10	-4.451822e+00	-4.184748e+01
1.720000e-06	-5.975886e-07	-5.412530e-10	-4.129047e+00	-4.090855e+01
1.730000e-06	-5.507320e-07	-5.289989e-10	-3.805291e+00	-3.994450e+01
1.740000e-06	-5.038397e-07	-5.158301e-10	-3.481288e+00	-3.895415e+01
1.750000e-06	-4.569293e-07	-4.982794e-10	-3.157160e+00	-3.793628e+01
1.760000e-06	-4.098738e-07	-4.781284e-10	-2.832029e+00	-3.688967e+01
1.770000e-06	-3.627912e-07	-4.584945e-10	-2.506711e+00	-3.581312e+01
1.780000e-06	-3.157408e-07	-4.411786e-10	-2.181615e+00	-3.470544e+01
1.790000e-06	-2.686077e-07	-4.247734e-10	-1.855949e+00	-3.356551e+01
1.800000e-06	-2.213912e-07	-4.101415e-10	-1.529706e+00	-3.239226e+01
1.810000e-06	-1.741873e-07	-3.963189e-10	-1.203550e+00	-3.118472e+01
1.820000e-06	-1.270745e-07	-3.805802e-10	-8.780229e-01	-2.994202e+01
1.830000e-06	-7.999753e-08	-3.631680e-10	-5.527441e-01	-2.866342e+01
1.840000e-06	-3.291509e-08	-3.443189e-10	-2.274273e-01	-2.734835e+01
1.850000e-06	1.418380e-08	-3.234214e-10	9.800317e-02	-2.599639e+01
1.860000e-06	6.126353e-08	-2.998891e-10	4.233012e-01	-2.460729e+01
1.870000e-06	1.083479e-07	-2.759348e-10	7.486317e-01	-2.318103e+01
1.880000e-06	1.554879e-07	-2.551060e-10	1.074346e+00	-2.171778e+01
1.890000e-06	2.026619e-07	-2.386648e-10	1.400295e+00	-2.021794e+01
1.900000e-06	2.498391e-07	-2.234422e-10	1.726267e+00	-1.868213e+01
1.910000e-06	2.969432e-07	-2.050796e-10	2.051734e+00	-1.711123e+01
1.920000e-06	3.439249e-07	-1.845274e-10	2.376354e+00	-1.550632e+01
1.930000e-06	3.908434e-07	-1.607858e-10	2.700538e+00	-1.386872e+01
1.940000e-06	4.377257e-07	-1.324131e-10	3.024472e+00	-1.220001e+01
1.950000e-06	4.845993e-07	-1.043026e-10	3.348346e+00	-1.050194e+01
1.960000e-06	5.315077e-07	-8.098536e-11	3.672460e+00	-8.776511e+00
1.970000e-06	5.783699e-07	-6.165167e-11	3.996255e+00	-7.025893e+00
1.980000e-06	6.252133e-07	-4.237445e-11	4.319921e+00	-5.252445e+00
1.990000e-06	6.720399e-07	-2.089558e-11	4.643469e+00	-3.458683e+00
2.000000e-06	7.187077e-07	5.512058e-12	4.965921e+00	-1.647260e+00
2.010000e-06	7.653129e-07	3.534031e-11	5.287941e+00	1.790531e-01
2.020000e-06	8.119022e-07	6.502379e-11	5.609850e+00	2.017395e+00
2.030000e-06	8.584214e-07	9.260021e-11	5.931275e+00	3.864839e+00
2.040000e-06	9.049151e-07	1.172295e-10	6.252524e+00	5.718414e+00
2.050000e-06	9.513086e-07	1.386139e-10	6.573080e+00	7.575137e+00
2.060000e-06	9.975222e-07	1.606671e-10	6.892395e+00	9.432033e+00
2.070000e-06	1.043667e-06	1.860617e-10	7.211235e+00	1.128616e+01
2.080000e-06	1.089815e-06	2.138759e-10	7.530094e+00	1.313464e+01
2.090000e-06	1.135904e-06	2.429243e-10	7.848547e+00	1.497467e+01
2.100000e-06	1.181888e-06	2.708441e-10	8.166273e+00	1.680354e+01
2.110000e-06	1.227725e-06	2.967333e-10	8.482987e+00	1.861868e+01
2.120000e-06	1.273460e-06	3.200870e-10	8.798990e+00	2.041764e+01
2.130000e-06	1.319160e-06	3.413165e-10	9.114755e+00	2.219813e+01
2.140000e-06	1.364849e-06	3.613523e-10	9.430441e+00	2.395800e+01
2.150000e-06	1.410452e-06	3.816663e-10	9.745542e+00	2.569531e+01
2.160000e-06	1.455908e-06	4.047848e-10	1.005961e+01	2.740825e+01
2.170000e-06	1.501307e-06	4.317115e-10	1.037330e+01	2.909522e+01
2.180000e-06	1.546659e-06	4.570974e-10	1.068666e+01	3.075480e+01
2.190000e-06	1.591814e-06	4.809563e-10	1.099866e+01	3.238574e+01
2.200000e-06	1.636788e-06	5.036725e-10	1.130941e+01	3.398699e+01
2.210000e-06	1.681671e-06	5.250752e-10	1.161953e+01	3.555764e+01
2.220000e-06	1.726422e-06	5.435068e-10	1.192874e+01	3.709697e+01
2.230000e-06	1.771000e-06	5.596087e-10	1.223675e+01	3.860442e+01
2.240000e-06	1.815451e-06	5.781670e-10	1.254388e+01	4.007955e+01
2.250000e-06	1.859779e-06	5.972615e-10	1.285017e+01	4.152210e+01
2.260000e-06	1.903969e-06	6.191439e-10	1.315550e+01	4.293191e+01
2.270000e-06	1.948041e-06	6.417988e-10	1.346002e+01	4.430893e+01
2.280000e-06	1.992032e-06	6.626382e-10	1.376397e+01	4.565324e+01
2.290000e-06	2.035966e-06	6.819907e-10	1.406754e+01	4.696499e+01
2.300000e-06	2.079783e-06	6.995267e-10	1.437029e+01	4.824441e+01
2.310000e-06	2.123495e-06	7.127087e-10	1.467232e+01	4.949183e+01
2.320000e-06	2.167179e-06	7.248812e-10	1.497415e+01	5.070760e+01
2.330000e-06	2.210854e-06	7.400700e-10	1.527593e+01	5.189215e+01
2.340000e-06	2.254470e-06	7.572451e-10	1.557729e+01	5.304596e+01
2.350000e-06	2.298020e-06	7.752745e-10	1.587820e+01	5.416951e+01
2.360000e-06	2.341427e-06	7.933227e-10	1.617813e+01	5.526336e+01
2.370000e-06	2.384527e-06	8.087348e-10	1.647593e+01	5.632804e+01
2.380000e-06	2.427343e-06	8.206447e-10	1.677176e+01	5.736415e+01
2.390000e-06	2.469974e-06	8.328678e-10	1.706632e+01	5.837228e+01
2.400000e-06	2.512401e-06	8.454955e-10	1.735947e+01	5.935305e+01
2.410000e-06	2.554549e-06	8.594079e-10	1.765070e+01	6.030709e+01
2.420000e-06	2.596297e-06	8.745124e-10	1.793915e+01	6.123502e+01
2.430000e-06	2.637626e-06	8.882057e-10	1.822471e+01	6.213751e+01
2.440000e-06	2.678610e-06	8.998550e-10	1.850790e+01	6.301520e+01
2.450000e-06	2.719314e-06	9.109650e-10	1.878914e+01	6.386878e+01
2.460000e-06	2.759843e-06	9.211778e-10	1.906918e+01	6.469891e+01
2.470000e-06	2.800136e-06	9.308121e-10	1.934758e+01	6.550629e+01
2.480000e-06	2.840192e-06	9.407569e-10	1.962435e+01	6.629160e+01
2.490000e-06	2.880145e-06	9.532025e-10	1.990040e+01	6.705555e+01
2.500000e-06	2.919981e-06	9.674920e-10	2.017565e+01	6.779883e+01
2.510000e-06	2.959665e-06	9.804239e-10	2.044985e+01	6.852213e+01
2.520000e-06	2.999223e-06	9.907522e-10	2.072318e+01	6.922617e+01
2.530000e-06	3.038683e-06	1.000318e-09	2.099582e+01	6.991163e+01
2.540000e-06	3.077951e-06	1.009817e-09	2.126715e+01	7.057919e+01
2.550000e-06	3.117004e-06	1.018943e-09	2.153698e+01	7.122951e+01
2.560000e-06	3.155815e-06	1.027776e-09	2.180515e+01	7.186325e+01
2.570000e-06	3.194401e-06	1.036232e-09	2.207176e+01	7.248103e+01
2.580000e-06	3.232747e-06	1.044672e-09	2.233671e+01	7.308344e+01
2.590000e-06	3.270863e-06	1.054188e-09	2.260007e+01	7.367103e+01
2.600000e-06	3.308779e-06	1.062790e-09	2.286206e+01	7.424434e+01
2.610000e-06	3.346467e-06	1.070053e-09	2.312247e+01	7.480384e+01
2.620000e-06	3.384013e-06	1.075777e-09	2.338188e+01	7.534997e+01
2.630000e-06	3.421323e-06	1.079412e-09	2.363968e+01	7.588309e+01
2.640000e-06	3.458285e-06	1.083070e-09	2.389507e+01	7.640356e+01
2.650000e-06	3.495009e-06	1.088625e-09	2.414882e+01	7.691163e+01
2.660000e-06	3.531447e-06	1.095869e-09	2.440059e+01	7.740755e+01
2.670000e-06	3.567552e-06	1.104166e-09	2.465005e+01	7.789148e+01
2.680000e-06	3.603481e-06	1.111769e-09	2.489830e+01	7.836354e+01
2.690000e-06	3.639268e-06	1.117602e-09	2.514558e+01	7.882380e+01
2.700000e-06	3.674953e-06	1.123443e-09	2.539214e+01	7.927231e+01
2.710000e-06	3.710481e-06	1.129124e-09	2.563762e+01	7.970905e+01
2.720000e-06	3.745837e-06	1.134982e-09	2.588191e+01	8.013398e+01
2.730000e-06	3.781036e-06	1.140946e-09	2.612513e+01	8.054705e+01
2.740000e-06	3.815935e-06	1.147623e-09	2.636626e+01	8.094817e+01
2.750000e-06	3.850376e-06	1.155695e-09	2.660423e+01	8.133726e+01
2.760000e-06	3.884401e-06	1.163040e-09	2.683933e+01	8.171424e+01
2.770000e-06	3.917975e-06	1.168529e-09	2.707130e+01	8.207903e+01
2.780000e-06	3.951026e-06	1.172372e-09	2.729968e+01	8.243158e+01
2.790000e-06	3.983588e-06	1.175927e-09	2.752466e+01	8.277187e+01
2.800000e-06	4.015762e-06	1.181120e-09	2.774697e+01	8.309990e+01
2.810000e-06	4.047758e-06	1.186371e-09	2.796804e+01	8.341573e+01
2.820000e-06	4.079585e-06	1.190408e-09	2.818795e+01	8.371948e+01
2.830000e-06	4.111237e-06	1.195798e-09	2.840665e+01	8.401129e+01
2.840000e-06	4.142738e-06	1.202504e-09	2.862431e+01	8.429140e+01
2.850000e-06	4.174037e-06	1.206583e-09	2.884057e+01	8.456010e+01
2.860000e-06	4.205055e-06	1.210771e-09	2.905489e+01	8.481775e+01
2.870000e-06	4.235785e-06	1.217224e-09	2.926722e+01	8.506475e+01
2.880000e-06	4.266195e-06	1.222103e-09	2.947733e+01	8.530160e+01
2.890000e-06	4.296262e-06	1.225684e-09	2.968509e+01	8.552884e+01
2.900000e-06	4.326045e-06	1.232140e-09	2.989087e+01	8.574707e+01
