# Temperatura_=_9.26
# Concentracion g/m^3_=_1620.0
# C_Vs_to_Am_M_A/Vsm_=_65563218390.804596
# pendiente_HvsI_1/m_=_3716.3
# ordenada_HvsI_A/m_=_1297.0
# frecuencia_Hz_=_135104.82887651486

Tiempo_(s)	Campo_(V.s)	Magnetizacion_(V.s)	Campo_(kA/m)	Magnetizacion_(A/m)
0.000000e+00	-5.506889e-06	-1.389949e-09	-3.837015e+01	-9.331748e+01
1.000000e-08	-5.507191e-06	-1.388209e-09	-3.837225e+01	-9.327305e+01
2.000000e-08	-5.507262e-06	-1.387069e-09	-3.837274e+01	-9.322686e+01
3.000000e-08	-5.506981e-06	-1.385412e-09	-3.837079e+01	-9.317939e+01
4.000000e-08	-5.506214e-06	-1.384132e-09	-3.836544e+01	-9.313113e+01
5.000000e-08	-5.504919e-06	-1.381710e-09	-3.835642e+01	-9.308254e+01
6.000000e-08	-5.503045e-06	-1.376992e-09	-3.834336e+01	-9.303405e+01
7.000000e-08	-5.500588e-06	-1.375902e-09	-3.832624e+01	-9.298606e+01
8.000000e-08	-5.497582e-06	-1.365192e-09	-3.830529e+01	-9.293889e+01
9.000000e-08	-5.494064e-06	-1.370919e-09	-3.828079e+01	-9.289281e+01
1.000000e-07	-5.490105e-06	-1.432180e-09	-3.825320e+01	-9.284802e+01
1.100000e-07	-5.485793e-06	-1.447301e-09	-3.822315e+01	-9.280461e+01
1.200000e-07	-5.481242e-06	-1.329228e-09	-3.819145e+01	-9.276260e+01
1.300000e-07	-5.476503e-06	-1.311360e-09	-3.815843e+01	-9.272192e+01
1.400000e-07	-5.471405e-06	-1.362740e-09	-3.812291e+01	-9.268240e+01
1.500000e-07	-5.465851e-06	-1.439377e-09	-3.808420e+01	-9.264377e+01
1.600000e-07	-5.459850e-06	-1.347808e-09	-3.804239e+01	-9.260568e+01
1.700000e-07	-5.453542e-06	-1.322376e-09	-3.799844e+01	-9.256768e+01
1.800000e-07	-5.446843e-06	-1.408649e-09	-3.795176e+01	-9.252925e+01
1.900000e-07	-5.439610e-06	-1.450470e-09	-3.790137e+01	-9.248982e+01
2.000000e-07	-5.432081e-06	-1.389152e-09	-3.784891e+01	-9.244871e+01
2.100000e-07	-5.424377e-06	-1.331889e-09	-3.779523e+01	-9.240526e+01
2.200000e-07	-5.416485e-06	-1.411475e-09	-3.774024e+01	-9.235871e+01
2.300000e-07	-5.408335e-06	-1.450205e-09	-3.768345e+01	-9.230835e+01
2.400000e-07	-5.399875e-06	-1.424375e-09	-3.762451e+01	-9.225341e+01
2.500000e-07	-5.390836e-06	-1.369012e-09	-3.756153e+01	-9.219316e+01
2.600000e-07	-5.380844e-06	-1.411069e-09	-3.749191e+01	-9.212692e+01
2.700000e-07	-5.370089e-06	-1.397728e-09	-3.741696e+01	-9.205401e+01
2.800000e-07	-5.358906e-06	-1.377816e-09	-3.733905e+01	-9.197386e+01
2.900000e-07	-5.347307e-06	-1.352297e-09	-3.725823e+01	-9.188592e+01
3.000000e-07	-5.335371e-06	-1.398318e-09	-3.717507e+01	-9.178977e+01
3.100000e-07	-5.323087e-06	-1.389914e-09	-3.708947e+01	-9.168508e+01
3.200000e-07	-5.310369e-06	-1.382375e-09	-3.700086e+01	-9.157159e+01
3.300000e-07	-5.297208e-06	-1.361514e-09	-3.690916e+01	-9.144920e+01
3.400000e-07	-5.283729e-06	-1.381867e-09	-3.681524e+01	-9.131788e+01
3.500000e-07	-5.270025e-06	-1.381534e-09	-3.671976e+01	-9.117775e+01
3.600000e-07	-5.255844e-06	-1.362508e-09	-3.662095e+01	-9.102903e+01
3.700000e-07	-5.241125e-06	-1.351037e-09	-3.651839e+01	-9.087206e+01
3.800000e-07	-5.226051e-06	-1.392703e-09	-3.641336e+01	-9.070728e+01
3.900000e-07	-5.210370e-06	-1.384483e-09	-3.630410e+01	-9.053522e+01
4.000000e-07	-5.194082e-06	-1.325485e-09	-3.619061e+01	-9.035653e+01
4.100000e-07	-5.177477e-06	-1.348923e-09	-3.607491e+01	-9.017190e+01
4.200000e-07	-5.160620e-06	-1.394044e-09	-3.595746e+01	-8.998210e+01
4.300000e-07	-5.143367e-06	-1.340788e-09	-3.583725e+01	-8.978796e+01
4.400000e-07	-5.125673e-06	-1.303880e-09	-3.571396e+01	-8.959032e+01
4.500000e-07	-5.107742e-06	-1.391904e-09	-3.558902e+01	-8.939004e+01
4.600000e-07	-5.089425e-06	-1.370286e-09	-3.546140e+01	-8.918799e+01
4.700000e-07	-5.070553e-06	-1.282923e-09	-3.532991e+01	-8.898502e+01
4.800000e-07	-5.051301e-06	-1.318004e-09	-3.519576e+01	-8.878193e+01
4.900000e-07	-5.031856e-06	-1.385807e-09	-3.506028e+01	-8.857949e+01
5.000000e-07	-5.012174e-06	-1.304358e-09	-3.492314e+01	-8.837839e+01
5.100000e-07	-4.992292e-06	-1.306616e-09	-3.478461e+01	-8.817925e+01
5.200000e-07	-4.972186e-06	-1.371460e-09	-3.464452e+01	-8.798260e+01
5.300000e-07	-4.951710e-06	-1.328577e-09	-3.450184e+01	-8.778888e+01
5.400000e-07	-4.930854e-06	-1.268234e-09	-3.435652e+01	-8.759841e+01
5.500000e-07	-4.909674e-06	-1.339991e-09	-3.420895e+01	-8.741140e+01
5.600000e-07	-4.888113e-06	-1.318516e-09	-3.405872e+01	-8.722797e+01
5.700000e-07	-4.866211e-06	-1.249341e-09	-3.390612e+01	-8.704809e+01
5.800000e-07	-4.844037e-06	-1.295418e-09	-3.375161e+01	-8.687166e+01
5.900000e-07	-4.821507e-06	-1.342963e-09	-3.359464e+01	-8.669844e+01
6.000000e-07	-4.798538e-06	-1.274331e-09	-3.343459e+01	-8.652810e+01
6.100000e-07	-4.775239e-06	-1.278520e-09	-3.327226e+01	-8.636024e+01
6.200000e-07	-4.751748e-06	-1.317016e-09	-3.310857e+01	-8.619434e+01
6.300000e-07	-4.728051e-06	-1.275884e-09	-3.294347e+01	-8.602985e+01
6.400000e-07	-4.704144e-06	-1.251803e-09	-3.277689e+01	-8.586613e+01
6.500000e-07	-4.679916e-06	-1.292365e-09	-3.260808e+01	-8.570252e+01
6.600000e-07	-4.655344e-06	-1.280465e-09	-3.243686e+01	-8.553833e+01
6.700000e-07	-4.630362e-06	-1.255992e-09	-3.226280e+01	-8.537284e+01
6.800000e-07	-4.604781e-06	-1.281176e-09	-3.208456e+01	-8.520535e+01
6.900000e-07	-4.578547e-06	-1.279869e-09	-3.190177e+01	-8.503517e+01
7.000000e-07	-4.551826e-06	-1.254415e-09	-3.171559e+01	-8.486163e+01
7.100000e-07	-4.524787e-06	-1.260420e-09	-3.152719e+01	-8.468412e+01
7.200000e-07	-4.497440e-06	-1.265205e-09	-3.133664e+01	-8.450207e+01
7.300000e-07	-4.469822e-06	-1.242759e-09	-3.114421e+01	-8.431497e+01
7.400000e-07	-4.442048e-06	-1.245843e-09	-3.095069e+01	-8.412240e+01
7.500000e-07	-4.414080e-06	-1.250389e-09	-3.075582e+01	-8.392398e+01
7.600000e-07	-4.385819e-06	-1.239808e-09	-3.055890e+01	-8.371945e+01
7.700000e-07	-4.357279e-06	-1.232621e-09	-3.036005e+01	-8.350861e+01
7.800000e-07	-4.328368e-06	-1.241013e-09	-3.015861e+01	-8.329136e+01
7.900000e-07	-4.299106e-06	-1.229977e-09	-2.995472e+01	-8.306766e+01
8.000000e-07	-4.269579e-06	-1.229463e-09	-2.974899e+01	-8.283757e+01
8.100000e-07	-4.239785e-06	-1.231709e-09	-2.954139e+01	-8.260121e+01
8.200000e-07	-4.209792e-06	-1.225823e-09	-2.933241e+01	-8.235877e+01
8.300000e-07	-4.179532e-06	-1.209804e-09	-2.912157e+01	-8.211051e+01
8.400000e-07	-4.148938e-06	-1.214252e-09	-2.890840e+01	-8.185671e+01
8.500000e-07	-4.117953e-06	-1.209773e-09	-2.869251e+01	-8.159773e+01
8.600000e-07	-4.086648e-06	-1.203316e-09	-2.847439e+01	-8.133392e+01
8.700000e-07	-4.055213e-06	-1.202937e-09	-2.825536e+01	-8.106568e+01
8.800000e-07	-4.023704e-06	-1.208402e-09	-2.803581e+01	-8.079340e+01
8.900000e-07	-3.992034e-06	-1.195524e-09	-2.781514e+01	-8.051746e+01
9.000000e-07	-3.960141e-06	-1.188148e-09	-2.759293e+01	-8.023824e+01
9.100000e-07	-3.928004e-06	-1.186629e-09	-2.736901e+01	-7.995610e+01
9.200000e-07	-3.895459e-06	-1.178669e-09	-2.714224e+01	-7.967135e+01
9.300000e-07	-3.862417e-06	-1.168804e-09	-2.691202e+01	-7.938427e+01
9.400000e-07	-3.828977e-06	-1.172356e-09	-2.667902e+01	-7.909511e+01
9.500000e-07	-3.795114e-06	-1.170692e-09	-2.644307e+01	-7.880405e+01
9.600000e-07	-3.760811e-06	-1.160166e-09	-2.620407e+01	-7.851121e+01
9.700000e-07	-3.726153e-06	-1.154977e-09	-2.596257e+01	-7.821668e+01
9.800000e-07	-3.691106e-06	-1.151157e-09	-2.571838e+01	-7.792048e+01
9.900000e-07	-3.655729e-06	-1.141477e-09	-2.547188e+01	-7.762257e+01
1.000000e-06	-3.620115e-06	-1.135226e-09	-2.522374e+01	-7.732286e+01
1.010000e-06	-3.584374e-06	-1.135221e-09	-2.497471e+01	-7.702123e+01
1.020000e-06	-3.548594e-06	-1.128278e-09	-2.472540e+01	-7.671748e+01
1.030000e-06	-3.512692e-06	-1.122184e-09	-2.447525e+01	-7.641141e+01
1.040000e-06	-3.476583e-06	-1.121717e-09	-2.422366e+01	-7.610276e+01
1.050000e-06	-3.440224e-06	-1.122002e-09	-2.397032e+01	-7.579125e+01
1.060000e-06	-3.403570e-06	-1.113238e-09	-2.371493e+01	-7.547660e+01
1.070000e-06	-3.366638e-06	-1.107955e-09	-2.345760e+01	-7.515848e+01
1.080000e-06	-3.329435e-06	-1.100745e-09	-2.319838e+01	-7.483661e+01
1.090000e-06	-3.291996e-06	-1.095183e-09	-2.293752e+01	-7.451067e+01
1.100000e-06	-3.254419e-06	-1.087114e-09	-2.267569e+01	-7.418036e+01
1.110000e-06	-3.216669e-06	-1.083092e-09	-2.241267e+01	-7.384541e+01
1.120000e-06	-3.178597e-06	-1.075090e-09	-2.214739e+01	-7.350555e+01
1.130000e-06	-3.140232e-06	-1.071199e-09	-2.188008e+01	-7.316056e+01
1.140000e-06	-3.101671e-06	-1.067959e-09	-2.161140e+01	-7.281022e+01
1.150000e-06	-3.062916e-06	-1.064000e-09	-2.134137e+01	-7.245436e+01
1.160000e-06	-3.023993e-06	-1.053239e-09	-2.107016e+01	-7.209283e+01
1.170000e-06	-2.984900e-06	-1.043548e-09	-2.079778e+01	-7.172551e+01
1.180000e-06	-2.945617e-06	-1.034148e-09	-2.052406e+01	-7.135232e+01
1.190000e-06	-2.906215e-06	-1.026972e-09	-2.024953e+01	-7.097321e+01
1.200000e-06	-2.866652e-06	-1.020106e-09	-1.997386e+01	-7.058813e+01
1.210000e-06	-2.826867e-06	-1.014445e-09	-1.969666e+01	-7.019708e+01
1.220000e-06	-2.786986e-06	-1.006405e-09	-1.941878e+01	-6.980005e+01
1.230000e-06	-2.746992e-06	-1.001175e-09	-1.914011e+01	-6.939708e+01
1.240000e-06	-2.706822e-06	-9.972087e-10	-1.886022e+01	-6.898817e+01
1.250000e-06	-2.666502e-06	-9.930972e-10	-1.857928e+01	-6.857336e+01
1.260000e-06	-2.625950e-06	-9.893416e-10	-1.829673e+01	-6.815266e+01
1.270000e-06	-2.585143e-06	-9.820882e-10	-1.801240e+01	-6.772609e+01
1.280000e-06	-2.544130e-06	-9.727310e-10	-1.772664e+01	-6.729366e+01
1.290000e-06	-2.502882e-06	-9.632067e-10	-1.743924e+01	-6.685534e+01
1.300000e-06	-2.461257e-06	-9.552743e-10	-1.714921e+01	-6.641111e+01
1.310000e-06	-2.419286e-06	-9.468692e-10	-1.685677e+01	-6.596090e+01
1.320000e-06	-2.377094e-06	-9.385034e-10	-1.656279e+01	-6.550462e+01
1.330000e-06	-2.334625e-06	-9.299973e-10	-1.626688e+01	-6.504219e+01
1.340000e-06	-2.291904e-06	-9.217508e-10	-1.596921e+01	-6.457344e+01
1.350000e-06	-2.248924e-06	-9.136298e-10	-1.566974e+01	-6.409824e+01
1.360000e-06	-2.205625e-06	-9.069544e-10	-1.536805e+01	-6.361639e+01
1.370000e-06	-2.162119e-06	-8.985762e-10	-1.506492e+01	-6.312768e+01
1.380000e-06	-2.118541e-06	-8.904756e-10	-1.476128e+01	-6.263189e+01
1.390000e-06	-2.074914e-06	-8.817419e-10	-1.445730e+01	-6.212878e+01
1.400000e-06	-2.031223e-06	-8.753249e-10	-1.415288e+01	-6.161809e+01
1.410000e-06	-1.987475e-06	-8.657782e-10	-1.384805e+01	-6.109955e+01
1.420000e-06	-1.943690e-06	-8.556417e-10	-1.354298e+01	-6.057288e+01
1.430000e-06	-1.899800e-06	-8.455578e-10	-1.323716e+01	-6.003783e+01
1.440000e-06	-1.855797e-06	-8.367184e-10	-1.293057e+01	-5.949410e+01
1.450000e-06	-1.811711e-06	-8.275624e-10	-1.262339e+01	-5.894142e+01
1.460000e-06	-1.767511e-06	-8.200820e-10	-1.231542e+01	-5.837953e+01
1.470000e-06	-1.723195e-06	-8.108736e-10	-1.200664e+01	-5.780818e+01
1.480000e-06	-1.678768e-06	-8.018665e-10	-1.169709e+01	-5.722710e+01
1.490000e-06	-1.634244e-06	-7.926057e-10	-1.138686e+01	-5.663604e+01
1.500000e-06	-1.589558e-06	-7.817087e-10	-1.107550e+01	-5.603478e+01
1.510000e-06	-1.544722e-06	-7.713530e-10	-1.076310e+01	-5.542306e+01
1.520000e-06	-1.499728e-06	-7.647835e-10	-1.044960e+01	-5.480066e+01
1.530000e-06	-1.454556e-06	-7.564454e-10	-1.013486e+01	-5.416733e+01
1.540000e-06	-1.409320e-06	-7.440255e-10	-9.819668e+00	-5.352282e+01
1.550000e-06	-1.364005e-06	-7.309351e-10	-9.503926e+00	-5.286686e+01
1.560000e-06	-1.318571e-06	-7.203568e-10	-9.187356e+00	-5.219916e+01
1.570000e-06	-1.273069e-06	-7.088203e-10	-8.870317e+00	-5.151941e+01
1.580000e-06	-1.227599e-06	-6.992949e-10	-8.553494e+00	-5.082726e+01
1.590000e-06	-1.182108e-06	-6.934712e-10	-8.236531e+00	-5.012230e+01
1.600000e-06	-1.136422e-06	-6.872479e-10	-7.918208e+00	-4.940410e+01
1.610000e-06	-1.090590e-06	-6.775743e-10	-7.598864e+00	-4.867216e+01
1.620000e-06	-1.044655e-06	-6.664318e-10	-7.278802e+00	-4.792591e+01
1.630000e-06	-9.986656e-07	-6.565064e-10	-6.958365e+00	-4.716473e+01
1.640000e-06	-9.526784e-07	-6.442128e-10	-6.637942e+00	-4.638791e+01
1.650000e-06	-9.066304e-07	-6.298006e-10	-6.317095e+00	-4.559469e+01
1.660000e-06	-8.605169e-07	-6.154259e-10	-5.995792e+00	-4.478421e+01
1.670000e-06	-8.143370e-07	-6.028633e-10	-5.674025e+00	-4.395557e+01
1.680000e-06	-7.681461e-07	-5.876735e-10	-5.352183e+00	-4.310775e+01
1.690000e-06	-7.219372e-07	-5.740237e-10	-5.030215e+00	-4.223972e+01
1.700000e-06	-6.756414e-07	-5.589470e-10	-4.707641e+00	-4.135035e+01
1.710000e-06	-6.292886e-07	-5.433197e-10	-4.384671e+00	-4.043848e+01
1.720000e-06	-5.828890e-07	-5.308107e-10	-4.061374e+00	-3.950288e+01
1.730000e-06	-5.364891e-07	-5.195288e-10	-3.738075e+00	-3.854231e+01
1.740000e-06	-4.900998e-07	-5.034197e-10	-3.414850e+00	-3.755552e+01
1.750000e-06	-4.436521e-07	-4.834822e-10	-3.091218e+00	-3.654124e+01
1.760000e-06	-3.970829e-07	-4.616179e-10	-2.766740e+00	-3.549823e+01
1.770000e-06	-3.504154e-07	-4.420988e-10	-2.441576e+00	-3.442527e+01
1.780000e-06	-3.037722e-07	-4.276009e-10	-2.116582e+00	-3.332118e+01
1.790000e-06	-2.570985e-07	-4.162777e-10	-1.791375e+00	-3.218488e+01
1.800000e-06	-2.104231e-07	-4.052354e-10	-1.466157e+00	-3.101535e+01
1.810000e-06	-1.637488e-07	-3.899167e-10	-1.140946e+00	-2.981169e+01
1.820000e-06	-1.170456e-07	-3.715708e-10	-8.155343e-01	-2.857311e+01
1.830000e-06	-7.031839e-08	-3.529256e-10	-4.899548e-01	-2.729897e+01
1.840000e-06	-2.352424e-08	-3.336171e-10	-1.639090e-01	-2.598879e+01
1.850000e-06	2.328811e-08	-3.140111e-10	1.622637e-01	-2.464227e+01
1.860000e-06	7.006817e-08	-2.928986e-10	4.882113e-01	-2.325926e+01
1.870000e-06	1.168355e-07	-2.719427e-10	8.140700e-01	-2.183986e+01
1.880000e-06	1.636558e-07	-2.554349e-10	1.140299e+00	-2.038432e+01
1.890000e-06	2.104052e-07	-2.396427e-10	1.466032e+00	-1.889314e+01
1.900000e-06	2.570563e-07	-2.225006e-10	1.791082e+00	-1.736702e+01
1.910000e-06	3.036717e-07	-2.021409e-10	2.115882e+00	-1.580688e+01
1.920000e-06	3.503356e-07	-1.797503e-10	2.441020e+00	-1.421385e+01
1.930000e-06	3.969433e-07	-1.557988e-10	2.765767e+00	-1.258928e+01
1.940000e-06	4.434194e-07	-1.298134e-10	3.089597e+00	-1.093471e+01
1.950000e-06	4.898354e-07	-1.054703e-10	3.413008e+00	-9.251896e+00
1.960000e-06	5.362097e-07	-8.465680e-11	3.736128e+00	-7.542757e+00
1.970000e-06	5.825661e-07	-6.605464e-11	4.059124e+00	-5.809391e+00
1.980000e-06	6.288822e-07	-4.818669e-11	4.381839e+00	-4.054045e+00
1.990000e-06	6.751786e-07	-2.747498e-11	4.704416e+00	-2.279104e+00
2.000000e-06	7.214652e-07	-1.090803e-12	5.026926e+00	-4.870712e-01
2.010000e-06	7.676642e-07	3.082876e-11	5.348825e+00	1.319457e+00
2.020000e-06	8.138066e-07	6.348672e-11	5.670330e+00	3.137807e+00
2.030000e-06	8.599690e-07	9.153113e-11	5.991974e+00	4.965251e+00
2.040000e-06	9.060801e-07	1.138605e-10	6.313260e+00	6.799027e+00
2.050000e-06	9.521374e-07	1.330413e-10	6.634172e+00	8.636364e+00
2.060000e-06	9.981317e-07	1.535495e-10	6.954645e+00	1.047450e+01
2.070000e-06	1.044065e-06	1.779543e-10	7.274689e+00	1.231070e+01
2.080000e-06	1.089903e-06	2.067113e-10	7.594079e+00	1.414227e+01
2.090000e-06	1.135599e-06	2.380215e-10	7.912474e+00	1.596661e+01
2.100000e-06	1.181191e-06	2.670032e-10	8.230141e+00	1.778117e+01
2.110000e-06	1.226728e-06	2.918291e-10	8.547430e+00	1.958352e+01
2.120000e-06	1.272154e-06	3.136444e-10	8.863941e+00	2.137131e+01
2.130000e-06	1.317462e-06	3.340079e-10	9.179628e+00	2.314235e+01
2.140000e-06	1.362714e-06	3.542307e-10	9.494930e+00	2.489455e+01
2.150000e-06	1.407888e-06	3.769620e-10	9.809687e+00	2.662597e+01
2.160000e-06	1.452983e-06	4.037869e-10	1.012389e+01	2.833481e+01
2.170000e-06	1.498007e-06	4.309402e-10	1.043761e+01	3.001939e+01
2.180000e-06	1.542941e-06	4.552491e-10	1.075069e+01	3.167823e+01
2.190000e-06	1.587749e-06	4.771080e-10	1.106290e+01	3.330994e+01
2.200000e-06	1.632330e-06	4.957957e-10	1.137352e+01	3.491331e+01
2.210000e-06	1.676738e-06	5.114476e-10	1.168295e+01	3.648726e+01
2.220000e-06	1.721142e-06	5.276286e-10	1.199234e+01	3.803084e+01
2.230000e-06	1.765408e-06	5.464552e-10	1.230077e+01	3.954326e+01
2.240000e-06	1.809447e-06	5.677064e-10	1.260761e+01	4.102383e+01
2.250000e-06	1.853417e-06	5.891848e-10	1.291398e+01	4.247199e+01
2.260000e-06	1.897379e-06	6.112934e-10	1.322029e+01	4.388731e+01
2.270000e-06	1.941261e-06	6.328063e-10	1.352605e+01	4.526946e+01
2.280000e-06	1.985055e-06	6.519712e-10	1.383120e+01	4.661820e+01
2.290000e-06	2.028834e-06	6.690820e-10	1.413623e+01	4.793340e+01
2.300000e-06	2.072555e-06	6.855272e-10	1.444086e+01	4.921504e+01
2.310000e-06	2.116185e-06	7.017270e-10	1.474486e+01	5.046315e+01
2.320000e-06	2.159722e-06	7.182409e-10	1.504821e+01	5.167787e+01
2.330000e-06	2.203143e-06	7.358162e-10	1.535076e+01	5.285940e+01
2.340000e-06	2.246405e-06	7.516044e-10	1.565219e+01	5.400802e+01
2.350000e-06	2.289468e-06	7.659434e-10	1.595224e+01	5.512406e+01
2.360000e-06	2.332367e-06	7.812150e-10	1.625115e+01	5.620795e+01
2.370000e-06	2.374934e-06	7.956909e-10	1.654774e+01	5.726016e+01
2.380000e-06	2.417001e-06	8.102952e-10	1.684085e+01	5.828121e+01
2.390000e-06	2.458827e-06	8.250172e-10	1.713228e+01	5.927169e+01
2.400000e-06	2.500504e-06	8.383539e-10	1.742267e+01	6.023226e+01
2.410000e-06	2.541832e-06	8.512366e-10	1.771063e+01	6.116359e+01
2.420000e-06	2.582854e-06	8.636911e-10	1.799646e+01	6.206645e+01
2.430000e-06	2.623637e-06	8.768422e-10	1.828062e+01	6.294160e+01
2.440000e-06	2.664115e-06	8.904802e-10	1.856265e+01	6.378990e+01
2.450000e-06	2.704356e-06	9.037399e-10	1.884304e+01	6.461220e+01
2.460000e-06	2.744487e-06	9.152172e-10	1.912266e+01	6.540942e+01
2.470000e-06	2.784500e-06	9.241002e-10	1.940145e+01	6.618248e+01
2.480000e-06	2.824346e-06	9.327769e-10	1.967909e+01	6.693236e+01
2.490000e-06	2.864078e-06	9.421335e-10	1.995593e+01	6.766002e+01
2.500000e-06	2.903711e-06	9.532740e-10	2.023208e+01	6.836645e+01
2.510000e-06	2.943179e-06	9.654470e-10	2.050708e+01	6.905265e+01
2.520000e-06	2.982397e-06	9.759021e-10	2.078033e+01	6.971962e+01
2.530000e-06	3.021430e-06	9.852650e-10	2.105231e+01	7.036832e+01
2.540000e-06	3.060257e-06	9.939019e-10	2.132284e+01	7.099974e+01
2.550000e-06	3.098844e-06	1.001651e-09	2.159170e+01	7.161479e+01
2.560000e-06	3.137205e-06	1.008932e-09	2.185899e+01	7.221440e+01
2.570000e-06	3.175269e-06	1.016978e-09	2.212420e+01	7.279940e+01
2.580000e-06	3.213148e-06	1.025830e-09	2.238813e+01	7.337063e+01
2.590000e-06	3.250882e-06	1.034437e-09	2.265105e+01	7.392882e+01
2.600000e-06	3.288380e-06	1.041918e-09	2.291232e+01	7.447468e+01
2.610000e-06	3.325678e-06	1.048785e-09	2.317220e+01	7.500884e+01
2.620000e-06	3.362797e-06	1.055882e-09	2.343084e+01	7.553183e+01
2.630000e-06	3.399712e-06	1.063839e-09	2.368805e+01	7.604415e+01
2.640000e-06	3.436321e-06	1.072165e-09	2.394313e+01	7.654620e+01
2.650000e-06	3.472623e-06	1.080155e-09	2.419607e+01	7.703830e+01
2.660000e-06	3.508728e-06	1.088065e-09	2.444763e+01	7.752072e+01
2.670000e-06	3.544666e-06	1.093986e-09	2.469804e+01	7.799362e+01
2.680000e-06	3.580508e-06	1.097885e-09	2.494777e+01	7.845712e+01
2.690000e-06	3.616257e-06	1.102133e-09	2.519686e+01	7.891126e+01
2.700000e-06	3.651889e-06	1.108179e-09	2.544513e+01	7.935604e+01
2.710000e-06	3.687297e-06	1.115316e-09	2.569184e+01	7.979140e+01
2.720000e-06	3.722393e-06	1.123961e-09	2.593638e+01	8.021722e+01
2.730000e-06	3.757267e-06	1.134333e-09	2.617937e+01	8.063338e+01
2.740000e-06	3.791705e-06	1.142851e-09	2.641932e+01	8.103972e+01
2.750000e-06	3.825503e-06	1.148768e-09	2.665482e+01	8.143607e+01
2.760000e-06	3.858794e-06	1.153566e-09	2.688677e+01	8.182226e+01
2.770000e-06	3.891640e-06	1.158488e-09	2.711564e+01	8.219812e+01
2.780000e-06	3.924088e-06	1.164093e-09	2.734172e+01	8.256351e+01
2.790000e-06	3.956269e-06	1.169030e-09	2.756595e+01	8.291832e+01
2.800000e-06	3.988257e-06	1.173364e-09	2.778883e+01	8.326246e+01
2.810000e-06	4.020044e-06	1.177058e-09	2.801031e+01	8.359592e+01
2.820000e-06	4.051671e-06	1.180335e-09	2.823068e+01	8.391869e+01
2.830000e-06	4.083180e-06	1.185132e-09	2.845022e+01	8.423086e+01
2.840000e-06	4.114530e-06	1.190256e-09	2.866865e+01	8.453257e+01
2.850000e-06	4.145552e-06	1.194703e-09	2.888481e+01	8.482402e+01
2.860000e-06	4.176136e-06	1.200442e-09	2.909791e+01	8.510546e+01
2.870000e-06	4.206384e-06	1.207887e-09	2.930867e+01	8.537722e+01
2.880000e-06	4.236387e-06	1.214215e-09	2.951771e+01	8.563970e+01
2.890000e-06	4.266102e-06	1.218542e-09	2.972476e+01	8.589333e+01
2.900000e-06	4.295577e-06	1.222931e-09	2.993013e+01	8.613860e+01
