# Temperatura_=_1.95
# Concentracion g/m^3_=_1620.0
# C_Vs_to_Am_M_A/Vsm_=_65563218390.804596
# pendiente_HvsI_1/m_=_3716.3
# ordenada_HvsI_A/m_=_1297.0
# frecuencia_Hz_=_135108.119574802

Tiempo_(s)	Campo_(V.s)	Magnetizacion_(V.s)	Campo_(kA/m)	Magnetizacion_(A/m)
0.000000e+00	-5.529062e-06	-1.189079e-09	-3.837014e+01	-8.134138e+01
1.000000e-08	-5.529344e-06	-1.186349e-09	-3.837209e+01	-8.131726e+01
2.000000e-08	-5.529416e-06	-1.182574e-09	-3.837260e+01	-8.129279e+01
3.000000e-08	-5.529164e-06	-1.179001e-09	-3.837085e+01	-8.126805e+01
4.000000e-08	-5.528473e-06	-1.175761e-09	-3.836605e+01	-8.124310e+01
5.000000e-08	-5.527339e-06	-1.173865e-09	-3.835818e+01	-8.121798e+01
6.000000e-08	-5.525570e-06	-1.170888e-09	-3.834590e+01	-8.119271e+01
7.000000e-08	-5.523117e-06	-1.172419e-09	-3.832888e+01	-8.116726e+01
8.000000e-08	-5.520198e-06	-1.196587e-09	-3.830862e+01	-8.114158e+01
9.000000e-08	-5.516814e-06	-1.213841e-09	-3.828514e+01	-8.111557e+01
1.000000e-07	-5.512871e-06	-1.163909e-09	-3.825778e+01	-8.108911e+01
1.100000e-07	-5.508497e-06	-1.110730e-09	-3.822742e+01	-8.106203e+01
1.200000e-07	-5.503974e-06	-1.164144e-09	-3.819604e+01	-8.103412e+01
1.300000e-07	-5.499216e-06	-1.202359e-09	-3.816302e+01	-8.100515e+01
1.400000e-07	-5.494023e-06	-1.172072e-09	-3.812698e+01	-8.097484e+01
1.500000e-07	-5.488485e-06	-1.118590e-09	-3.808854e+01	-8.094290e+01
1.600000e-07	-5.482684e-06	-1.173788e-09	-3.804829e+01	-8.090899e+01
1.700000e-07	-5.476520e-06	-1.240375e-09	-3.800551e+01	-8.087276e+01
1.800000e-07	-5.469842e-06	-1.178279e-09	-3.795917e+01	-8.083385e+01
1.900000e-07	-5.462732e-06	-1.117399e-09	-3.790983e+01	-8.079187e+01
2.000000e-07	-5.455360e-06	-1.162116e-09	-3.785867e+01	-8.074644e+01
2.100000e-07	-5.447727e-06	-1.230497e-09	-3.780570e+01	-8.069720e+01
2.200000e-07	-5.439761e-06	-1.214773e-09	-3.775041e+01	-8.064376e+01
2.300000e-07	-5.431546e-06	-1.172699e-09	-3.769340e+01	-8.058579e+01
2.400000e-07	-5.422957e-06	-1.187544e-09	-3.763380e+01	-8.052295e+01
2.500000e-07	-5.413655e-06	-1.214907e-09	-3.756925e+01	-8.045497e+01
2.600000e-07	-5.403690e-06	-1.195628e-09	-3.750009e+01	-8.038158e+01
2.700000e-07	-5.393161e-06	-1.164937e-09	-3.742702e+01	-8.030260e+01
2.800000e-07	-5.382095e-06	-1.157710e-09	-3.735023e+01	-8.021787e+01
2.900000e-07	-5.370694e-06	-1.181969e-09	-3.727111e+01	-8.012731e+01
3.000000e-07	-5.358984e-06	-1.189531e-09	-3.718984e+01	-8.003088e+01
3.100000e-07	-5.346818e-06	-1.169136e-09	-3.710542e+01	-7.992863e+01
3.200000e-07	-5.334130e-06	-1.166540e-09	-3.701736e+01	-7.982065e+01
3.300000e-07	-5.321048e-06	-1.206866e-09	-3.692658e+01	-7.970713e+01
3.400000e-07	-5.307653e-06	-1.202124e-09	-3.683362e+01	-7.958830e+01
3.500000e-07	-5.293796e-06	-1.153925e-09	-3.673746e+01	-7.946447e+01
3.600000e-07	-5.279445e-06	-1.158377e-09	-3.663786e+01	-7.933600e+01
3.700000e-07	-5.264808e-06	-1.207508e-09	-3.653629e+01	-7.920334e+01
3.800000e-07	-5.249685e-06	-1.172206e-09	-3.643134e+01	-7.906694e+01
3.900000e-07	-5.233867e-06	-1.147417e-09	-3.632157e+01	-7.892734e+01
4.000000e-07	-5.217603e-06	-1.199957e-09	-3.620870e+01	-7.878510e+01
4.100000e-07	-5.200997e-06	-1.197953e-09	-3.609346e+01	-7.864080e+01
4.200000e-07	-5.184013e-06	-1.129276e-09	-3.597560e+01	-7.849504e+01
4.300000e-07	-5.166722e-06	-1.171490e-09	-3.585560e+01	-7.834845e+01
4.400000e-07	-5.149173e-06	-1.225829e-09	-3.573382e+01	-7.820162e+01
4.500000e-07	-5.131241e-06	-1.140774e-09	-3.560937e+01	-7.805516e+01
4.600000e-07	-5.112869e-06	-1.111844e-09	-3.548188e+01	-7.790965e+01
4.700000e-07	-5.094132e-06	-1.200288e-09	-3.535184e+01	-7.776561e+01
4.800000e-07	-5.075019e-06	-1.173977e-09	-3.521921e+01	-7.762355e+01
4.900000e-07	-5.055583e-06	-1.103390e-09	-3.508433e+01	-7.748390e+01
5.000000e-07	-5.035952e-06	-1.177477e-09	-3.494810e+01	-7.734705e+01
5.100000e-07	-5.016138e-06	-1.202898e-09	-3.481059e+01	-7.721330e+01
5.200000e-07	-4.996053e-06	-1.111647e-09	-3.467121e+01	-7.708288e+01
5.300000e-07	-4.975621e-06	-1.135919e-09	-3.452941e+01	-7.695596e+01
5.400000e-07	-4.954832e-06	-1.204274e-09	-3.438514e+01	-7.683261e+01
5.500000e-07	-4.933707e-06	-1.121023e-09	-3.423854e+01	-7.671281e+01
5.600000e-07	-4.912201e-06	-1.093238e-09	-3.408930e+01	-7.659648e+01
5.700000e-07	-4.890327e-06	-1.182593e-09	-3.393750e+01	-7.648342e+01
5.800000e-07	-4.868115e-06	-1.160669e-09	-3.378335e+01	-7.637338e+01
5.900000e-07	-4.845495e-06	-1.097199e-09	-3.362638e+01	-7.626603e+01
6.000000e-07	-4.822548e-06	-1.155040e-09	-3.346713e+01	-7.616096e+01
6.100000e-07	-4.799357e-06	-1.163577e-09	-3.330619e+01	-7.605772e+01
6.200000e-07	-4.775885e-06	-1.091491e-09	-3.314330e+01	-7.595578e+01
6.300000e-07	-4.752137e-06	-1.113505e-09	-3.297850e+01	-7.585459e+01
6.400000e-07	-4.728125e-06	-1.154472e-09	-3.281186e+01	-7.575355e+01
6.500000e-07	-4.703809e-06	-1.107774e-09	-3.264311e+01	-7.565204e+01
6.600000e-07	-4.679126e-06	-1.104186e-09	-3.247182e+01	-7.554944e+01
6.700000e-07	-4.654001e-06	-1.144368e-09	-3.229746e+01	-7.544512e+01
6.800000e-07	-4.628354e-06	-1.120042e-09	-3.211948e+01	-7.533845e+01
6.900000e-07	-4.602047e-06	-1.096123e-09	-3.193692e+01	-7.522886e+01
7.000000e-07	-4.575172e-06	-1.127848e-09	-3.175041e+01	-7.511576e+01
7.100000e-07	-4.547945e-06	-1.120964e-09	-3.156146e+01	-7.499865e+01
7.200000e-07	-4.520479e-06	-1.089842e-09	-3.137086e+01	-7.487704e+01
7.300000e-07	-4.492864e-06	-1.105177e-09	-3.117921e+01	-7.475051e+01
7.400000e-07	-4.465066e-06	-1.114424e-09	-3.098631e+01	-7.461872e+01
7.500000e-07	-4.437055e-06	-1.092816e-09	-3.079192e+01	-7.448137e+01
7.600000e-07	-4.408757e-06	-1.093689e-09	-3.059554e+01	-7.433825e+01
7.700000e-07	-4.380170e-06	-1.105084e-09	-3.039715e+01	-7.418921e+01
7.800000e-07	-4.351334e-06	-1.089099e-09	-3.019704e+01	-7.403417e+01
7.900000e-07	-4.322177e-06	-1.082577e-09	-2.999470e+01	-7.387313e+01
8.000000e-07	-4.292712e-06	-1.092772e-09	-2.979021e+01	-7.370615e+01
8.100000e-07	-4.262940e-06	-1.081191e-09	-2.958361e+01	-7.353336e+01
8.200000e-07	-4.232861e-06	-1.069822e-09	-2.937487e+01	-7.335493e+01
8.300000e-07	-4.202474e-06	-1.084314e-09	-2.916399e+01	-7.317111e+01
8.400000e-07	-4.171750e-06	-1.084767e-09	-2.895078e+01	-7.298216e+01
8.500000e-07	-4.140716e-06	-1.069977e-09	-2.873540e+01	-7.278840e+01
8.600000e-07	-4.109451e-06	-1.072943e-09	-2.851844e+01	-7.259017e+01
8.700000e-07	-4.078017e-06	-1.076842e-09	-2.830029e+01	-7.238782e+01
8.800000e-07	-4.046437e-06	-1.061270e-09	-2.808114e+01	-7.218172e+01
8.900000e-07	-4.014687e-06	-1.059519e-09	-2.786080e+01	-7.197223e+01
9.000000e-07	-3.982693e-06	-1.065946e-09	-2.763877e+01	-7.175970e+01
9.100000e-07	-3.950380e-06	-1.055876e-09	-2.741453e+01	-7.154448e+01
9.200000e-07	-3.917704e-06	-1.049871e-09	-2.718777e+01	-7.132687e+01
9.300000e-07	-3.884714e-06	-1.058493e-09	-2.695883e+01	-7.110717e+01
9.400000e-07	-3.851243e-06	-1.051451e-09	-2.672655e+01	-7.088561e+01
9.500000e-07	-3.817230e-06	-1.039003e-09	-2.649051e+01	-7.066241e+01
9.600000e-07	-3.782825e-06	-1.043655e-09	-2.625174e+01	-7.043772e+01
9.700000e-07	-3.748075e-06	-1.043668e-09	-2.601059e+01	-7.021166e+01
9.800000e-07	-3.712957e-06	-1.030813e-09	-2.576688e+01	-6.998431e+01
9.900000e-07	-3.677530e-06	-1.029990e-09	-2.552103e+01	-6.975568e+01
1.000000e-06	-3.641919e-06	-1.033937e-09	-2.527389e+01	-6.952576e+01
1.010000e-06	-3.606184e-06	-1.024056e-09	-2.502590e+01	-6.929448e+01
1.020000e-06	-3.570366e-06	-1.018326e-09	-2.477734e+01	-6.906176e+01
1.030000e-06	-3.534394e-06	-1.023580e-09	-2.452771e+01	-6.882745e+01
1.040000e-06	-3.498172e-06	-1.019107e-09	-2.427633e+01	-6.859139e+01
1.050000e-06	-3.461677e-06	-1.009373e-09	-2.402307e+01	-6.835341e+01
1.060000e-06	-3.424929e-06	-1.010811e-09	-2.376804e+01	-6.811332e+01
1.070000e-06	-3.387881e-06	-1.011342e-09	-2.351094e+01	-6.787089e+01
1.080000e-06	-3.350543e-06	-1.004991e-09	-2.325183e+01	-6.762592e+01
1.090000e-06	-3.313069e-06	-1.004259e-09	-2.299177e+01	-6.737822e+01
1.100000e-06	-3.275451e-06	-1.002764e-09	-2.273071e+01	-6.712757e+01
1.110000e-06	-3.237581e-06	-9.892081e-10	-2.246791e+01	-6.687380e+01
1.120000e-06	-3.199411e-06	-9.804832e-10	-2.220301e+01	-6.661673e+01
1.130000e-06	-3.160944e-06	-9.808102e-10	-2.193606e+01	-6.635624e+01
1.140000e-06	-3.122242e-06	-9.773341e-10	-2.166748e+01	-6.609219e+01
1.150000e-06	-3.083393e-06	-9.727025e-10	-2.139788e+01	-6.582450e+01
1.160000e-06	-3.044383e-06	-9.746280e-10	-2.112716e+01	-6.555309e+01
1.170000e-06	-3.005175e-06	-9.713573e-10	-2.085507e+01	-6.527794e+01
1.180000e-06	-2.965786e-06	-9.601429e-10	-2.058172e+01	-6.499901e+01
1.190000e-06	-2.926238e-06	-9.530319e-10	-2.030727e+01	-6.471633e+01
1.200000e-06	-2.886553e-06	-9.479865e-10	-2.003187e+01	-6.442991e+01
1.210000e-06	-2.846712e-06	-9.370631e-10	-1.975538e+01	-6.413980e+01
1.220000e-06	-2.806771e-06	-9.296661e-10	-1.947820e+01	-6.384605e+01
1.230000e-06	-2.766738e-06	-9.293694e-10	-1.920039e+01	-6.354870e+01
1.240000e-06	-2.726526e-06	-9.267767e-10	-1.892132e+01	-6.324781e+01
1.250000e-06	-2.686026e-06	-9.219202e-10	-1.864027e+01	-6.294341e+01
1.260000e-06	-2.645272e-06	-9.200564e-10	-1.835745e+01	-6.263555e+01
1.270000e-06	-2.604217e-06	-9.148468e-10	-1.807254e+01	-6.232422e+01
1.280000e-06	-2.562779e-06	-9.047213e-10	-1.778497e+01	-6.200940e+01
1.290000e-06	-2.520993e-06	-8.961707e-10	-1.749499e+01	-6.169104e+01
1.300000e-06	-2.478922e-06	-8.889904e-10	-1.720302e+01	-6.136905e+01
1.310000e-06	-2.436635e-06	-8.806600e-10	-1.690956e+01	-6.104330e+01
1.320000e-06	-2.394114e-06	-8.763609e-10	-1.661448e+01	-6.071362e+01
1.330000e-06	-2.351364e-06	-8.752283e-10	-1.631781e+01	-6.037978e+01
1.340000e-06	-2.308357e-06	-8.703052e-10	-1.601935e+01	-6.004152e+01
1.350000e-06	-2.265103e-06	-8.616675e-10	-1.571918e+01	-5.969852e+01
1.360000e-06	-2.221658e-06	-8.534246e-10	-1.541768e+01	-5.935044e+01
1.370000e-06	-2.178117e-06	-8.452622e-10	-1.511552e+01	-5.899686e+01
1.380000e-06	-2.134565e-06	-8.343932e-10	-1.481328e+01	-5.863735e+01
1.390000e-06	-2.090932e-06	-8.264103e-10	-1.451048e+01	-5.827143e+01
1.400000e-06	-2.047164e-06	-8.241297e-10	-1.420674e+01	-5.789860e+01
1.410000e-06	-2.003331e-06	-8.226501e-10	-1.390256e+01	-5.751834e+01
1.420000e-06	-1.959470e-06	-8.197928e-10	-1.359817e+01	-5.713009e+01
1.430000e-06	-1.915528e-06	-8.166223e-10	-1.329322e+01	-5.673330e+01
1.440000e-06	-1.871493e-06	-8.089834e-10	-1.298764e+01	-5.632742e+01
1.450000e-06	-1.827314e-06	-7.974720e-10	-1.268105e+01	-5.591189e+01
1.460000e-06	-1.782971e-06	-7.859583e-10	-1.237332e+01	-5.548616e+01
1.470000e-06	-1.738436e-06	-7.755881e-10	-1.206426e+01	-5.504970e+01
1.480000e-06	-1.693724e-06	-7.679265e-10	-1.175397e+01	-5.460202e+01
1.490000e-06	-1.648993e-06	-7.650240e-10	-1.144355e+01	-5.414262e+01
1.500000e-06	-1.604143e-06	-7.610073e-10	-1.113230e+01	-5.367107e+01
1.510000e-06	-1.559164e-06	-7.542131e-10	-1.082016e+01	-5.318694e+01
1.520000e-06	-1.514133e-06	-7.468650e-10	-1.050766e+01	-5.268985e+01
1.530000e-06	-1.468963e-06	-7.384963e-10	-1.019419e+01	-5.217946e+01
1.540000e-06	-1.423623e-06	-7.289224e-10	-9.879546e+00	-5.165545e+01
1.550000e-06	-1.378077e-06	-7.184853e-10	-9.563471e+00	-5.111753e+01
1.560000e-06	-1.332485e-06	-7.074295e-10	-9.247074e+00	-5.056545e+01
1.570000e-06	-1.286874e-06	-6.967617e-10	-8.930548e+00	-4.999897e+01
1.580000e-06	-1.241144e-06	-6.877544e-10	-8.613188e+00	-4.941787e+01
1.590000e-06	-1.195303e-06	-6.803863e-10	-8.295070e+00	-4.882194e+01
1.600000e-06	-1.149353e-06	-6.741419e-10	-7.976189e+00	-4.821095e+01
1.610000e-06	-1.103365e-06	-6.669105e-10	-7.657046e+00	-4.758468e+01
1.620000e-06	-1.057385e-06	-6.579698e-10	-7.337957e+00	-4.694290e+01
1.630000e-06	-1.011348e-06	-6.472351e-10	-7.018468e+00	-4.628533e+01
1.640000e-06	-9.652673e-07	-6.367039e-10	-6.698684e+00	-4.561166e+01
1.650000e-06	-9.190842e-07	-6.287478e-10	-6.378187e+00	-4.492155e+01
1.660000e-06	-8.726981e-07	-6.196395e-10	-6.056280e+00	-4.421458e+01
1.670000e-06	-8.262780e-07	-6.086823e-10	-5.734138e+00	-4.349030e+01
1.680000e-06	-7.798340e-07	-5.956560e-10	-5.411829e+00	-4.274816e+01
1.690000e-06	-7.332552e-07	-5.804017e-10	-5.088585e+00	-4.198758e+01
1.700000e-06	-6.867207e-07	-5.648311e-10	-4.765649e+00	-4.120787e+01
1.710000e-06	-6.402449e-07	-5.500363e-10	-4.443120e+00	-4.040829e+01
1.720000e-06	-5.936688e-07	-5.404368e-10	-4.119895e+00	-3.958803e+01
1.730000e-06	-5.470424e-07	-5.330701e-10	-3.796321e+00	-3.874618e+01
1.740000e-06	-5.003508e-07	-5.233032e-10	-3.472294e+00	-3.788180e+01
1.750000e-06	-4.535592e-07	-5.088556e-10	-3.147573e+00	-3.699389e+01
1.760000e-06	-4.066945e-07	-4.907338e-10	-2.822345e+00	-3.608139e+01
1.770000e-06	-3.597992e-07	-4.726121e-10	-2.496906e+00	-3.514322e+01
1.780000e-06	-3.128908e-07	-4.570764e-10	-2.171374e+00	-3.417826e+01
1.790000e-06	-2.659893e-07	-4.439822e-10	-1.845891e+00	-3.318541e+01
1.800000e-06	-2.190859e-07	-4.340721e-10	-1.520395e+00	-3.216357e+01
1.810000e-06	-1.721949e-07	-4.244531e-10	-1.194985e+00	-3.111166e+01
1.820000e-06	-1.253037e-07	-4.123651e-10	-8.695726e-01	-3.002867e+01
1.830000e-06	-7.837440e-08	-3.974804e-10	-5.438964e-01	-2.891364e+01
1.840000e-06	-3.145392e-08	-3.801639e-10	-2.182814e-01	-2.776571e+01
1.850000e-06	1.544497e-08	-3.626065e-10	1.071838e-01	-2.658413e+01
1.860000e-06	6.241623e-08	-3.441630e-10	4.331512e-01	-2.536827e+01
1.870000e-06	1.093778e-07	-3.252670e-10	7.590513e-01	-2.411766e+01
1.880000e-06	1.562720e-07	-3.068127e-10	1.084484e+00	-2.283197e+01
1.890000e-06	2.032098e-07	-2.895403e-10	1.410219e+00	-2.151107e+01
1.900000e-06	2.501296e-07	-2.717552e-10	1.735829e+00	-2.015503e+01
1.910000e-06	2.970037e-07	-2.537408e-10	2.061122e+00	-1.876411e+01
1.920000e-06	3.439500e-07	-2.371397e-10	2.386916e+00	-1.733878e+01
1.930000e-06	3.908849e-07	-2.182015e-10	2.712632e+00	-1.587975e+01
1.940000e-06	4.376836e-07	-1.959657e-10	3.037401e+00	-1.438794e+01
1.950000e-06	4.843692e-07	-1.728071e-10	3.361387e+00	-1.286450e+01
1.960000e-06	5.310042e-07	-1.491359e-10	3.685020e+00	-1.131082e+01
1.970000e-06	5.775843e-07	-1.271773e-10	4.008273e+00	-9.728471e+00
1.980000e-06	6.240800e-07	-1.077852e-10	4.330940e+00	-8.119272e+00
1.990000e-06	6.705785e-07	-8.839525e-11	4.653626e+00	-6.485221e+00
2.000000e-06	7.170445e-07	-6.612347e-11	4.976088e+00	-4.828504e+00
2.010000e-06	7.634010e-07	-4.011541e-11	5.297789e+00	-3.151476e+00
2.020000e-06	8.096967e-07	-1.062582e-11	5.619068e+00	-1.456643e+00
2.030000e-06	8.559512e-07	1.843225e-11	5.940061e+00	2.533643e-01
2.040000e-06	9.021436e-07	4.238511e-11	6.260623e+00	1.975806e+00
2.050000e-06	9.483131e-07	6.221604e-11	6.581027e+00	3.707860e+00
2.060000e-06	9.944631e-07	8.237443e-11	6.901295e+00	5.446649e+00
2.070000e-06	1.040557e-06	1.032543e-10	7.221172e+00	7.189263e+00
2.080000e-06	1.086597e-06	1.254975e-10	7.540681e+00	8.932784e+00
2.090000e-06	1.132522e-06	1.518537e-10	7.859385e+00	1.067431e+01
2.100000e-06	1.178293e-06	1.801754e-10	8.177021e+00	1.241100e+01
2.110000e-06	1.223991e-06	2.061986e-10	8.494153e+00	1.414005e+01
2.120000e-06	1.269601e-06	2.287106e-10	8.810677e+00	1.585877e+01
2.130000e-06	1.315137e-06	2.492900e-10	9.126682e+00	1.756457e+01
2.140000e-06	1.360581e-06	2.686735e-10	9.442050e+00	1.925499e+01
2.150000e-06	1.405899e-06	2.884382e-10	9.756543e+00	2.092772e+01
2.160000e-06	1.451162e-06	3.121489e-10	1.007066e+01	2.258060e+01
2.170000e-06	1.496355e-06	3.384962e-10	1.038428e+01	2.421164e+01
2.180000e-06	1.541468e-06	3.632434e-10	1.069736e+01	2.581905e+01
2.190000e-06	1.586503e-06	3.859682e-10	1.100988e+01	2.740119e+01
2.200000e-06	1.631366e-06	4.059440e-10	1.132122e+01	2.895663e+01
2.210000e-06	1.676037e-06	4.223070e-10	1.163123e+01	3.048414e+01
2.220000e-06	1.720533e-06	4.371364e-10	1.194001e+01	3.198266e+01
2.230000e-06	1.764880e-06	4.539015e-10	1.224777e+01	3.345131e+01
2.240000e-06	1.809119e-06	4.724385e-10	1.255478e+01	3.488939e+01
2.250000e-06	1.853334e-06	4.901096e-10	1.286162e+01	3.629639e+01
2.260000e-06	1.897511e-06	5.082392e-10	1.316819e+01	3.767192e+01
2.270000e-06	1.941489e-06	5.285851e-10	1.347339e+01	3.901578e+01
2.280000e-06	1.985334e-06	5.495262e-10	1.377766e+01	4.032786e+01
2.290000e-06	2.029087e-06	5.696616e-10	1.408129e+01	4.160819e+01
2.300000e-06	2.072756e-06	5.876546e-10	1.438434e+01	4.285692e+01
2.310000e-06	2.116442e-06	6.025834e-10	1.468751e+01	4.407427e+01
2.320000e-06	2.160080e-06	6.158560e-10	1.499035e+01	4.526054e+01
2.330000e-06	2.203648e-06	6.290521e-10	1.529270e+01	4.641610e+01
2.340000e-06	2.247179e-06	6.437475e-10	1.559479e+01	4.754136e+01
2.350000e-06	2.290587e-06	6.601400e-10	1.589603e+01	4.863677e+01
2.360000e-06	2.333783e-06	6.767319e-10	1.619580e+01	4.970282e+01
2.370000e-06	2.376717e-06	6.919018e-10	1.649375e+01	5.073999e+01
2.380000e-06	2.419445e-06	7.054503e-10	1.679027e+01	5.174878e+01
2.390000e-06	2.461914e-06	7.174622e-10	1.708499e+01	5.272968e+01
2.400000e-06	2.503887e-06	7.279260e-10	1.737627e+01	5.368318e+01
2.410000e-06	2.545369e-06	7.398299e-10	1.766415e+01	5.460975e+01
2.420000e-06	2.586561e-06	7.540770e-10	1.795001e+01	5.550985e+01
2.430000e-06	2.627571e-06	7.686332e-10	1.823461e+01	5.638393e+01
2.440000e-06	2.668401e-06	7.817203e-10	1.851796e+01	5.723239e+01
2.450000e-06	2.708960e-06	7.931211e-10	1.879942e+01	5.805566e+01
2.460000e-06	2.749237e-06	8.033088e-10	1.907893e+01	5.885411e+01
2.470000e-06	2.789313e-06	8.126878e-10	1.935705e+01	5.962814e+01
2.480000e-06	2.829258e-06	8.228316e-10	1.963425e+01	6.037810e+01
2.490000e-06	2.869057e-06	8.338904e-10	1.991045e+01	6.110438e+01
2.500000e-06	2.908699e-06	8.447052e-10	2.018555e+01	6.180734e+01
2.510000e-06	2.948232e-06	8.558306e-10	2.045990e+01	6.248736e+01
2.520000e-06	2.987624e-06	8.660726e-10	2.073327e+01	6.314482e+01
2.530000e-06	3.026859e-06	8.741749e-10	2.100555e+01	6.378014e+01
2.540000e-06	3.065871e-06	8.829142e-10	2.127628e+01	6.439373e+01
2.550000e-06	3.104623e-06	8.927862e-10	2.154522e+01	6.498605e+01
2.560000e-06	3.143144e-06	9.028715e-10	2.181254e+01	6.555757e+01
2.570000e-06	3.181464e-06	9.130847e-10	2.207846e+01	6.610880e+01
2.580000e-06	3.219596e-06	9.215588e-10	2.234309e+01	6.664027e+01
2.590000e-06	3.257538e-06	9.277664e-10	2.260640e+01	6.715256e+01
2.600000e-06	3.295294e-06	9.343243e-10	2.286842e+01	6.764626e+01
2.610000e-06	3.332805e-06	9.418703e-10	2.312873e+01	6.812201e+01
2.620000e-06	3.370015e-06	9.499071e-10	2.338696e+01	6.858046e+01
2.630000e-06	3.406981e-06	9.574405e-10	2.364349e+01	6.902230e+01
2.640000e-06	3.443724e-06	9.635151e-10	2.389848e+01	6.944823e+01
2.650000e-06	3.480169e-06	9.690857e-10	2.415139e+01	6.985897e+01
2.660000e-06	3.516389e-06	9.752594e-10	2.440275e+01	7.025524e+01
2.670000e-06	3.552450e-06	9.812578e-10	2.465300e+01	7.063779e+01
2.680000e-06	3.588346e-06	9.872511e-10	2.490211e+01	7.100734e+01
2.690000e-06	3.624104e-06	9.941954e-10	2.515027e+01	7.136463e+01
2.700000e-06	3.659746e-06	1.000180e-09	2.539761e+01	7.171036e+01
2.710000e-06	3.695219e-06	1.004850e-09	2.564378e+01	7.204524e+01
2.720000e-06	3.730517e-06	1.010728e-09	2.588874e+01	7.236992e+01
2.730000e-06	3.765621e-06	1.017958e-09	2.613235e+01	7.268504e+01
2.740000e-06	3.800277e-06	1.023675e-09	2.637286e+01	7.299120e+01
2.750000e-06	3.834442e-06	1.029254e-09	2.660995e+01	7.328896e+01
2.760000e-06	3.868183e-06	1.035296e-09	2.684411e+01	7.357884e+01
2.770000e-06	3.901476e-06	1.040653e-09	2.707515e+01	7.386130e+01
2.780000e-06	3.934392e-06	1.046778e-09	2.730358e+01	7.413675e+01
2.790000e-06	3.966856e-06	1.052468e-09	2.752887e+01	7.440558e+01
2.800000e-06	3.998934e-06	1.057433e-09	2.775148e+01	7.466809e+01
2.810000e-06	4.030869e-06	1.061971e-09	2.797310e+01	7.492456e+01
2.820000e-06	4.062649e-06	1.065172e-09	2.819364e+01	7.517519e+01
2.830000e-06	4.094205e-06	1.068601e-09	2.841263e+01	7.542017e+01
2.840000e-06	4.125571e-06	1.073071e-09	2.863030e+01	7.565962e+01
2.850000e-06	4.156748e-06	1.077819e-09	2.884667e+01	7.589363e+01
2.860000e-06	4.187696e-06	1.082517e-09	2.906144e+01	7.612225e+01
2.870000e-06	4.218302e-06	1.088013e-09	2.927383e+01	7.634550e+01
2.880000e-06	4.248557e-06	1.093468e-09	2.948379e+01	7.656339e+01
2.890000e-06	4.278567e-06	1.097417e-09	2.969205e+01	7.677587e+01
2.900000e-06	4.308309e-06	1.100712e-09	2.989845e+01	7.698292e+01
