# Temperatura_=_-0.02
# Concentracion g/m^3_=_1620.0
# C_Vs_to_Am_M_A/Vsm_=_65563218390.804596
# pendiente_HvsI_1/m_=_3716.3
# ordenada_HvsI_A/m_=_1297.0
# frecuencia_Hz_=_135108.64825128188

Tiempo_(s)	Campo_(V.s)	Magnetizacion_(V.s)	Campo_(kA/m)	Magnetizacion_(A/m)
0.000000e+00	-5.510615e-06	-1.139602e-09	-3.836629e+01	-7.766972e+01
1.000000e-08	-5.510670e-06	-1.140733e-09	-3.836667e+01	-7.767391e+01
2.000000e-08	-5.510381e-06	-1.144468e-09	-3.836466e+01	-7.767689e+01
3.000000e-08	-5.509681e-06	-1.147486e-09	-3.835978e+01	-7.767831e+01
4.000000e-08	-5.508539e-06	-1.147738e-09	-3.835183e+01	-7.767780e+01
5.000000e-08	-5.506849e-06	-1.141242e-09	-3.834006e+01	-7.767503e+01
6.000000e-08	-5.504496e-06	-1.130971e-09	-3.832368e+01	-7.766972e+01
7.000000e-08	-5.501582e-06	-1.134813e-09	-3.830339e+01	-7.766156e+01
8.000000e-08	-5.498219e-06	-1.164378e-09	-3.827998e+01	-7.765033e+01
9.000000e-08	-5.494415e-06	-1.170694e-09	-3.825350e+01	-7.763579e+01
1.000000e-07	-5.490191e-06	-1.126129e-09	-3.822409e+01	-7.761776e+01
1.100000e-07	-5.485757e-06	-1.104224e-09	-3.819322e+01	-7.759607e+01
1.200000e-07	-5.481198e-06	-1.124431e-09	-3.816148e+01	-7.757058e+01
1.300000e-07	-5.476207e-06	-1.163458e-09	-3.812673e+01	-7.754118e+01
1.400000e-07	-5.470768e-06	-1.147772e-09	-3.808886e+01	-7.750779e+01
1.500000e-07	-5.465041e-06	-1.134902e-09	-3.804899e+01	-7.747034e+01
1.600000e-07	-5.458950e-06	-1.162919e-09	-3.800658e+01	-7.742877e+01
1.700000e-07	-5.452343e-06	-1.163961e-09	-3.796058e+01	-7.738307e+01
1.800000e-07	-5.445303e-06	-1.145546e-09	-3.791156e+01	-7.733321e+01
1.900000e-07	-5.438022e-06	-1.130396e-09	-3.786087e+01	-7.727920e+01
2.000000e-07	-5.430487e-06	-1.147546e-09	-3.780842e+01	-7.722104e+01
2.100000e-07	-5.422621e-06	-1.155935e-09	-3.775365e+01	-7.715875e+01
2.200000e-07	-5.414506e-06	-1.158691e-09	-3.769715e+01	-7.709235e+01
2.300000e-07	-5.406130e-06	-1.159567e-09	-3.763884e+01	-7.702188e+01
2.400000e-07	-5.397260e-06	-1.168141e-09	-3.757708e+01	-7.694737e+01
2.500000e-07	-5.387638e-06	-1.171935e-09	-3.751009e+01	-7.686887e+01
2.600000e-07	-5.377250e-06	-1.163397e-09	-3.743776e+01	-7.678643e+01
2.700000e-07	-5.366319e-06	-1.144286e-09	-3.736166e+01	-7.670009e+01
2.800000e-07	-5.354942e-06	-1.150411e-09	-3.728245e+01	-7.660993e+01
2.900000e-07	-5.343215e-06	-1.161898e-09	-3.720081e+01	-7.651600e+01
3.000000e-07	-5.331169e-06	-1.153226e-09	-3.711693e+01	-7.641839e+01
3.100000e-07	-5.318658e-06	-1.142190e-09	-3.702983e+01	-7.631718e+01
3.200000e-07	-5.305686e-06	-1.156641e-09	-3.693952e+01	-7.621248e+01
3.300000e-07	-5.292403e-06	-1.170835e-09	-3.684704e+01	-7.610438e+01
3.400000e-07	-5.278854e-06	-1.150911e-09	-3.675271e+01	-7.599301e+01
3.500000e-07	-5.264886e-06	-1.141252e-09	-3.665545e+01	-7.587851e+01
3.600000e-07	-5.250449e-06	-1.163415e-09	-3.655494e+01	-7.576102e+01
3.700000e-07	-5.235611e-06	-1.160913e-09	-3.645164e+01	-7.564070e+01
3.800000e-07	-5.220161e-06	-1.127133e-09	-3.634407e+01	-7.551774e+01
3.900000e-07	-5.204090e-06	-1.130986e-09	-3.623218e+01	-7.539232e+01
4.000000e-07	-5.187696e-06	-1.150991e-09	-3.611804e+01	-7.526465e+01
4.100000e-07	-5.171044e-06	-1.126887e-09	-3.600211e+01	-7.513493e+01
4.200000e-07	-5.153935e-06	-1.109745e-09	-3.588299e+01	-7.500339e+01
4.300000e-07	-5.136494e-06	-1.143733e-09	-3.576156e+01	-7.487027e+01
4.400000e-07	-5.118822e-06	-1.140697e-09	-3.563852e+01	-7.473578e+01
4.500000e-07	-5.100697e-06	-1.104908e-09	-3.551233e+01	-7.460016e+01
4.600000e-07	-5.082068e-06	-1.115169e-09	-3.538263e+01	-7.446365e+01
4.700000e-07	-5.063075e-06	-1.135816e-09	-3.525040e+01	-7.432647e+01
4.800000e-07	-5.043762e-06	-1.106743e-09	-3.511594e+01	-7.418883e+01
4.900000e-07	-5.024148e-06	-1.104636e-09	-3.497938e+01	-7.405094e+01
5.000000e-07	-5.004356e-06	-1.130546e-09	-3.484158e+01	-7.391299e+01
5.100000e-07	-4.984358e-06	-1.115879e-09	-3.470235e+01	-7.377513e+01
5.200000e-07	-4.963972e-06	-1.097398e-09	-3.456042e+01	-7.363752e+01
5.300000e-07	-4.943146e-06	-1.122946e-09	-3.441542e+01	-7.350026e+01
5.400000e-07	-4.922045e-06	-1.112158e-09	-3.426851e+01	-7.336346e+01
5.500000e-07	-4.900649e-06	-1.077091e-09	-3.411955e+01	-7.322717e+01
5.600000e-07	-4.878861e-06	-1.091495e-09	-3.396785e+01	-7.309143e+01
5.700000e-07	-4.856688e-06	-1.107970e-09	-3.381348e+01	-7.295623e+01
5.800000e-07	-4.834122e-06	-1.081755e-09	-3.365637e+01	-7.282154e+01
5.900000e-07	-4.811256e-06	-1.080707e-09	-3.349717e+01	-7.268731e+01
6.000000e-07	-4.788109e-06	-1.096767e-09	-3.333602e+01	-7.255345e+01
6.100000e-07	-4.764725e-06	-1.076727e-09	-3.317321e+01	-7.241983e+01
6.200000e-07	-4.741160e-06	-1.065083e-09	-3.300914e+01	-7.228633e+01
6.300000e-07	-4.717379e-06	-1.083179e-09	-3.284358e+01	-7.215279e+01
6.400000e-07	-4.693361e-06	-1.078173e-09	-3.267635e+01	-7.201903e+01
6.500000e-07	-4.668994e-06	-1.064360e-09	-3.250671e+01	-7.188486e+01
6.600000e-07	-4.644253e-06	-1.078177e-09	-3.233446e+01	-7.175010e+01
6.700000e-07	-4.618994e-06	-1.080751e-09	-3.215860e+01	-7.161455e+01
6.800000e-07	-4.592951e-06	-1.066982e-09	-3.197728e+01	-7.147801e+01
6.900000e-07	-4.566347e-06	-1.068765e-09	-3.179205e+01	-7.134030e+01
7.000000e-07	-4.539408e-06	-1.070041e-09	-3.160450e+01	-7.120124e+01
7.100000e-07	-4.512066e-06	-1.052696e-09	-3.141414e+01	-7.106067e+01
7.200000e-07	-4.484469e-06	-1.049471e-09	-3.122200e+01	-7.091845e+01
7.300000e-07	-4.456745e-06	-1.055508e-09	-3.102898e+01	-7.077445e+01
7.400000e-07	-4.428827e-06	-1.047876e-09	-3.083460e+01	-7.062857e+01
7.500000e-07	-4.400691e-06	-1.040478e-09	-3.063871e+01	-7.048076e+01
7.600000e-07	-4.372296e-06	-1.045987e-09	-3.044102e+01	-7.033097e+01
7.700000e-07	-4.343553e-06	-1.040100e-09	-3.024090e+01	-7.017918e+01
7.800000e-07	-4.314487e-06	-1.030616e-09	-3.003854e+01	-7.002541e+01
7.900000e-07	-4.285074e-06	-1.030582e-09	-2.983376e+01	-6.986970e+01
8.000000e-07	-4.255335e-06	-1.027462e-09	-2.962671e+01	-6.971211e+01
8.100000e-07	-4.225350e-06	-1.015651e-09	-2.941795e+01	-6.955272e+01
8.200000e-07	-4.195099e-06	-1.016933e-09	-2.920733e+01	-6.939165e+01
8.300000e-07	-4.164623e-06	-1.022176e-09	-2.899515e+01	-6.922900e+01
8.400000e-07	-4.133863e-06	-1.016786e-09	-2.878099e+01	-6.906490e+01
8.500000e-07	-4.102741e-06	-1.016921e-09	-2.856431e+01	-6.889950e+01
8.600000e-07	-4.071367e-06	-1.022663e-09	-2.834588e+01	-6.873290e+01
8.700000e-07	-4.039846e-06	-1.015840e-09	-2.812642e+01	-6.856525e+01
8.800000e-07	-4.008144e-06	-1.004916e-09	-2.790571e+01	-6.839665e+01
8.900000e-07	-3.976212e-06	-1.001388e-09	-2.768338e+01	-6.822719e+01
9.000000e-07	-3.944049e-06	-9.951086e-10	-2.745946e+01	-6.805696e+01
9.100000e-07	-3.911623e-06	-9.882390e-10	-2.723370e+01	-6.788600e+01
9.200000e-07	-3.878785e-06	-9.920766e-10	-2.700507e+01	-6.771434e+01
9.300000e-07	-3.845472e-06	-9.948627e-10	-2.677314e+01	-6.754195e+01
9.400000e-07	-3.811731e-06	-9.894021e-10	-2.653823e+01	-6.736880e+01
9.500000e-07	-3.777518e-06	-9.843058e-10	-2.630002e+01	-6.719480e+01
9.600000e-07	-3.742888e-06	-9.779240e-10	-2.605893e+01	-6.701982e+01
9.700000e-07	-3.707957e-06	-9.659144e-10	-2.581573e+01	-6.684371e+01
9.800000e-07	-3.672763e-06	-9.558039e-10	-2.557070e+01	-6.666628e+01
9.900000e-07	-3.637353e-06	-9.551075e-10	-2.532416e+01	-6.648730e+01
1.000000e-06	-3.601755e-06	-9.537461e-10	-2.507632e+01	-6.630651e+01
1.010000e-06	-3.565997e-06	-9.516327e-10	-2.482736e+01	-6.612363e+01
1.020000e-06	-3.530115e-06	-9.544352e-10	-2.457754e+01	-6.593835e+01
1.030000e-06	-3.494041e-06	-9.534901e-10	-2.432639e+01	-6.575035e+01
1.040000e-06	-3.457742e-06	-9.461802e-10	-2.407367e+01	-6.555930e+01
1.050000e-06	-3.421203e-06	-9.415023e-10	-2.381927e+01	-6.536486e+01
1.060000e-06	-3.384320e-06	-9.398046e-10	-2.356248e+01	-6.516669e+01
1.070000e-06	-3.347145e-06	-9.378116e-10	-2.330366e+01	-6.496446e+01
1.080000e-06	-3.309759e-06	-9.375733e-10	-2.304337e+01	-6.475786e+01
1.090000e-06	-3.272190e-06	-9.377753e-10	-2.278181e+01	-6.454659e+01
1.100000e-06	-3.234395e-06	-9.306179e-10	-2.251867e+01	-6.433039e+01
1.110000e-06	-3.196335e-06	-9.231430e-10	-2.225368e+01	-6.410901e+01
1.120000e-06	-3.158106e-06	-9.188743e-10	-2.198752e+01	-6.388225e+01
1.130000e-06	-3.119683e-06	-9.136320e-10	-2.172002e+01	-6.364994e+01
1.140000e-06	-3.081002e-06	-9.072512e-10	-2.145071e+01	-6.341195e+01
1.150000e-06	-3.042078e-06	-9.049531e-10	-2.117971e+01	-6.316821e+01
1.160000e-06	-3.002974e-06	-9.033497e-10	-2.090746e+01	-6.291867e+01
1.170000e-06	-2.963678e-06	-8.989197e-10	-2.063387e+01	-6.266333e+01
1.180000e-06	-2.924225e-06	-8.941786e-10	-2.035919e+01	-6.240224e+01
1.190000e-06	-2.884679e-06	-8.886041e-10	-2.008386e+01	-6.213548e+01
1.200000e-06	-2.844964e-06	-8.794583e-10	-1.980735e+01	-6.186317e+01
1.210000e-06	-2.805090e-06	-8.708071e-10	-1.952974e+01	-6.158545e+01
1.220000e-06	-2.765108e-06	-8.667916e-10	-1.925137e+01	-6.130249e+01
1.230000e-06	-2.725004e-06	-8.652617e-10	-1.897216e+01	-6.101449e+01
1.240000e-06	-2.684681e-06	-8.647794e-10	-1.869142e+01	-6.072165e+01
1.250000e-06	-2.644111e-06	-8.668169e-10	-1.840896e+01	-6.042418e+01
1.260000e-06	-2.603381e-06	-8.659654e-10	-1.812539e+01	-6.012229e+01
1.270000e-06	-2.562491e-06	-8.596249e-10	-1.784071e+01	-5.981618e+01
1.280000e-06	-2.521331e-06	-8.521834e-10	-1.755414e+01	-5.950604e+01
1.290000e-06	-2.479803e-06	-8.443732e-10	-1.726501e+01	-5.919203e+01
1.300000e-06	-2.437921e-06	-8.356704e-10	-1.697342e+01	-5.887428e+01
1.310000e-06	-2.395762e-06	-8.291476e-10	-1.667990e+01	-5.855291e+01
1.320000e-06	-2.353257e-06	-8.262759e-10	-1.638397e+01	-5.822797e+01
1.330000e-06	-2.310424e-06	-8.247889e-10	-1.608575e+01	-5.789948e+01
1.340000e-06	-2.267407e-06	-8.243112e-10	-1.578626e+01	-5.756742e+01
1.350000e-06	-2.224219e-06	-8.214101e-10	-1.548557e+01	-5.723171e+01
1.360000e-06	-2.180856e-06	-8.145600e-10	-1.518367e+01	-5.689222e+01
1.370000e-06	-2.137352e-06	-8.049857e-10	-1.488078e+01	-5.654877e+01
1.380000e-06	-2.093732e-06	-7.956979e-10	-1.457708e+01	-5.620115e+01
1.390000e-06	-2.049994e-06	-7.863888e-10	-1.427257e+01	-5.584907e+01
1.400000e-06	-2.006155e-06	-7.790781e-10	-1.396736e+01	-5.549220e+01
1.410000e-06	-1.962274e-06	-7.750855e-10	-1.366184e+01	-5.513020e+01
1.420000e-06	-1.918309e-06	-7.724370e-10	-1.335575e+01	-5.476264e+01
1.430000e-06	-1.874230e-06	-7.685535e-10	-1.304886e+01	-5.438910e+01
1.440000e-06	-1.830119e-06	-7.637547e-10	-1.274175e+01	-5.400909e+01
1.450000e-06	-1.785926e-06	-7.561791e-10	-1.243407e+01	-5.362213e+01
1.460000e-06	-1.741585e-06	-7.457418e-10	-1.212535e+01	-5.322769e+01
1.470000e-06	-1.697089e-06	-7.344101e-10	-1.181556e+01	-5.282526e+01
1.480000e-06	-1.652461e-06	-7.262192e-10	-1.150485e+01	-5.241428e+01
1.490000e-06	-1.607730e-06	-7.207711e-10	-1.119342e+01	-5.199420e+01
1.500000e-06	-1.562795e-06	-7.161009e-10	-1.088057e+01	-5.156448e+01
1.510000e-06	-1.517705e-06	-7.125337e-10	-1.056665e+01	-5.112456e+01
1.520000e-06	-1.472622e-06	-7.090567e-10	-1.025276e+01	-5.067390e+01
1.530000e-06	-1.427455e-06	-7.025238e-10	-9.938301e+00	-5.021194e+01
1.540000e-06	-1.382129e-06	-6.924747e-10	-9.622730e+00	-4.973816e+01
1.550000e-06	-1.336778e-06	-6.823361e-10	-9.306985e+00	-4.925200e+01
1.560000e-06	-1.291372e-06	-6.725573e-10	-8.990859e+00	-4.875294e+01
1.570000e-06	-1.245796e-06	-6.647316e-10	-8.673547e+00	-4.824044e+01
1.580000e-06	-1.200129e-06	-6.599912e-10	-8.355598e+00	-4.771396e+01
1.590000e-06	-1.154397e-06	-6.565969e-10	-8.037202e+00	-4.717297e+01
1.600000e-06	-1.108572e-06	-6.506630e-10	-7.718158e+00	-4.661691e+01
1.610000e-06	-1.062656e-06	-6.419257e-10	-7.398481e+00	-4.604521e+01
1.620000e-06	-1.016678e-06	-6.322337e-10	-7.078369e+00	-4.545728e+01
1.630000e-06	-9.706800e-07	-6.217671e-10	-6.758118e+00	-4.485253e+01
1.640000e-06	-9.246859e-07	-6.125670e-10	-6.437895e+00	-4.423030e+01
1.650000e-06	-8.786178e-07	-6.043114e-10	-6.117158e+00	-4.358993e+01
1.660000e-06	-8.324720e-07	-5.948207e-10	-5.795879e+00	-4.293071e+01
1.670000e-06	-7.862259e-07	-5.858928e-10	-5.473902e+00	-4.225189e+01
1.680000e-06	-7.398386e-07	-5.748699e-10	-5.150942e+00	-4.155270e+01
1.690000e-06	-6.933170e-07	-5.600834e-10	-4.827047e+00	-4.083230e+01
1.700000e-06	-6.468433e-07	-5.444825e-10	-4.503486e+00	-4.008984e+01
1.710000e-06	-6.004576e-07	-5.299789e-10	-4.180536e+00	-3.932441e+01
1.720000e-06	-5.540145e-07	-5.174508e-10	-3.857188e+00	-3.853508e+01
1.730000e-06	-5.074864e-07	-5.067645e-10	-3.533248e+00	-3.772088e+01
1.740000e-06	-4.608679e-07	-4.958410e-10	-3.208678e+00	-3.688084e+01
1.750000e-06	-4.142460e-07	-4.819717e-10	-2.884085e+00	-3.601396e+01
1.760000e-06	-3.675838e-07	-4.655752e-10	-2.559211e+00	-3.511924e+01
1.770000e-06	-3.208328e-07	-4.513560e-10	-2.233718e+00	-3.419571e+01
1.780000e-06	-2.740720e-07	-4.385462e-10	-1.908158e+00	-3.324241e+01
1.790000e-06	-2.273662e-07	-4.252729e-10	-1.582980e+00	-3.225841e+01
1.800000e-06	-1.806389e-07	-4.114700e-10	-1.257654e+00	-3.124285e+01
1.810000e-06	-1.338110e-07	-3.960697e-10	-9.316257e-01	-3.019494e+01
1.820000e-06	-8.704305e-08	-3.804752e-10	-6.060156e-01	-2.911396e+01
1.830000e-06	-4.031648e-08	-3.644619e-10	-2.806934e-01	-2.799931e+01
1.840000e-06	6.497520e-09	-3.484820e-10	4.523737e-02	-2.685050e+01
1.850000e-06	5.328366e-08	-3.322955e-10	3.709742e-01	-2.566717e+01
1.860000e-06	9.996400e-08	-3.150384e-10	6.959745e-01	-2.444913e+01
1.870000e-06	1.466874e-07	-2.983445e-10	1.021275e+00	-2.319632e+01
1.880000e-06	1.934612e-07	-2.824232e-10	1.346925e+00	-2.190889e+01
1.890000e-06	2.401852e-07	-2.659552e-10	1.672230e+00	-2.058716e+01
1.900000e-06	2.868547e-07	-2.456030e-10	1.997155e+00	-1.923163e+01
1.910000e-06	3.334647e-07	-2.254377e-10	2.321665e+00	-1.784302e+01
1.920000e-06	3.801194e-07	-2.070634e-10	2.646486e+00	-1.642226e+01
1.930000e-06	4.267456e-07	-1.869524e-10	2.971110e+00	-1.497046e+01
1.940000e-06	4.733346e-07	-1.661459e-10	3.295474e+00	-1.348895e+01
1.950000e-06	5.198548e-07	-1.465929e-10	3.619360e+00	-1.197926e+01
1.960000e-06	5.662950e-07	-1.289923e-10	3.942688e+00	-1.044310e+01
1.970000e-06	6.127316e-07	-1.094074e-10	4.265991e+00	-8.882370e+00
1.980000e-06	6.590546e-07	-8.723266e-11	4.588503e+00	-7.299144e+00
1.990000e-06	7.053026e-07	-6.320047e-11	4.910494e+00	-5.695643e+00
2.000000e-06	7.514960e-07	-3.708569e-11	5.232104e+00	-4.074230e+00
2.010000e-06	7.976400e-07	-1.048800e-11	5.553370e+00	-2.437385e+00
2.020000e-06	8.437358e-07	1.466410e-11	5.874300e+00	-7.876856e-01
2.030000e-06	8.897470e-07	3.733089e-11	6.194642e+00	8.722130e-01
2.040000e-06	9.357580e-07	5.649553e-11	6.514982e+00	2.539604e+00
2.050000e-06	9.817636e-07	7.687207e-11	6.835284e+00	4.211751e+00
2.060000e-06	1.027719e-06	9.975112e-11	7.155236e+00	5.885912e+00
2.070000e-06	1.073580e-06	1.225082e-10	7.474536e+00	7.559367e+00
2.080000e-06	1.119350e-06	1.469264e-10	7.793197e+00	9.229434e+00
2.090000e-06	1.165071e-06	1.738416e-10	8.111519e+00	1.089350e+01
2.100000e-06	1.210664e-06	1.998175e-10	8.428946e+00	1.254903e+01
2.110000e-06	1.256145e-06	2.223293e-10	8.745597e+00	1.419360e+01
2.120000e-06	1.301583e-06	2.432146e-10	9.061948e+00	1.582492e+01
2.130000e-06	1.346965e-06	2.636919e-10	9.377909e+00	1.744083e+01
2.140000e-06	1.392232e-06	2.825457e-10	9.693066e+00	1.903930e+01
2.150000e-06	1.437393e-06	3.021241e-10	1.000749e+01	2.061851e+01
2.160000e-06	1.482459e-06	3.248211e-10	1.032125e+01	2.217676e+01
2.170000e-06	1.527355e-06	3.484682e-10	1.063383e+01	2.371258e+01
2.180000e-06	1.572184e-06	3.706014e-10	1.094594e+01	2.522463e+01
2.190000e-06	1.616849e-06	3.913336e-10	1.125691e+01	2.671177e+01
2.200000e-06	1.661311e-06	4.116543e-10	1.156646e+01	2.817305e+01
2.210000e-06	1.705675e-06	4.304407e-10	1.187534e+01	2.960767e+01
2.220000e-06	1.749934e-06	4.469250e-10	1.218348e+01	3.101500e+01
2.230000e-06	1.794113e-06	4.635625e-10	1.249106e+01	3.239458e+01
2.240000e-06	1.838187e-06	4.807640e-10	1.279792e+01	3.374607e+01
2.250000e-06	1.882193e-06	4.978822e-10	1.310430e+01	3.506928e+01
2.260000e-06	1.926128e-06	5.179073e-10	1.341019e+01	3.636412e+01
2.270000e-06	1.969963e-06	5.393431e-10	1.371537e+01	3.763062e+01
2.280000e-06	2.013743e-06	5.591189e-10	1.402018e+01	3.886888e+01
2.290000e-06	2.057482e-06	5.764985e-10	1.432471e+01	4.007911e+01
2.300000e-06	2.101124e-06	5.908902e-10	1.462856e+01	4.126153e+01
2.310000e-06	2.144691e-06	6.036191e-10	1.493187e+01	4.241643e+01
2.320000e-06	2.188202e-06	6.183845e-10	1.523481e+01	4.354412e+01
2.330000e-06	2.231616e-06	6.337277e-10	1.553707e+01	4.464495e+01
2.340000e-06	2.274894e-06	6.486650e-10	1.583838e+01	4.571925e+01
2.350000e-06	2.317870e-06	6.652763e-10	1.613759e+01	4.676735e+01
2.360000e-06	2.360571e-06	6.810687e-10	1.643489e+01	4.778958e+01
2.370000e-06	2.403049e-06	6.931246e-10	1.673063e+01	4.878625e+01
2.380000e-06	2.445184e-06	7.033298e-10	1.702398e+01	4.975764e+01
2.390000e-06	2.487044e-06	7.131032e-10	1.731542e+01	5.070401e+01
2.400000e-06	2.528573e-06	7.246285e-10	1.760456e+01	5.162558e+01
2.410000e-06	2.569691e-06	7.385016e-10	1.789084e+01	5.252258e+01
2.420000e-06	2.610467e-06	7.553238e-10	1.817472e+01	5.339517e+01
2.430000e-06	2.650998e-06	7.717107e-10	1.845691e+01	5.424352e+01
2.440000e-06	2.691401e-06	7.840854e-10	1.873821e+01	5.506779e+01
2.450000e-06	2.731646e-06	7.940191e-10	1.901841e+01	5.586811e+01
2.460000e-06	2.771655e-06	8.040973e-10	1.929696e+01	5.664463e+01
2.470000e-06	2.811518e-06	8.144652e-10	1.957449e+01	5.739748e+01
2.480000e-06	2.851311e-06	8.243663e-10	1.985154e+01	5.812683e+01
2.490000e-06	2.891001e-06	8.365648e-10	2.012787e+01	5.883286e+01
2.500000e-06	2.930522e-06	8.472294e-10	2.040303e+01	5.951577e+01
2.510000e-06	2.969850e-06	8.570135e-10	2.067684e+01	6.017581e+01
2.520000e-06	3.008996e-06	8.663186e-10	2.094938e+01	6.081327e+01
2.530000e-06	3.047942e-06	8.766732e-10	2.122053e+01	6.142847e+01
2.540000e-06	3.086672e-06	8.845290e-10	2.149019e+01	6.202180e+01
2.550000e-06	3.125191e-06	8.884785e-10	2.175836e+01	6.259370e+01
2.560000e-06	3.163524e-06	8.931867e-10	2.202525e+01	6.314466e+01
2.570000e-06	3.201612e-06	8.997419e-10	2.229043e+01	6.367523e+01
2.580000e-06	3.239435e-06	9.066181e-10	2.255376e+01	6.418602e+01
2.590000e-06	3.277046e-06	9.134919e-10	2.281561e+01	6.467768e+01
2.600000e-06	3.314433e-06	9.206659e-10	2.307592e+01	6.515091e+01
2.610000e-06	3.351628e-06	9.267540e-10	2.333488e+01	6.560647e+01
2.620000e-06	3.388623e-06	9.310273e-10	2.359244e+01	6.604514e+01
2.630000e-06	3.425302e-06	9.356373e-10	2.384781e+01	6.646773e+01
2.640000e-06	3.461709e-06	9.412177e-10	2.410129e+01	6.687507e+01
2.650000e-06	3.497879e-06	9.461227e-10	2.435311e+01	6.726801e+01
2.660000e-06	3.533871e-06	9.514450e-10	2.460370e+01	6.764741e+01
2.670000e-06	3.569747e-06	9.566748e-10	2.485348e+01	6.801408e+01
2.680000e-06	3.605463e-06	9.608930e-10	2.510213e+01	6.836887e+01
2.690000e-06	3.641032e-06	9.666772e-10	2.534978e+01	6.871257e+01
2.700000e-06	3.676445e-06	9.727660e-10	2.559633e+01	6.904594e+01
2.710000e-06	3.711716e-06	9.774587e-10	2.584190e+01	6.936969e+01
2.720000e-06	3.746695e-06	9.841888e-10	2.608543e+01	6.968449e+01
2.730000e-06	3.781313e-06	9.906394e-10	2.632645e+01	6.999096e+01
2.740000e-06	3.815576e-06	9.966484e-10	2.656500e+01	7.028964e+01
2.750000e-06	3.849297e-06	1.002992e-09	2.679977e+01	7.058102e+01
2.760000e-06	3.882418e-06	1.009232e-09	2.703037e+01	7.086552e+01
2.770000e-06	3.915089e-06	1.013413e-09	2.725783e+01	7.114347e+01
2.780000e-06	3.947439e-06	1.016834e-09	2.748306e+01	7.141517e+01
2.790000e-06	3.979513e-06	1.020298e-09	2.770637e+01	7.168082e+01
2.800000e-06	4.011376e-06	1.023174e-09	2.792821e+01	7.194058e+01
2.810000e-06	4.043104e-06	1.026748e-09	2.814911e+01	7.219453e+01
2.820000e-06	4.074704e-06	1.032949e-09	2.836911e+01	7.244273e+01
2.830000e-06	4.106118e-06	1.040428e-09	2.858783e+01	7.268517e+01
2.840000e-06	4.137196e-06	1.046863e-09	2.880420e+01	7.292180e+01
2.850000e-06	4.167928e-06	1.051234e-09	2.901816e+01	7.315255e+01
2.860000e-06	4.198380e-06	1.054378e-09	2.923018e+01	7.337734e+01
2.870000e-06	4.228510e-06	1.056408e-09	2.943995e+01	7.359605e+01
2.880000e-06	4.258342e-06	1.058678e-09	2.964765e+01	7.380857e+01
2.890000e-06	4.287952e-06	1.063445e-09	2.985380e+01	7.401480e+01
2.900000e-06	4.317362e-06	1.070022e-09	3.005856e+01	7.421464e+01
