# Temperatura_=_14.7
# Concentracion g/m^3_=_1620.0
# C_Vs_to_Am_M_A/Vsm_=_65563218390.804596
# pendiente_HvsI_1/m_=_3716.3
# ordenada_HvsI_A/m_=_1297.0
# frecuencia_Hz_=_135098.953637289

Tiempo_(s)	Campo_(V.s)	Magnetizacion_(V.s)	Campo_(kA/m)	Magnetizacion_(A/m)
0.000000e+00	-5.537683e-06	-1.542270e-09	-3.838132e+01	-1.009247e+02
1.000000e-08	-5.537863e-06	-1.542747e-09	-3.838256e+01	-1.009085e+02
2.000000e-08	-5.537757e-06	-1.541525e-09	-3.838183e+01	-1.008920e+02
3.000000e-08	-5.537298e-06	-1.537608e-09	-3.837865e+01	-1.008752e+02
4.000000e-08	-5.536400e-06	-1.531032e-09	-3.837242e+01	-1.008586e+02
5.000000e-08	-5.535004e-06	-1.523222e-09	-3.836275e+01	-1.008424e+02
6.000000e-08	-5.532948e-06	-1.515622e-09	-3.834850e+01	-1.008268e+02
7.000000e-08	-5.530126e-06	-1.506941e-09	-3.832894e+01	-1.008122e+02
8.000000e-08	-5.526743e-06	-1.508032e-09	-3.830549e+01	-1.007985e+02
9.000000e-08	-5.523013e-06	-1.561347e-09	-3.827964e+01	-1.007860e+02
1.000000e-07	-5.518917e-06	-1.624097e-09	-3.825125e+01	-1.007745e+02
1.100000e-07	-5.514455e-06	-1.560584e-09	-3.822032e+01	-1.007640e+02
1.200000e-07	-5.509918e-06	-1.451446e-09	-3.818888e+01	-1.007544e+02
1.300000e-07	-5.505211e-06	-1.456979e-09	-3.815626e+01	-1.007453e+02
1.400000e-07	-5.499923e-06	-1.566248e-09	-3.811961e+01	-1.007365e+02
1.500000e-07	-5.494142e-06	-1.568938e-09	-3.807953e+01	-1.007275e+02
1.600000e-07	-5.488131e-06	-1.470081e-09	-3.803788e+01	-1.007179e+02
1.700000e-07	-5.481762e-06	-1.480548e-09	-3.799373e+01	-1.007069e+02
1.800000e-07	-5.474879e-06	-1.578898e-09	-3.794603e+01	-1.006940e+02
1.900000e-07	-5.467620e-06	-1.608510e-09	-3.789572e+01	-1.006783e+02
2.000000e-07	-5.460102e-06	-1.516324e-09	-3.784361e+01	-1.006592e+02
2.100000e-07	-5.452308e-06	-1.506932e-09	-3.778959e+01	-1.006358e+02
2.200000e-07	-5.444325e-06	-1.563889e-09	-3.773426e+01	-1.006072e+02
2.300000e-07	-5.436076e-06	-1.598794e-09	-3.767709e+01	-1.005726e+02
2.400000e-07	-5.427250e-06	-1.543981e-09	-3.761591e+01	-1.005312e+02
2.500000e-07	-5.417690e-06	-1.536596e-09	-3.754965e+01	-1.004821e+02
2.600000e-07	-5.407363e-06	-1.555828e-09	-3.747808e+01	-1.004245e+02
2.700000e-07	-5.396473e-06	-1.559856e-09	-3.740260e+01	-1.003578e+02
2.800000e-07	-5.385182e-06	-1.523175e-09	-3.732434e+01	-1.002812e+02
2.900000e-07	-5.373506e-06	-1.520686e-09	-3.724342e+01	-1.001942e+02
3.000000e-07	-5.361533e-06	-1.541129e-09	-3.716043e+01	-1.000963e+02
3.100000e-07	-5.349203e-06	-1.538324e-09	-3.707497e+01	-9.998720e+01
3.200000e-07	-5.336359e-06	-1.525510e-09	-3.698596e+01	-9.986661e+01
3.300000e-07	-5.323042e-06	-1.518962e-09	-3.689366e+01	-9.973443e+01
3.400000e-07	-5.309346e-06	-1.541981e-09	-3.679873e+01	-9.959069e+01
3.500000e-07	-5.295304e-06	-1.535006e-09	-3.670141e+01	-9.943553e+01
3.600000e-07	-5.280814e-06	-1.517255e-09	-3.660098e+01	-9.926923e+01
3.700000e-07	-5.265916e-06	-1.514962e-09	-3.649772e+01	-9.909221e+01
3.800000e-07	-5.250577e-06	-1.534855e-09	-3.639140e+01	-9.890499e+01
3.900000e-07	-5.234553e-06	-1.496022e-09	-3.628035e+01	-9.870822e+01
4.000000e-07	-5.217957e-06	-1.477167e-09	-3.616532e+01	-9.850264e+01
4.100000e-07	-5.201110e-06	-1.516898e-09	-3.604855e+01	-9.828907e+01
4.200000e-07	-5.184035e-06	-1.527112e-09	-3.593021e+01	-9.806842e+01
4.300000e-07	-5.166601e-06	-1.461624e-09	-3.580938e+01	-9.784164e+01
4.400000e-07	-5.148857e-06	-1.489412e-09	-3.568639e+01	-9.760973e+01
4.500000e-07	-5.130716e-06	-1.536514e-09	-3.556066e+01	-9.737369e+01
4.600000e-07	-5.112088e-06	-1.479370e-09	-3.543155e+01	-9.713453e+01
4.700000e-07	-5.093087e-06	-1.424038e-09	-3.529986e+01	-9.689324e+01
4.800000e-07	-5.073819e-06	-1.492664e-09	-3.516631e+01	-9.665076e+01
4.900000e-07	-5.054253e-06	-1.493863e-09	-3.503070e+01	-9.640798e+01
5.000000e-07	-5.034450e-06	-1.439580e-09	-3.489344e+01	-9.616570e+01
5.100000e-07	-5.014476e-06	-1.468738e-09	-3.475501e+01	-9.592466e+01
5.200000e-07	-4.994190e-06	-1.498591e-09	-3.461440e+01	-9.568546e+01
5.300000e-07	-4.973415e-06	-1.433851e-09	-3.447041e+01	-9.544862e+01
5.400000e-07	-4.952291e-06	-1.433135e-09	-3.432400e+01	-9.521452e+01
5.500000e-07	-4.930948e-06	-1.476702e-09	-3.417608e+01	-9.498340e+01
5.600000e-07	-4.909266e-06	-1.429668e-09	-3.402580e+01	-9.475539e+01
5.700000e-07	-4.887221e-06	-1.393138e-09	-3.387301e+01	-9.453049e+01
5.800000e-07	-4.864843e-06	-1.448174e-09	-3.371791e+01	-9.430855e+01
5.900000e-07	-4.842112e-06	-1.449793e-09	-3.356036e+01	-9.408931e+01
6.000000e-07	-4.818998e-06	-1.401754e-09	-3.340016e+01	-9.387241e+01
6.100000e-07	-4.795516e-06	-1.423143e-09	-3.323741e+01	-9.365737e+01
6.200000e-07	-4.771829e-06	-1.435977e-09	-3.307323e+01	-9.344362e+01
6.300000e-07	-4.748029e-06	-1.395843e-09	-3.290828e+01	-9.323052e+01
6.400000e-07	-4.724023e-06	-1.392395e-09	-3.274189e+01	-9.301735e+01
6.500000e-07	-4.699606e-06	-1.418234e-09	-3.257266e+01	-9.280339e+01
6.600000e-07	-4.674723e-06	-1.394854e-09	-3.240020e+01	-9.258784e+01
6.700000e-07	-4.649432e-06	-1.386960e-09	-3.222491e+01	-9.236995e+01
6.800000e-07	-4.623451e-06	-1.406652e-09	-3.204484e+01	-9.214894e+01
6.900000e-07	-4.596782e-06	-1.401429e-09	-3.186000e+01	-9.192408e+01
7.000000e-07	-4.569746e-06	-1.377600e-09	-3.167261e+01	-9.169467e+01
7.100000e-07	-4.542450e-06	-1.382527e-09	-3.148342e+01	-9.146009e+01
7.200000e-07	-4.514867e-06	-1.375347e-09	-3.129224e+01	-9.121978e+01
7.300000e-07	-4.487039e-06	-1.361066e-09	-3.109938e+01	-9.097328e+01
7.400000e-07	-4.459063e-06	-1.359762e-09	-3.090547e+01	-9.072020e+01
7.500000e-07	-4.430828e-06	-1.368595e-09	-3.070978e+01	-9.046028e+01
7.600000e-07	-4.402312e-06	-1.360418e-09	-3.051214e+01	-9.019336e+01
7.700000e-07	-4.373507e-06	-1.358000e-09	-3.031249e+01	-8.991937e+01
7.800000e-07	-4.344307e-06	-1.353010e-09	-3.011011e+01	-8.963837e+01
7.900000e-07	-4.314811e-06	-1.341381e-09	-2.990567e+01	-8.935051e+01
8.000000e-07	-4.285058e-06	-1.332376e-09	-2.969946e+01	-8.905604e+01
8.100000e-07	-4.255008e-06	-1.333764e-09	-2.949118e+01	-8.875529e+01
8.200000e-07	-4.224718e-06	-1.326834e-09	-2.928124e+01	-8.844869e+01
8.300000e-07	-4.194135e-06	-1.321281e-09	-2.906927e+01	-8.813671e+01
8.400000e-07	-4.163283e-06	-1.322634e-09	-2.885544e+01	-8.781988e+01
8.500000e-07	-4.132125e-06	-1.317455e-09	-2.863949e+01	-8.749878e+01
8.600000e-07	-4.100694e-06	-1.302903e-09	-2.842164e+01	-8.717399e+01
8.700000e-07	-4.069075e-06	-1.294501e-09	-2.820249e+01	-8.684611e+01
8.800000e-07	-4.037318e-06	-1.289612e-09	-2.798238e+01	-8.651571e+01
8.900000e-07	-4.005417e-06	-1.280307e-09	-2.776128e+01	-8.618336e+01
9.000000e-07	-3.973248e-06	-1.278499e-09	-2.753832e+01	-8.584955e+01
9.100000e-07	-3.940751e-06	-1.278410e-09	-2.731309e+01	-8.551476e+01
9.200000e-07	-3.907902e-06	-1.271260e-09	-2.708541e+01	-8.517935e+01
9.300000e-07	-3.874696e-06	-1.263049e-09	-2.685527e+01	-8.484365e+01
9.400000e-07	-3.841011e-06	-1.262900e-09	-2.662179e+01	-8.450788e+01
9.500000e-07	-3.806827e-06	-1.256909e-09	-2.638487e+01	-8.417216e+01
9.600000e-07	-3.772209e-06	-1.247380e-09	-2.614493e+01	-8.383653e+01
9.700000e-07	-3.737212e-06	-1.239982e-09	-2.590237e+01	-8.350093e+01
9.800000e-07	-3.701929e-06	-1.234889e-09	-2.565782e+01	-8.316520e+01
9.900000e-07	-3.666366e-06	-1.222021e-09	-2.541134e+01	-8.282908e+01
1.000000e-06	-3.630636e-06	-1.215856e-09	-2.516370e+01	-8.249223e+01
1.010000e-06	-3.594780e-06	-1.212968e-09	-2.491518e+01	-8.215424e+01
1.020000e-06	-3.558742e-06	-1.208212e-09	-2.466541e+01	-8.181462e+01
1.030000e-06	-3.522549e-06	-1.200832e-09	-2.441456e+01	-8.147282e+01
1.040000e-06	-3.486199e-06	-1.198903e-09	-2.416262e+01	-8.112826e+01
1.050000e-06	-3.449592e-06	-1.191018e-09	-2.390890e+01	-8.078031e+01
1.060000e-06	-3.412637e-06	-1.180432e-09	-2.365276e+01	-8.042834e+01
1.070000e-06	-3.375406e-06	-1.173476e-09	-2.339471e+01	-8.007171e+01
1.080000e-06	-3.337956e-06	-1.168434e-09	-2.313515e+01	-7.970978e+01
1.090000e-06	-3.300275e-06	-1.160578e-09	-2.287399e+01	-7.934196e+01
1.100000e-06	-3.262352e-06	-1.155594e-09	-2.261115e+01	-7.896768e+01
1.110000e-06	-3.224252e-06	-1.151824e-09	-2.234708e+01	-7.858643e+01
1.120000e-06	-3.185951e-06	-1.146077e-09	-2.208162e+01	-7.819777e+01
1.130000e-06	-3.147369e-06	-1.138218e-09	-2.181421e+01	-7.780132e+01
1.140000e-06	-3.108535e-06	-1.131652e-09	-2.154505e+01	-7.739677e+01
1.150000e-06	-3.069459e-06	-1.121528e-09	-2.127422e+01	-7.698391e+01
1.160000e-06	-3.030182e-06	-1.109561e-09	-2.100199e+01	-7.656261e+01
1.170000e-06	-2.990800e-06	-1.101394e-09	-2.072904e+01	-7.613282e+01
1.180000e-06	-2.951245e-06	-1.094842e-09	-2.045488e+01	-7.569458e+01
1.190000e-06	-2.911576e-06	-1.088678e-09	-2.017994e+01	-7.524802e+01
1.200000e-06	-2.871896e-06	-1.081478e-09	-1.990492e+01	-7.479331e+01
1.210000e-06	-2.832060e-06	-1.074477e-09	-1.962882e+01	-7.433074e+01
1.220000e-06	-2.791988e-06	-1.065632e-09	-1.935108e+01	-7.386061e+01
1.230000e-06	-2.751767e-06	-1.058472e-09	-1.907232e+01	-7.338330e+01
1.240000e-06	-2.711449e-06	-1.051436e-09	-1.879287e+01	-7.289921e+01
1.250000e-06	-2.670796e-06	-1.046762e-09	-1.851111e+01	-7.240876e+01
1.260000e-06	-2.629706e-06	-1.040277e-09	-1.822632e+01	-7.191240e+01
1.270000e-06	-2.588456e-06	-1.033627e-09	-1.794042e+01	-7.141055e+01
1.280000e-06	-2.547025e-06	-1.027093e-09	-1.765326e+01	-7.090363e+01
1.290000e-06	-2.505209e-06	-1.019832e-09	-1.736344e+01	-7.039204e+01
1.300000e-06	-2.463075e-06	-1.008695e-09	-1.707141e+01	-6.987612e+01
1.310000e-06	-2.420635e-06	-9.978954e-10	-1.677726e+01	-6.935618e+01
1.320000e-06	-2.377911e-06	-9.884652e-10	-1.648115e+01	-6.883245e+01
1.330000e-06	-2.334933e-06	-9.807746e-10	-1.618327e+01	-6.830510e+01
1.340000e-06	-2.291795e-06	-9.746584e-10	-1.588428e+01	-6.777424e+01
1.350000e-06	-2.248506e-06	-9.672922e-10	-1.558425e+01	-6.723989e+01
1.360000e-06	-2.205016e-06	-9.559016e-10	-1.528282e+01	-6.670199e+01
1.370000e-06	-2.161391e-06	-9.456511e-10	-1.498046e+01	-6.616040e+01
1.380000e-06	-2.117653e-06	-9.350012e-10	-1.467732e+01	-6.561491e+01
1.390000e-06	-2.073803e-06	-9.234464e-10	-1.437339e+01	-6.506522e+01
1.400000e-06	-2.029869e-06	-9.147930e-10	-1.406889e+01	-6.451097e+01
1.410000e-06	-1.985848e-06	-9.088177e-10	-1.376378e+01	-6.395172e+01
1.420000e-06	-1.941714e-06	-9.008300e-10	-1.345790e+01	-6.338701e+01
1.430000e-06	-1.897522e-06	-8.925505e-10	-1.315160e+01	-6.281627e+01
1.440000e-06	-1.853188e-06	-8.865771e-10	-1.284433e+01	-6.223894e+01
1.450000e-06	-1.808742e-06	-8.780348e-10	-1.253627e+01	-6.165440e+01
1.460000e-06	-1.764288e-06	-8.655176e-10	-1.222817e+01	-6.106201e+01
1.470000e-06	-1.719701e-06	-8.533948e-10	-1.191913e+01	-6.046113e+01
1.480000e-06	-1.674957e-06	-8.454717e-10	-1.160901e+01	-5.985108e+01
1.490000e-06	-1.630031e-06	-8.369819e-10	-1.129764e+01	-5.923123e+01
1.500000e-06	-1.584924e-06	-8.271083e-10	-1.098501e+01	-5.860091e+01
1.510000e-06	-1.539735e-06	-8.175560e-10	-1.067180e+01	-5.795948e+01
1.520000e-06	-1.494479e-06	-8.090562e-10	-1.035813e+01	-5.730632e+01
1.530000e-06	-1.449103e-06	-8.022317e-10	-1.004363e+01	-5.664083e+01
1.540000e-06	-1.403551e-06	-7.943266e-10	-9.727919e+00	-5.596241e+01
1.550000e-06	-1.357976e-06	-7.827813e-10	-9.412041e+00	-5.527050e+01
1.560000e-06	-1.312400e-06	-7.694131e-10	-9.096156e+00	-5.456455e+01
1.570000e-06	-1.266710e-06	-7.552778e-10	-8.779487e+00	-5.384400e+01
1.580000e-06	-1.220891e-06	-7.414759e-10	-8.461916e+00	-5.310833e+01
1.590000e-06	-1.174952e-06	-7.315863e-10	-8.143514e+00	-5.235698e+01
1.600000e-06	-1.128950e-06	-7.242364e-10	-7.824676e+00	-5.158943e+01
1.610000e-06	-1.082856e-06	-7.131072e-10	-7.505206e+00	-5.080511e+01
1.620000e-06	-1.036729e-06	-6.999445e-10	-7.185502e+00	-5.000343e+01
1.630000e-06	-9.905870e-07	-6.872941e-10	-6.865693e+00	-4.918379e+01
1.640000e-06	-9.443339e-07	-6.745259e-10	-6.545116e+00	-4.834551e+01
1.650000e-06	-8.979965e-07	-6.600757e-10	-6.223954e+00	-4.748791e+01
1.660000e-06	-8.515861e-07	-6.449747e-10	-5.902287e+00	-4.661022e+01
1.670000e-06	-8.051454e-07	-6.291814e-10	-5.580410e+00	-4.571163e+01
1.680000e-06	-7.586315e-07	-6.139780e-10	-5.258025e+00	-4.479126e+01
1.690000e-06	-7.120177e-07	-5.990749e-10	-4.934948e+00	-4.384818e+01
1.700000e-06	-6.653643e-07	-5.835983e-10	-4.611596e+00	-4.288139e+01
1.710000e-06	-6.187233e-07	-5.693007e-10	-4.288331e+00	-4.188982e+01
1.720000e-06	-5.721201e-07	-5.574209e-10	-3.965327e+00	-4.087236e+01
1.730000e-06	-5.253973e-07	-5.425719e-10	-3.641494e+00	-3.982786e+01
1.740000e-06	-4.785982e-07	-5.235674e-10	-3.317133e+00	-3.875510e+01
1.750000e-06	-4.317708e-07	-5.028199e-10	-2.992575e+00	-3.765287e+01
1.760000e-06	-3.847935e-07	-4.820153e-10	-2.666979e+00	-3.651995e+01
1.770000e-06	-3.377749e-07	-4.623899e-10	-2.341096e+00	-3.535510e+01
1.780000e-06	-2.907844e-07	-4.439036e-10	-2.015408e+00	-3.415713e+01
1.790000e-06	-2.437433e-07	-4.275028e-10	-1.689369e+00	-3.292490e+01
1.800000e-06	-1.967004e-07	-4.105870e-10	-1.363318e+00	-3.165733e+01
1.810000e-06	-1.496562e-07	-3.919286e-10	-1.037257e+00	-3.035342e+01
1.820000e-06	-1.026691e-07	-3.730625e-10	-7.115929e-01	-2.901231e+01
1.830000e-06	-5.575330e-08	-3.535984e-10	-3.864225e-01	-2.763325e+01
1.840000e-06	-8.764530e-09	-3.324310e-10	-6.074639e-02	-2.621566e+01
1.850000e-06	3.825956e-08	-3.104579e-10	2.651745e-01	-2.475915e+01
1.860000e-06	8.524458e-08	-2.876356e-10	5.908246e-01	-2.326350e+01
1.870000e-06	1.322071e-07	-2.646399e-10	9.163186e-01	-2.172874e+01
1.880000e-06	1.791863e-07	-2.426660e-10	1.241929e+00	-2.015512e+01
1.890000e-06	2.262291e-07	-2.221556e-10	1.567979e+00	-1.854313e+01
1.900000e-06	2.732761e-07	-1.989261e-10	1.894059e+00	-1.689351e+01
1.910000e-06	3.201956e-07	-1.743945e-10	2.219255e+00	-1.520727e+01
1.920000e-06	3.670411e-07	-1.509373e-10	2.543938e+00	-1.348569e+01
1.930000e-06	4.139151e-07	-1.264103e-10	2.868818e+00	-1.173031e+01
1.940000e-06	4.608323e-07	-9.989524e-11	3.193999e+00	-9.942918e+00
1.950000e-06	5.076432e-07	-7.306966e-11	3.518441e+00	-8.125562e+00
1.960000e-06	5.543763e-07	-4.960988e-11	3.842346e+00	-6.280526e+00
1.970000e-06	6.010610e-07	-2.755710e-11	4.165914e+00	-4.410319e+00
1.980000e-06	6.476366e-07	-4.481151e-12	4.488727e+00	-2.517649e+00
1.990000e-06	6.942251e-07	2.063085e-11	4.811629e+00	-6.054102e-01
2.000000e-06	7.407531e-07	4.929596e-11	5.134111e+00	1.323349e+00
2.010000e-06	7.871617e-07	8.190366e-11	5.455766e+00	3.265450e+00
2.020000e-06	8.334752e-07	1.139549e-10	5.776762e+00	5.217613e+00
2.030000e-06	8.797644e-07	1.410119e-10	6.097589e+00	7.176491e+00
2.040000e-06	9.260317e-07	1.645355e-10	6.418265e+00	9.138695e+00
2.050000e-06	9.722135e-07	1.875155e-10	6.738348e+00	1.110083e+01
2.060000e-06	1.018339e-06	2.108123e-10	7.058041e+00	1.305954e+01
2.070000e-06	1.064422e-06	2.352211e-10	7.377442e+00	1.501149e+01
2.080000e-06	1.110366e-06	2.656603e-10	7.695877e+00	1.695348e+01
2.090000e-06	1.156179e-06	2.994622e-10	8.013403e+00	1.888238e+01
2.100000e-06	1.201964e-06	3.303206e-10	8.330731e+00	2.079524e+01
2.110000e-06	1.247742e-06	3.580642e-10	8.648015e+00	2.268925e+01
2.120000e-06	1.293454e-06	3.816678e-10	8.964846e+00	2.456178e+01
2.130000e-06	1.339051e-06	4.009908e-10	9.280876e+00	2.641044e+01
2.140000e-06	1.384578e-06	4.191911e-10	9.596417e+00	2.823303e+01
2.150000e-06	1.430001e-06	4.413205e-10	9.911245e+00	3.002758e+01
2.160000e-06	1.475257e-06	4.697258e-10	1.022491e+01	3.179237e+01
2.170000e-06	1.520343e-06	5.000639e-10	1.053740e+01	3.352592e+01
2.180000e-06	1.565341e-06	5.279760e-10	1.084928e+01	3.522699e+01
2.190000e-06	1.610242e-06	5.529511e-10	1.116048e+01	3.689457e+01
2.200000e-06	1.655096e-06	5.732025e-10	1.147136e+01	3.852791e+01
2.210000e-06	1.699859e-06	5.875909e-10	1.178161e+01	4.012645e+01
2.220000e-06	1.744373e-06	6.006845e-10	1.209013e+01	4.168987e+01
2.230000e-06	1.788763e-06	6.182754e-10	1.239780e+01	4.321803e+01
2.240000e-06	1.833114e-06	6.399374e-10	1.270519e+01	4.471099e+01
2.250000e-06	1.877240e-06	6.637354e-10	1.301103e+01	4.616896e+01
2.260000e-06	1.921143e-06	6.904679e-10	1.331531e+01	4.759230e+01
2.270000e-06	1.964986e-06	7.157226e-10	1.361919e+01	4.898149e+01
2.280000e-06	2.008841e-06	7.380829e-10	1.392314e+01	5.033713e+01
2.290000e-06	2.052702e-06	7.545414e-10	1.422714e+01	5.165989e+01
2.300000e-06	2.096501e-06	7.668793e-10	1.453071e+01	5.295052e+01
2.310000e-06	2.140227e-06	7.776439e-10	1.483377e+01	5.420982e+01
2.320000e-06	2.183893e-06	7.902510e-10	1.513642e+01	5.543859e+01
2.330000e-06	2.227516e-06	8.082404e-10	1.543876e+01	5.663769e+01
2.340000e-06	2.270994e-06	8.278616e-10	1.574011e+01	5.780794e+01
2.350000e-06	2.314251e-06	8.502563e-10	1.603992e+01	5.895016e+01
2.360000e-06	2.357323e-06	8.698667e-10	1.633845e+01	6.006517e+01
2.370000e-06	2.400174e-06	8.854167e-10	1.663545e+01	6.115372e+01
2.380000e-06	2.442687e-06	8.959130e-10	1.693010e+01	6.221655e+01
2.390000e-06	2.484860e-06	9.048016e-10	1.722240e+01	6.325434e+01
2.400000e-06	2.526676e-06	9.175226e-10	1.751223e+01	6.426772e+01
2.410000e-06	2.568115e-06	9.320415e-10	1.779944e+01	6.525730e+01
2.420000e-06	2.609217e-06	9.495938e-10	1.808431e+01	6.622362e+01
2.430000e-06	2.650007e-06	9.658847e-10	1.836703e+01	6.716718e+01
2.440000e-06	2.690508e-06	9.813458e-10	1.864773e+01	6.808845e+01
2.450000e-06	2.730882e-06	9.941371e-10	1.892757e+01	6.898785e+01
2.460000e-06	2.771140e-06	1.004637e-09	1.920659e+01	6.986579e+01
2.470000e-06	2.811196e-06	1.014407e-09	1.948421e+01	7.072265e+01
2.480000e-06	2.851138e-06	1.025049e-09	1.976105e+01	7.155877e+01
2.490000e-06	2.890974e-06	1.037667e-09	2.003715e+01	7.237451e+01
2.500000e-06	2.930679e-06	1.049424e-09	2.031234e+01	7.317021e+01
2.510000e-06	2.970293e-06	1.062646e-09	2.058691e+01	7.394621e+01
2.520000e-06	3.009750e-06	1.076323e-09	2.086038e+01	7.470285e+01
2.530000e-06	3.048983e-06	1.088694e-09	2.113230e+01	7.544050e+01
2.540000e-06	3.087951e-06	1.098860e-09	2.140239e+01	7.615951e+01
2.550000e-06	3.126631e-06	1.105114e-09	2.167047e+01	7.686027e+01
2.560000e-06	3.165081e-06	1.110828e-09	2.193697e+01	7.754318e+01
2.570000e-06	3.203261e-06	1.117542e-09	2.220159e+01	7.820865e+01
2.580000e-06	3.241282e-06	1.126205e-09	2.246511e+01	7.885711e+01
2.590000e-06	3.279132e-06	1.138901e-09	2.272745e+01	7.948899e+01
2.600000e-06	3.316781e-06	1.151389e-09	2.298839e+01	8.010474e+01
2.610000e-06	3.354253e-06	1.162969e-09	2.324811e+01	8.070483e+01
2.620000e-06	3.391479e-06	1.170267e-09	2.350612e+01	8.128971e+01
2.630000e-06	3.428499e-06	1.173698e-09	2.376270e+01	8.185983e+01
2.640000e-06	3.465254e-06	1.176413e-09	2.401745e+01	8.241566e+01
2.650000e-06	3.501679e-06	1.180269e-09	2.426991e+01	8.295763e+01
2.660000e-06	3.537852e-06	1.186195e-09	2.452062e+01	8.348616e+01
2.670000e-06	3.573854e-06	1.194649e-09	2.477015e+01	8.400166e+01
2.680000e-06	3.609728e-06	1.205213e-09	2.501879e+01	8.450453e+01
2.690000e-06	3.645445e-06	1.216212e-09	2.526634e+01	8.499510e+01
2.700000e-06	3.681057e-06	1.224238e-09	2.551316e+01	8.547371e+01
2.710000e-06	3.716583e-06	1.230104e-09	2.575939e+01	8.594066e+01
2.720000e-06	3.751873e-06	1.237071e-09	2.600399e+01	8.639621e+01
2.730000e-06	3.786899e-06	1.241069e-09	2.624675e+01	8.684059e+01
2.740000e-06	3.821500e-06	1.244780e-09	2.648657e+01	8.727402e+01
2.750000e-06	3.855477e-06	1.249967e-09	2.672206e+01	8.769667e+01
2.760000e-06	3.888948e-06	1.256375e-09	2.695405e+01	8.810869e+01
2.770000e-06	3.922004e-06	1.263867e-09	2.718315e+01	8.851022e+01
2.780000e-06	3.954581e-06	1.273460e-09	2.740894e+01	8.890137e+01
2.790000e-06	3.986764e-06	1.281730e-09	2.763200e+01	8.928225e+01
2.800000e-06	4.018727e-06	1.286239e-09	2.785353e+01	8.965296e+01
2.810000e-06	4.050544e-06	1.289279e-09	2.807406e+01	9.001360e+01
2.820000e-06	4.082273e-06	1.292385e-09	2.829397e+01	9.036427e+01
2.830000e-06	4.113873e-06	1.297250e-09	2.851298e+01	9.070509e+01
2.840000e-06	4.145229e-06	1.302693e-09	2.873031e+01	9.103619e+01
2.850000e-06	4.176243e-06	1.310973e-09	2.894527e+01	9.135773e+01
2.860000e-06	4.206951e-06	1.322839e-09	2.915810e+01	9.166988e+01
2.870000e-06	4.237318e-06	1.333404e-09	2.936857e+01	9.197286e+01
2.880000e-06	4.267350e-06	1.339535e-09	2.957672e+01	9.226690e+01
2.890000e-06	4.297152e-06	1.342437e-09	2.978328e+01	9.255227e+01
2.900000e-06	4.326701e-06	1.344681e-09	2.998808e+01	9.282927e+01
