# Temperatura_=_7.8
# Concentracion g/m^3_=_1620.0
# C_Vs_to_Am_M_A/Vsm_=_65563218390.804596
# pendiente_HvsI_1/m_=_3716.3
# ordenada_HvsI_A/m_=_1297.0
# frecuencia_Hz_=_135105.4959404074

Tiempo_(s)	Campo_(V.s)	Magnetizacion_(V.s)	Campo_(kA/m)	Magnetizacion_(A/m)
0.000000e+00	-5.513702e-06	-1.369609e-09	-3.836110e+01	-9.082938e+01
1.000000e-08	-5.514017e-06	-1.367637e-09	-3.836330e+01	-9.079508e+01
2.000000e-08	-5.514125e-06	-1.366890e-09	-3.836405e+01	-9.076213e+01
3.000000e-08	-5.513951e-06	-1.366824e-09	-3.836284e+01	-9.073087e+01
4.000000e-08	-5.513344e-06	-1.365993e-09	-3.835862e+01	-9.070161e+01
5.000000e-08	-5.512073e-06	-1.362443e-09	-3.834977e+01	-9.067464e+01
6.000000e-08	-5.510126e-06	-1.354025e-09	-3.833623e+01	-9.065015e+01
7.000000e-08	-5.507642e-06	-1.344351e-09	-3.831894e+01	-9.062833e+01
8.000000e-08	-5.504590e-06	-1.346389e-09	-3.829771e+01	-9.060924e+01
9.000000e-08	-5.501079e-06	-1.357984e-09	-3.827328e+01	-9.059291e+01
1.000000e-07	-5.497135e-06	-1.381736e-09	-3.824584e+01	-9.057925e+01
1.100000e-07	-5.492889e-06	-1.405062e-09	-3.821630e+01	-9.056812e+01
1.200000e-07	-5.488455e-06	-1.358466e-09	-3.818545e+01	-9.055925e+01
1.300000e-07	-5.483795e-06	-1.305015e-09	-3.815303e+01	-9.055229e+01
1.400000e-07	-5.478856e-06	-1.328600e-09	-3.811867e+01	-9.054682e+01
1.500000e-07	-5.473479e-06	-1.372570e-09	-3.808126e+01	-9.054229e+01
1.600000e-07	-5.467701e-06	-1.374627e-09	-3.804106e+01	-9.053811e+01
1.700000e-07	-5.461583e-06	-1.321667e-09	-3.799849e+01	-9.053359e+01
1.800000e-07	-5.455031e-06	-1.365618e-09	-3.795291e+01	-9.052797e+01
1.900000e-07	-5.448003e-06	-1.424442e-09	-3.790401e+01	-9.052044e+01
2.000000e-07	-5.440594e-06	-1.415805e-09	-3.785246e+01	-9.051015e+01
2.100000e-07	-5.432950e-06	-1.332692e-09	-3.779928e+01	-9.049620e+01
2.200000e-07	-5.425089e-06	-1.336794e-09	-3.774459e+01	-9.047771e+01
2.300000e-07	-5.416954e-06	-1.388568e-09	-3.768799e+01	-9.045375e+01
2.400000e-07	-5.408492e-06	-1.415204e-09	-3.762911e+01	-9.042345e+01
2.500000e-07	-5.399432e-06	-1.386159e-09	-3.756608e+01	-9.038593e+01
2.600000e-07	-5.389614e-06	-1.383916e-09	-3.749777e+01	-9.034040e+01
2.700000e-07	-5.379062e-06	-1.386019e-09	-3.742436e+01	-9.028609e+01
2.800000e-07	-5.367968e-06	-1.360706e-09	-3.734717e+01	-9.022233e+01
2.900000e-07	-5.356499e-06	-1.342888e-09	-3.726738e+01	-9.014854e+01
3.000000e-07	-5.344658e-06	-1.347496e-09	-3.718499e+01	-9.006421e+01
3.100000e-07	-5.332509e-06	-1.367746e-09	-3.710047e+01	-8.996897e+01
3.200000e-07	-5.319976e-06	-1.363685e-09	-3.701328e+01	-8.986257e+01
3.300000e-07	-5.307005e-06	-1.375146e-09	-3.692303e+01	-8.974486e+01
3.400000e-07	-5.293655e-06	-1.363429e-09	-3.683015e+01	-8.961584e+01
3.500000e-07	-5.279962e-06	-1.367792e-09	-3.673488e+01	-8.947562e+01
3.600000e-07	-5.265882e-06	-1.351932e-09	-3.663692e+01	-8.932445e+01
3.700000e-07	-5.251353e-06	-1.341491e-09	-3.653583e+01	-8.916270e+01
3.800000e-07	-5.236290e-06	-1.330736e-09	-3.643103e+01	-8.899085e+01
3.900000e-07	-5.220623e-06	-1.359674e-09	-3.632203e+01	-8.880951e+01
4.000000e-07	-5.204382e-06	-1.346705e-09	-3.620904e+01	-8.861937e+01
4.100000e-07	-5.187768e-06	-1.330458e-09	-3.609345e+01	-8.842121e+01
4.200000e-07	-5.170966e-06	-1.346741e-09	-3.597655e+01	-8.821589e+01
4.300000e-07	-5.153841e-06	-1.361673e-09	-3.585740e+01	-8.800434e+01
4.400000e-07	-5.136294e-06	-1.312981e-09	-3.573532e+01	-8.778751e+01
4.500000e-07	-5.118394e-06	-1.317127e-09	-3.561079e+01	-8.756640e+01
4.600000e-07	-5.100109e-06	-1.354622e-09	-3.548357e+01	-8.734201e+01
4.700000e-07	-5.081343e-06	-1.319128e-09	-3.535301e+01	-8.711532e+01
4.800000e-07	-5.062203e-06	-1.274690e-09	-3.521984e+01	-8.688733e+01
4.900000e-07	-5.042850e-06	-1.328221e-09	-3.508519e+01	-8.665895e+01
5.000000e-07	-5.023285e-06	-1.342229e-09	-3.494907e+01	-8.643107e+01
5.100000e-07	-5.003482e-06	-1.291570e-09	-3.481129e+01	-8.620451e+01
5.200000e-07	-4.983451e-06	-1.306742e-09	-3.467193e+01	-8.598001e+01
5.300000e-07	-4.963136e-06	-1.336907e-09	-3.453059e+01	-8.575820e+01
5.400000e-07	-4.942442e-06	-1.292739e-09	-3.438661e+01	-8.553965e+01
5.500000e-07	-4.921403e-06	-1.284860e-09	-3.424023e+01	-8.532480e+01
5.600000e-07	-4.899998e-06	-1.322310e-09	-3.409131e+01	-8.511398e+01
5.700000e-07	-4.878223e-06	-1.287051e-09	-3.393981e+01	-8.490744e+01
5.800000e-07	-4.856126e-06	-1.257736e-09	-3.378608e+01	-8.470529e+01
5.900000e-07	-4.833603e-06	-1.298994e-09	-3.362938e+01	-8.450754e+01
6.000000e-07	-4.810757e-06	-1.304681e-09	-3.347043e+01	-8.431410e+01
6.100000e-07	-4.787725e-06	-1.263991e-09	-3.331018e+01	-8.412479e+01
6.200000e-07	-4.764377e-06	-1.279159e-09	-3.314774e+01	-8.393932e+01
6.300000e-07	-4.740771e-06	-1.287090e-09	-3.298350e+01	-8.375735e+01
6.400000e-07	-4.716989e-06	-1.258436e-09	-3.281804e+01	-8.357844e+01
6.500000e-07	-4.692932e-06	-1.256512e-09	-3.265067e+01	-8.340210e+01
6.600000e-07	-4.668413e-06	-1.275335e-09	-3.248008e+01	-8.322780e+01
6.700000e-07	-4.643315e-06	-1.254413e-09	-3.230546e+01	-8.305497e+01
6.800000e-07	-4.617692e-06	-1.250090e-09	-3.212720e+01	-8.288302e+01
6.900000e-07	-4.591568e-06	-1.257864e-09	-3.194544e+01	-8.271135e+01
7.000000e-07	-4.564928e-06	-1.249488e-09	-3.176009e+01	-8.253934e+01
7.100000e-07	-4.537853e-06	-1.237453e-09	-3.157172e+01	-8.236642e+01
7.200000e-07	-4.510462e-06	-1.241148e-09	-3.138115e+01	-8.219201e+01
7.300000e-07	-4.482845e-06	-1.230007e-09	-3.118900e+01	-8.201557e+01
7.400000e-07	-4.455103e-06	-1.225241e-09	-3.099599e+01	-8.183662e+01
7.500000e-07	-4.427210e-06	-1.230822e-09	-3.080193e+01	-8.165468e+01
7.600000e-07	-4.399054e-06	-1.229245e-09	-3.060604e+01	-8.146936e+01
7.700000e-07	-4.370594e-06	-1.219704e-09	-3.040803e+01	-8.128031e+01
7.800000e-07	-4.341809e-06	-1.218894e-09	-3.020776e+01	-8.108722e+01
7.900000e-07	-4.312667e-06	-1.211247e-09	-3.000501e+01	-8.088985e+01
8.000000e-07	-4.283163e-06	-1.201873e-09	-2.979974e+01	-8.068801e+01
8.100000e-07	-4.253363e-06	-1.201795e-09	-2.959241e+01	-8.048155e+01
8.200000e-07	-4.223294e-06	-1.200010e-09	-2.938321e+01	-8.027038e+01
8.300000e-07	-4.192917e-06	-1.192203e-09	-2.917185e+01	-8.005445e+01
8.400000e-07	-4.162242e-06	-1.192830e-09	-2.895844e+01	-7.983374e+01
8.500000e-07	-4.131386e-06	-1.195507e-09	-2.874376e+01	-7.960826e+01
8.600000e-07	-4.100309e-06	-1.189476e-09	-2.852754e+01	-7.937804e+01
8.700000e-07	-4.068922e-06	-1.185148e-09	-2.830917e+01	-7.914314e+01
8.800000e-07	-4.037349e-06	-1.180010e-09	-2.808950e+01	-7.890362e+01
8.900000e-07	-4.005670e-06	-1.172613e-09	-2.786910e+01	-7.865955e+01
9.000000e-07	-3.973822e-06	-1.162252e-09	-2.764752e+01	-7.841098e+01
9.100000e-07	-3.941690e-06	-1.160596e-09	-2.742396e+01	-7.815798e+01
9.200000e-07	-3.909208e-06	-1.158813e-09	-2.719797e+01	-7.790058e+01
9.300000e-07	-3.876268e-06	-1.155059e-09	-2.696880e+01	-7.763881e+01
9.400000e-07	-3.842851e-06	-1.152711e-09	-2.673630e+01	-7.737268e+01
9.500000e-07	-3.809008e-06	-1.153689e-09	-2.650084e+01	-7.710217e+01
9.600000e-07	-3.774681e-06	-1.143822e-09	-2.626202e+01	-7.682725e+01
9.700000e-07	-3.739928e-06	-1.130630e-09	-2.602022e+01	-7.654787e+01
9.800000e-07	-3.704869e-06	-1.119280e-09	-2.577631e+01	-7.626394e+01
9.900000e-07	-3.669568e-06	-1.112842e-09	-2.553070e+01	-7.597538e+01
1.000000e-06	-3.634052e-06	-1.106446e-09	-2.528360e+01	-7.568209e+01
1.010000e-06	-3.598361e-06	-1.106841e-09	-2.503529e+01	-7.538393e+01
1.020000e-06	-3.562526e-06	-1.107990e-09	-2.478597e+01	-7.508081e+01
1.030000e-06	-3.526573e-06	-1.106262e-09	-2.453583e+01	-7.477260e+01
1.040000e-06	-3.490551e-06	-1.100453e-09	-2.428521e+01	-7.445918e+01
1.050000e-06	-3.454368e-06	-1.094002e-09	-2.403347e+01	-7.414045e+01
1.060000e-06	-3.417832e-06	-1.083138e-09	-2.377927e+01	-7.381633e+01
1.070000e-06	-3.380962e-06	-1.073615e-09	-2.352275e+01	-7.348675e+01
1.080000e-06	-3.343802e-06	-1.069216e-09	-2.326421e+01	-7.315168e+01
1.090000e-06	-3.306344e-06	-1.068879e-09	-2.300360e+01	-7.281110e+01
1.100000e-06	-3.268617e-06	-1.066791e-09	-2.274112e+01	-7.246503e+01
1.110000e-06	-3.230694e-06	-1.061137e-09	-2.247728e+01	-7.211353e+01
1.120000e-06	-3.192600e-06	-1.054589e-09	-2.221224e+01	-7.175669e+01
1.130000e-06	-3.154330e-06	-1.046198e-09	-2.194598e+01	-7.139465e+01
1.140000e-06	-3.115870e-06	-1.037059e-09	-2.167840e+01	-7.102754e+01
1.150000e-06	-3.077105e-06	-1.030456e-09	-2.140869e+01	-7.065558e+01
1.160000e-06	-3.038075e-06	-1.026973e-09	-2.113715e+01	-7.027897e+01
1.170000e-06	-2.998864e-06	-1.022004e-09	-2.086434e+01	-6.989796e+01
1.180000e-06	-2.959512e-06	-1.017330e-09	-2.059055e+01	-6.951282e+01
1.190000e-06	-2.920013e-06	-1.012660e-09	-2.031574e+01	-6.912380e+01
1.200000e-06	-2.880404e-06	-1.006959e-09	-2.004016e+01	-6.873119e+01
1.210000e-06	-2.840681e-06	-9.973043e-10	-1.976379e+01	-6.833526e+01
1.220000e-06	-2.800812e-06	-9.902682e-10	-1.948641e+01	-6.793629e+01
1.230000e-06	-2.760761e-06	-9.864902e-10	-1.920776e+01	-6.753450e+01
1.240000e-06	-2.720514e-06	-9.847379e-10	-1.892774e+01	-6.713013e+01
1.250000e-06	-2.680158e-06	-9.836674e-10	-1.864696e+01	-6.672337e+01
1.260000e-06	-2.639601e-06	-9.838768e-10	-1.836480e+01	-6.631435e+01
1.270000e-06	-2.598687e-06	-9.786681e-10	-1.808014e+01	-6.590319e+01
1.280000e-06	-2.557503e-06	-9.684494e-10	-1.779361e+01	-6.548993e+01
1.290000e-06	-2.516098e-06	-9.565290e-10	-1.750553e+01	-6.507456e+01
1.300000e-06	-2.474396e-06	-9.461868e-10	-1.721539e+01	-6.465703e+01
1.310000e-06	-2.432467e-06	-9.368569e-10	-1.692368e+01	-6.423720e+01
1.320000e-06	-2.390347e-06	-9.332559e-10	-1.663063e+01	-6.381488e+01
1.330000e-06	-2.347894e-06	-9.332732e-10	-1.633527e+01	-6.338982e+01
1.340000e-06	-2.305071e-06	-9.300224e-10	-1.603733e+01	-6.296170e+01
1.350000e-06	-2.262054e-06	-9.229144e-10	-1.573804e+01	-6.253015e+01
1.360000e-06	-2.218851e-06	-9.145496e-10	-1.543746e+01	-6.209475e+01
1.370000e-06	-2.175462e-06	-9.029934e-10	-1.513559e+01	-6.165501e+01
1.380000e-06	-2.131988e-06	-8.895104e-10	-1.483312e+01	-6.121041e+01
1.390000e-06	-2.088407e-06	-8.780688e-10	-1.452991e+01	-6.076041e+01
1.400000e-06	-2.044725e-06	-8.701186e-10	-1.422600e+01	-6.030440e+01
1.410000e-06	-2.000959e-06	-8.645076e-10	-1.392150e+01	-5.984179e+01
1.420000e-06	-1.957097e-06	-8.616087e-10	-1.361634e+01	-5.937194e+01
1.430000e-06	-1.913171e-06	-8.589718e-10	-1.331072e+01	-5.889423e+01
1.440000e-06	-1.869172e-06	-8.519953e-10	-1.300461e+01	-5.840802e+01
1.450000e-06	-1.825034e-06	-8.396646e-10	-1.269752e+01	-5.791269e+01
1.460000e-06	-1.780796e-06	-8.235866e-10	-1.238974e+01	-5.740764e+01
1.470000e-06	-1.736443e-06	-8.055329e-10	-1.208115e+01	-5.689226e+01
1.480000e-06	-1.691909e-06	-7.917424e-10	-1.177131e+01	-5.636599e+01
1.490000e-06	-1.647287e-06	-7.844929e-10	-1.146086e+01	-5.582828e+01
1.500000e-06	-1.602543e-06	-7.817721e-10	-1.114955e+01	-5.527863e+01
1.510000e-06	-1.557658e-06	-7.777547e-10	-1.083727e+01	-5.471655e+01
1.520000e-06	-1.512664e-06	-7.721110e-10	-1.052423e+01	-5.414158e+01
1.530000e-06	-1.467555e-06	-7.617306e-10	-1.021038e+01	-5.355329e+01
1.540000e-06	-1.422373e-06	-7.455600e-10	-9.896037e+00	-5.295128e+01
1.550000e-06	-1.377117e-06	-7.273262e-10	-9.581174e+00	-5.233514e+01
1.560000e-06	-1.331766e-06	-7.107840e-10	-9.265646e+00	-5.170452e+01
1.570000e-06	-1.286343e-06	-7.011952e-10	-8.949619e+00	-5.105902e+01
1.580000e-06	-1.240812e-06	-6.941010e-10	-8.632841e+00	-5.039830e+01
1.590000e-06	-1.195112e-06	-6.895855e-10	-8.314892e+00	-4.972196e+01
1.600000e-06	-1.149314e-06	-6.836660e-10	-7.996251e+00	-4.902962e+01
1.610000e-06	-1.103441e-06	-6.719057e-10	-7.677092e+00	-4.832085e+01
1.620000e-06	-1.057453e-06	-6.546851e-10	-7.357140e+00	-4.759521e+01
1.630000e-06	-1.011459e-06	-6.376497e-10	-7.037139e+00	-4.685220e+01
1.640000e-06	-9.655002e-07	-6.223160e-10	-6.717384e+00	-4.609130e+01
1.650000e-06	-9.194232e-07	-6.104106e-10	-6.396807e+00	-4.531193e+01
1.660000e-06	-8.732148e-07	-6.015700e-10	-6.075317e+00	-4.451343e+01
1.670000e-06	-8.269393e-07	-5.914462e-10	-5.753359e+00	-4.369513e+01
1.680000e-06	-7.806792e-07	-5.775157e-10	-5.431508e+00	-4.285627e+01
1.690000e-06	-7.344367e-07	-5.626709e-10	-5.109780e+00	-4.199605e+01
1.700000e-06	-6.881197e-07	-5.448982e-10	-4.787534e+00	-4.111360e+01
1.710000e-06	-6.416985e-07	-5.288093e-10	-4.464562e+00	-4.020801e+01
1.720000e-06	-5.951716e-07	-5.160934e-10	-4.140855e+00	-3.927833e+01
1.730000e-06	-5.486332e-07	-5.051279e-10	-3.817068e+00	-3.832358e+01
1.740000e-06	-5.020757e-07	-4.910035e-10	-3.493148e+00	-3.734274e+01
1.750000e-06	-4.554730e-07	-4.742344e-10	-3.168914e+00	-3.633479e+01
1.760000e-06	-4.088478e-07	-4.560191e-10	-2.844523e+00	-3.529870e+01
1.770000e-06	-3.621218e-07	-4.377006e-10	-2.519431e+00	-3.423348e+01
1.780000e-06	-3.153407e-07	-4.219254e-10	-2.193956e+00	-3.313816e+01
1.790000e-06	-2.685684e-07	-4.070406e-10	-1.868542e+00	-3.201180e+01
1.800000e-06	-2.217596e-07	-3.922963e-10	-1.542874e+00	-3.085356e+01
1.810000e-06	-1.749365e-07	-3.753704e-10	-1.217106e+00	-2.966267e+01
1.820000e-06	-1.281190e-07	-3.569447e-10	-8.913770e-01	-2.843846e+01
1.830000e-06	-8.138686e-08	-3.394820e-10	-5.662420e-01	-2.718038e+01
1.840000e-06	-3.468598e-08	-3.242713e-10	-2.413247e-01	-2.588802e+01
1.850000e-06	1.210063e-08	-3.099357e-10	8.418907e-02	-2.456112e+01
1.860000e-06	5.890451e-08	-2.941535e-10	4.098230e-01	-2.319958e+01
1.870000e-06	1.057252e-07	-2.750337e-10	7.355740e-01	-2.180347e+01
1.880000e-06	1.525438e-07	-2.533816e-10	1.061310e+00	-2.037307e+01
1.890000e-06	1.992702e-07	-2.290338e-10	1.386405e+00	-1.890884e+01
1.900000e-06	2.459343e-07	-2.055151e-10	1.711066e+00	-1.741142e+01
1.910000e-06	2.925780e-07	-1.840757e-10	2.035586e+00	-1.588169e+01
1.920000e-06	3.392734e-07	-1.647787e-10	2.360465e+00	-1.432071e+01
1.930000e-06	3.860195e-07	-1.455345e-10	2.685697e+00	-1.272973e+01
1.940000e-06	4.327051e-07	-1.248831e-10	3.010509e+00	-1.111023e+01
1.950000e-06	4.793042e-07	-1.019162e-10	3.334717e+00	-9.463838e+00
1.960000e-06	5.258796e-07	-7.758606e-11	3.658762e+00	-7.792387e+00
1.970000e-06	5.724209e-07	-5.459819e-11	3.982569e+00	-6.097862e+00
1.980000e-06	6.188560e-07	-3.259946e-11	4.305637e+00	-4.382402e+00
1.990000e-06	6.653206e-07	-8.528106e-12	4.628911e+00	-2.648277e+00
2.000000e-06	7.117262e-07	1.754232e-11	4.951774e+00	-8.978724e-01
2.010000e-06	7.580648e-07	4.488300e-11	5.274170e+00	8.663296e-01
2.020000e-06	8.044127e-07	7.197504e-11	5.596632e+00	2.641773e+00
2.030000e-06	8.505879e-07	9.828122e-11	5.917892e+00	4.425848e+00
2.040000e-06	8.966359e-07	1.226700e-10	6.238267e+00	6.215913e+00
2.050000e-06	9.426685e-07	1.438597e-10	6.558535e+00	8.009317e+00
2.060000e-06	9.886746e-07	1.676566e-10	6.878618e+00	9.803420e+00
2.070000e-06	1.034594e-06	1.924156e-10	7.198098e+00	1.159561e+01
2.080000e-06	1.080485e-06	2.180409e-10	7.517383e+00	1.338334e+01
2.090000e-06	1.126366e-06	2.455698e-10	7.836594e+00	1.516411e+01
2.100000e-06	1.172126e-06	2.742908e-10	8.154962e+00	1.693554e+01
2.110000e-06	1.217750e-06	2.994935e-10	8.472391e+00	1.869532e+01
2.120000e-06	1.263342e-06	3.226690e-10	8.789596e+00	2.044127e+01
2.130000e-06	1.308866e-06	3.455635e-10	9.106322e+00	2.217135e+01
2.140000e-06	1.354295e-06	3.660632e-10	9.422392e+00	2.388363e+01
2.150000e-06	1.399685e-06	3.868500e-10	9.738185e+00	2.557636e+01
2.160000e-06	1.444930e-06	4.115805e-10	1.005298e+01	2.724790e+01
2.170000e-06	1.489997e-06	4.395180e-10	1.036652e+01	2.889680e+01
2.180000e-06	1.534981e-06	4.663692e-10	1.067950e+01	3.052175e+01
2.190000e-06	1.579903e-06	4.901350e-10	1.099204e+01	3.212157e+01
2.200000e-06	1.624674e-06	5.115968e-10	1.130353e+01	3.369526e+01
2.210000e-06	1.669294e-06	5.309922e-10	1.161397e+01	3.524197e+01
2.220000e-06	1.713765e-06	5.483286e-10	1.192337e+01	3.676095e+01
2.230000e-06	1.758024e-06	5.673594e-10	1.223130e+01	3.825163e+01
2.240000e-06	1.802155e-06	5.879254e-10	1.253834e+01	3.971352e+01
2.250000e-06	1.846178e-06	6.093431e-10	1.284462e+01	4.114630e+01
2.260000e-06	1.890104e-06	6.292785e-10	1.315024e+01	4.254970e+01
2.270000e-06	1.933982e-06	6.493178e-10	1.345551e+01	4.392358e+01
2.280000e-06	1.977759e-06	6.690854e-10	1.376009e+01	4.526789e+01
2.290000e-06	2.021513e-06	6.876510e-10	1.406450e+01	4.658263e+01
2.300000e-06	2.065213e-06	7.051285e-10	1.436854e+01	4.786790e+01
2.310000e-06	2.108829e-06	7.221239e-10	1.467199e+01	4.912384e+01
2.320000e-06	2.152432e-06	7.382475e-10	1.497536e+01	5.035065e+01
2.330000e-06	2.195929e-06	7.527965e-10	1.527798e+01	5.154855e+01
2.340000e-06	2.239240e-06	7.670875e-10	1.557932e+01	5.271783e+01
2.350000e-06	2.282400e-06	7.837144e-10	1.587960e+01	5.385879e+01
2.360000e-06	2.325412e-06	8.018429e-10	1.617885e+01	5.497176e+01
2.370000e-06	2.368287e-06	8.181967e-10	1.647715e+01	5.605709e+01
2.380000e-06	2.410918e-06	8.324365e-10	1.677375e+01	5.711514e+01
2.390000e-06	2.453166e-06	8.471815e-10	1.706769e+01	5.814628e+01
2.400000e-06	2.495006e-06	8.603612e-10	1.735879e+01	5.915091e+01
2.410000e-06	2.536491e-06	8.729474e-10	1.764741e+01	6.012943e+01
2.420000e-06	2.577703e-06	8.858145e-10	1.793414e+01	6.108225e+01
2.430000e-06	2.618588e-06	8.999411e-10	1.821860e+01	6.200977e+01
2.440000e-06	2.659203e-06	9.151996e-10	1.850118e+01	6.291243e+01
2.450000e-06	2.699611e-06	9.271450e-10	1.878231e+01	6.379065e+01
2.460000e-06	2.739773e-06	9.371434e-10	1.906173e+01	6.464488e+01
2.470000e-06	2.779765e-06	9.462426e-10	1.933997e+01	6.547555e+01
2.480000e-06	2.819653e-06	9.564737e-10	1.961749e+01	6.628313e+01
2.490000e-06	2.859423e-06	9.667691e-10	1.989419e+01	6.706807e+01
2.500000e-06	2.899109e-06	9.761638e-10	2.017030e+01	6.783085e+01
2.510000e-06	2.938665e-06	9.857242e-10	2.044551e+01	6.857193e+01
2.520000e-06	2.978058e-06	9.952403e-10	2.071958e+01	6.929179e+01
2.530000e-06	3.017269e-06	1.005331e-09	2.099239e+01	6.999091e+01
2.540000e-06	3.056190e-06	1.015821e-09	2.126318e+01	7.066979e+01
2.550000e-06	3.094805e-06	1.023156e-09	2.153184e+01	7.132890e+01
2.560000e-06	3.133194e-06	1.028095e-09	2.179892e+01	7.196873e+01
2.570000e-06	3.171399e-06	1.034708e-09	2.206473e+01	7.258976e+01
2.580000e-06	3.209396e-06	1.042227e-09	2.232909e+01	7.319245e+01
2.590000e-06	3.247182e-06	1.050057e-09	2.259199e+01	7.377727e+01
2.600000e-06	3.284851e-06	1.060838e-09	2.285407e+01	7.434467e+01
2.610000e-06	3.322355e-06	1.071753e-09	2.311500e+01	7.489510e+01
2.620000e-06	3.359537e-06	1.080770e-09	2.337369e+01	7.542898e+01
2.630000e-06	3.396378e-06	1.086962e-09	2.363001e+01	7.594671e+01
2.640000e-06	3.432982e-06	1.091225e-09	2.388467e+01	7.644869e+01
2.650000e-06	3.469401e-06	1.094933e-09	2.413806e+01	7.693530e+01
2.660000e-06	3.505542e-06	1.100113e-09	2.438950e+01	7.740689e+01
2.670000e-06	3.541451e-06	1.108385e-09	2.463934e+01	7.786381e+01
2.680000e-06	3.577319e-06	1.116113e-09	2.488889e+01	7.830637e+01
2.690000e-06	3.613123e-06	1.123621e-09	2.513799e+01	7.873490e+01
2.700000e-06	3.648750e-06	1.130364e-09	2.538586e+01	7.914968e+01
2.710000e-06	3.684157e-06	1.133700e-09	2.563220e+01	7.955102e+01
2.720000e-06	3.719340e-06	1.136366e-09	2.587699e+01	7.993919e+01
2.730000e-06	3.754308e-06	1.141395e-09	2.612027e+01	8.031449e+01
2.740000e-06	3.788865e-06	1.149233e-09	2.636070e+01	8.067718e+01
2.750000e-06	3.822898e-06	1.157615e-09	2.659748e+01	8.102758e+01
2.760000e-06	3.856509e-06	1.165858e-09	2.683133e+01	8.136597e+01
2.770000e-06	3.889716e-06	1.173833e-09	2.706236e+01	8.169266e+01
2.780000e-06	3.922436e-06	1.179325e-09	2.729001e+01	8.200800e+01
2.790000e-06	3.954736e-06	1.183312e-09	2.751473e+01	8.231233e+01
2.800000e-06	3.986718e-06	1.185783e-09	2.773725e+01	8.260603e+01
2.810000e-06	4.018514e-06	1.189983e-09	2.795847e+01	8.288950e+01
2.820000e-06	4.050247e-06	1.196298e-09	2.817925e+01	8.316317e+01
2.830000e-06	4.081846e-06	1.203134e-09	2.839909e+01	8.342749e+01
2.840000e-06	4.113229e-06	1.209742e-09	2.861743e+01	8.368294e+01
2.850000e-06	4.144340e-06	1.215599e-09	2.883389e+01	8.393005e+01
2.860000e-06	4.175114e-06	1.221409e-09	2.904799e+01	8.416933e+01
2.870000e-06	4.205544e-06	1.226843e-09	2.925971e+01	8.440135e+01
2.880000e-06	4.235651e-06	1.232218e-09	2.946918e+01	8.462669e+01
2.890000e-06	4.265433e-06	1.237390e-09	2.967638e+01	8.484592e+01
2.900000e-06	4.294991e-06	1.243106e-09	2.988203e+01	8.505965e+01
