# Temperatura_=_10.0
# Concentracion g/m^3_=_1620.0
# C_Vs_to_Am_M_A/Vsm_=_65563218390.804596
# pendiente_HvsI_1/m_=_3716.3
# ordenada_HvsI_A/m_=_1297.0
# frecuencia_Hz_=_135103.63128400967

Tiempo_(s)	Campo_(V.s)	Magnetizacion_(V.s)	Campo_(kA/m)	Magnetizacion_(A/m)
0.000000e+00	-5.520222e-06	-1.332063e-09	-3.836357e+01	-8.924686e+01
1.000000e-08	-5.520451e-06	-1.331439e-09	-3.836516e+01	-8.918281e+01
2.000000e-08	-5.520389e-06	-1.330388e-09	-3.836473e+01	-8.911848e+01
3.000000e-08	-5.520013e-06	-1.328816e-09	-3.836211e+01	-8.905451e+01
4.000000e-08	-5.519292e-06	-1.327532e-09	-3.835711e+01	-8.899156e+01
5.000000e-08	-5.518088e-06	-1.324321e-09	-3.834874e+01	-8.893028e+01
6.000000e-08	-5.516355e-06	-1.318169e-09	-3.833669e+01	-8.887129e+01
7.000000e-08	-5.514022e-06	-1.316623e-09	-3.832048e+01	-8.881518e+01
8.000000e-08	-5.511070e-06	-1.335804e-09	-3.829996e+01	-8.876247e+01
9.000000e-08	-5.507596e-06	-1.359169e-09	-3.827582e+01	-8.871361e+01
1.000000e-07	-5.503709e-06	-1.311952e-09	-3.824881e+01	-8.866897e+01
1.100000e-07	-5.499596e-06	-1.241334e-09	-3.822023e+01	-8.862882e+01
1.200000e-07	-5.495310e-06	-1.268180e-09	-3.819043e+01	-8.859333e+01
1.300000e-07	-5.490748e-06	-1.344023e-09	-3.815873e+01	-8.856253e+01
1.400000e-07	-5.485680e-06	-1.345328e-09	-3.812351e+01	-8.853637e+01
1.500000e-07	-5.480156e-06	-1.277346e-09	-3.808512e+01	-8.851463e+01
1.600000e-07	-5.474388e-06	-1.274510e-09	-3.804504e+01	-8.849698e+01
1.700000e-07	-5.468314e-06	-1.358374e-09	-3.800282e+01	-8.848297e+01
1.800000e-07	-5.461658e-06	-1.355203e-09	-3.795657e+01	-8.847203e+01
1.900000e-07	-5.454519e-06	-1.311285e-09	-3.790695e+01	-8.846346e+01
2.000000e-07	-5.447172e-06	-1.285372e-09	-3.785590e+01	-8.845647e+01
2.100000e-07	-5.439597e-06	-1.346010e-09	-3.780325e+01	-8.845017e+01
2.200000e-07	-5.431731e-06	-1.372321e-09	-3.774859e+01	-8.844361e+01
2.300000e-07	-5.423589e-06	-1.356297e-09	-3.769200e+01	-8.843577e+01
2.400000e-07	-5.415007e-06	-1.328914e-09	-3.763236e+01	-8.842558e+01
2.500000e-07	-5.405753e-06	-1.350463e-09	-3.756805e+01	-8.841196e+01
2.600000e-07	-5.395848e-06	-1.366333e-09	-3.749921e+01	-8.839383e+01
2.700000e-07	-5.385454e-06	-1.333076e-09	-3.742698e+01	-8.837011e+01
2.800000e-07	-5.374555e-06	-1.308629e-09	-3.735123e+01	-8.833979e+01
2.900000e-07	-5.363107e-06	-1.327836e-09	-3.727168e+01	-8.830190e+01
3.000000e-07	-5.351319e-06	-1.353454e-09	-3.718975e+01	-8.825554e+01
3.100000e-07	-5.339200e-06	-1.317721e-09	-3.710553e+01	-8.819994e+01
3.200000e-07	-5.326544e-06	-1.312443e-09	-3.701758e+01	-8.813442e+01
3.300000e-07	-5.313463e-06	-1.346361e-09	-3.692666e+01	-8.805843e+01
3.400000e-07	-5.300104e-06	-1.368523e-09	-3.683383e+01	-8.797156e+01
3.500000e-07	-5.286380e-06	-1.316020e-09	-3.673845e+01	-8.787357e+01
3.600000e-07	-5.272213e-06	-1.317042e-09	-3.663999e+01	-8.776433e+01
3.700000e-07	-5.257611e-06	-1.342133e-09	-3.653851e+01	-8.764391e+01
3.800000e-07	-5.242559e-06	-1.331622e-09	-3.643391e+01	-8.751251e+01
3.900000e-07	-5.226913e-06	-1.298009e-09	-3.632517e+01	-8.737049e+01
4.000000e-07	-5.210812e-06	-1.337334e-09	-3.621328e+01	-8.721837e+01
4.100000e-07	-5.194436e-06	-1.336456e-09	-3.609947e+01	-8.705677e+01
4.200000e-07	-5.177611e-06	-1.288907e-09	-3.598254e+01	-8.688646e+01
4.300000e-07	-5.160321e-06	-1.300545e-09	-3.586238e+01	-8.670832e+01
4.400000e-07	-5.142802e-06	-1.352343e-09	-3.574064e+01	-8.652331e+01
4.500000e-07	-5.124986e-06	-1.305792e-09	-3.561682e+01	-8.633245e+01
4.600000e-07	-5.106701e-06	-1.264454e-09	-3.548974e+01	-8.613684e+01
4.700000e-07	-5.087978e-06	-1.307336e-09	-3.535963e+01	-8.593759e+01
4.800000e-07	-5.068898e-06	-1.309108e-09	-3.522703e+01	-8.573580e+01
4.900000e-07	-5.049505e-06	-1.258691e-09	-3.509225e+01	-8.553259e+01
5.000000e-07	-5.029856e-06	-1.285409e-09	-3.495570e+01	-8.532901e+01
5.100000e-07	-5.010013e-06	-1.315298e-09	-3.481780e+01	-8.512608e+01
5.200000e-07	-4.989918e-06	-1.265986e-09	-3.467815e+01	-8.492470e+01
5.300000e-07	-4.969494e-06	-1.267612e-09	-3.453621e+01	-8.472572e+01
5.400000e-07	-4.948657e-06	-1.311274e-09	-3.439140e+01	-8.452985e+01
5.500000e-07	-4.927434e-06	-1.270934e-09	-3.424390e+01	-8.433767e+01
5.600000e-07	-4.905905e-06	-1.226328e-09	-3.409429e+01	-8.414965e+01
5.700000e-07	-4.884110e-06	-1.271887e-09	-3.394281e+01	-8.396610e+01
5.800000e-07	-4.862000e-06	-1.277094e-09	-3.378916e+01	-8.378717e+01
5.900000e-07	-4.839473e-06	-1.238489e-09	-3.363261e+01	-8.361290e+01
6.000000e-07	-4.816521e-06	-1.255832e-09	-3.347310e+01	-8.344314e+01
6.100000e-07	-4.793247e-06	-1.274859e-09	-3.331135e+01	-8.327763e+01
6.200000e-07	-4.769763e-06	-1.232112e-09	-3.314815e+01	-8.311597e+01
6.300000e-07	-4.746098e-06	-1.232921e-09	-3.298368e+01	-8.295761e+01
6.400000e-07	-4.722216e-06	-1.257020e-09	-3.281771e+01	-8.280194e+01
6.500000e-07	-4.698077e-06	-1.237734e-09	-3.264995e+01	-8.264821e+01
6.600000e-07	-4.673588e-06	-1.226476e-09	-3.247976e+01	-8.249563e+01
6.700000e-07	-4.648545e-06	-1.253595e-09	-3.230572e+01	-8.234333e+01
6.800000e-07	-4.622843e-06	-1.238716e-09	-3.212711e+01	-8.219041e+01
6.900000e-07	-4.596574e-06	-1.220009e-09	-3.194455e+01	-8.203595e+01
7.000000e-07	-4.569847e-06	-1.235999e-09	-3.175880e+01	-8.187903e+01
7.100000e-07	-4.542774e-06	-1.234700e-09	-3.157065e+01	-8.171876e+01
7.200000e-07	-4.515457e-06	-1.206592e-09	-3.138081e+01	-8.155428e+01
7.300000e-07	-4.487908e-06	-1.215015e-09	-3.118935e+01	-8.138480e+01
7.400000e-07	-4.460084e-06	-1.223693e-09	-3.099598e+01	-8.120960e+01
7.500000e-07	-4.431972e-06	-1.206000e-09	-3.080062e+01	-8.102805e+01
7.600000e-07	-4.403661e-06	-1.204173e-09	-3.060386e+01	-8.083961e+01
7.700000e-07	-4.375099e-06	-1.214335e-09	-3.040537e+01	-8.064385e+01
7.800000e-07	-4.346157e-06	-1.199479e-09	-3.020424e+01	-8.044048e+01
7.900000e-07	-4.316887e-06	-1.190952e-09	-3.000082e+01	-8.022931e+01
8.000000e-07	-4.287345e-06	-1.202273e-09	-2.979551e+01	-8.001025e+01
8.100000e-07	-4.257483e-06	-1.193827e-09	-2.958798e+01	-7.978338e+01
8.200000e-07	-4.227362e-06	-1.179260e-09	-2.937865e+01	-7.954883e+01
8.300000e-07	-4.196983e-06	-1.188162e-09	-2.916753e+01	-7.930690e+01
8.400000e-07	-4.166337e-06	-1.189684e-09	-2.895455e+01	-7.905794e+01
8.500000e-07	-4.135431e-06	-1.173735e-09	-2.873977e+01	-7.880240e+01
8.600000e-07	-4.104223e-06	-1.174991e-09	-2.852288e+01	-7.854081e+01
8.700000e-07	-4.072784e-06	-1.176366e-09	-2.830439e+01	-7.827374e+01
8.800000e-07	-4.041206e-06	-1.163485e-09	-2.808494e+01	-7.800182e+01
8.900000e-07	-4.009413e-06	-1.156605e-09	-2.786398e+01	-7.772570e+01
9.000000e-07	-3.977430e-06	-1.161903e-09	-2.764172e+01	-7.744601e+01
9.100000e-07	-3.945251e-06	-1.148590e-09	-2.741808e+01	-7.716341e+01
9.200000e-07	-3.912707e-06	-1.137201e-09	-2.719191e+01	-7.687851e+01
9.300000e-07	-3.879728e-06	-1.140038e-09	-2.696272e+01	-7.659189e+01
9.400000e-07	-3.846310e-06	-1.137348e-09	-2.673048e+01	-7.630408e+01
9.500000e-07	-3.812417e-06	-1.125781e-09	-2.649493e+01	-7.601552e+01
9.600000e-07	-3.778039e-06	-1.128813e-09	-2.625602e+01	-7.572660e+01
9.700000e-07	-3.743284e-06	-1.128540e-09	-2.601449e+01	-7.543760e+01
9.800000e-07	-3.708164e-06	-1.115056e-09	-2.577041e+01	-7.514874e+01
9.900000e-07	-3.672753e-06	-1.106725e-09	-2.552432e+01	-7.486010e+01
1.000000e-06	-3.637161e-06	-1.105905e-09	-2.527697e+01	-7.457169e+01
1.010000e-06	-3.601402e-06	-1.094398e-09	-2.502845e+01	-7.428343e+01
1.020000e-06	-3.565540e-06	-1.087271e-09	-2.477923e+01	-7.399513e+01
1.030000e-06	-3.529602e-06	-1.092248e-09	-2.452947e+01	-7.370650e+01
1.040000e-06	-3.493507e-06	-1.093940e-09	-2.427862e+01	-7.341720e+01
1.050000e-06	-3.457116e-06	-1.089588e-09	-2.402572e+01	-7.312679e+01
1.060000e-06	-3.420391e-06	-1.087406e-09	-2.377050e+01	-7.283478e+01
1.070000e-06	-3.383470e-06	-1.080341e-09	-2.351390e+01	-7.254062e+01
1.080000e-06	-3.346274e-06	-1.067281e-09	-2.325541e+01	-7.224373e+01
1.090000e-06	-3.308775e-06	-1.061163e-09	-2.299480e+01	-7.194351e+01
1.100000e-06	-3.271115e-06	-1.058899e-09	-2.273308e+01	-7.163933e+01
1.110000e-06	-3.233216e-06	-1.050572e-09	-2.246969e+01	-7.133058e+01
1.120000e-06	-3.195045e-06	-1.044890e-09	-2.220442e+01	-7.101666e+01
1.130000e-06	-3.156716e-06	-1.047056e-09	-2.193804e+01	-7.069700e+01
1.140000e-06	-3.118188e-06	-1.042324e-09	-2.167029e+01	-7.037105e+01
1.150000e-06	-3.079337e-06	-1.034552e-09	-2.140029e+01	-7.003833e+01
1.160000e-06	-3.040182e-06	-1.030722e-09	-2.112818e+01	-6.969842e+01
1.170000e-06	-3.000946e-06	-1.023492e-09	-2.085550e+01	-6.935095e+01
1.180000e-06	-2.961651e-06	-1.010293e-09	-2.058242e+01	-6.899562e+01
1.190000e-06	-2.922194e-06	-1.002496e-09	-2.030820e+01	-6.863221e+01
1.200000e-06	-2.882575e-06	-9.984937e-10	-2.003286e+01	-6.826059e+01
1.210000e-06	-2.842753e-06	-9.931422e-10	-1.975611e+01	-6.788067e+01
1.220000e-06	-2.802791e-06	-9.885036e-10	-1.947839e+01	-6.749245e+01
1.230000e-06	-2.762697e-06	-9.855362e-10	-1.919976e+01	-6.709601e+01
1.240000e-06	-2.722385e-06	-9.771332e-10	-1.891960e+01	-6.669147e+01
1.250000e-06	-2.681891e-06	-9.688961e-10	-1.863818e+01	-6.627902e+01
1.260000e-06	-2.641209e-06	-9.644563e-10	-1.835546e+01	-6.585890e+01
1.270000e-06	-2.600379e-06	-9.609642e-10	-1.807170e+01	-6.543137e+01
1.280000e-06	-2.559290e-06	-9.528307e-10	-1.778615e+01	-6.499674e+01
1.290000e-06	-2.517782e-06	-9.463998e-10	-1.749768e+01	-6.455532e+01
1.300000e-06	-2.476021e-06	-9.390947e-10	-1.720746e+01	-6.410745e+01
1.310000e-06	-2.433965e-06	-9.276403e-10	-1.691518e+01	-6.365345e+01
1.320000e-06	-2.391602e-06	-9.185165e-10	-1.662077e+01	-6.319363e+01
1.330000e-06	-2.348942e-06	-9.131854e-10	-1.632431e+01	-6.272828e+01
1.340000e-06	-2.305984e-06	-9.091190e-10	-1.602577e+01	-6.225767e+01
1.350000e-06	-2.262839e-06	-9.036138e-10	-1.572592e+01	-6.178201e+01
1.360000e-06	-2.219460e-06	-8.949011e-10	-1.542446e+01	-6.130149e+01
1.370000e-06	-2.175899e-06	-8.842513e-10	-1.512172e+01	-6.081623e+01
1.380000e-06	-2.132247e-06	-8.723165e-10	-1.481835e+01	-6.032631e+01
1.390000e-06	-2.088490e-06	-8.620403e-10	-1.451426e+01	-5.983173e+01
1.400000e-06	-2.044681e-06	-8.538438e-10	-1.420980e+01	-5.933245e+01
1.410000e-06	-2.000857e-06	-8.468125e-10	-1.390524e+01	-5.882837e+01
1.420000e-06	-1.956962e-06	-8.395842e-10	-1.360019e+01	-5.831932e+01
1.430000e-06	-1.912979e-06	-8.315471e-10	-1.329452e+01	-5.780509e+01
1.440000e-06	-1.868933e-06	-8.224466e-10	-1.298841e+01	-5.728539e+01
1.450000e-06	-1.824776e-06	-8.115004e-10	-1.268154e+01	-5.675989e+01
1.460000e-06	-1.780422e-06	-8.017775e-10	-1.237329e+01	-5.622822e+01
1.470000e-06	-1.735981e-06	-7.938734e-10	-1.206444e+01	-5.568996e+01
1.480000e-06	-1.691515e-06	-7.875153e-10	-1.175542e+01	-5.514465e+01
1.490000e-06	-1.646859e-06	-7.798152e-10	-1.144508e+01	-5.459179e+01
1.500000e-06	-1.601998e-06	-7.689370e-10	-1.113331e+01	-5.403087e+01
1.510000e-06	-1.557022e-06	-7.571192e-10	-1.082075e+01	-5.346133e+01
1.520000e-06	-1.511945e-06	-7.482130e-10	-1.050748e+01	-5.288260e+01
1.530000e-06	-1.466784e-06	-7.405737e-10	-1.019362e+01	-5.229408e+01
1.540000e-06	-1.421501e-06	-7.324599e-10	-9.878921e+00	-5.169518e+01
1.550000e-06	-1.376076e-06	-7.230841e-10	-9.563233e+00	-5.108526e+01
1.560000e-06	-1.330615e-06	-7.128716e-10	-9.247299e+00	-5.046369e+01
1.570000e-06	-1.285060e-06	-7.006928e-10	-8.930705e+00	-4.982980e+01
1.580000e-06	-1.239397e-06	-6.874608e-10	-8.613363e+00	-4.918292e+01
1.590000e-06	-1.193603e-06	-6.771889e-10	-8.295113e+00	-4.852236e+01
1.600000e-06	-1.147691e-06	-6.709276e-10	-7.976041e+00	-4.784742e+01
1.610000e-06	-1.101812e-06	-6.635065e-10	-7.657199e+00	-4.715735e+01
1.620000e-06	-1.055866e-06	-6.552000e-10	-7.337891e+00	-4.645139e+01
1.630000e-06	-1.009791e-06	-6.458600e-10	-7.017688e+00	-4.572875e+01
1.640000e-06	-9.636498e-07	-6.335954e-10	-6.697021e+00	-4.498861e+01
1.650000e-06	-9.174274e-07	-6.192142e-10	-6.375792e+00	-4.423012e+01
1.660000e-06	-8.711094e-07	-6.055682e-10	-6.053899e+00	-4.345238e+01
1.670000e-06	-8.247441e-07	-5.934488e-10	-5.731676e+00	-4.265446e+01
1.680000e-06	-7.783504e-07	-5.819595e-10	-5.409257e+00	-4.183541e+01
1.690000e-06	-7.319218e-07	-5.698905e-10	-5.086595e+00	-4.099421e+01
1.700000e-06	-6.854225e-07	-5.566250e-10	-4.763441e+00	-4.012983e+01
1.710000e-06	-6.388510e-07	-5.421760e-10	-4.439786e+00	-3.924120e+01
1.720000e-06	-5.923443e-07	-5.269199e-10	-4.116581e+00	-3.832724e+01
1.730000e-06	-5.458382e-07	-5.111923e-10	-3.793380e+00	-3.738684e+01
1.740000e-06	-4.992407e-07	-4.952488e-10	-3.469544e+00	-3.641887e+01
1.750000e-06	-4.526056e-07	-4.792546e-10	-3.145447e+00	-3.542223e+01
1.760000e-06	-4.059199e-07	-4.626800e-10	-2.820998e+00	-3.439582e+01
1.770000e-06	-3.592086e-07	-4.453313e-10	-2.496371e+00	-3.333855e+01
1.780000e-06	-3.124459e-07	-4.292343e-10	-2.171387e+00	-3.224940e+01
1.790000e-06	-2.656288e-07	-4.144768e-10	-1.846025e+00	-3.112738e+01
1.800000e-06	-2.188611e-07	-3.993211e-10	-1.521006e+00	-2.997160e+01
1.810000e-06	-1.721032e-07	-3.823509e-10	-1.196056e+00	-2.878122e+01
1.820000e-06	-1.253535e-07	-3.635779e-10	-8.711620e-01	-2.755556e+01
1.830000e-06	-7.860852e-08	-3.449740e-10	-5.463011e-01	-2.629402e+01
1.840000e-06	-3.179405e-08	-3.262933e-10	-2.209573e-01	-2.499615e+01
1.850000e-06	1.498946e-08	-3.089186e-10	1.041714e-01	-2.366168e+01
1.860000e-06	6.181835e-08	-2.912091e-10	4.296154e-01	-2.229048e+01
1.870000e-06	1.086821e-07	-2.725125e-10	7.553018e-01	-2.088262e+01
1.880000e-06	1.554841e-07	-2.524680e-10	1.080559e+00	-1.943837e+01
1.890000e-06	2.023575e-07	-2.315948e-10	1.406312e+00	-1.795821e+01
1.900000e-06	2.492590e-07	-2.096322e-10	1.732261e+00	-1.644281e+01
1.910000e-06	2.960899e-07	-1.870894e-10	2.057719e+00	-1.489309e+01
1.920000e-06	3.428485e-07	-1.659258e-10	2.382674e+00	-1.331016e+01
1.930000e-06	3.895003e-07	-1.450014e-10	2.706888e+00	-1.169537e+01
1.940000e-06	4.361049e-07	-1.229734e-10	3.030773e+00	-1.005029e+01
1.950000e-06	4.826814e-07	-9.927341e-11	3.354463e+00	-8.376680e+00
1.960000e-06	5.291214e-07	-7.477452e-11	3.677204e+00	-6.676522e+00
1.970000e-06	5.755358e-07	-5.217342e-11	3.999768e+00	-4.951974e+00
1.980000e-06	6.220152e-07	-2.911127e-11	4.322783e+00	-3.205373e+00
1.990000e-06	6.685597e-07	-4.877856e-12	4.646250e+00	-1.439211e+00
2.000000e-06	7.151162e-07	2.042753e-11	4.969802e+00	3.438795e-01
2.010000e-06	7.615340e-07	4.746979e-11	5.292389e+00	2.141153e+00
2.020000e-06	8.078179e-07	7.525297e-11	5.614045e+00	3.949767e+00
2.030000e-06	8.540221e-07	1.006828e-10	5.935148e+00	5.766813e+00
2.040000e-06	9.001659e-07	1.228713e-10	6.255831e+00	7.589335e+00
2.050000e-06	9.463245e-07	1.437831e-10	6.576617e+00	9.414360e+00
2.060000e-06	9.924714e-07	1.671057e-10	6.897321e+00	1.123892e+01
2.070000e-06	1.038470e-06	1.924742e-10	7.216994e+00	1.306007e+01
2.080000e-06	1.084372e-06	2.178522e-10	7.535995e+00	1.487495e+01
2.090000e-06	1.130208e-06	2.453789e-10	7.854541e+00	1.668073e+01
2.100000e-06	1.175987e-06	2.725032e-10	8.172688e+00	1.847472e+01
2.110000e-06	1.221668e-06	2.965648e-10	8.490153e+00	2.025435e+01
2.120000e-06	1.267195e-06	3.183270e-10	8.806555e+00	2.201715e+01
2.130000e-06	1.312671e-06	3.394046e-10	9.122594e+00	2.376084e+01
2.140000e-06	1.358058e-06	3.587962e-10	9.438016e+00	2.548330e+01
2.150000e-06	1.403276e-06	3.793308e-10	9.752263e+00	2.718258e+01
2.160000e-06	1.448397e-06	4.038608e-10	1.006584e+01	2.885691e+01
2.170000e-06	1.493520e-06	4.303393e-10	1.037943e+01	3.050472e+01
2.180000e-06	1.538601e-06	4.550710e-10	1.069273e+01	3.212462e+01
2.190000e-06	1.583470e-06	4.768050e-10	1.100455e+01	3.371543e+01
2.200000e-06	1.628105e-06	4.965239e-10	1.131475e+01	3.527615e+01
2.210000e-06	1.672647e-06	5.140702e-10	1.162430e+01	3.680594e+01
2.220000e-06	1.717146e-06	5.303126e-10	1.193355e+01	3.830418e+01
2.230000e-06	1.761603e-06	5.485545e-10	1.224251e+01	3.977038e+01
2.240000e-06	1.805942e-06	5.676116e-10	1.255065e+01	4.120423e+01
2.250000e-06	1.850098e-06	5.858818e-10	1.285752e+01	4.260554e+01
2.260000e-06	1.894133e-06	6.052609e-10	1.316355e+01	4.397429e+01
2.270000e-06	1.938086e-06	6.255551e-10	1.346901e+01	4.531053e+01
2.280000e-06	1.981968e-06	6.441415e-10	1.377397e+01	4.661446e+01
2.290000e-06	2.025782e-06	6.615488e-10	1.407846e+01	4.788633e+01
2.300000e-06	2.069538e-06	6.787807e-10	1.438254e+01	4.912650e+01
2.310000e-06	2.113208e-06	6.948086e-10	1.468604e+01	5.033537e+01
2.320000e-06	2.156792e-06	7.099541e-10	1.498893e+01	5.151341e+01
2.330000e-06	2.200274e-06	7.247383e-10	1.529112e+01	5.266109e+01
2.340000e-06	2.243623e-06	7.394081e-10	1.559238e+01	5.377896e+01
2.350000e-06	2.286829e-06	7.551140e-10	1.589264e+01	5.486756e+01
2.360000e-06	2.329850e-06	7.723595e-10	1.619162e+01	5.592744e+01
2.370000e-06	2.372572e-06	7.892669e-10	1.648852e+01	5.695917e+01
2.380000e-06	2.414994e-06	8.042786e-10	1.678335e+01	5.796329e+01
2.390000e-06	2.457131e-06	8.171824e-10	1.707618e+01	5.894038e+01
2.400000e-06	2.498960e-06	8.285853e-10	1.736688e+01	5.989097e+01
2.410000e-06	2.540586e-06	8.423827e-10	1.765616e+01	6.081560e+01
2.420000e-06	2.581861e-06	8.585675e-10	1.794301e+01	6.171481e+01
2.430000e-06	2.622805e-06	8.726759e-10	1.822756e+01	6.258911e+01
2.440000e-06	2.663481e-06	8.851683e-10	1.851024e+01	6.343903e+01
2.450000e-06	2.703881e-06	8.965539e-10	1.879101e+01	6.426507e+01
2.460000e-06	2.744147e-06	9.058651e-10	1.907084e+01	6.506774e+01
2.470000e-06	2.784294e-06	9.154562e-10	1.934985e+01	6.584755e+01
2.480000e-06	2.824310e-06	9.275573e-10	1.962794e+01	6.660501e+01
2.490000e-06	2.864141e-06	9.406051e-10	1.990476e+01	6.734062e+01
2.500000e-06	2.903823e-06	9.536393e-10	2.018053e+01	6.805491e+01
2.510000e-06	2.943422e-06	9.653861e-10	2.045573e+01	6.874841e+01
2.520000e-06	2.982930e-06	9.753940e-10	2.073030e+01	6.942164e+01
2.530000e-06	3.022250e-06	9.847523e-10	2.100355e+01	7.007516e+01
2.540000e-06	3.061346e-06	9.938522e-10	2.127526e+01	7.070951e+01
2.550000e-06	3.100174e-06	1.001726e-09	2.154510e+01	7.132526e+01
2.560000e-06	3.138714e-06	1.008782e-09	2.181294e+01	7.192296e+01
2.570000e-06	3.177061e-06	1.016412e-09	2.207944e+01	7.250319e+01
2.580000e-06	3.215244e-06	1.024288e-09	2.234480e+01	7.306652e+01
2.590000e-06	3.253278e-06	1.031142e-09	2.260912e+01	7.361350e+01
2.600000e-06	3.291101e-06	1.038097e-09	2.287198e+01	7.414468e+01
2.610000e-06	3.328646e-06	1.046518e-09	2.313290e+01	7.466062e+01
2.620000e-06	3.365838e-06	1.053894e-09	2.339137e+01	7.516183e+01
2.630000e-06	3.402677e-06	1.061304e-09	2.364738e+01	7.564883e+01
2.640000e-06	3.439280e-06	1.067266e-09	2.390177e+01	7.612208e+01
2.650000e-06	3.475690e-06	1.070912e-09	2.415480e+01	7.658203e+01
2.660000e-06	3.511923e-06	1.075584e-09	2.440661e+01	7.702911e+01
2.670000e-06	3.547989e-06	1.083341e-09	2.465725e+01	7.746370e+01
2.680000e-06	3.583898e-06	1.091508e-09	2.490681e+01	7.788612e+01
2.690000e-06	3.619683e-06	1.100044e-09	2.515550e+01	7.829670e+01
2.700000e-06	3.655311e-06	1.108117e-09	2.540311e+01	7.869570e+01
2.710000e-06	3.690770e-06	1.114644e-09	2.564953e+01	7.908334e+01
2.720000e-06	3.726013e-06	1.118952e-09	2.589446e+01	7.945982e+01
2.730000e-06	3.760992e-06	1.123614e-09	2.613755e+01	7.982529e+01
2.740000e-06	3.795613e-06	1.129567e-09	2.637815e+01	8.017988e+01
2.750000e-06	3.829674e-06	1.135669e-09	2.661486e+01	8.052371e+01
2.760000e-06	3.863152e-06	1.143074e-09	2.684753e+01	8.085685e+01
2.770000e-06	3.896165e-06	1.149542e-09	2.707695e+01	8.117937e+01
2.780000e-06	3.928870e-06	1.154551e-09	2.730424e+01	8.149133e+01
2.790000e-06	3.961323e-06	1.159342e-09	2.752978e+01	8.179281e+01
2.800000e-06	3.993507e-06	1.164848e-09	2.775344e+01	8.208386e+01
2.810000e-06	4.025503e-06	1.168470e-09	2.797581e+01	8.236458e+01
2.820000e-06	4.057328e-06	1.172219e-09	2.819697e+01	8.263505e+01
2.830000e-06	4.088971e-06	1.176321e-09	2.841688e+01	8.289543e+01
2.840000e-06	4.120410e-06	1.181776e-09	2.863537e+01	8.314586e+01
2.850000e-06	4.151541e-06	1.188337e-09	2.885172e+01	8.338654e+01
2.860000e-06	4.182349e-06	1.194108e-09	2.906583e+01	8.361771e+01
2.870000e-06	4.212833e-06	1.198605e-09	2.927768e+01	8.383966e+01
2.880000e-06	4.242950e-06	1.200210e-09	2.948698e+01	8.405270e+01
2.890000e-06	4.272716e-06	1.201967e-09	2.969385e+01	8.425721e+01
2.900000e-06	4.302260e-06	1.207810e-09	2.989917e+01	8.445360e+01
