# Temperatura_=_9.41
# Concentracion g/m^3_=_1620.0
# C_Vs_to_Am_M_A/Vsm_=_65563218390.804596
# pendiente_HvsI_1/m_=_3716.3
# ordenada_HvsI_A/m_=_1297.0
# frecuencia_Hz_=_135106.88086607953

Tiempo_(s)	Campo_(V.s)	Magnetizacion_(V.s)	Campo_(kA/m)	Magnetizacion_(A/m)
0.000000e+00	-5.530185e-06	-1.365453e-09	-3.836949e+01	-9.254254e+01
1.000000e-08	-5.530369e-06	-1.364207e-09	-3.837076e+01	-9.252602e+01
2.000000e-08	-5.530360e-06	-1.362931e-09	-3.837070e+01	-9.251106e+01
3.000000e-08	-5.530045e-06	-1.360890e-09	-3.836852e+01	-9.249793e+01
4.000000e-08	-5.529303e-06	-1.359600e-09	-3.836337e+01	-9.248686e+01
5.000000e-08	-5.528069e-06	-1.360122e-09	-3.835480e+01	-9.247804e+01
6.000000e-08	-5.526289e-06	-1.364322e-09	-3.834245e+01	-9.247157e+01
7.000000e-08	-5.523859e-06	-1.372233e-09	-3.832560e+01	-9.246752e+01
8.000000e-08	-5.520795e-06	-1.355964e-09	-3.830434e+01	-9.246585e+01
9.000000e-08	-5.517246e-06	-1.314272e-09	-3.827972e+01	-9.246648e+01
1.000000e-07	-5.513332e-06	-1.340014e-09	-3.825256e+01	-9.246922e+01
1.100000e-07	-5.509124e-06	-1.420012e-09	-3.822336e+01	-9.247380e+01
1.200000e-07	-5.504656e-06	-1.396753e-09	-3.819236e+01	-9.247989e+01
1.300000e-07	-5.499902e-06	-1.304307e-09	-3.815938e+01	-9.248706e+01
1.400000e-07	-5.494843e-06	-1.287517e-09	-3.812428e+01	-9.249480e+01
1.500000e-07	-5.489399e-06	-1.396666e-09	-3.808651e+01	-9.250253e+01
1.600000e-07	-5.483443e-06	-1.399889e-09	-3.804519e+01	-9.250961e+01
1.700000e-07	-5.477084e-06	-1.306201e-09	-3.800106e+01	-9.251533e+01
1.800000e-07	-5.470407e-06	-1.293908e-09	-3.795474e+01	-9.251894e+01
1.900000e-07	-5.463334e-06	-1.397681e-09	-3.790566e+01	-9.251964e+01
2.000000e-07	-5.455916e-06	-1.435409e-09	-3.785419e+01	-9.251662e+01
2.100000e-07	-5.448269e-06	-1.354754e-09	-3.780114e+01	-9.250903e+01
2.200000e-07	-5.440317e-06	-1.325338e-09	-3.774596e+01	-9.249604e+01
2.300000e-07	-5.432064e-06	-1.374376e-09	-3.768870e+01	-9.247681e+01
2.400000e-07	-5.423495e-06	-1.410965e-09	-3.762925e+01	-9.245056e+01
2.500000e-07	-5.414410e-06	-1.375177e-09	-3.756622e+01	-9.241652e+01
2.600000e-07	-5.404671e-06	-1.372105e-09	-3.749865e+01	-9.237398e+01
2.700000e-07	-5.394310e-06	-1.385766e-09	-3.742676e+01	-9.232230e+01
2.800000e-07	-5.383457e-06	-1.390569e-09	-3.735146e+01	-9.226092e+01
2.900000e-07	-5.372151e-06	-1.356790e-09	-3.727302e+01	-9.218938e+01
3.000000e-07	-5.360407e-06	-1.361156e-09	-3.719154e+01	-9.210729e+01
3.100000e-07	-5.348227e-06	-1.377219e-09	-3.710703e+01	-9.201438e+01
3.200000e-07	-5.335667e-06	-1.394314e-09	-3.701989e+01	-9.191051e+01
3.300000e-07	-5.322666e-06	-1.376218e-09	-3.692968e+01	-9.179562e+01
3.400000e-07	-5.309228e-06	-1.369243e-09	-3.683644e+01	-9.166981e+01
3.500000e-07	-5.295463e-06	-1.384852e-09	-3.674094e+01	-9.153326e+01
3.600000e-07	-5.281284e-06	-1.383486e-09	-3.664256e+01	-9.138630e+01
3.700000e-07	-5.266660e-06	-1.345499e-09	-3.654110e+01	-9.122933e+01
3.800000e-07	-5.251552e-06	-1.352181e-09	-3.643628e+01	-9.106290e+01
3.900000e-07	-5.235826e-06	-1.385836e-09	-3.632717e+01	-9.088763e+01
4.000000e-07	-5.219600e-06	-1.350319e-09	-3.621459e+01	-9.070422e+01
4.100000e-07	-5.203046e-06	-1.320868e-09	-3.609973e+01	-9.051348e+01
4.200000e-07	-5.186226e-06	-1.375107e-09	-3.598304e+01	-9.031624e+01
4.300000e-07	-5.169062e-06	-1.379899e-09	-3.586395e+01	-9.011341e+01
4.400000e-07	-5.151545e-06	-1.303145e-09	-3.574241e+01	-8.990592e+01
4.500000e-07	-5.133670e-06	-1.328737e-09	-3.561839e+01	-8.969471e+01
4.600000e-07	-5.115339e-06	-1.384885e-09	-3.549121e+01	-8.948073e+01
4.700000e-07	-5.096520e-06	-1.326209e-09	-3.536064e+01	-8.926492e+01
4.800000e-07	-5.077241e-06	-1.283256e-09	-3.522687e+01	-8.904817e+01
4.900000e-07	-5.057701e-06	-1.354935e-09	-3.509130e+01	-8.883135e+01
5.000000e-07	-5.037965e-06	-1.344584e-09	-3.495437e+01	-8.861526e+01
5.100000e-07	-5.018025e-06	-1.292158e-09	-3.481602e+01	-8.840062e+01
5.200000e-07	-4.997892e-06	-1.334793e-09	-3.467634e+01	-8.818807e+01
5.300000e-07	-4.977455e-06	-1.360342e-09	-3.453454e+01	-8.797818e+01
5.400000e-07	-4.956605e-06	-1.290994e-09	-3.438988e+01	-8.777138e+01
5.500000e-07	-4.935373e-06	-1.307586e-09	-3.424257e+01	-8.756802e+01
5.600000e-07	-4.913826e-06	-1.353163e-09	-3.409307e+01	-8.736834e+01
5.700000e-07	-4.891962e-06	-1.302455e-09	-3.394138e+01	-8.717245e+01
5.800000e-07	-4.869759e-06	-1.273360e-09	-3.378733e+01	-8.698038e+01
5.900000e-07	-4.847176e-06	-1.328365e-09	-3.363064e+01	-8.679201e+01
6.000000e-07	-4.824236e-06	-1.313322e-09	-3.347148e+01	-8.660714e+01
6.100000e-07	-4.801012e-06	-1.272423e-09	-3.331034e+01	-8.642549e+01
6.200000e-07	-4.777573e-06	-1.299016e-09	-3.314772e+01	-8.624664e+01
6.300000e-07	-4.753906e-06	-1.307997e-09	-3.298352e+01	-8.607014e+01
6.400000e-07	-4.729986e-06	-1.271873e-09	-3.281755e+01	-8.589545e+01
6.500000e-07	-4.705759e-06	-1.282785e-09	-3.264946e+01	-8.572196e+01
6.600000e-07	-4.681116e-06	-1.299859e-09	-3.247848e+01	-8.554903e+01
6.700000e-07	-4.656039e-06	-1.274714e-09	-3.230450e+01	-8.537601e+01
6.800000e-07	-4.630348e-06	-1.270139e-09	-3.212624e+01	-8.520219e+01
6.900000e-07	-4.603950e-06	-1.286783e-09	-3.194309e+01	-8.502688e+01
7.000000e-07	-4.577060e-06	-1.275142e-09	-3.175652e+01	-8.484941e+01
7.100000e-07	-4.549873e-06	-1.263806e-09	-3.156789e+01	-8.466910e+01
7.200000e-07	-4.522420e-06	-1.273287e-09	-3.137742e+01	-8.448535e+01
7.300000e-07	-4.494718e-06	-1.261595e-09	-3.118522e+01	-8.429756e+01
7.400000e-07	-4.466851e-06	-1.251902e-09	-3.099187e+01	-8.410521e+01
7.500000e-07	-4.438812e-06	-1.258998e-09	-3.079733e+01	-8.390783e+01
7.600000e-07	-4.410578e-06	-1.257201e-09	-3.060144e+01	-8.370503e+01
7.700000e-07	-4.382070e-06	-1.242159e-09	-3.040364e+01	-8.349648e+01
7.800000e-07	-4.353240e-06	-1.240131e-09	-3.020362e+01	-8.328193e+01
7.900000e-07	-4.324089e-06	-1.230287e-09	-3.000136e+01	-8.306122e+01
8.000000e-07	-4.294559e-06	-1.217228e-09	-2.979648e+01	-8.283425e+01
8.100000e-07	-4.264757e-06	-1.220204e-09	-2.958970e+01	-8.260100e+01
8.200000e-07	-4.234704e-06	-1.230563e-09	-2.938119e+01	-8.236152e+01
8.300000e-07	-4.204235e-06	-1.225043e-09	-2.916979e+01	-8.211592e+01
8.400000e-07	-4.173401e-06	-1.226674e-09	-2.895586e+01	-8.186438e+01
8.500000e-07	-4.142341e-06	-1.228886e-09	-2.874036e+01	-8.160712e+01
8.600000e-07	-4.111021e-06	-1.217570e-09	-2.852305e+01	-8.134442e+01
8.700000e-07	-4.079427e-06	-1.200950e-09	-2.830385e+01	-8.107658e+01
8.800000e-07	-4.047676e-06	-1.196194e-09	-2.808355e+01	-8.080391e+01
8.900000e-07	-4.015797e-06	-1.189806e-09	-2.786237e+01	-8.052676e+01
9.000000e-07	-3.983746e-06	-1.184867e-09	-2.763999e+01	-8.024549e+01
9.100000e-07	-3.951455e-06	-1.188575e-09	-2.741595e+01	-7.996041e+01
9.200000e-07	-3.918749e-06	-1.189441e-09	-2.718903e+01	-7.967188e+01
9.300000e-07	-3.885598e-06	-1.178399e-09	-2.695902e+01	-7.938018e+01
9.400000e-07	-3.852029e-06	-1.171327e-09	-2.672612e+01	-7.908560e+01
9.500000e-07	-3.817976e-06	-1.168439e-09	-2.648985e+01	-7.878838e+01
9.600000e-07	-3.783516e-06	-1.156723e-09	-2.625077e+01	-7.848872e+01
9.700000e-07	-3.748661e-06	-1.144985e-09	-2.600893e+01	-7.818678e+01
9.800000e-07	-3.713450e-06	-1.141878e-09	-2.576463e+01	-7.788266e+01
9.900000e-07	-3.678024e-06	-1.138409e-09	-2.551884e+01	-7.757644e+01
1.000000e-06	-3.642430e-06	-1.132781e-09	-2.527188e+01	-7.726813e+01
1.010000e-06	-3.606737e-06	-1.133622e-09	-2.502424e+01	-7.695768e+01
1.020000e-06	-3.570896e-06	-1.131383e-09	-2.477556e+01	-7.664503e+01
1.030000e-06	-3.534872e-06	-1.123973e-09	-2.452562e+01	-7.633006e+01
1.040000e-06	-3.498688e-06	-1.118550e-09	-2.427457e+01	-7.601260e+01
1.050000e-06	-3.462244e-06	-1.117541e-09	-2.402172e+01	-7.569248e+01
1.060000e-06	-3.425479e-06	-1.111183e-09	-2.376663e+01	-7.536947e+01
1.070000e-06	-3.388493e-06	-1.104408e-09	-2.351002e+01	-7.504334e+01
1.080000e-06	-3.351305e-06	-1.099625e-09	-2.325200e+01	-7.471385e+01
1.090000e-06	-3.313783e-06	-1.097945e-09	-2.299166e+01	-7.438075e+01
1.100000e-06	-3.275988e-06	-1.093732e-09	-2.272943e+01	-7.404377e+01
1.110000e-06	-3.238021e-06	-1.088453e-09	-2.246601e+01	-7.370266e+01
1.120000e-06	-3.199841e-06	-1.080530e-09	-2.220111e+01	-7.335721e+01
1.130000e-06	-3.161432e-06	-1.072979e-09	-2.193462e+01	-7.300718e+01
1.140000e-06	-3.122748e-06	-1.066427e-09	-2.166623e+01	-7.265238e+01
1.150000e-06	-3.083835e-06	-1.061570e-09	-2.139624e+01	-7.229264e+01
1.160000e-06	-3.044822e-06	-1.056881e-09	-2.112556e+01	-7.192781e+01
1.170000e-06	-3.005638e-06	-1.053042e-09	-2.085370e+01	-7.155779e+01
1.180000e-06	-2.966157e-06	-1.046902e-09	-2.057977e+01	-7.118249e+01
1.190000e-06	-2.926486e-06	-1.039804e-09	-2.030452e+01	-7.080187e+01
1.200000e-06	-2.886744e-06	-1.031205e-09	-2.002878e+01	-7.041591e+01
1.210000e-06	-2.846890e-06	-1.021465e-09	-1.975227e+01	-7.002460e+01
1.220000e-06	-2.806885e-06	-1.011872e-09	-1.947471e+01	-6.962800e+01
1.230000e-06	-2.766727e-06	-1.007062e-09	-1.919608e+01	-6.922614e+01
1.240000e-06	-2.726376e-06	-1.004754e-09	-1.891612e+01	-6.881912e+01
1.250000e-06	-2.685848e-06	-1.000769e-09	-1.863493e+01	-6.840700e+01
1.260000e-06	-2.645124e-06	-9.971593e-10	-1.835238e+01	-6.798989e+01
1.270000e-06	-2.604146e-06	-9.895909e-10	-1.806807e+01	-6.756787e+01
1.280000e-06	-2.562864e-06	-9.790409e-10	-1.778165e+01	-6.714105e+01
1.290000e-06	-2.521123e-06	-9.692506e-10	-1.749204e+01	-6.670949e+01
1.300000e-06	-2.479169e-06	-9.624609e-10	-1.720095e+01	-6.627328e+01
1.310000e-06	-2.437022e-06	-9.560825e-10	-1.690853e+01	-6.583246e+01
1.320000e-06	-2.394501e-06	-9.508322e-10	-1.661351e+01	-6.538705e+01
1.330000e-06	-2.351745e-06	-9.474400e-10	-1.631686e+01	-6.493705e+01
1.340000e-06	-2.308819e-06	-9.429563e-10	-1.601903e+01	-6.448243e+01
1.350000e-06	-2.265653e-06	-9.351341e-10	-1.571954e+01	-6.402313e+01
1.360000e-06	-2.222273e-06	-9.253965e-10	-1.541855e+01	-6.355904e+01
1.370000e-06	-2.178805e-06	-9.142446e-10	-1.511697e+01	-6.309002e+01
1.380000e-06	-2.135213e-06	-9.040883e-10	-1.481452e+01	-6.261590e+01
1.390000e-06	-2.091496e-06	-8.936906e-10	-1.451120e+01	-6.213647e+01
1.400000e-06	-2.047704e-06	-8.850726e-10	-1.420737e+01	-6.165148e+01
1.410000e-06	-2.003846e-06	-8.776899e-10	-1.390307e+01	-6.116064e+01
1.420000e-06	-1.959885e-06	-8.711325e-10	-1.359806e+01	-6.066364e+01
1.430000e-06	-1.915833e-06	-8.644537e-10	-1.329242e+01	-6.016014e+01
1.440000e-06	-1.871705e-06	-8.569901e-10	-1.298625e+01	-5.964977e+01
1.450000e-06	-1.827492e-06	-8.471337e-10	-1.267949e+01	-5.913212e+01
1.460000e-06	-1.783201e-06	-8.355189e-10	-1.237219e+01	-5.860677e+01
1.470000e-06	-1.738770e-06	-8.236353e-10	-1.206392e+01	-5.807329e+01
1.480000e-06	-1.694208e-06	-8.125172e-10	-1.175474e+01	-5.753123e+01
1.490000e-06	-1.649518e-06	-8.031508e-10	-1.144467e+01	-5.698011e+01
1.500000e-06	-1.604608e-06	-7.950131e-10	-1.113308e+01	-5.641945e+01
1.510000e-06	-1.559559e-06	-7.861241e-10	-1.082052e+01	-5.584875e+01
1.520000e-06	-1.514446e-06	-7.787466e-10	-1.050751e+01	-5.526752e+01
1.530000e-06	-1.469157e-06	-7.726967e-10	-1.019329e+01	-5.467523e+01
1.540000e-06	-1.423677e-06	-7.625140e-10	-9.877744e+00	-5.407137e+01
1.550000e-06	-1.378130e-06	-7.486201e-10	-9.561734e+00	-5.345539e+01
1.560000e-06	-1.332576e-06	-7.346806e-10	-9.245670e+00	-5.282673e+01
1.570000e-06	-1.286962e-06	-7.214793e-10	-8.929192e+00	-5.218485e+01
1.580000e-06	-1.241259e-06	-7.097049e-10	-8.612094e+00	-5.152914e+01
1.590000e-06	-1.195538e-06	-7.008390e-10	-8.294870e+00	-5.085900e+01
1.600000e-06	-1.149724e-06	-6.950964e-10	-7.977004e+00	-5.017381e+01
1.610000e-06	-1.103746e-06	-6.875285e-10	-7.658005e+00	-4.947291e+01
1.620000e-06	-1.057666e-06	-6.763228e-10	-7.338289e+00	-4.875560e+01
1.630000e-06	-1.011467e-06	-6.655608e-10	-7.017750e+00	-4.802118e+01
1.640000e-06	-9.652498e-07	-6.542940e-10	-6.697089e+00	-4.726888e+01
1.650000e-06	-9.190481e-07	-6.400101e-10	-6.376533e+00	-4.649791e+01
1.660000e-06	-8.728174e-07	-6.241519e-10	-6.055775e+00	-4.570745e+01
1.670000e-06	-8.265622e-07	-6.097598e-10	-5.734847e+00	-4.489662e+01
1.680000e-06	-7.801860e-07	-5.958898e-10	-5.413081e+00	-4.406452e+01
1.690000e-06	-7.337200e-07	-5.828094e-10	-5.090691e+00	-4.321022e+01
1.700000e-06	-6.871771e-07	-5.695778e-10	-4.767767e+00	-4.233273e+01
1.710000e-06	-6.405069e-07	-5.551500e-10	-4.443960e+00	-4.143106e+01
1.720000e-06	-5.938443e-07	-5.403072e-10	-4.120206e+00	-4.050420e+01
1.730000e-06	-5.472306e-07	-5.277332e-10	-3.796791e+00	-3.955110e+01
1.740000e-06	-5.005737e-07	-5.142195e-10	-3.473077e+00	-3.857073e+01
1.750000e-06	-4.538268e-07	-4.978357e-10	-3.148737e+00	-3.756205e+01
1.760000e-06	-4.070119e-07	-4.796860e-10	-2.823927e+00	-3.652405e+01
1.770000e-06	-3.601619e-07	-4.616544e-10	-2.498873e+00	-3.545574e+01
1.780000e-06	-3.132988e-07	-4.449170e-10	-2.173728e+00	-3.435617e+01
1.790000e-06	-2.663507e-07	-4.294607e-10	-1.847993e+00	-3.322445e+01
1.800000e-06	-2.194109e-07	-4.149524e-10	-1.522315e+00	-3.205976e+01
1.810000e-06	-1.725463e-07	-3.993512e-10	-1.197160e+00	-3.086136e+01
1.820000e-06	-1.256187e-07	-3.813028e-10	-8.715667e-01	-2.962861e+01
1.830000e-06	-7.868817e-08	-3.623403e-10	-5.459537e-01	-2.836101e+01
1.840000e-06	-3.172385e-08	-3.438350e-10	-2.201062e-01	-2.705816e+01
1.850000e-06	1.522152e-08	-3.249476e-10	1.056098e-01	-2.571981e+01
1.860000e-06	6.214931e-08	-3.052951e-10	4.312039e-01	-2.434587e+01
1.870000e-06	1.090368e-07	-2.847930e-10	7.565182e-01	-2.293643e+01
1.880000e-06	1.558750e-07	-2.634931e-10	1.081491e+00	-2.149173e+01
1.890000e-06	2.027870e-07	-2.427994e-10	1.406975e+00	-2.001222e+01
1.900000e-06	2.496903e-07	-2.226578e-10	1.732399e+00	-1.849853e+01
1.910000e-06	2.964782e-07	-2.014903e-10	2.057022e+00	-1.695149e+01
1.920000e-06	3.431980e-07	-1.814095e-10	2.381174e+00	-1.537214e+01
1.930000e-06	3.899736e-07	-1.624080e-10	2.705712e+00	-1.376170e+01
1.940000e-06	4.367884e-07	-1.410181e-10	3.030522e+00	-1.212158e+01
1.950000e-06	4.835503e-07	-1.170158e-10	3.354965e+00	-1.045341e+01
1.960000e-06	5.302299e-07	-9.329952e-11	3.678837e+00	-8.758985e+00
1.970000e-06	5.768384e-07	-7.091448e-11	4.002216e+00	-7.040269e+00
1.980000e-06	6.234544e-07	-4.771742e-11	4.325646e+00	-5.299395e+00
1.990000e-06	6.700375e-07	-2.333436e-11	4.648849e+00	-3.538642e+00
2.000000e-06	7.165281e-07	2.352005e-12	4.971410e+00	-1.760422e+00
2.010000e-06	7.629834e-07	2.989921e-11	5.293726e+00	3.274388e-02
2.020000e-06	8.093809e-07	5.737364e-11	5.615641e+00	1.838235e+00
2.030000e-06	8.557649e-07	8.276395e-11	5.937462e+00	3.653359e+00
2.040000e-06	9.021174e-07	1.066458e-10	6.259064e+00	5.475369e+00
2.050000e-06	9.483437e-07	1.308178e-10	6.579791e+00	7.301486e+00
2.060000e-06	9.945173e-07	1.555120e-10	6.900153e+00	9.128921e+00
2.070000e-06	1.040600e-06	1.813041e-10	7.219884e+00	1.095490e+01
2.080000e-06	1.086548e-06	2.070673e-10	7.538681e+00	1.277667e+01
2.090000e-06	1.132478e-06	2.332017e-10	7.857351e+00	1.459155e+01
2.100000e-06	1.178313e-06	2.590812e-10	8.175360e+00	1.639693e+01
2.110000e-06	1.223998e-06	2.845816e-10	8.492335e+00	1.819027e+01
2.120000e-06	1.269662e-06	3.088402e-10	8.809159e+00	1.996916e+01
2.130000e-06	1.315261e-06	3.309565e-10	9.125534e+00	2.173133e+01
2.140000e-06	1.360790e-06	3.525322e-10	9.441425e+00	2.347460e+01
2.150000e-06	1.406285e-06	3.741497e-10	9.757079e+00	2.519699e+01
2.160000e-06	1.451699e-06	3.970827e-10	1.007217e+01	2.689665e+01
2.170000e-06	1.496992e-06	4.212297e-10	1.038642e+01	2.857190e+01
2.180000e-06	1.542068e-06	4.447367e-10	1.069916e+01	3.022125e+01
2.190000e-06	1.587008e-06	4.677329e-10	1.101097e+01	3.184337e+01
2.200000e-06	1.631904e-06	4.905206e-10	1.132246e+01	3.343710e+01
2.210000e-06	1.676687e-06	5.120618e-10	1.163318e+01	3.500145e+01
2.220000e-06	1.721284e-06	5.300480e-10	1.194260e+01	3.653564e+01
2.230000e-06	1.765731e-06	5.459333e-10	1.225098e+01	3.803899e+01
2.240000e-06	1.810048e-06	5.632117e-10	1.255846e+01	3.951105e+01
2.250000e-06	1.854196e-06	5.802477e-10	1.286477e+01	4.095145e+01
2.260000e-06	1.898208e-06	5.986199e-10	1.317013e+01	4.236002e+01
2.270000e-06	1.942146e-06	6.205546e-10	1.347498e+01	4.373669e+01
2.280000e-06	1.986030e-06	6.434423e-10	1.377946e+01	4.508150e+01
2.290000e-06	2.029827e-06	6.647800e-10	1.408333e+01	4.639462e+01
2.300000e-06	2.073524e-06	6.843439e-10	1.438651e+01	4.767630e+01
2.310000e-06	2.117185e-06	7.008336e-10	1.468943e+01	4.892689e+01
2.320000e-06	2.160784e-06	7.149857e-10	1.499193e+01	5.014677e+01
2.330000e-06	2.204318e-06	7.283893e-10	1.529399e+01	5.133643e+01
2.340000e-06	2.247808e-06	7.407462e-10	1.559572e+01	5.249636e+01
2.350000e-06	2.291159e-06	7.545420e-10	1.589651e+01	5.362712e+01
2.360000e-06	2.334265e-06	7.716133e-10	1.619558e+01	5.472928e+01
2.370000e-06	2.377103e-06	7.885221e-10	1.649280e+01	5.580343e+01
2.380000e-06	2.419694e-06	8.033739e-10	1.678831e+01	5.685016e+01
2.390000e-06	2.461995e-06	8.184853e-10	1.708180e+01	5.787008e+01
2.400000e-06	2.504067e-06	8.326110e-10	1.737370e+01	5.886378e+01
2.410000e-06	2.545830e-06	8.453899e-10	1.766346e+01	5.983185e+01
2.420000e-06	2.587134e-06	8.584963e-10	1.795004e+01	6.077487e+01
2.430000e-06	2.628141e-06	8.716831e-10	1.823454e+01	6.169338e+01
2.440000e-06	2.668892e-06	8.848177e-10	1.851729e+01	6.258793e+01
2.450000e-06	2.709419e-06	8.966990e-10	1.879847e+01	6.345903e+01
2.460000e-06	2.749798e-06	9.073712e-10	1.907863e+01	6.430721e+01
2.470000e-06	2.789942e-06	9.188669e-10	1.935715e+01	6.513292e+01
2.480000e-06	2.829936e-06	9.313450e-10	1.963464e+01	6.593666e+01
2.490000e-06	2.869860e-06	9.434416e-10	1.991164e+01	6.671886e+01
2.500000e-06	2.909662e-06	9.545718e-10	2.018780e+01	6.747996e+01
2.510000e-06	2.949294e-06	9.658173e-10	2.046277e+01	6.822039e+01
2.520000e-06	2.988771e-06	9.767334e-10	2.073667e+01	6.894057e+01
2.530000e-06	3.028059e-06	9.866045e-10	2.100926e+01	6.964091e+01
2.540000e-06	3.067093e-06	9.959112e-10	2.128008e+01	7.032182e+01
2.550000e-06	3.105906e-06	1.003249e-09	2.154938e+01	7.098370e+01
2.560000e-06	3.144542e-06	1.009272e-09	2.181744e+01	7.162696e+01
2.570000e-06	3.182989e-06	1.016374e-09	2.208419e+01	7.225199e+01
2.580000e-06	3.221217e-06	1.025030e-09	2.234943e+01	7.285922e+01
2.590000e-06	3.259192e-06	1.035035e-09	2.261290e+01	7.344905e+01
2.600000e-06	3.296880e-06	1.044520e-09	2.287439e+01	7.402190e+01
2.610000e-06	3.334387e-06	1.053294e-09	2.313462e+01	7.457820e+01
2.620000e-06	3.371784e-06	1.061721e-09	2.339409e+01	7.511837e+01
2.630000e-06	3.408854e-06	1.068566e-09	2.365129e+01	7.564284e+01
2.640000e-06	3.445559e-06	1.073990e-09	2.390595e+01	7.615206e+01
2.650000e-06	3.482057e-06	1.078175e-09	2.415918e+01	7.664645e+01
2.660000e-06	3.518321e-06	1.082553e-09	2.441079e+01	7.712647e+01
2.670000e-06	3.554394e-06	1.088917e-09	2.466107e+01	7.759255e+01
2.680000e-06	3.590327e-06	1.095932e-09	2.491038e+01	7.804515e+01
2.690000e-06	3.626100e-06	1.103478e-09	2.515858e+01	7.848470e+01
2.700000e-06	3.661663e-06	1.112305e-09	2.540532e+01	7.891164e+01
2.710000e-06	3.697040e-06	1.120228e-09	2.565077e+01	7.932641e+01
2.720000e-06	3.732256e-06	1.127583e-09	2.589511e+01	7.972944e+01
2.730000e-06	3.767225e-06	1.134795e-09	2.613773e+01	8.012115e+01
2.740000e-06	3.801833e-06	1.139910e-09	2.637785e+01	8.050195e+01
2.750000e-06	3.835945e-06	1.144872e-09	2.661453e+01	8.087227e+01
2.760000e-06	3.869617e-06	1.151348e-09	2.684815e+01	8.123248e+01
2.770000e-06	3.902859e-06	1.158995e-09	2.707878e+01	8.158300e+01
2.780000e-06	3.935660e-06	1.166989e-09	2.730637e+01	8.192418e+01
2.790000e-06	3.968132e-06	1.172717e-09	2.753166e+01	8.225641e+01
2.800000e-06	4.000321e-06	1.176978e-09	2.775500e+01	8.258004e+01
2.810000e-06	4.032293e-06	1.181188e-09	2.797683e+01	8.289542e+01
2.820000e-06	4.064126e-06	1.185997e-09	2.819769e+01	8.320289e+01
2.830000e-06	4.095777e-06	1.192854e-09	2.841729e+01	8.350277e+01
2.840000e-06	4.127182e-06	1.199570e-09	2.863518e+01	8.379539e+01
2.850000e-06	4.158315e-06	1.205428e-09	2.885119e+01	8.408104e+01
2.860000e-06	4.189146e-06	1.211126e-09	2.906510e+01	8.436003e+01
2.870000e-06	4.219682e-06	1.216449e-09	2.927697e+01	8.463263e+01
2.880000e-06	4.249914e-06	1.221476e-09	2.948672e+01	8.489912e+01
2.890000e-06	4.279840e-06	1.227044e-09	2.969436e+01	8.515977e+01
2.900000e-06	4.309510e-06	1.233947e-09	2.990021e+01	8.541482e+01
