# Temperatura_=_-10.38
# Concentracion g/m^3_=_1620.0
# C_Vs_to_Am_M_A/Vsm_=_65563218390.804596
# pendiente_HvsI_1/m_=_3716.3
# ordenada_HvsI_A/m_=_1297.0
# frecuencia_Hz_=_135110.921573572

Tiempo_(s)	Campo_(V.s)	Magnetizacion_(V.s)	Campo_(kA/m)	Magnetizacion_(A/m)
0.000000e+00	-5.512210e-06	-9.345571e-10	-3.837026e+01	-6.326726e+01
1.000000e-08	-5.512418e-06	-9.323796e-10	-3.837171e+01	-6.325147e+01
2.000000e-08	-5.512389e-06	-9.289737e-10	-3.837151e+01	-6.323851e+01
3.000000e-08	-5.512076e-06	-9.263129e-10	-3.836933e+01	-6.322814e+01
4.000000e-08	-5.511313e-06	-9.222429e-10	-3.836402e+01	-6.322006e+01
5.000000e-08	-5.510019e-06	-9.184229e-10	-3.835501e+01	-6.321392e+01
6.000000e-08	-5.508208e-06	-9.236473e-10	-3.834240e+01	-6.320931e+01
7.000000e-08	-5.505791e-06	-9.452880e-10	-3.832558e+01	-6.320579e+01
8.000000e-08	-5.502832e-06	-9.613908e-10	-3.830498e+01	-6.320286e+01
9.000000e-08	-5.499435e-06	-9.000838e-10	-3.828134e+01	-6.320001e+01
1.000000e-07	-5.495595e-06	-8.000045e-10	-3.825461e+01	-6.319670e+01
1.100000e-07	-5.491404e-06	-8.659955e-10	-3.822543e+01	-6.319237e+01
1.200000e-07	-5.486974e-06	-1.029553e-09	-3.819460e+01	-6.318648e+01
1.300000e-07	-5.482222e-06	-9.536952e-10	-3.816152e+01	-6.317845e+01
1.400000e-07	-5.477124e-06	-8.331641e-10	-3.812603e+01	-6.316776e+01
1.500000e-07	-5.471744e-06	-8.402075e-10	-3.808858e+01	-6.315388e+01
1.600000e-07	-5.465950e-06	-9.997829e-10	-3.804825e+01	-6.313633e+01
1.700000e-07	-5.459697e-06	-9.817316e-10	-3.800472e+01	-6.311465e+01
1.800000e-07	-5.453113e-06	-8.264143e-10	-3.795889e+01	-6.308845e+01
1.900000e-07	-5.446195e-06	-8.894681e-10	-3.791074e+01	-6.305738e+01
2.000000e-07	-5.438874e-06	-9.856063e-10	-3.785977e+01	-6.302114e+01
2.100000e-07	-5.431235e-06	-1.006013e-09	-3.780660e+01	-6.297951e+01
2.200000e-07	-5.423370e-06	-8.797456e-10	-3.775185e+01	-6.293233e+01
2.300000e-07	-5.415247e-06	-9.040332e-10	-3.769531e+01	-6.287951e+01
2.400000e-07	-5.406656e-06	-9.534621e-10	-3.763550e+01	-6.282105e+01
2.500000e-07	-5.397552e-06	-9.916631e-10	-3.757214e+01	-6.275699e+01
2.600000e-07	-5.387965e-06	-9.251342e-10	-3.750540e+01	-6.268747e+01
2.700000e-07	-5.377716e-06	-9.297952e-10	-3.743405e+01	-6.261268e+01
2.800000e-07	-5.366735e-06	-9.375424e-10	-3.735762e+01	-6.253290e+01
2.900000e-07	-5.355281e-06	-9.478370e-10	-3.727789e+01	-6.244845e+01
3.000000e-07	-5.343453e-06	-9.063994e-10	-3.719555e+01	-6.235972e+01
3.100000e-07	-5.331203e-06	-9.052334e-10	-3.711028e+01	-6.226714e+01
3.200000e-07	-5.318597e-06	-9.627309e-10	-3.702253e+01	-6.217121e+01
3.300000e-07	-5.305637e-06	-9.878988e-10	-3.693231e+01	-6.207243e+01
3.400000e-07	-5.292268e-06	-9.431172e-10	-3.683926e+01	-6.197135e+01
3.500000e-07	-5.278489e-06	-8.968363e-10	-3.674334e+01	-6.186853e+01
3.600000e-07	-5.264283e-06	-9.565896e-10	-3.664446e+01	-6.176457e+01
3.700000e-07	-5.249716e-06	-9.325659e-10	-3.654305e+01	-6.166002e+01
3.800000e-07	-5.234684e-06	-8.866294e-10	-3.643842e+01	-6.155546e+01
3.900000e-07	-5.219064e-06	-9.366205e-10	-3.632968e+01	-6.145145e+01
4.000000e-07	-5.202990e-06	-1.005786e-09	-3.621779e+01	-6.134852e+01
4.100000e-07	-5.186468e-06	-8.890334e-10	-3.610279e+01	-6.124717e+01
4.200000e-07	-5.169580e-06	-8.888398e-10	-3.598523e+01	-6.114786e+01
4.300000e-07	-5.152408e-06	-1.001032e-09	-3.586569e+01	-6.105100e+01
4.400000e-07	-5.134890e-06	-9.535923e-10	-3.574376e+01	-6.095696e+01
4.500000e-07	-5.116983e-06	-8.114874e-10	-3.561910e+01	-6.086606e+01
4.600000e-07	-5.098726e-06	-9.437209e-10	-3.549202e+01	-6.077854e+01
4.700000e-07	-5.080107e-06	-9.966978e-10	-3.536241e+01	-6.069460e+01
4.800000e-07	-5.061091e-06	-8.501021e-10	-3.523004e+01	-6.061437e+01
4.900000e-07	-5.041708e-06	-8.633347e-10	-3.509512e+01	-6.053792e+01
5.000000e-07	-5.022049e-06	-1.013803e-09	-3.495827e+01	-6.046526e+01
5.100000e-07	-5.002107e-06	-8.964199e-10	-3.481946e+01	-6.039634e+01
5.200000e-07	-4.981874e-06	-8.369438e-10	-3.467862e+01	-6.033105e+01
5.300000e-07	-4.961367e-06	-9.830100e-10	-3.453587e+01	-6.026923e+01
5.400000e-07	-4.940573e-06	-9.516470e-10	-3.439112e+01	-6.021068e+01
5.500000e-07	-4.919441e-06	-8.025281e-10	-3.424402e+01	-6.015515e+01
5.600000e-07	-4.897921e-06	-9.152895e-10	-3.409422e+01	-6.010236e+01
5.700000e-07	-4.876035e-06	-9.770726e-10	-3.394188e+01	-6.005198e+01
5.800000e-07	-4.853804e-06	-8.395603e-10	-3.378712e+01	-6.000370e+01
5.900000e-07	-4.831229e-06	-8.715981e-10	-3.362998e+01	-5.995714e+01
6.000000e-07	-4.808401e-06	-9.868258e-10	-3.347107e+01	-5.991194e+01
6.100000e-07	-4.785257e-06	-8.919671e-10	-3.330997e+01	-5.986775e+01
6.200000e-07	-4.761774e-06	-8.427461e-10	-3.314651e+01	-5.982419e+01
6.300000e-07	-4.738036e-06	-9.424675e-10	-3.298127e+01	-5.978092e+01
6.400000e-07	-4.714054e-06	-9.052576e-10	-3.281434e+01	-5.973759e+01
6.500000e-07	-4.689845e-06	-8.465024e-10	-3.264582e+01	-5.969389e+01
6.600000e-07	-4.665313e-06	-9.180333e-10	-3.247505e+01	-5.964953e+01
6.700000e-07	-4.640394e-06	-9.349656e-10	-3.230159e+01	-5.960425e+01
6.800000e-07	-4.614932e-06	-8.649250e-10	-3.212435e+01	-5.955782e+01
6.900000e-07	-4.588835e-06	-9.061418e-10	-3.194269e+01	-5.951005e+01
7.000000e-07	-4.562257e-06	-9.315698e-10	-3.175768e+01	-5.946077e+01
7.100000e-07	-4.535202e-06	-8.835085e-10	-3.156935e+01	-5.940987e+01
7.200000e-07	-4.507773e-06	-8.794330e-10	-3.137842e+01	-5.935726e+01
7.300000e-07	-4.480161e-06	-9.208766e-10	-3.118622e+01	-5.930290e+01
7.400000e-07	-4.452339e-06	-8.913776e-10	-3.099254e+01	-5.924676e+01
7.500000e-07	-4.424301e-06	-8.873162e-10	-3.079738e+01	-5.918885e+01
7.600000e-07	-4.396101e-06	-9.088074e-10	-3.060108e+01	-5.912923e+01
7.700000e-07	-4.367647e-06	-8.999057e-10	-3.040301e+01	-5.906796e+01
7.800000e-07	-4.338819e-06	-8.780469e-10	-3.020234e+01	-5.900512e+01
7.900000e-07	-4.309676e-06	-9.010123e-10	-2.999947e+01	-5.894082e+01
8.000000e-07	-4.280202e-06	-8.951718e-10	-2.979430e+01	-5.887516e+01
8.100000e-07	-4.250426e-06	-8.799949e-10	-2.958704e+01	-5.880827e+01
8.200000e-07	-4.220394e-06	-8.922476e-10	-2.937799e+01	-5.874027e+01
8.300000e-07	-4.190118e-06	-9.029748e-10	-2.916723e+01	-5.867126e+01
8.400000e-07	-4.159570e-06	-8.787991e-10	-2.895459e+01	-5.860136e+01
8.500000e-07	-4.128759e-06	-8.803783e-10	-2.874012e+01	-5.853067e+01
8.600000e-07	-4.097655e-06	-8.935186e-10	-2.852360e+01	-5.845927e+01
8.700000e-07	-4.066227e-06	-8.800650e-10	-2.830484e+01	-5.838721e+01
8.800000e-07	-4.034563e-06	-8.733792e-10	-2.808442e+01	-5.831455e+01
8.900000e-07	-4.002711e-06	-8.908467e-10	-2.786271e+01	-5.824128e+01
9.000000e-07	-3.970715e-06	-8.865526e-10	-2.763998e+01	-5.816742e+01
9.100000e-07	-3.938513e-06	-8.701773e-10	-2.741583e+01	-5.809291e+01
9.200000e-07	-3.906024e-06	-8.833044e-10	-2.718967e+01	-5.801771e+01
9.300000e-07	-3.873262e-06	-8.839166e-10	-2.696161e+01	-5.794172e+01
9.400000e-07	-3.840181e-06	-8.642593e-10	-2.673134e+01	-5.786483e+01
9.500000e-07	-3.806603e-06	-8.638916e-10	-2.649760e+01	-5.778690e+01
9.600000e-07	-3.772551e-06	-8.765399e-10	-2.626057e+01	-5.770778e+01
9.700000e-07	-3.738133e-06	-8.567610e-10	-2.602099e+01	-5.762729e+01
9.800000e-07	-3.703332e-06	-8.486694e-10	-2.577874e+01	-5.754525e+01
9.900000e-07	-3.668165e-06	-8.582869e-10	-2.553394e+01	-5.746144e+01
1.000000e-06	-3.632702e-06	-8.567997e-10	-2.528708e+01	-5.737567e+01
1.010000e-06	-3.597035e-06	-8.443982e-10	-2.503881e+01	-5.728770e+01
1.020000e-06	-3.561257e-06	-8.559510e-10	-2.478976e+01	-5.719732e+01
1.030000e-06	-3.525325e-06	-8.562605e-10	-2.453964e+01	-5.710432e+01
1.040000e-06	-3.489213e-06	-8.448522e-10	-2.428826e+01	-5.700849e+01
1.050000e-06	-3.452894e-06	-8.413029e-10	-2.403545e+01	-5.690962e+01
1.060000e-06	-3.416345e-06	-8.465977e-10	-2.378103e+01	-5.680753e+01
1.070000e-06	-3.379558e-06	-8.345710e-10	-2.352496e+01	-5.670206e+01
1.080000e-06	-3.342457e-06	-8.318261e-10	-2.326670e+01	-5.659304e+01
1.090000e-06	-3.305050e-06	-8.390731e-10	-2.300632e+01	-5.648033e+01
1.100000e-06	-3.267398e-06	-8.389287e-10	-2.274422e+01	-5.636384e+01
1.110000e-06	-3.229502e-06	-8.317839e-10	-2.248043e+01	-5.624346e+01
1.120000e-06	-3.191425e-06	-8.357916e-10	-2.221538e+01	-5.611914e+01
1.130000e-06	-3.153175e-06	-8.332879e-10	-2.194912e+01	-5.599081e+01
1.140000e-06	-3.114676e-06	-8.221216e-10	-2.168113e+01	-5.585846e+01
1.150000e-06	-3.075838e-06	-8.188674e-10	-2.141078e+01	-5.572208e+01
1.160000e-06	-3.036817e-06	-8.202895e-10	-2.113916e+01	-5.558168e+01
1.170000e-06	-2.997768e-06	-8.145521e-10	-2.086734e+01	-5.543730e+01
1.180000e-06	-2.958520e-06	-8.116485e-10	-2.059413e+01	-5.528898e+01
1.190000e-06	-2.919026e-06	-8.161814e-10	-2.031922e+01	-5.513677e+01
1.200000e-06	-2.879304e-06	-8.143940e-10	-2.004271e+01	-5.498073e+01
1.210000e-06	-2.839383e-06	-8.086745e-10	-1.976482e+01	-5.482094e+01
1.220000e-06	-2.799400e-06	-8.052386e-10	-1.948651e+01	-5.465745e+01
1.230000e-06	-2.759381e-06	-8.016625e-10	-1.920794e+01	-5.449035e+01
1.240000e-06	-2.719183e-06	-7.927781e-10	-1.892812e+01	-5.431969e+01
1.250000e-06	-2.678767e-06	-7.898288e-10	-1.864679e+01	-5.414553e+01
1.260000e-06	-2.638146e-06	-7.889398e-10	-1.836402e+01	-5.396791e+01
1.270000e-06	-2.597303e-06	-7.874412e-10	-1.807972e+01	-5.378685e+01
1.280000e-06	-2.556282e-06	-7.829611e-10	-1.779417e+01	-5.360239e+01
1.290000e-06	-2.515104e-06	-7.852746e-10	-1.750754e+01	-5.341451e+01
1.300000e-06	-2.473588e-06	-7.835518e-10	-1.721854e+01	-5.322318e+01
1.310000e-06	-2.431750e-06	-7.779825e-10	-1.692731e+01	-5.302837e+01
1.320000e-06	-2.389626e-06	-7.722531e-10	-1.663409e+01	-5.283002e+01
1.330000e-06	-2.347154e-06	-7.700874e-10	-1.633844e+01	-5.262802e+01
1.340000e-06	-2.304406e-06	-7.637922e-10	-1.604087e+01	-5.242228e+01
1.350000e-06	-2.261378e-06	-7.604738e-10	-1.574136e+01	-5.221267e+01
1.360000e-06	-2.218170e-06	-7.586042e-10	-1.544059e+01	-5.199903e+01
1.370000e-06	-2.174780e-06	-7.550057e-10	-1.513855e+01	-5.178118e+01
1.380000e-06	-2.131248e-06	-7.507608e-10	-1.483553e+01	-5.155895e+01
1.390000e-06	-2.087621e-06	-7.497409e-10	-1.453184e+01	-5.133212e+01
1.400000e-06	-2.043832e-06	-7.473447e-10	-1.422703e+01	-5.110046e+01
1.410000e-06	-1.999934e-06	-7.417126e-10	-1.392146e+01	-5.086373e+01
1.420000e-06	-1.956042e-06	-7.365423e-10	-1.361592e+01	-5.062169e+01
1.430000e-06	-1.912110e-06	-7.320193e-10	-1.331012e+01	-5.037407e+01
1.440000e-06	-1.868001e-06	-7.261718e-10	-1.300308e+01	-5.012058e+01
1.450000e-06	-1.823769e-06	-7.202119e-10	-1.269518e+01	-4.986094e+01
1.460000e-06	-1.779503e-06	-7.153272e-10	-1.238705e+01	-4.959485e+01
1.470000e-06	-1.735131e-06	-7.097957e-10	-1.207818e+01	-4.932201e+01
1.480000e-06	-1.690576e-06	-7.033068e-10	-1.176803e+01	-4.904211e+01
1.490000e-06	-1.645910e-06	-6.982724e-10	-1.145711e+01	-4.875480e+01
1.500000e-06	-1.601185e-06	-6.945873e-10	-1.114578e+01	-4.845976e+01
1.510000e-06	-1.556374e-06	-6.903751e-10	-1.083386e+01	-4.815664e+01
1.520000e-06	-1.511375e-06	-6.896554e-10	-1.052062e+01	-4.784507e+01
1.530000e-06	-1.466195e-06	-6.854615e-10	-1.020612e+01	-4.752467e+01
1.540000e-06	-1.420952e-06	-6.759427e-10	-9.891186e+00	-4.719504e+01
1.550000e-06	-1.375652e-06	-6.651033e-10	-9.575854e+00	-4.685575e+01
1.560000e-06	-1.330272e-06	-6.553439e-10	-9.259966e+00	-4.650638e+01
1.570000e-06	-1.284792e-06	-6.473224e-10	-8.943383e+00	-4.614643e+01
1.580000e-06	-1.239146e-06	-6.432352e-10	-8.625646e+00	-4.577541e+01
1.590000e-06	-1.193409e-06	-6.429929e-10	-8.307271e+00	-4.539277e+01
1.600000e-06	-1.147659e-06	-6.419585e-10	-7.988807e+00	-4.499795e+01
1.610000e-06	-1.101820e-06	-6.356245e-10	-7.669721e+00	-4.459032e+01
1.620000e-06	-1.055900e-06	-6.258321e-10	-7.350075e+00	-4.416923e+01
1.630000e-06	-1.009968e-06	-6.145361e-10	-7.030342e+00	-4.373397e+01
1.640000e-06	-9.640171e-07	-6.063210e-10	-6.710483e+00	-4.328381e+01
1.650000e-06	-9.178881e-07	-5.991960e-10	-6.389381e+00	-4.281793e+01
1.660000e-06	-8.715944e-07	-5.925942e-10	-6.067132e+00	-4.233551e+01
1.670000e-06	-8.252963e-07	-5.854089e-10	-5.744853e+00	-4.183566e+01
1.680000e-06	-7.789496e-07	-5.775577e-10	-5.422236e+00	-4.131744e+01
1.690000e-06	-7.326039e-07	-5.664345e-10	-5.099625e+00	-4.077990e+01
1.700000e-06	-6.863268e-07	-5.535499e-10	-4.777492e+00	-4.022201e+01
1.710000e-06	-6.400034e-07	-5.395020e-10	-4.455037e+00	-3.964274e+01
1.720000e-06	-5.935611e-07	-5.292159e-10	-4.131754e+00	-3.904103e+01
1.730000e-06	-5.471211e-07	-5.227901e-10	-3.808487e+00	-3.841578e+01
1.740000e-06	-5.006729e-07	-5.142882e-10	-3.485163e+00	-3.776591e+01
1.750000e-06	-4.541327e-07	-5.027890e-10	-3.161199e+00	-3.709030e+01
1.760000e-06	-4.075271e-07	-4.892784e-10	-2.836779e+00	-3.638788e+01
1.770000e-06	-3.608443e-07	-4.751181e-10	-2.511822e+00	-3.565756e+01
1.780000e-06	-3.141697e-07	-4.624755e-10	-2.186922e+00	-3.489830e+01
1.790000e-06	-2.674568e-07	-4.528754e-10	-1.861756e+00	-3.410910e+01
1.800000e-06	-2.206777e-07	-4.444565e-10	-1.536128e+00	-3.328900e+01
1.810000e-06	-1.738366e-07	-4.336957e-10	-1.210069e+00	-3.243712e+01
1.820000e-06	-1.269685e-07	-4.200494e-10	-8.838227e-01	-3.155266e+01
1.830000e-06	-8.011777e-08	-4.060408e-10	-5.576965e-01	-3.063489e+01
1.840000e-06	-3.330106e-08	-3.911954e-10	-2.318073e-01	-2.968321e+01
1.850000e-06	1.342494e-08	-3.761724e-10	9.345046e-02	-2.869711e+01
1.860000e-06	6.016585e-08	-3.600547e-10	4.188120e-01	-2.767624e+01
1.870000e-06	1.070201e-07	-3.423621e-10	7.449622e-01	-2.662035e+01
1.880000e-06	1.538717e-07	-3.235683e-10	1.071094e+00	-2.552937e+01
1.890000e-06	2.005677e-07	-3.085173e-10	1.396143e+00	-2.440336e+01
1.900000e-06	2.471330e-07	-2.958060e-10	1.720283e+00	-2.324255e+01
1.910000e-06	2.937517e-07	-2.837534e-10	2.044793e+00	-2.204735e+01
1.920000e-06	3.404685e-07	-2.709683e-10	2.369987e+00	-2.081833e+01
1.930000e-06	3.871184e-07	-2.549597e-10	2.694715e+00	-1.955624e+01
1.940000e-06	4.337477e-07	-2.343835e-10	3.019300e+00	-1.826201e+01
1.950000e-06	4.803742e-07	-2.114485e-10	3.343865e+00	-1.693673e+01
1.960000e-06	5.269072e-07	-1.891835e-10	3.667779e+00	-1.558168e+01
1.970000e-06	5.733759e-07	-1.697062e-10	3.991246e+00	-1.419829e+01
1.980000e-06	6.197803e-07	-1.533247e-10	4.314265e+00	-1.278819e+01
1.990000e-06	6.661015e-07	-1.388034e-10	4.636704e+00	-1.135311e+01
2.000000e-06	7.124481e-07	-1.219344e-10	4.959322e+00	-9.894975e+00
2.010000e-06	7.587444e-07	-1.000168e-10	5.281588e+00	-8.415807e+00
2.020000e-06	8.049415e-07	-7.412968e-11	5.603164e+00	-6.917767e+00
2.030000e-06	8.511536e-07	-4.764512e-11	5.924845e+00	-5.403118e+00
2.040000e-06	8.973113e-07	-2.393290e-11	6.246147e+00	-3.874216e+00
2.050000e-06	9.433072e-07	-3.616044e-12	6.566322e+00	-2.333492e+00
2.060000e-06	9.892063e-07	1.584781e-11	6.885824e+00	-7.834359e-01
2.070000e-06	1.035093e-06	3.516264e-11	7.205239e+00	7.734209e-01
2.080000e-06	1.080920e-06	5.390947e-11	7.524238e+00	2.334523e+00
2.090000e-06	1.126653e-06	7.590966e-11	7.842582e+00	3.897310e+00
2.100000e-06	1.172293e-06	1.001139e-10	8.160282e+00	5.459232e+00
2.110000e-06	1.217869e-06	1.230830e-10	8.477533e+00	7.017771e+00
2.120000e-06	1.263405e-06	1.435590e-10	8.794511e+00	8.570454e+00
2.130000e-06	1.308883e-06	1.633405e-10	9.111077e+00	1.011487e+01
2.140000e-06	1.354314e-06	1.818281e-10	9.427323e+00	1.164870e+01
2.150000e-06	1.399639e-06	1.987287e-10	9.742827e+00	1.316970e+01
2.160000e-06	1.444743e-06	2.190450e-10	1.005679e+01	1.467573e+01
2.170000e-06	1.489651e-06	2.426313e-10	1.036940e+01	1.616480e+01
2.180000e-06	1.534436e-06	2.648191e-10	1.068114e+01	1.763502e+01
2.190000e-06	1.579146e-06	2.857452e-10	1.099237e+01	1.908464e+01
2.200000e-06	1.623840e-06	3.055395e-10	1.130348e+01	2.051207e+01
2.210000e-06	1.668467e-06	3.229757e-10	1.161413e+01	2.191586e+01
2.220000e-06	1.712890e-06	3.380460e-10	1.192336e+01	2.329473e+01
2.230000e-06	1.757159e-06	3.543360e-10	1.223151e+01	2.464752e+01
2.240000e-06	1.801351e-06	3.727579e-10	1.253913e+01	2.597327e+01
2.250000e-06	1.845448e-06	3.907098e-10	1.284609e+01	2.727115e+01
2.260000e-06	1.889455e-06	4.090911e-10	1.315242e+01	2.854049e+01
2.270000e-06	1.933370e-06	4.295614e-10	1.345811e+01	2.978077e+01
2.280000e-06	1.977239e-06	4.485838e-10	1.376348e+01	3.099161e+01
2.290000e-06	2.021099e-06	4.661744e-10	1.406878e+01	3.217276e+01
2.300000e-06	2.064889e-06	4.830068e-10	1.437360e+01	3.332412e+01
2.310000e-06	2.108535e-06	4.965419e-10	1.467743e+01	3.444568e+01
2.320000e-06	2.152067e-06	5.079196e-10	1.498045e+01	3.553755e+01
2.330000e-06	2.195544e-06	5.201571e-10	1.528309e+01	3.659994e+01
2.340000e-06	2.238943e-06	5.352295e-10	1.558519e+01	3.763315e+01
2.350000e-06	2.282096e-06	5.534812e-10	1.588558e+01	3.863754e+01
2.360000e-06	2.324968e-06	5.732134e-10	1.618400e+01	3.961355e+01
2.370000e-06	2.367630e-06	5.895597e-10	1.648097e+01	4.056167e+01
2.380000e-06	2.409947e-06	6.009172e-10	1.677554e+01	4.148243e+01
2.390000e-06	2.451874e-06	6.113787e-10	1.706739e+01	4.237638e+01
2.400000e-06	2.493507e-06	6.210707e-10	1.735719e+01	4.324412e+01
2.410000e-06	2.534893e-06	6.300942e-10	1.764528e+01	4.408623e+01
2.420000e-06	2.575942e-06	6.416181e-10	1.793103e+01	4.490332e+01
2.430000e-06	2.616715e-06	6.549939e-10	1.821485e+01	4.569597e+01
2.440000e-06	2.657262e-06	6.686744e-10	1.849709e+01	4.646478e+01
2.450000e-06	2.697662e-06	6.811498e-10	1.877831e+01	4.721030e+01
2.460000e-06	2.737959e-06	6.922457e-10	1.905882e+01	4.793308e+01
2.470000e-06	2.778023e-06	7.003543e-10	1.933770e+01	4.863365e+01
2.480000e-06	2.817895e-06	7.062125e-10	1.961525e+01	4.931248e+01
2.490000e-06	2.857688e-06	7.133016e-10	1.989225e+01	4.997005e+01
2.500000e-06	2.897413e-06	7.222391e-10	2.016877e+01	5.060678e+01
2.510000e-06	2.936944e-06	7.316582e-10	2.044394e+01	5.122308e+01
2.520000e-06	2.976308e-06	7.403933e-10	2.071795e+01	5.181932e+01
2.530000e-06	3.015531e-06	7.481899e-10	2.099099e+01	5.239583e+01
2.540000e-06	3.054551e-06	7.557923e-10	2.126260e+01	5.295295e+01
2.550000e-06	3.093333e-06	7.612659e-10	2.153256e+01	5.349097e+01
2.560000e-06	3.131869e-06	7.657201e-10	2.180081e+01	5.401017e+01
2.570000e-06	3.170127e-06	7.710587e-10	2.206712e+01	5.451082e+01
2.580000e-06	3.208177e-06	7.752649e-10	2.233198e+01	5.499317e+01
2.590000e-06	3.246033e-06	7.787806e-10	2.259550e+01	5.545748e+01
2.600000e-06	3.283701e-06	7.838708e-10	2.285770e+01	5.590398e+01
2.610000e-06	3.321197e-06	7.914052e-10	2.311871e+01	5.633294e+01
2.620000e-06	3.358408e-06	7.999591e-10	2.337774e+01	5.674460e+01
2.630000e-06	3.395298e-06	8.068111e-10	2.363452e+01	5.713923e+01
2.640000e-06	3.431989e-06	8.109625e-10	2.388993e+01	5.751712e+01
2.650000e-06	3.468501e-06	8.135460e-10	2.414409e+01	5.787856e+01
2.660000e-06	3.504783e-06	8.159387e-10	2.439664e+01	5.822385e+01
2.670000e-06	3.540879e-06	8.192487e-10	2.464791e+01	5.855334e+01
2.680000e-06	3.576814e-06	8.220583e-10	2.489805e+01	5.886738e+01
2.690000e-06	3.612613e-06	8.266154e-10	2.514725e+01	5.916634e+01
2.700000e-06	3.648212e-06	8.327688e-10	2.539505e+01	5.945061e+01
2.710000e-06	3.683571e-06	8.379289e-10	2.564118e+01	5.972062e+01
2.720000e-06	3.718698e-06	8.423831e-10	2.588570e+01	5.997680e+01
2.730000e-06	3.753439e-06	8.454710e-10	2.612753e+01	6.021962e+01
2.740000e-06	3.787760e-06	8.471042e-10	2.636644e+01	6.044953e+01
2.750000e-06	3.821735e-06	8.502772e-10	2.660293e+01	6.066703e+01
2.760000e-06	3.855286e-06	8.557119e-10	2.683649e+01	6.087261e+01
2.770000e-06	3.888358e-06	8.605401e-10	2.706670e+01	6.106679e+01
2.780000e-06	3.920993e-06	8.654596e-10	2.729387e+01	6.125006e+01
2.790000e-06	3.953295e-06	8.708877e-10	2.751872e+01	6.142295e+01
2.800000e-06	3.985433e-06	8.753092e-10	2.774243e+01	6.158596e+01
2.810000e-06	4.017418e-06	8.775319e-10	2.796508e+01	6.173960e+01
2.820000e-06	4.049196e-06	8.773255e-10	2.818628e+01	6.188437e+01
2.830000e-06	4.080779e-06	8.766546e-10	2.840614e+01	6.202075e+01
2.840000e-06	4.112074e-06	8.772677e-10	2.862398e+01	6.214923e+01
2.850000e-06	4.143081e-06	8.802988e-10	2.883981e+01	6.227025e+01
2.860000e-06	4.173795e-06	8.856048e-10	2.905362e+01	6.238425e+01
2.870000e-06	4.204167e-06	8.919256e-10	2.926503e+01	6.249166e+01
2.880000e-06	4.234250e-06	8.967734e-10	2.947444e+01	6.259288e+01
2.890000e-06	4.264084e-06	8.988102e-10	2.968211e+01	6.268829e+01
2.900000e-06	4.293649e-06	8.988144e-10	2.988791e+01	6.277824e+01
