# Temperatura_=_15.1
# Concentracion g/m^3_=_1620.0
# C_Vs_to_Am_M_A/Vsm_=_65563218390.804596
# pendiente_HvsI_1/m_=_3716.3
# ordenada_HvsI_A/m_=_1297.0
# frecuencia_Hz_=_135098.60445121833

Tiempo_(s)	Campo_(V.s)	Magnetizacion_(V.s)	Campo_(kA/m)	Magnetizacion_(A/m)
0.000000e+00	-5.526435e-06	-1.471564e-09	-3.836737e+01	-9.778666e+01
1.000000e-08	-5.526520e-06	-1.471222e-09	-3.836797e+01	-9.777600e+01
2.000000e-08	-5.526368e-06	-1.469160e-09	-3.836691e+01	-9.776602e+01
3.000000e-08	-5.525676e-06	-1.466895e-09	-3.836210e+01	-9.775672e+01
4.000000e-08	-5.524395e-06	-1.464261e-09	-3.835321e+01	-9.774816e+01
5.000000e-08	-5.522649e-06	-1.461033e-09	-3.834109e+01	-9.774033e+01
6.000000e-08	-5.520370e-06	-1.462054e-09	-3.832526e+01	-9.773324e+01
7.000000e-08	-5.517534e-06	-1.465305e-09	-3.830558e+01	-9.772687e+01
8.000000e-08	-5.514185e-06	-1.470522e-09	-3.828233e+01	-9.772119e+01
9.000000e-08	-5.510461e-06	-1.474408e-09	-3.825647e+01	-9.771613e+01
1.000000e-07	-5.506324e-06	-1.464981e-09	-3.822775e+01	-9.771157e+01
1.100000e-07	-5.501825e-06	-1.430166e-09	-3.819652e+01	-9.770738e+01
1.200000e-07	-5.497194e-06	-1.438708e-09	-3.816437e+01	-9.770337e+01
1.300000e-07	-5.492241e-06	-1.459195e-09	-3.812998e+01	-9.769930e+01
1.400000e-07	-5.486870e-06	-1.479733e-09	-3.809269e+01	-9.769489e+01
1.500000e-07	-5.481178e-06	-1.443247e-09	-3.805318e+01	-9.768980e+01
1.600000e-07	-5.475158e-06	-1.446986e-09	-3.801138e+01	-9.768365e+01
1.700000e-07	-5.468633e-06	-1.457653e-09	-3.796608e+01	-9.767599e+01
1.800000e-07	-5.461578e-06	-1.500353e-09	-3.791710e+01	-9.766634e+01
1.900000e-07	-5.454175e-06	-1.479932e-09	-3.786570e+01	-9.765415e+01
2.000000e-07	-5.446610e-06	-1.464936e-09	-3.781318e+01	-9.763885e+01
2.100000e-07	-5.438842e-06	-1.463923e-09	-3.775925e+01	-9.761984e+01
2.200000e-07	-5.430784e-06	-1.491150e-09	-3.770332e+01	-9.759646e+01
2.300000e-07	-5.422371e-06	-1.485074e-09	-3.764491e+01	-9.756806e+01
2.400000e-07	-5.413426e-06	-1.467146e-09	-3.758281e+01	-9.753397e+01
2.500000e-07	-5.403737e-06	-1.485552e-09	-3.751554e+01	-9.749352e+01
2.600000e-07	-5.393332e-06	-1.485384e-09	-3.744331e+01	-9.744606e+01
2.700000e-07	-5.382458e-06	-1.466727e-09	-3.736781e+01	-9.739093e+01
2.800000e-07	-5.371192e-06	-1.441815e-09	-3.728959e+01	-9.732754e+01
2.900000e-07	-5.359540e-06	-1.469553e-09	-3.720870e+01	-9.725534e+01
3.000000e-07	-5.347517e-06	-1.463825e-09	-3.712523e+01	-9.717380e+01
3.100000e-07	-5.335058e-06	-1.463819e-09	-3.703873e+01	-9.708250e+01
3.200000e-07	-5.322073e-06	-1.456736e-09	-3.694859e+01	-9.698106e+01
3.300000e-07	-5.308747e-06	-1.485131e-09	-3.685607e+01	-9.686920e+01
3.400000e-07	-5.295182e-06	-1.460576e-09	-3.676189e+01	-9.674673e+01
3.500000e-07	-5.281149e-06	-1.457018e-09	-3.666447e+01	-9.661355e+01
3.600000e-07	-5.266497e-06	-1.443953e-09	-3.656275e+01	-9.646965e+01
3.700000e-07	-5.251420e-06	-1.458594e-09	-3.645808e+01	-9.631512e+01
3.800000e-07	-5.235918e-06	-1.438419e-09	-3.635046e+01	-9.615018e+01
3.900000e-07	-5.219818e-06	-1.438363e-09	-3.623868e+01	-9.597511e+01
4.000000e-07	-5.203362e-06	-1.435359e-09	-3.612443e+01	-9.579031e+01
4.100000e-07	-5.186624e-06	-1.438546e-09	-3.600823e+01	-9.559626e+01
4.200000e-07	-5.169438e-06	-1.425020e-09	-3.588892e+01	-9.539352e+01
4.300000e-07	-5.151947e-06	-1.428721e-09	-3.576748e+01	-9.518273e+01
4.400000e-07	-5.134225e-06	-1.435692e-09	-3.564445e+01	-9.496461e+01
4.500000e-07	-5.116083e-06	-1.424168e-09	-3.551850e+01	-9.473990e+01
4.600000e-07	-5.097357e-06	-1.402284e-09	-3.538849e+01	-9.450940e+01
4.700000e-07	-5.078293e-06	-1.403017e-09	-3.525614e+01	-9.427394e+01
4.800000e-07	-5.058978e-06	-1.412794e-09	-3.512205e+01	-9.403435e+01
4.900000e-07	-5.039379e-06	-1.403299e-09	-3.498597e+01	-9.379149e+01
5.000000e-07	-5.019597e-06	-1.405266e-09	-3.484864e+01	-9.354616e+01
5.100000e-07	-4.999576e-06	-1.416421e-09	-3.470965e+01	-9.329919e+01
5.200000e-07	-4.979198e-06	-1.412216e-09	-3.456817e+01	-9.305131e+01
5.300000e-07	-4.958447e-06	-1.398352e-09	-3.442410e+01	-9.280326e+01
5.400000e-07	-4.937414e-06	-1.403717e-09	-3.427809e+01	-9.255566e+01
5.500000e-07	-4.916017e-06	-1.389391e-09	-3.412953e+01	-9.230910e+01
5.600000e-07	-4.894194e-06	-1.374047e-09	-3.397803e+01	-9.206407e+01
5.700000e-07	-4.872056e-06	-1.375719e-09	-3.382434e+01	-9.182099e+01
5.800000e-07	-4.849643e-06	-1.389385e-09	-3.366873e+01	-9.158016e+01
5.900000e-07	-4.826799e-06	-1.374999e-09	-3.351014e+01	-9.134182e+01
6.000000e-07	-4.803554e-06	-1.373295e-09	-3.334876e+01	-9.110610e+01
6.100000e-07	-4.780107e-06	-1.372844e-09	-3.318597e+01	-9.087302e+01
6.200000e-07	-4.756460e-06	-1.364842e-09	-3.302181e+01	-9.064253e+01
6.300000e-07	-4.732572e-06	-1.351724e-09	-3.285596e+01	-9.041450e+01
6.400000e-07	-4.708430e-06	-1.360179e-09	-3.268836e+01	-9.018868e+01
6.500000e-07	-4.683853e-06	-1.353318e-09	-3.251773e+01	-8.996479e+01
6.600000e-07	-4.658703e-06	-1.348133e-09	-3.234313e+01	-8.974245e+01
6.700000e-07	-4.633052e-06	-1.348521e-09	-3.216505e+01	-8.952123e+01
6.800000e-07	-4.606909e-06	-1.347763e-09	-3.198355e+01	-8.930066e+01
6.900000e-07	-4.580271e-06	-1.334308e-09	-3.179861e+01	-8.908023e+01
7.000000e-07	-4.553235e-06	-1.333793e-09	-3.161092e+01	-8.885941e+01
7.100000e-07	-4.525903e-06	-1.326517e-09	-3.142116e+01	-8.863762e+01
7.200000e-07	-4.498356e-06	-1.317138e-09	-3.122992e+01	-8.841432e+01
7.300000e-07	-4.470612e-06	-1.314779e-09	-3.103731e+01	-8.818895e+01
7.400000e-07	-4.442662e-06	-1.318441e-09	-3.084326e+01	-8.796096e+01
7.500000e-07	-4.414495e-06	-1.314879e-09	-3.064771e+01	-8.772983e+01
7.600000e-07	-4.386042e-06	-1.313435e-09	-3.045017e+01	-8.749506e+01
7.700000e-07	-4.357214e-06	-1.309965e-09	-3.025004e+01	-8.725620e+01
7.800000e-07	-4.328021e-06	-1.298873e-09	-3.004736e+01	-8.701283e+01
7.900000e-07	-4.298584e-06	-1.290359e-09	-2.984299e+01	-8.676457e+01
8.000000e-07	-4.268904e-06	-1.282548e-09	-2.963694e+01	-8.651110e+01
8.100000e-07	-4.238922e-06	-1.273801e-09	-2.942879e+01	-8.625213e+01
8.200000e-07	-4.208643e-06	-1.269200e-09	-2.921858e+01	-8.598744e+01
8.300000e-07	-4.178017e-06	-1.275533e-09	-2.900596e+01	-8.571684e+01
8.400000e-07	-4.147066e-06	-1.274356e-09	-2.879108e+01	-8.544019e+01
8.500000e-07	-4.115862e-06	-1.269971e-09	-2.857445e+01	-8.515738e+01
8.600000e-07	-4.084486e-06	-1.263362e-09	-2.835662e+01	-8.486836e+01
8.700000e-07	-4.053009e-06	-1.254841e-09	-2.813809e+01	-8.457309e+01
8.800000e-07	-4.021363e-06	-1.239624e-09	-2.791839e+01	-8.427157e+01
8.900000e-07	-3.989480e-06	-1.232631e-09	-2.769703e+01	-8.396382e+01
9.000000e-07	-3.957370e-06	-1.227344e-09	-2.747411e+01	-8.364988e+01
9.100000e-07	-3.924894e-06	-1.225851e-09	-2.724864e+01	-8.332980e+01
9.200000e-07	-3.891946e-06	-1.222972e-09	-2.701990e+01	-8.300363e+01
9.300000e-07	-3.858561e-06	-1.224075e-09	-2.678813e+01	-8.267143e+01
9.400000e-07	-3.824722e-06	-1.215602e-09	-2.655320e+01	-8.233327e+01
9.500000e-07	-3.790390e-06	-1.206488e-09	-2.631485e+01	-8.198920e+01
9.600000e-07	-3.755622e-06	-1.194616e-09	-2.607347e+01	-8.163926e+01
9.700000e-07	-3.720566e-06	-1.183368e-09	-2.583009e+01	-8.128351e+01
9.800000e-07	-3.685274e-06	-1.171534e-09	-2.558508e+01	-8.092198e+01
9.900000e-07	-3.649776e-06	-1.165978e-09	-2.533864e+01	-8.055470e+01
1.000000e-06	-3.614107e-06	-1.162711e-09	-2.509100e+01	-8.018168e+01
1.010000e-06	-3.578251e-06	-1.161392e-09	-2.484207e+01	-7.980294e+01
1.020000e-06	-3.542204e-06	-1.159262e-09	-2.459181e+01	-7.941851e+01
1.030000e-06	-3.506003e-06	-1.157468e-09	-2.434049e+01	-7.902839e+01
1.040000e-06	-3.469615e-06	-1.151610e-09	-2.408786e+01	-7.863260e+01
1.050000e-06	-3.432952e-06	-1.140637e-09	-2.383333e+01	-7.823117e+01
1.060000e-06	-3.396075e-06	-1.128080e-09	-2.357731e+01	-7.782414e+01
1.070000e-06	-3.358954e-06	-1.116729e-09	-2.331960e+01	-7.741157e+01
1.080000e-06	-3.321518e-06	-1.112800e-09	-2.305970e+01	-7.699353e+01
1.090000e-06	-3.283769e-06	-1.111390e-09	-2.279762e+01	-7.657011e+01
1.100000e-06	-3.245816e-06	-1.108245e-09	-2.253413e+01	-7.614144e+01
1.110000e-06	-3.207688e-06	-1.100545e-09	-2.226943e+01	-7.570766e+01
1.120000e-06	-3.169365e-06	-1.094808e-09	-2.200337e+01	-7.526895e+01
1.130000e-06	-3.130897e-06	-1.086636e-09	-2.173631e+01	-7.482550e+01
1.140000e-06	-3.092103e-06	-1.078527e-09	-2.146698e+01	-7.437755e+01
1.150000e-06	-3.053034e-06	-1.071329e-09	-2.119574e+01	-7.392534e+01
1.160000e-06	-3.013866e-06	-1.063812e-09	-2.092382e+01	-7.346916e+01
1.170000e-06	-2.974550e-06	-1.056138e-09	-2.065086e+01	-7.300928e+01
1.180000e-06	-2.934998e-06	-1.049368e-09	-2.037628e+01	-7.254602e+01
1.190000e-06	-2.895239e-06	-1.042416e-09	-2.010025e+01	-7.207969e+01
1.200000e-06	-2.855397e-06	-1.036884e-09	-1.982365e+01	-7.161060e+01
1.210000e-06	-2.815456e-06	-1.028908e-09	-1.954635e+01	-7.113905e+01
1.220000e-06	-2.775392e-06	-1.023185e-09	-1.926821e+01	-7.066533e+01
1.230000e-06	-2.735251e-06	-1.015678e-09	-1.898953e+01	-7.018973e+01
1.240000e-06	-2.694871e-06	-1.010413e-09	-1.870919e+01	-6.971247e+01
1.250000e-06	-2.654154e-06	-1.006578e-09	-1.842651e+01	-6.923377e+01
1.260000e-06	-2.613148e-06	-1.001578e-09	-1.814183e+01	-6.875379e+01
1.270000e-06	-2.571840e-06	-9.938216e-10	-1.785505e+01	-6.827263e+01
1.280000e-06	-2.530247e-06	-9.855800e-10	-1.756628e+01	-6.779035e+01
1.290000e-06	-2.488416e-06	-9.754733e-10	-1.727587e+01	-6.730695e+01
1.300000e-06	-2.446415e-06	-9.652093e-10	-1.698428e+01	-6.682234e+01
1.310000e-06	-2.404171e-06	-9.566669e-10	-1.669100e+01	-6.633638e+01
1.320000e-06	-2.361510e-06	-9.504251e-10	-1.639483e+01	-6.584886e+01
1.330000e-06	-2.318553e-06	-9.457713e-10	-1.609660e+01	-6.535949e+01
1.340000e-06	-2.275461e-06	-9.418005e-10	-1.579743e+01	-6.486793e+01
1.350000e-06	-2.232214e-06	-9.365040e-10	-1.549718e+01	-6.437374e+01
1.360000e-06	-2.188773e-06	-9.267726e-10	-1.519559e+01	-6.387643e+01
1.370000e-06	-2.145156e-06	-9.114760e-10	-1.489279e+01	-6.337548e+01
1.380000e-06	-2.101462e-06	-8.964050e-10	-1.458944e+01	-6.287026e+01
1.390000e-06	-2.057749e-06	-8.877357e-10	-1.428596e+01	-6.236015e+01
1.400000e-06	-2.013903e-06	-8.823777e-10	-1.398156e+01	-6.184445e+01
1.410000e-06	-1.969952e-06	-8.759015e-10	-1.367643e+01	-6.132246e+01
1.420000e-06	-1.925993e-06	-8.678156e-10	-1.337124e+01	-6.079344e+01
1.430000e-06	-1.881932e-06	-8.592947e-10	-1.306534e+01	-6.025665e+01
1.440000e-06	-1.837761e-06	-8.480664e-10	-1.275869e+01	-5.971132e+01
1.450000e-06	-1.793518e-06	-8.361937e-10	-1.245153e+01	-5.915673e+01
1.460000e-06	-1.749134e-06	-8.246379e-10	-1.214339e+01	-5.859212e+01
1.470000e-06	-1.704549e-06	-8.127597e-10	-1.183386e+01	-5.801680e+01
1.480000e-06	-1.659854e-06	-8.015784e-10	-1.152357e+01	-5.743007e+01
1.490000e-06	-1.614974e-06	-7.906518e-10	-1.121199e+01	-5.683127e+01
1.500000e-06	-1.569852e-06	-7.793775e-10	-1.089873e+01	-5.621978e+01
1.510000e-06	-1.524698e-06	-7.716198e-10	-1.058524e+01	-5.559500e+01
1.520000e-06	-1.479539e-06	-7.637147e-10	-1.027172e+01	-5.495639e+01
1.530000e-06	-1.434300e-06	-7.529243e-10	-9.957651e+00	-5.430341e+01
1.540000e-06	-1.388912e-06	-7.371406e-10	-9.642544e+00	-5.363559e+01
1.550000e-06	-1.343408e-06	-7.220869e-10	-9.326631e+00	-5.295246e+01
1.560000e-06	-1.297874e-06	-7.073706e-10	-9.010515e+00	-5.225359e+01
1.570000e-06	-1.252256e-06	-6.923350e-10	-8.693808e+00	-5.153854e+01
1.580000e-06	-1.206577e-06	-6.789945e-10	-8.376682e+00	-5.080691e+01
1.590000e-06	-1.160792e-06	-6.709235e-10	-8.058822e+00	-5.005829e+01
1.600000e-06	-1.114901e-06	-6.622680e-10	-7.740217e+00	-4.929224e+01
1.610000e-06	-1.068950e-06	-6.494763e-10	-7.421207e+00	-4.850832e+01
1.620000e-06	-1.022927e-06	-6.360835e-10	-7.101690e+00	-4.770606e+01
1.630000e-06	-9.768072e-07	-6.230238e-10	-6.781501e+00	-4.688496e+01
1.640000e-06	-9.305601e-07	-6.101743e-10	-6.460430e+00	-4.604446e+01
1.650000e-06	-8.842814e-07	-5.967098e-10	-6.139139e+00	-4.518396e+01
1.660000e-06	-8.379727e-07	-5.819642e-10	-5.817640e+00	-4.430279e+01
1.670000e-06	-7.915887e-07	-5.666343e-10	-5.495619e+00	-4.340023e+01
1.680000e-06	-7.451898e-07	-5.514693e-10	-5.173493e+00	-4.247549e+01
1.690000e-06	-6.987676e-07	-5.342101e-10	-4.851206e+00	-4.152773e+01
1.700000e-06	-6.522979e-07	-5.160645e-10	-4.528589e+00	-4.055603e+01
1.710000e-06	-6.058068e-07	-5.008918e-10	-4.205824e+00	-3.955942e+01
1.720000e-06	-5.592115e-07	-4.892303e-10	-3.882335e+00	-3.853688e+01
1.730000e-06	-5.124921e-07	-4.767224e-10	-3.557986e+00	-3.748735e+01
1.740000e-06	-4.658315e-07	-4.617911e-10	-3.234043e+00	-3.640972e+01
1.750000e-06	-4.191184e-07	-4.439333e-10	-2.909737e+00	-3.530290e+01
1.760000e-06	-3.722956e-07	-4.237324e-10	-2.584669e+00	-3.416577e+01
1.770000e-06	-3.253918e-07	-4.042182e-10	-2.259039e+00	-3.299725e+01
1.780000e-06	-2.784263e-07	-3.878740e-10	-1.932980e+00	-3.179627e+01
1.790000e-06	-2.314954e-07	-3.724218e-10	-1.607161e+00	-3.056183e+01
1.800000e-06	-1.845478e-07	-3.563638e-10	-1.281226e+00	-2.929303e+01
1.810000e-06	-1.376026e-07	-3.399426e-10	-9.553085e-01	-2.798903e+01
1.820000e-06	-9.069362e-08	-3.229414e-10	-6.296420e-01	-2.664915e+01
1.830000e-06	-4.388203e-08	-3.035784e-10	-3.046518e-01	-2.527283e+01
1.840000e-06	2.894893e-09	-2.846569e-10	2.009785e-02	-2.385967e+01
1.850000e-06	4.972522e-08	-2.662275e-10	3.452182e-01	-2.240949e+01
1.860000e-06	9.652024e-08	-2.458672e-10	6.700934e-01	-2.092226e+01
1.870000e-06	1.432743e-07	-2.238865e-10	9.946846e-01	-1.939822e+01
1.880000e-06	1.901005e-07	-2.024048e-10	1.319776e+00	-1.783780e+01
1.890000e-06	2.370150e-07	-1.820342e-10	1.645481e+00	-1.624168e+01
1.900000e-06	2.838920e-07	-1.602056e-10	1.970926e+00	-1.461080e+01
1.910000e-06	3.307269e-07	-1.379895e-10	2.296077e+00	-1.294633e+01
1.920000e-06	3.775768e-07	-1.182318e-10	2.621334e+00	-1.124970e+01
1.930000e-06	4.244209e-07	-9.668964e-11	2.946550e+00	-9.522585e+00
1.940000e-06	4.712020e-07	-7.313923e-11	3.271328e+00	-7.766900e+00
1.950000e-06	5.178147e-07	-4.871269e-11	3.594937e+00	-5.984784e+00
1.960000e-06	5.643204e-07	-2.521860e-11	3.917805e+00	-4.178585e+00
1.970000e-06	6.108277e-07	-7.865853e-13	4.240682e+00	-2.350850e+00
1.980000e-06	6.573551e-07	2.416616e-11	4.563699e+00	-5.042961e-01
1.990000e-06	7.038076e-07	5.024758e-11	4.886196e+00	1.358210e+00
2.000000e-06	7.502088e-07	7.897753e-11	5.208338e+00	3.233680e+00
2.010000e-06	7.965974e-07	1.081849e-10	5.530392e+00	5.119030e+00
2.020000e-06	8.429137e-07	1.341789e-10	5.851943e+00	7.011113e+00
2.030000e-06	8.891924e-07	1.585521e-10	6.173234e+00	8.906745e+00
2.040000e-06	9.353966e-07	1.808742e-10	6.494007e+00	1.080274e+01
2.050000e-06	9.815179e-07	2.048269e-10	6.814206e+00	1.269595e+01
2.060000e-06	1.027619e-06	2.316868e-10	7.134266e+00	1.458327e+01
2.070000e-06	1.073625e-06	2.594229e-10	7.453663e+00	1.646169e+01
2.080000e-06	1.119509e-06	2.899938e-10	7.772211e+00	1.832832e+01
2.090000e-06	1.165280e-06	3.170763e-10	8.089977e+00	2.018039e+01
2.100000e-06	1.211014e-06	3.431998e-10	8.407487e+00	2.201534e+01
2.110000e-06	1.256705e-06	3.654126e-10	8.724696e+00	2.383073e+01
2.120000e-06	1.302213e-06	3.856949e-10	9.040633e+00	2.562437e+01
2.130000e-06	1.347639e-06	4.065894e-10	9.356005e+00	2.739428e+01
2.140000e-06	1.393020e-06	4.312712e-10	9.671066e+00	2.913867e+01
2.150000e-06	1.438309e-06	4.588857e-10	9.985485e+00	3.085601e+01
2.160000e-06	1.483504e-06	4.860133e-10	1.029925e+01	3.254499e+01
2.170000e-06	1.528676e-06	5.109328e-10	1.061286e+01	3.420454e+01
2.180000e-06	1.573740e-06	5.328615e-10	1.092571e+01	3.583382e+01
2.190000e-06	1.618633e-06	5.544685e-10	1.123739e+01	3.743218e+01
2.200000e-06	1.663415e-06	5.744545e-10	1.154829e+01	3.899920e+01
2.210000e-06	1.708044e-06	5.937618e-10	1.185812e+01	4.053464e+01
2.220000e-06	1.752476e-06	6.152895e-10	1.216660e+01	4.203846e+01
2.230000e-06	1.796729e-06	6.363032e-10	1.247383e+01	4.351075e+01
2.240000e-06	1.840929e-06	6.554326e-10	1.278068e+01	4.495175e+01
2.250000e-06	1.885030e-06	6.725250e-10	1.308685e+01	4.636181e+01
2.260000e-06	1.928962e-06	6.921201e-10	1.339185e+01	4.774138e+01
2.270000e-06	1.972787e-06	7.131584e-10	1.369611e+01	4.909098e+01
2.280000e-06	2.016531e-06	7.337696e-10	1.399980e+01	5.041118e+01
2.290000e-06	2.060241e-06	7.566346e-10	1.430326e+01	5.170258e+01
2.300000e-06	2.103908e-06	7.751155e-10	1.460642e+01	5.296581e+01
2.310000e-06	2.147487e-06	7.892294e-10	1.490896e+01	5.420146e+01
2.320000e-06	2.190995e-06	8.016028e-10	1.521102e+01	5.541013e+01
2.330000e-06	2.234440e-06	8.135054e-10	1.551264e+01	5.659236e+01
2.340000e-06	2.277789e-06	8.257013e-10	1.581359e+01	5.774866e+01
2.350000e-06	2.320893e-06	8.424442e-10	1.611284e+01	5.887948e+01
2.360000e-06	2.363746e-06	8.608588e-10	1.641035e+01	5.998520e+01
2.370000e-06	2.406445e-06	8.758757e-10	1.670679e+01	6.106614e+01
2.380000e-06	2.448901e-06	8.908389e-10	1.700154e+01	6.212256e+01
2.390000e-06	2.490998e-06	9.042240e-10	1.729380e+01	6.315465e+01
2.400000e-06	2.532766e-06	9.158065e-10	1.758377e+01	6.416255e+01
2.410000e-06	2.574301e-06	9.282403e-10	1.787213e+01	6.514633e+01
2.420000e-06	2.615409e-06	9.409890e-10	1.815752e+01	6.610603e+01
2.430000e-06	2.656226e-06	9.547747e-10	1.844090e+01	6.704166e+01
2.440000e-06	2.696849e-06	9.685376e-10	1.872292e+01	6.795319e+01
2.450000e-06	2.737140e-06	9.811730e-10	1.900264e+01	6.884058e+01
2.460000e-06	2.777259e-06	9.926509e-10	1.928117e+01	6.970382e+01
2.470000e-06	2.817206e-06	1.003979e-09	1.955851e+01	7.054287e+01
2.480000e-06	2.857038e-06	1.016288e-09	1.983503e+01	7.135775e+01
2.490000e-06	2.896754e-06	1.028995e-09	2.011077e+01	7.214850e+01
2.500000e-06	2.936307e-06	1.040232e-09	2.038536e+01	7.291522e+01
2.510000e-06	2.975701e-06	1.049854e-09	2.065886e+01	7.365806e+01
2.520000e-06	3.014950e-06	1.057417e-09	2.093134e+01	7.437725e+01
2.530000e-06	3.054058e-06	1.064849e-09	2.120285e+01	7.507308e+01
2.540000e-06	3.093022e-06	1.071965e-09	2.147336e+01	7.574591e+01
2.550000e-06	3.131748e-06	1.078279e-09	2.174221e+01	7.639621e+01
2.560000e-06	3.170213e-06	1.086445e-09	2.200926e+01	7.702449e+01
2.570000e-06	3.208443e-06	1.093792e-09	2.227467e+01	7.763138e+01
2.580000e-06	3.246342e-06	1.100317e-09	2.253779e+01	7.821755e+01
2.590000e-06	3.283975e-06	1.106231e-09	2.279906e+01	7.878376e+01
2.600000e-06	3.321470e-06	1.114881e-09	2.305937e+01	7.933083e+01
2.610000e-06	3.358811e-06	1.121522e-09	2.331861e+01	7.985961e+01
2.620000e-06	3.395887e-06	1.126992e-09	2.357601e+01	8.037103e+01
2.630000e-06	3.432708e-06	1.133827e-09	2.383163e+01	8.086602e+01
2.640000e-06	3.469262e-06	1.138162e-09	2.408541e+01	8.134554e+01
2.650000e-06	3.505515e-06	1.142201e-09	2.433710e+01	8.181056e+01
2.660000e-06	3.541569e-06	1.148344e-09	2.458741e+01	8.226203e+01
2.670000e-06	3.577467e-06	1.155679e-09	2.483663e+01	8.270089e+01
2.680000e-06	3.613239e-06	1.164537e-09	2.508498e+01	8.312804e+01
2.690000e-06	3.648884e-06	1.173274e-09	2.533244e+01	8.354436e+01
2.700000e-06	3.684367e-06	1.178803e-09	2.557878e+01	8.395064e+01
2.710000e-06	3.719680e-06	1.183475e-09	2.582394e+01	8.434764e+01
2.720000e-06	3.754724e-06	1.189938e-09	2.606724e+01	8.473603e+01
2.730000e-06	3.789456e-06	1.196811e-09	2.630837e+01	8.511640e+01
2.740000e-06	3.823823e-06	1.203279e-09	2.654696e+01	8.548929e+01
2.750000e-06	3.857626e-06	1.211731e-09	2.678163e+01	8.585512e+01
2.760000e-06	3.890836e-06	1.220769e-09	2.701220e+01	8.621426e+01
2.770000e-06	3.923691e-06	1.223848e-09	2.724030e+01	8.656698e+01
2.780000e-06	3.956244e-06	1.225385e-09	2.746629e+01	8.691347e+01
2.790000e-06	3.988463e-06	1.230368e-09	2.768997e+01	8.725388e+01
2.800000e-06	4.020436e-06	1.236602e-09	2.791195e+01	8.758824e+01
2.810000e-06	4.052189e-06	1.244536e-09	2.813240e+01	8.791658e+01
2.820000e-06	4.083769e-06	1.254249e-09	2.835164e+01	8.823885e+01
2.830000e-06	4.115243e-06	1.264238e-09	2.857015e+01	8.855496e+01
2.840000e-06	4.146531e-06	1.268467e-09	2.878736e+01	8.886482e+01
2.850000e-06	4.177483e-06	1.270373e-09	2.900225e+01	8.916828e+01
2.860000e-06	4.208078e-06	1.271475e-09	2.921466e+01	8.946523e+01
2.870000e-06	4.238294e-06	1.274449e-09	2.942443e+01	8.975553e+01
2.880000e-06	4.268187e-06	1.281337e-09	2.963196e+01	9.003908e+01
2.890000e-06	4.297813e-06	1.290818e-09	2.983764e+01	9.031579e+01
2.900000e-06	4.327219e-06	1.300201e-09	3.004180e+01	9.058559e+01
