# Temperatura_=_-11.5
# Concentracion g/m^3_=_1620.0
# C_Vs_to_Am_M_A/Vsm_=_65563218390.804596
# pendiente_HvsI_1/m_=_3716.3
# ordenada_HvsI_A/m_=_1297.0
# frecuencia_Hz_=_135110.0879797457

Tiempo_(s)	Campo_(V.s)	Magnetizacion_(V.s)	Campo_(kA/m)	Magnetizacion_(A/m)
0.000000e+00	-5.529576e-06	-8.738001e-10	-3.836216e+01	-5.879129e+01
1.000000e-08	-5.529836e-06	-8.712643e-10	-3.836396e+01	-5.878234e+01
2.000000e-08	-5.529833e-06	-8.686066e-10	-3.836395e+01	-5.877535e+01
3.000000e-08	-5.529526e-06	-8.674881e-10	-3.836182e+01	-5.877010e+01
4.000000e-08	-5.528822e-06	-8.666054e-10	-3.835693e+01	-5.876637e+01
5.000000e-08	-5.527656e-06	-8.656769e-10	-3.834884e+01	-5.876388e+01
6.000000e-08	-5.525907e-06	-8.613690e-10	-3.833670e+01	-5.876233e+01
7.000000e-08	-5.523457e-06	-8.570018e-10	-3.831971e+01	-5.876141e+01
8.000000e-08	-5.520425e-06	-8.557975e-10	-3.829867e+01	-5.876075e+01
9.000000e-08	-5.516897e-06	-8.655081e-10	-3.827419e+01	-5.875999e+01
1.000000e-07	-5.512941e-06	-8.904614e-10	-3.824676e+01	-5.875874e+01
1.100000e-07	-5.508634e-06	-9.119151e-10	-3.821687e+01	-5.875658e+01
1.200000e-07	-5.504009e-06	-8.507159e-10	-3.818479e+01	-5.875309e+01
1.300000e-07	-5.499216e-06	-8.153873e-10	-3.815153e+01	-5.874784e+01
1.400000e-07	-5.494176e-06	-8.348101e-10	-3.811657e+01	-5.874040e+01
1.500000e-07	-5.488647e-06	-8.889566e-10	-3.807821e+01	-5.873033e+01
1.600000e-07	-5.482677e-06	-8.757140e-10	-3.803679e+01	-5.871722e+01
1.700000e-07	-5.476411e-06	-8.347217e-10	-3.799332e+01	-5.870066e+01
1.800000e-07	-5.469744e-06	-8.565728e-10	-3.794707e+01	-5.868028e+01
1.900000e-07	-5.462611e-06	-9.112585e-10	-3.789758e+01	-5.865573e+01
2.000000e-07	-5.455070e-06	-9.025482e-10	-3.784527e+01	-5.862670e+01
2.100000e-07	-5.447291e-06	-8.486273e-10	-3.779129e+01	-5.859292e+01
2.200000e-07	-5.439309e-06	-8.440311e-10	-3.773592e+01	-5.855417e+01
2.300000e-07	-5.430947e-06	-8.836990e-10	-3.767791e+01	-5.851030e+01
2.400000e-07	-5.422205e-06	-8.938921e-10	-3.761726e+01	-5.846120e+01
2.500000e-07	-5.413003e-06	-8.717508e-10	-3.755342e+01	-5.840683e+01
2.600000e-07	-5.403062e-06	-8.711588e-10	-3.748445e+01	-5.834722e+01
2.700000e-07	-5.392457e-06	-8.722524e-10	-3.741088e+01	-5.828249e+01
2.800000e-07	-5.381375e-06	-8.654161e-10	-3.733399e+01	-5.821279e+01
2.900000e-07	-5.369848e-06	-8.564293e-10	-3.725402e+01	-5.813837e+01
3.000000e-07	-5.357958e-06	-8.711700e-10	-3.717153e+01	-5.805955e+01
3.100000e-07	-5.345723e-06	-8.717752e-10	-3.708665e+01	-5.797670e+01
3.200000e-07	-5.333056e-06	-8.846742e-10	-3.699878e+01	-5.789026e+01
3.300000e-07	-5.319925e-06	-8.774386e-10	-3.690768e+01	-5.780073e+01
3.400000e-07	-5.306447e-06	-8.726943e-10	-3.681417e+01	-5.770866e+01
3.500000e-07	-5.292579e-06	-8.667190e-10	-3.671796e+01	-5.761464e+01
3.600000e-07	-5.278217e-06	-8.778731e-10	-3.661832e+01	-5.751930e+01
3.700000e-07	-5.263360e-06	-8.574910e-10	-3.651525e+01	-5.742329e+01
3.800000e-07	-5.247924e-06	-8.669702e-10	-3.640817e+01	-5.732727e+01
3.900000e-07	-5.231901e-06	-8.862661e-10	-3.629700e+01	-5.723193e+01
4.000000e-07	-5.215432e-06	-8.724570e-10	-3.618275e+01	-5.713793e+01
4.100000e-07	-5.198566e-06	-8.545540e-10	-3.606574e+01	-5.704592e+01
4.200000e-07	-5.181476e-06	-8.875492e-10	-3.594717e+01	-5.695651e+01
4.300000e-07	-5.164165e-06	-8.894910e-10	-3.582707e+01	-5.687031e+01
4.400000e-07	-5.146468e-06	-8.451592e-10	-3.570430e+01	-5.678785e+01
4.500000e-07	-5.128415e-06	-8.678648e-10	-3.557905e+01	-5.670960e+01
4.600000e-07	-5.110035e-06	-9.056385e-10	-3.545154e+01	-5.663599e+01
4.700000e-07	-5.091216e-06	-8.565661e-10	-3.532098e+01	-5.656736e+01
4.800000e-07	-5.071992e-06	-8.339474e-10	-3.518761e+01	-5.650398e+01
4.900000e-07	-5.052470e-06	-8.940707e-10	-3.505217e+01	-5.644604e+01
5.000000e-07	-5.032734e-06	-8.828905e-10	-3.491525e+01	-5.639363e+01
5.100000e-07	-5.012860e-06	-8.346450e-10	-3.477737e+01	-5.634677e+01
5.200000e-07	-4.992717e-06	-8.696660e-10	-3.463763e+01	-5.630539e+01
5.300000e-07	-4.972145e-06	-8.957525e-10	-3.449491e+01	-5.626933e+01
5.400000e-07	-4.951122e-06	-8.480776e-10	-3.434906e+01	-5.623836e+01
5.500000e-07	-4.929797e-06	-8.588398e-10	-3.420111e+01	-5.621217e+01
5.600000e-07	-4.908247e-06	-8.916159e-10	-3.405161e+01	-5.619037e+01
5.700000e-07	-4.886368e-06	-8.521027e-10	-3.389982e+01	-5.617253e+01
5.800000e-07	-4.864109e-06	-8.317097e-10	-3.374540e+01	-5.615815e+01
5.900000e-07	-4.841493e-06	-8.796364e-10	-3.358849e+01	-5.614668e+01
6.000000e-07	-4.818512e-06	-8.691474e-10	-3.342906e+01	-5.613757e+01
6.100000e-07	-4.795194e-06	-8.370142e-10	-3.326729e+01	-5.613021e+01
6.200000e-07	-4.771598e-06	-8.603784e-10	-3.310359e+01	-5.612401e+01
6.300000e-07	-4.747797e-06	-8.732334e-10	-3.293846e+01	-5.611837e+01
6.400000e-07	-4.723831e-06	-8.442374e-10	-3.277220e+01	-5.611270e+01
6.500000e-07	-4.699593e-06	-8.531183e-10	-3.260405e+01	-5.610643e+01
6.600000e-07	-4.674997e-06	-8.702769e-10	-3.243341e+01	-5.609903e+01
6.700000e-07	-4.650027e-06	-8.547889e-10	-3.226017e+01	-5.609002e+01
6.800000e-07	-4.624546e-06	-8.515629e-10	-3.208339e+01	-5.607895e+01
6.900000e-07	-4.598388e-06	-8.711717e-10	-3.190192e+01	-5.606544e+01
7.000000e-07	-4.571568e-06	-8.649352e-10	-3.171585e+01	-5.604918e+01
7.100000e-07	-4.544300e-06	-8.504935e-10	-3.152668e+01	-5.602992e+01
7.200000e-07	-4.516741e-06	-8.523829e-10	-3.133549e+01	-5.600748e+01
7.300000e-07	-4.488983e-06	-8.538921e-10	-3.114291e+01	-5.598175e+01
7.400000e-07	-4.461100e-06	-8.495315e-10	-3.094947e+01	-5.595269e+01
7.500000e-07	-4.433041e-06	-8.542102e-10	-3.075481e+01	-5.592034e+01
7.600000e-07	-4.404703e-06	-8.597381e-10	-3.055821e+01	-5.588477e+01
7.700000e-07	-4.376099e-06	-8.535097e-10	-3.035976e+01	-5.584615e+01
7.800000e-07	-4.347148e-06	-8.468730e-10	-3.015891e+01	-5.580469e+01
7.900000e-07	-4.317767e-06	-8.446620e-10	-2.995507e+01	-5.576062e+01
8.000000e-07	-4.288160e-06	-8.437543e-10	-2.974967e+01	-5.571425e+01
8.100000e-07	-4.258379e-06	-8.392771e-10	-2.954307e+01	-5.566587e+01
8.200000e-07	-4.228296e-06	-8.402304e-10	-2.933436e+01	-5.561583e+01
8.300000e-07	-4.197854e-06	-8.391890e-10	-2.912316e+01	-5.556445e+01
8.400000e-07	-4.167052e-06	-8.378205e-10	-2.890947e+01	-5.551208e+01
8.500000e-07	-4.135994e-06	-8.393810e-10	-2.869400e+01	-5.545904e+01
8.600000e-07	-4.104735e-06	-8.418227e-10	-2.847714e+01	-5.540564e+01
8.700000e-07	-4.073189e-06	-8.391250e-10	-2.825828e+01	-5.535213e+01
8.800000e-07	-4.041418e-06	-8.380729e-10	-2.803787e+01	-5.529875e+01
8.900000e-07	-4.009544e-06	-8.359256e-10	-2.781674e+01	-5.524570e+01
9.000000e-07	-3.977527e-06	-8.298835e-10	-2.759462e+01	-5.519310e+01
9.100000e-07	-3.945259e-06	-8.261304e-10	-2.737075e+01	-5.514105e+01
9.200000e-07	-3.912663e-06	-8.314589e-10	-2.714461e+01	-5.508955e+01
9.300000e-07	-3.879619e-06	-8.326708e-10	-2.691537e+01	-5.503858e+01
9.400000e-07	-3.846094e-06	-8.333892e-10	-2.668278e+01	-5.498804e+01
9.500000e-07	-3.812157e-06	-8.355158e-10	-2.644734e+01	-5.493779e+01
9.600000e-07	-3.777703e-06	-8.317643e-10	-2.620831e+01	-5.488761e+01
9.700000e-07	-3.742635e-06	-8.211608e-10	-2.596502e+01	-5.483724e+01
9.800000e-07	-3.707207e-06	-8.176912e-10	-2.571924e+01	-5.478640e+01
9.900000e-07	-3.671673e-06	-8.207228e-10	-2.547271e+01	-5.473473e+01
1.000000e-06	-3.635997e-06	-8.205220e-10	-2.522521e+01	-5.468189e+01
1.010000e-06	-3.600170e-06	-8.222606e-10	-2.497665e+01	-5.462747e+01
1.020000e-06	-3.564232e-06	-8.266430e-10	-2.472733e+01	-5.457107e+01
1.030000e-06	-3.528202e-06	-8.227260e-10	-2.447736e+01	-5.451230e+01
1.040000e-06	-3.491999e-06	-8.168738e-10	-2.422620e+01	-5.445076e+01
1.050000e-06	-3.455515e-06	-8.177557e-10	-2.397309e+01	-5.438606e+01
1.060000e-06	-3.418700e-06	-8.175142e-10	-2.371768e+01	-5.431785e+01
1.070000e-06	-3.381592e-06	-8.142357e-10	-2.346024e+01	-5.424580e+01
1.080000e-06	-3.344230e-06	-8.155470e-10	-2.320103e+01	-5.416963e+01
1.090000e-06	-3.306638e-06	-8.190035e-10	-2.294024e+01	-5.408909e+01
1.100000e-06	-3.268839e-06	-8.146520e-10	-2.267800e+01	-5.400400e+01
1.110000e-06	-3.230853e-06	-8.107450e-10	-2.241446e+01	-5.391422e+01
1.120000e-06	-3.192666e-06	-8.111468e-10	-2.214954e+01	-5.381968e+01
1.130000e-06	-3.154221e-06	-8.113582e-10	-2.188282e+01	-5.372035e+01
1.140000e-06	-3.115478e-06	-8.112988e-10	-2.161404e+01	-5.361626e+01
1.150000e-06	-3.076592e-06	-8.139176e-10	-2.134426e+01	-5.350752e+01
1.160000e-06	-3.037620e-06	-8.125648e-10	-2.107389e+01	-5.339426e+01
1.170000e-06	-2.998361e-06	-8.044346e-10	-2.080152e+01	-5.327668e+01
1.180000e-06	-2.958824e-06	-7.971080e-10	-2.052723e+01	-5.315501e+01
1.190000e-06	-2.919141e-06	-7.957351e-10	-2.025192e+01	-5.302951e+01
1.200000e-06	-2.879385e-06	-7.945537e-10	-1.997611e+01	-5.290048e+01
1.210000e-06	-2.839572e-06	-7.940091e-10	-1.969991e+01	-5.276823e+01
1.220000e-06	-2.799638e-06	-7.935325e-10	-1.942286e+01	-5.263308e+01
1.230000e-06	-2.759543e-06	-7.905616e-10	-1.914469e+01	-5.249533e+01
1.240000e-06	-2.719300e-06	-7.850309e-10	-1.886550e+01	-5.235531e+01
1.250000e-06	-2.678880e-06	-7.822315e-10	-1.858508e+01	-5.221330e+01
1.260000e-06	-2.638207e-06	-7.821327e-10	-1.830291e+01	-5.206954e+01
1.270000e-06	-2.597191e-06	-7.823252e-10	-1.801835e+01	-5.192427e+01
1.280000e-06	-2.555834e-06	-7.815841e-10	-1.773143e+01	-5.177766e+01
1.290000e-06	-2.514214e-06	-7.812714e-10	-1.744269e+01	-5.162982e+01
1.300000e-06	-2.472406e-06	-7.774867e-10	-1.715264e+01	-5.148082e+01
1.310000e-06	-2.430326e-06	-7.706316e-10	-1.686071e+01	-5.133065e+01
1.320000e-06	-2.387905e-06	-7.669586e-10	-1.656641e+01	-5.117926e+01
1.330000e-06	-2.345228e-06	-7.650302e-10	-1.627033e+01	-5.102651e+01
1.340000e-06	-2.302253e-06	-7.646799e-10	-1.597218e+01	-5.087220e+01
1.350000e-06	-2.259077e-06	-7.656095e-10	-1.567264e+01	-5.071607e+01
1.360000e-06	-2.215758e-06	-7.645299e-10	-1.537211e+01	-5.055777e+01
1.370000e-06	-2.172183e-06	-7.581512e-10	-1.506981e+01	-5.039691e+01
1.380000e-06	-2.128471e-06	-7.498250e-10	-1.476654e+01	-5.023305e+01
1.390000e-06	-2.084707e-06	-7.438284e-10	-1.446293e+01	-5.006569e+01
1.400000e-06	-2.040861e-06	-7.391600e-10	-1.415874e+01	-4.989429e+01
1.410000e-06	-1.996939e-06	-7.367873e-10	-1.385402e+01	-4.971825e+01
1.420000e-06	-1.952963e-06	-7.384152e-10	-1.354894e+01	-4.953699e+01
1.430000e-06	-1.908907e-06	-7.382236e-10	-1.324329e+01	-4.934985e+01
1.440000e-06	-1.864732e-06	-7.360794e-10	-1.293682e+01	-4.915622e+01
1.450000e-06	-1.820443e-06	-7.332144e-10	-1.262956e+01	-4.895544e+01
1.460000e-06	-1.776093e-06	-7.268038e-10	-1.232188e+01	-4.874686e+01
1.470000e-06	-1.731674e-06	-7.163974e-10	-1.201371e+01	-4.852986e+01
1.480000e-06	-1.687050e-06	-7.081888e-10	-1.170413e+01	-4.830382e+01
1.490000e-06	-1.642152e-06	-7.039998e-10	-1.139264e+01	-4.806814e+01
1.500000e-06	-1.597038e-06	-7.003858e-10	-1.107966e+01	-4.782226e+01
1.510000e-06	-1.551854e-06	-6.970709e-10	-1.076619e+01	-4.756563e+01
1.520000e-06	-1.506636e-06	-6.935439e-10	-1.045249e+01	-4.729774e+01
1.530000e-06	-1.461287e-06	-6.877091e-10	-1.013787e+01	-4.701811e+01
1.540000e-06	-1.415841e-06	-6.821036e-10	-9.822585e+00	-4.672629e+01
1.550000e-06	-1.370298e-06	-6.766395e-10	-9.506623e+00	-4.642185e+01
1.560000e-06	-1.324679e-06	-6.703039e-10	-9.190131e+00	-4.610440e+01
1.570000e-06	-1.279033e-06	-6.636897e-10	-8.873461e+00	-4.577356e+01
1.580000e-06	-1.233325e-06	-6.565673e-10	-8.556356e+00	-4.542895e+01
1.590000e-06	-1.187495e-06	-6.508363e-10	-8.238404e+00	-4.507022e+01
1.600000e-06	-1.141515e-06	-6.457086e-10	-7.919411e+00	-4.469701e+01
1.610000e-06	-1.095482e-06	-6.394265e-10	-7.600051e+00	-4.430896e+01
1.620000e-06	-1.049443e-06	-6.322686e-10	-7.280650e+00	-4.390568e+01
1.630000e-06	-1.003310e-06	-6.259408e-10	-6.960596e+00	-4.348676e+01
1.640000e-06	-9.570316e-07	-6.206206e-10	-6.639533e+00	-4.305179e+01
1.650000e-06	-9.106318e-07	-6.150056e-10	-6.317628e+00	-4.260028e+01
1.660000e-06	-8.642172e-07	-6.075179e-10	-5.995621e+00	-4.213173e+01
1.670000e-06	-8.177976e-07	-5.986016e-10	-5.673579e+00	-4.164557e+01
1.680000e-06	-7.712826e-07	-5.870089e-10	-5.350874e+00	-4.114119e+01
1.690000e-06	-7.246691e-07	-5.733291e-10	-5.027487e+00	-4.061793e+01
1.700000e-06	-6.780384e-07	-5.614727e-10	-4.703980e+00	-4.007506e+01
1.710000e-06	-6.314148e-07	-5.530377e-10	-4.380523e+00	-3.951180e+01
1.720000e-06	-5.847103e-07	-5.464995e-10	-4.056505e+00	-3.892731e+01
1.730000e-06	-5.380260e-07	-5.394218e-10	-3.732626e+00	-3.832071e+01
1.740000e-06	-4.913327e-07	-5.317775e-10	-3.408685e+00	-3.769108e+01
1.750000e-06	-4.445200e-07	-5.206247e-10	-3.083916e+00	-3.703744e+01
1.760000e-06	-3.976503e-07	-5.064387e-10	-2.758751e+00	-3.635881e+01
1.770000e-06	-3.508205e-07	-4.945662e-10	-2.433863e+00	-3.565416e+01
1.780000e-06	-3.040433e-07	-4.844387e-10	-2.109340e+00	-3.492248e+01
1.790000e-06	-2.571951e-07	-4.736698e-10	-1.784325e+00	-3.416276e+01
1.800000e-06	-2.103080e-07	-4.617568e-10	-1.459039e+00	-3.337400e+01
1.810000e-06	-1.634777e-07	-4.475788e-10	-1.134148e+00	-3.255524e+01
1.820000e-06	-1.166743e-07	-4.320087e-10	-8.094436e-01	-3.170560e+01
1.830000e-06	-6.982127e-08	-4.185712e-10	-4.843943e-01	-3.082423e+01
1.840000e-06	-2.294007e-08	-4.063784e-10	-1.591497e-01	-2.991037e+01
1.850000e-06	2.396371e-08	-3.952755e-10	1.662514e-01	-2.896339e+01
1.860000e-06	7.100219e-08	-3.823073e-10	4.925870e-01	-2.798273e+01
1.870000e-06	1.180398e-07	-3.667208e-10	8.189166e-01	-2.696799e+01
1.880000e-06	1.649481e-07	-3.514843e-10	1.144349e+00	-2.591891e+01
1.890000e-06	2.118571e-07	-3.375839e-10	1.469786e+00	-2.483537e+01
1.900000e-06	2.587805e-07	-3.224240e-10	1.795324e+00	-2.371741e+01
1.910000e-06	3.056755e-07	-3.049203e-10	2.120664e+00	-2.256528e+01
1.920000e-06	3.525566e-07	-2.888435e-10	2.445908e+00	-2.137936e+01
1.930000e-06	3.993607e-07	-2.725245e-10	2.770618e+00	-2.016025e+01
1.940000e-06	4.461173e-07	-2.547388e-10	3.094997e+00	-1.890872e+01
1.950000e-06	4.929062e-07	-2.364697e-10	3.419601e+00	-1.762573e+01
1.960000e-06	5.396255e-07	-2.189751e-10	3.743723e+00	-1.631244e+01
1.970000e-06	5.862027e-07	-2.010788e-10	4.066858e+00	-1.497016e+01
1.980000e-06	6.326434e-07	-1.834617e-10	4.389047e+00	-1.360039e+01
1.990000e-06	6.790428e-07	-1.647167e-10	4.710948e+00	-1.220481e+01
2.000000e-06	7.254732e-07	-1.432705e-10	5.033066e+00	-1.078524e+01
2.010000e-06	7.718791e-07	-1.189607e-10	5.355013e+00	-9.343635e+00
2.020000e-06	8.183019e-07	-9.449991e-11	5.677077e+00	-7.882105e+00
2.030000e-06	8.646915e-07	-7.344894e-11	5.998911e+00	-6.402855e+00
2.040000e-06	9.109479e-07	-5.584457e-11	6.319821e+00	-4.908197e+00
2.050000e-06	9.572097e-07	-3.707387e-11	6.640768e+00	-3.400520e+00
2.060000e-06	1.003397e-06	-1.591726e-11	6.961202e+00	-1.882281e+00
2.070000e-06	1.049404e-06	4.119592e-12	7.280377e+00	-3.559808e-01
2.080000e-06	1.095355e-06	2.548824e-11	7.599167e+00	1.175854e+00
2.090000e-06	1.141228e-06	5.077437e-11	7.917422e+00	2.710684e+00
2.100000e-06	1.187023e-06	7.759806e-11	8.235125e+00	4.245983e+00
2.110000e-06	1.232772e-06	1.015789e-10	8.552520e+00	5.779247e+00
2.120000e-06	1.278445e-06	1.220823e-10	8.869377e+00	7.308016e+00
2.130000e-06	1.324022e-06	1.406282e-10	9.185574e+00	8.829887e+00
2.140000e-06	1.369524e-06	1.576684e-10	9.501252e+00	1.034253e+01
2.150000e-06	1.414934e-06	1.758794e-10	9.816292e+00	1.184370e+01
2.160000e-06	1.460278e-06	1.980479e-10	1.013087e+01	1.333125e+01
2.170000e-06	1.505531e-06	2.211572e-10	1.044482e+01	1.480314e+01
2.180000e-06	1.550644e-06	2.435473e-10	1.075780e+01	1.625744e+01
2.190000e-06	1.595632e-06	2.644466e-10	1.106991e+01	1.769236e+01
2.200000e-06	1.640510e-06	2.841549e-10	1.138125e+01	1.910621e+01
2.210000e-06	1.685291e-06	3.010124e-10	1.169193e+01	2.049747e+01
2.220000e-06	1.729921e-06	3.156967e-10	1.200155e+01	2.186472e+01
2.230000e-06	1.774380e-06	3.312463e-10	1.231000e+01	2.320670e+01
2.240000e-06	1.818673e-06	3.488855e-10	1.261728e+01	2.452229e+01
2.250000e-06	1.862831e-06	3.675344e-10	1.292364e+01	2.581047e+01
2.260000e-06	1.906926e-06	3.871107e-10	1.322955e+01	2.707040e+01
2.270000e-06	1.950954e-06	4.065998e-10	1.353500e+01	2.830134e+01
2.280000e-06	1.994890e-06	4.238383e-10	1.383981e+01	2.950270e+01
2.290000e-06	2.038736e-06	4.399203e-10	1.414400e+01	3.067398e+01
2.300000e-06	2.082536e-06	4.556575e-10	1.444787e+01	3.181482e+01
2.310000e-06	2.126298e-06	4.698780e-10	1.475147e+01	3.292496e+01
2.320000e-06	2.169972e-06	4.834337e-10	1.505447e+01	3.400426e+01
2.330000e-06	2.213558e-06	4.975528e-10	1.535685e+01	3.505266e+01
2.340000e-06	2.256970e-06	5.118930e-10	1.565803e+01	3.607019e+01
2.350000e-06	2.300150e-06	5.265190e-10	1.595760e+01	3.705699e+01
2.360000e-06	2.343216e-06	5.391019e-10	1.625637e+01	3.801325e+01
2.370000e-06	2.386050e-06	5.493487e-10	1.655353e+01	3.893925e+01
2.380000e-06	2.428462e-06	5.596648e-10	1.684778e+01	3.983533e+01
2.390000e-06	2.470537e-06	5.706409e-10	1.713968e+01	4.070189e+01
2.400000e-06	2.512356e-06	5.826553e-10	1.742980e+01	4.153939e+01
2.410000e-06	2.553818e-06	5.969545e-10	1.771745e+01	4.234833e+01
2.420000e-06	2.594915e-06	6.113837e-10	1.800256e+01	4.312925e+01
2.430000e-06	2.635683e-06	6.233895e-10	1.828539e+01	4.388275e+01
2.440000e-06	2.676180e-06	6.321243e-10	1.856635e+01	4.460945e+01
2.450000e-06	2.716564e-06	6.386669e-10	1.884652e+01	4.530998e+01
2.460000e-06	2.756805e-06	6.446454e-10	1.912570e+01	4.598503e+01
2.470000e-06	2.796870e-06	6.522025e-10	1.940365e+01	4.663527e+01
2.480000e-06	2.836811e-06	6.609557e-10	1.968075e+01	4.726143e+01
2.490000e-06	2.876620e-06	6.724335e-10	1.995693e+01	4.786421e+01
2.500000e-06	2.916350e-06	6.850679e-10	2.023256e+01	4.844433e+01
2.510000e-06	2.956000e-06	6.948216e-10	2.050764e+01	4.900252e+01
2.520000e-06	2.995452e-06	7.021688e-10	2.078134e+01	4.953951e+01
2.530000e-06	3.034670e-06	7.074609e-10	2.105342e+01	5.005600e+01
2.540000e-06	3.073706e-06	7.114156e-10	2.132424e+01	5.055272e+01
2.550000e-06	3.112532e-06	7.132991e-10	2.159360e+01	5.103034e+01
2.560000e-06	3.151123e-06	7.165684e-10	2.186133e+01	5.148955e+01
2.570000e-06	3.189438e-06	7.224785e-10	2.212715e+01	5.193102e+01
2.580000e-06	3.227407e-06	7.297236e-10	2.239056e+01	5.235537e+01
2.590000e-06	3.265167e-06	7.385155e-10	2.265253e+01	5.276323e+01
2.600000e-06	3.302822e-06	7.458497e-10	2.291376e+01	5.315516e+01
2.610000e-06	3.340309e-06	7.526189e-10	2.317383e+01	5.353174e+01
2.620000e-06	3.377601e-06	7.572085e-10	2.343255e+01	5.389348e+01
2.630000e-06	3.414624e-06	7.595980e-10	2.368940e+01	5.424088e+01
2.640000e-06	3.451390e-06	7.609115e-10	2.394447e+01	5.457440e+01
2.650000e-06	3.487911e-06	7.601889e-10	2.419784e+01	5.489446e+01
2.660000e-06	3.524131e-06	7.610076e-10	2.444912e+01	5.520145e+01
2.670000e-06	3.560148e-06	7.653793e-10	2.469900e+01	5.549576e+01
2.680000e-06	3.596051e-06	7.726175e-10	2.494808e+01	5.577770e+01
2.690000e-06	3.631886e-06	7.804861e-10	2.519669e+01	5.604759e+01
2.700000e-06	3.667597e-06	7.873337e-10	2.544444e+01	5.630571e+01
2.710000e-06	3.703051e-06	7.908382e-10	2.569040e+01	5.655231e+01
2.720000e-06	3.738240e-06	7.919788e-10	2.593453e+01	5.678764e+01
2.730000e-06	3.773274e-06	7.942012e-10	2.617758e+01	5.701193e+01
2.740000e-06	3.807932e-06	7.975754e-10	2.641803e+01	5.722538e+01
2.750000e-06	3.842060e-06	8.024150e-10	2.665480e+01	5.742821e+01
2.760000e-06	3.875730e-06	8.082165e-10	2.688839e+01	5.762062e+01
2.770000e-06	3.908863e-06	8.150243e-10	2.711825e+01	5.780282e+01
2.780000e-06	3.941455e-06	8.202154e-10	2.734436e+01	5.797501e+01
2.790000e-06	3.973717e-06	8.249610e-10	2.756818e+01	5.813742e+01
2.800000e-06	4.005789e-06	8.299947e-10	2.779069e+01	5.829027e+01
2.810000e-06	4.037702e-06	8.327666e-10	2.801209e+01	5.843383e+01
2.820000e-06	4.069523e-06	8.362550e-10	2.823285e+01	5.856835e+01
2.830000e-06	4.101201e-06	8.410270e-10	2.845262e+01	5.869412e+01
2.840000e-06	4.132570e-06	8.445023e-10	2.867025e+01	5.881146e+01
2.850000e-06	4.163598e-06	8.439802e-10	2.888551e+01	5.892070e+01
2.860000e-06	4.194414e-06	8.425818e-10	2.909930e+01	5.902220e+01
2.870000e-06	4.224982e-06	8.439776e-10	2.931136e+01	5.911634e+01
2.880000e-06	4.255179e-06	8.480026e-10	2.952087e+01	5.920353e+01
2.890000e-06	4.285011e-06	8.530295e-10	2.972783e+01	5.928420e+01
2.900000e-06	4.314596e-06	8.574052e-10	2.993308e+01	5.935878e+01
