# Temperatura_=_-8.0
# Concentracion g/m^3_=_1620.0
# C_Vs_to_Am_M_A/Vsm_=_65563218390.804596
# pendiente_HvsI_1/m_=_3716.3
# ordenada_HvsI_A/m_=_1297.0
# frecuencia_Hz_=_135108.78944943473

Tiempo_(s)	Campo_(V.s)	Magnetizacion_(V.s)	Campo_(kA/m)	Magnetizacion_(A/m)
0.000000e+00	-5.524932e-06	-1.065378e-09	-3.836776e+01	-7.116883e+01
1.000000e-08	-5.525145e-06	-1.061608e-09	-3.836924e+01	-7.111562e+01
2.000000e-08	-5.525135e-06	-1.056850e-09	-3.836918e+01	-7.106125e+01
3.000000e-08	-5.524768e-06	-1.053209e-09	-3.836663e+01	-7.100576e+01
4.000000e-08	-5.523946e-06	-1.051673e-09	-3.836091e+01	-7.094922e+01
5.000000e-08	-5.522709e-06	-1.047915e-09	-3.835233e+01	-7.089164e+01
6.000000e-08	-5.520953e-06	-1.043822e-09	-3.834013e+01	-7.083309e+01
7.000000e-08	-5.518562e-06	-1.045935e-09	-3.832353e+01	-7.077357e+01
8.000000e-08	-5.515598e-06	-1.042335e-09	-3.830294e+01	-7.071309e+01
9.000000e-08	-5.512109e-06	-1.040862e-09	-3.827872e+01	-7.065166e+01
1.000000e-07	-5.508165e-06	-1.055405e-09	-3.825133e+01	-7.058924e+01
1.100000e-07	-5.503857e-06	-1.065352e-09	-3.822141e+01	-7.052579e+01
1.200000e-07	-5.499336e-06	-1.045865e-09	-3.819002e+01	-7.046125e+01
1.300000e-07	-5.494701e-06	-1.044321e-09	-3.815783e+01	-7.039551e+01
1.400000e-07	-5.489743e-06	-1.034340e-09	-3.812340e+01	-7.032846e+01
1.500000e-07	-5.484259e-06	-1.065744e-09	-3.808531e+01	-7.025996e+01
1.600000e-07	-5.478328e-06	-1.039974e-09	-3.804413e+01	-7.018986e+01
1.700000e-07	-5.472033e-06	-1.042505e-09	-3.800041e+01	-7.011796e+01
1.800000e-07	-5.465308e-06	-1.038154e-09	-3.795371e+01	-7.004407e+01
1.900000e-07	-5.458193e-06	-1.050579e-09	-3.790430e+01	-6.996798e+01
2.000000e-07	-5.450806e-06	-1.054338e-09	-3.785300e+01	-6.988946e+01
2.100000e-07	-5.443172e-06	-1.045519e-09	-3.779999e+01	-6.980829e+01
2.200000e-07	-5.435249e-06	-1.046933e-09	-3.774497e+01	-6.972424e+01
2.300000e-07	-5.427029e-06	-1.037964e-09	-3.768788e+01	-6.963708e+01
2.400000e-07	-5.418571e-06	-1.045885e-09	-3.762915e+01	-6.954660e+01
2.500000e-07	-5.409552e-06	-1.038781e-09	-3.756651e+01	-6.945262e+01
2.600000e-07	-5.399630e-06	-1.056161e-09	-3.749761e+01	-6.935496e+01
2.700000e-07	-5.389096e-06	-1.035405e-09	-3.742445e+01	-6.925348e+01
2.800000e-07	-5.378136e-06	-1.044164e-09	-3.734834e+01	-6.914808e+01
2.900000e-07	-5.366700e-06	-1.035605e-09	-3.726893e+01	-6.903868e+01
3.000000e-07	-5.354841e-06	-1.047264e-09	-3.718657e+01	-6.892527e+01
3.100000e-07	-5.342534e-06	-1.026305e-09	-3.710110e+01	-6.880787e+01
3.200000e-07	-5.329822e-06	-1.042245e-09	-3.701283e+01	-6.868655e+01
3.300000e-07	-5.316756e-06	-1.045297e-09	-3.692209e+01	-6.856145e+01
3.400000e-07	-5.303364e-06	-1.051925e-09	-3.682909e+01	-6.843274e+01
3.500000e-07	-5.289600e-06	-1.033175e-09	-3.673350e+01	-6.830065e+01
3.600000e-07	-5.275324e-06	-1.036273e-09	-3.663437e+01	-6.816548e+01
3.700000e-07	-5.260538e-06	-1.033812e-09	-3.653169e+01	-6.802755e+01
3.800000e-07	-5.245415e-06	-1.033431e-09	-3.642666e+01	-6.788724e+01
3.900000e-07	-5.229725e-06	-1.020788e-09	-3.631771e+01	-6.774498e+01
4.000000e-07	-5.213466e-06	-1.021004e-09	-3.620480e+01	-6.760123e+01
4.100000e-07	-5.196921e-06	-1.027807e-09	-3.608990e+01	-6.745646e+01
4.200000e-07	-5.180007e-06	-1.024864e-09	-3.597244e+01	-6.731118e+01
4.300000e-07	-5.162758e-06	-1.014873e-09	-3.585265e+01	-6.716592e+01
4.400000e-07	-5.145154e-06	-1.011186e-09	-3.573040e+01	-6.702119e+01
4.500000e-07	-5.127206e-06	-1.013765e-09	-3.560577e+01	-6.687753e+01
4.600000e-07	-5.108827e-06	-9.934187e-10	-3.547813e+01	-6.673543e+01
4.700000e-07	-5.089906e-06	-9.916748e-10	-3.534674e+01	-6.659539e+01
4.800000e-07	-5.070645e-06	-9.914220e-10	-3.521298e+01	-6.645786e+01
4.900000e-07	-5.051112e-06	-9.916441e-10	-3.507733e+01	-6.632326e+01
5.000000e-07	-5.031361e-06	-9.849279e-10	-3.494018e+01	-6.619195e+01
5.100000e-07	-5.011463e-06	-1.005448e-09	-3.480199e+01	-6.606427e+01
5.200000e-07	-4.991341e-06	-9.962537e-10	-3.466225e+01	-6.594046e+01
5.300000e-07	-4.970885e-06	-9.879778e-10	-3.452020e+01	-6.582072e+01
5.400000e-07	-4.950049e-06	-9.856762e-10	-3.437550e+01	-6.570517e+01
5.500000e-07	-4.928809e-06	-9.863523e-10	-3.422800e+01	-6.559387e+01
5.600000e-07	-4.907149e-06	-9.619836e-10	-3.407759e+01	-6.548679e+01
5.700000e-07	-4.885194e-06	-9.722075e-10	-3.392512e+01	-6.538385e+01
5.800000e-07	-4.862941e-06	-9.790459e-10	-3.377059e+01	-6.528488e+01
5.900000e-07	-4.840362e-06	-9.738041e-10	-3.361379e+01	-6.518965e+01
6.000000e-07	-4.817415e-06	-9.720635e-10	-3.345443e+01	-6.509786e+01
6.100000e-07	-4.794094e-06	-9.862609e-10	-3.329248e+01	-6.500917e+01
6.200000e-07	-4.770522e-06	-9.697267e-10	-3.312878e+01	-6.492316e+01
6.300000e-07	-4.746789e-06	-9.617931e-10	-3.296397e+01	-6.483938e+01
6.400000e-07	-4.722901e-06	-9.675070e-10	-3.279808e+01	-6.475735e+01
6.500000e-07	-4.698702e-06	-9.638275e-10	-3.263003e+01	-6.467655e+01
6.600000e-07	-4.674048e-06	-9.526042e-10	-3.245882e+01	-6.459644e+01
6.700000e-07	-4.648969e-06	-9.630409e-10	-3.228466e+01	-6.451649e+01
6.800000e-07	-4.623331e-06	-9.678228e-10	-3.210662e+01	-6.443615e+01
6.900000e-07	-4.597033e-06	-9.627925e-10	-3.192399e+01	-6.435489e+01
7.000000e-07	-4.570183e-06	-9.672670e-10	-3.173753e+01	-6.427221e+01
7.100000e-07	-4.542911e-06	-9.652865e-10	-3.154815e+01	-6.418762e+01
7.200000e-07	-4.515428e-06	-9.521583e-10	-3.135729e+01	-6.410069e+01
7.300000e-07	-4.487764e-06	-9.478796e-10	-3.116518e+01	-6.401102e+01
7.400000e-07	-4.459934e-06	-9.520089e-10	-3.097191e+01	-6.391825e+01
7.500000e-07	-4.431945e-06	-9.429528e-10	-3.077754e+01	-6.382211e+01
7.600000e-07	-4.403653e-06	-9.410945e-10	-3.058107e+01	-6.372237e+01
7.700000e-07	-4.375032e-06	-9.421616e-10	-3.038231e+01	-6.361885e+01
7.800000e-07	-4.346115e-06	-9.382736e-10	-3.018150e+01	-6.351147e+01
7.900000e-07	-4.316832e-06	-9.292506e-10	-2.997814e+01	-6.340017e+01
8.000000e-07	-4.287224e-06	-9.347908e-10	-2.977253e+01	-6.328499e+01
8.100000e-07	-4.257410e-06	-9.295373e-10	-2.956549e+01	-6.316601e+01
8.200000e-07	-4.227342e-06	-9.235373e-10	-2.935668e+01	-6.304337e+01
8.300000e-07	-4.196888e-06	-9.234757e-10	-2.914519e+01	-6.291726e+01
8.400000e-07	-4.166110e-06	-9.271583e-10	-2.893145e+01	-6.278792e+01
8.500000e-07	-4.135050e-06	-9.172668e-10	-2.871576e+01	-6.265561e+01
8.600000e-07	-4.103659e-06	-9.163115e-10	-2.849777e+01	-6.252064e+01
8.700000e-07	-4.072070e-06	-9.142122e-10	-2.827840e+01	-6.238333e+01
8.800000e-07	-4.040383e-06	-9.090583e-10	-2.805835e+01	-6.224400e+01
8.900000e-07	-4.008563e-06	-9.039714e-10	-2.783737e+01	-6.210300e+01
9.000000e-07	-3.976602e-06	-9.078771e-10	-2.761542e+01	-6.196066e+01
9.100000e-07	-3.944454e-06	-9.026601e-10	-2.739217e+01	-6.181729e+01
9.200000e-07	-3.911933e-06	-8.995041e-10	-2.716633e+01	-6.167318e+01
9.300000e-07	-3.879069e-06	-9.006529e-10	-2.693811e+01	-6.152861e+01
9.400000e-07	-3.845808e-06	-8.978235e-10	-2.670713e+01	-6.138379e+01
9.500000e-07	-3.811889e-06	-8.878927e-10	-2.647158e+01	-6.123892e+01
9.600000e-07	-3.777405e-06	-8.822702e-10	-2.623211e+01	-6.109414e+01
9.700000e-07	-3.742538e-06	-8.766248e-10	-2.598997e+01	-6.094954e+01
9.800000e-07	-3.707320e-06	-8.676163e-10	-2.574540e+01	-6.080515e+01
9.900000e-07	-3.671855e-06	-8.665923e-10	-2.549911e+01	-6.066096e+01
1.000000e-06	-3.636253e-06	-8.680784e-10	-2.525188e+01	-6.051690e+01
1.010000e-06	-3.600501e-06	-8.652905e-10	-2.500360e+01	-6.037285e+01
1.020000e-06	-3.564614e-06	-8.618811e-10	-2.475438e+01	-6.022864e+01
1.030000e-06	-3.528626e-06	-8.631949e-10	-2.450446e+01	-6.008405e+01
1.040000e-06	-3.492475e-06	-8.583378e-10	-2.425341e+01	-5.993882e+01
1.050000e-06	-3.456021e-06	-8.500279e-10	-2.400026e+01	-5.979265e+01
1.060000e-06	-3.419272e-06	-8.460593e-10	-2.374506e+01	-5.964522e+01
1.070000e-06	-3.382251e-06	-8.456062e-10	-2.348797e+01	-5.949617e+01
1.080000e-06	-3.344897e-06	-8.426043e-10	-2.322856e+01	-5.934515e+01
1.090000e-06	-3.307301e-06	-8.456022e-10	-2.296747e+01	-5.919177e+01
1.100000e-06	-3.269557e-06	-8.444602e-10	-2.270536e+01	-5.903566e+01
1.110000e-06	-3.231679e-06	-8.389261e-10	-2.244232e+01	-5.887645e+01
1.120000e-06	-3.193551e-06	-8.324009e-10	-2.217754e+01	-5.871378e+01
1.130000e-06	-3.155171e-06	-8.313631e-10	-2.191102e+01	-5.854730e+01
1.140000e-06	-3.116560e-06	-8.256007e-10	-2.164288e+01	-5.837670e+01
1.150000e-06	-3.077747e-06	-8.220714e-10	-2.137334e+01	-5.820170e+01
1.160000e-06	-3.038734e-06	-8.222269e-10	-2.110242e+01	-5.802204e+01
1.170000e-06	-2.999382e-06	-8.211885e-10	-2.082914e+01	-5.783752e+01
1.180000e-06	-2.959811e-06	-8.181117e-10	-2.055434e+01	-5.764797e+01
1.190000e-06	-2.920133e-06	-8.184913e-10	-2.027880e+01	-5.745326e+01
1.200000e-06	-2.880398e-06	-8.164456e-10	-2.000286e+01	-5.725330e+01
1.210000e-06	-2.840620e-06	-8.115614e-10	-1.972662e+01	-5.704806e+01
1.220000e-06	-2.800678e-06	-8.087056e-10	-1.944925e+01	-5.683753e+01
1.230000e-06	-2.760573e-06	-8.097412e-10	-1.917074e+01	-5.662176e+01
1.240000e-06	-2.720327e-06	-8.063180e-10	-1.889125e+01	-5.640082e+01
1.250000e-06	-2.679926e-06	-8.018358e-10	-1.861069e+01	-5.617481e+01
1.260000e-06	-2.639333e-06	-7.997824e-10	-1.832879e+01	-5.594386e+01
1.270000e-06	-2.598409e-06	-7.962995e-10	-1.804459e+01	-5.570814e+01
1.280000e-06	-2.557196e-06	-7.924036e-10	-1.775839e+01	-5.546780e+01
1.290000e-06	-2.515675e-06	-7.896984e-10	-1.747005e+01	-5.522303e+01
1.300000e-06	-2.473816e-06	-7.871460e-10	-1.717936e+01	-5.497401e+01
1.310000e-06	-2.431746e-06	-7.813320e-10	-1.688720e+01	-5.472091e+01
1.320000e-06	-2.389369e-06	-7.772067e-10	-1.659292e+01	-5.446389e+01
1.330000e-06	-2.346660e-06	-7.732379e-10	-1.629633e+01	-5.420311e+01
1.340000e-06	-2.303722e-06	-7.681416e-10	-1.599815e+01	-5.393870e+01
1.350000e-06	-2.260563e-06	-7.612211e-10	-1.569843e+01	-5.367075e+01
1.360000e-06	-2.217205e-06	-7.578198e-10	-1.539733e+01	-5.339933e+01
1.370000e-06	-2.173695e-06	-7.530111e-10	-1.509517e+01	-5.312448e+01
1.380000e-06	-2.130067e-06	-7.496502e-10	-1.479220e+01	-5.284619e+01
1.390000e-06	-2.086352e-06	-7.473458e-10	-1.448863e+01	-5.256441e+01
1.400000e-06	-2.042567e-06	-7.447717e-10	-1.418456e+01	-5.227905e+01
1.410000e-06	-1.998716e-06	-7.381028e-10	-1.388004e+01	-5.198996e+01
1.420000e-06	-1.954776e-06	-7.313585e-10	-1.357490e+01	-5.169697e+01
1.430000e-06	-1.910742e-06	-7.266998e-10	-1.326911e+01	-5.139983e+01
1.440000e-06	-1.866631e-06	-7.206864e-10	-1.296277e+01	-5.109827e+01
1.450000e-06	-1.822460e-06	-7.153030e-10	-1.265603e+01	-5.079196e+01
1.460000e-06	-1.778185e-06	-7.109331e-10	-1.234857e+01	-5.048054e+01
1.470000e-06	-1.733695e-06	-7.055384e-10	-1.203961e+01	-5.016359e+01
1.480000e-06	-1.689002e-06	-7.010043e-10	-1.172924e+01	-4.984066e+01
1.490000e-06	-1.644250e-06	-6.982563e-10	-1.141846e+01	-4.951127e+01
1.500000e-06	-1.599424e-06	-6.958822e-10	-1.110717e+01	-4.917488e+01
1.510000e-06	-1.554400e-06	-6.907782e-10	-1.079449e+01	-4.883094e+01
1.520000e-06	-1.509230e-06	-6.857003e-10	-1.048082e+01	-4.847887e+01
1.530000e-06	-1.463963e-06	-6.800190e-10	-1.016646e+01	-4.811803e+01
1.540000e-06	-1.418570e-06	-6.701792e-10	-9.851225e+00	-4.774779e+01
1.550000e-06	-1.373141e-06	-6.605705e-10	-9.535745e+00	-4.736747e+01
1.560000e-06	-1.327629e-06	-6.511356e-10	-9.219688e+00	-4.697637e+01
1.570000e-06	-1.282047e-06	-6.432855e-10	-8.903148e+00	-4.657377e+01
1.580000e-06	-1.236447e-06	-6.367643e-10	-8.586479e+00	-4.615894e+01
1.590000e-06	-1.190709e-06	-6.312807e-10	-8.268850e+00	-4.573110e+01
1.600000e-06	-1.144882e-06	-6.261540e-10	-7.950606e+00	-4.528946e+01
1.610000e-06	-1.098985e-06	-6.208148e-10	-7.631875e+00	-4.483321e+01
1.620000e-06	-1.052987e-06	-6.142971e-10	-7.312444e+00	-4.436152e+01
1.630000e-06	-1.006874e-06	-6.089187e-10	-6.992213e+00	-4.387354e+01
1.640000e-06	-9.606633e-07	-6.031650e-10	-6.671305e+00	-4.336839e+01
1.650000e-06	-9.144467e-07	-5.950565e-10	-6.350354e+00	-4.284516e+01
1.660000e-06	-8.682305e-07	-5.832119e-10	-6.029407e+00	-4.230296e+01
1.670000e-06	-8.219141e-07	-5.687287e-10	-5.707764e+00	-4.174082e+01
1.680000e-06	-7.754998e-07	-5.552209e-10	-5.385441e+00	-4.115781e+01
1.690000e-06	-7.290979e-07	-5.447512e-10	-5.063204e+00	-4.055294e+01
1.700000e-06	-6.826829e-07	-5.333862e-10	-4.740876e+00	-3.992524e+01
1.710000e-06	-6.361901e-07	-5.234807e-10	-4.418008e+00	-3.927370e+01
1.720000e-06	-5.895981e-07	-5.163409e-10	-4.094451e+00	-3.859733e+01
1.730000e-06	-5.429334e-07	-5.085188e-10	-3.770389e+00	-3.789513e+01
1.740000e-06	-4.962367e-07	-4.955781e-10	-3.446104e+00	-3.716611e+01
1.750000e-06	-4.495505e-07	-4.780860e-10	-3.121893e+00	-3.640928e+01
1.760000e-06	-4.028643e-07	-4.617147e-10	-2.797682e+00	-3.562369e+01
1.770000e-06	-3.561017e-07	-4.476209e-10	-2.472940e+00	-3.480842e+01
1.780000e-06	-3.092633e-07	-4.367954e-10	-2.147672e+00	-3.396256e+01
1.790000e-06	-2.624155e-07	-4.286103e-10	-1.822339e+00	-3.308528e+01
1.800000e-06	-2.156048e-07	-4.201968e-10	-1.497263e+00	-3.217580e+01
1.810000e-06	-1.688050e-07	-4.083319e-10	-1.172262e+00	-3.123341e+01
1.820000e-06	-1.219461e-07	-3.931540e-10	-8.468522e-01	-3.025747e+01
1.830000e-06	-7.504864e-08	-3.772438e-10	-5.211736e-01	-2.924746e+01
1.840000e-06	-2.817689e-08	-3.612730e-10	-1.956738e-01	-2.820293e+01
1.850000e-06	1.869794e-08	-3.443752e-10	1.298474e-01	-2.712357e+01
1.860000e-06	6.561213e-08	-3.270160e-10	4.556419e-01	-2.600919e+01
1.870000e-06	1.125291e-07	-3.096585e-10	7.814556e-01	-2.485972e+01
1.880000e-06	1.593813e-07	-2.943580e-10	1.106820e+00	-2.367525e+01
1.890000e-06	2.062389e-07	-2.790806e-10	1.432221e+00	-2.245601e+01
1.900000e-06	2.531024e-07	-2.640942e-10	1.757664e+00	-2.120239e+01
1.910000e-06	2.999575e-07	-2.483853e-10	2.083048e+00	-1.991494e+01
1.920000e-06	3.468022e-07	-2.316750e-10	2.408360e+00	-1.859438e+01
1.930000e-06	3.935838e-07	-2.136757e-10	2.733234e+00	-1.724160e+01
1.940000e-06	4.402955e-07	-1.922945e-10	3.057622e+00	-1.585765e+01
1.950000e-06	4.869145e-07	-1.697244e-10	3.381367e+00	-1.444376e+01
1.960000e-06	5.334914e-07	-1.500041e-10	3.704819e+00	-1.300130e+01
1.970000e-06	5.800616e-07	-1.337594e-10	4.028225e+00	-1.153182e+01
1.980000e-06	6.266002e-07	-1.185405e-10	4.351411e+00	-1.003701e+01
1.990000e-06	6.731069e-07	-1.011031e-10	4.674376e+00	-8.518719e+00
2.000000e-06	7.196006e-07	-7.986307e-11	4.997250e+00	-6.978908e+00
2.010000e-06	7.660518e-07	-5.418309e-11	5.319829e+00	-5.419672e+00
2.020000e-06	8.124032e-07	-2.606611e-11	5.641715e+00	-3.843213e+00
2.030000e-06	8.586497e-07	-6.418095e-13	5.962873e+00	-2.251825e+00
2.040000e-06	9.048007e-07	2.032433e-11	6.283368e+00	-6.478837e-01
2.050000e-06	9.509370e-07	3.951811e-11	6.603760e+00	9.661746e-01
2.060000e-06	9.970528e-07	5.957791e-11	6.924010e+00	2.587866e+00
2.070000e-06	1.043078e-06	7.997728e-11	7.243632e+00	4.214678e+00
2.080000e-06	1.089049e-06	1.022631e-10	7.562874e+00	5.844085e+00
2.090000e-06	1.134907e-06	1.282433e-10	7.881337e+00	7.473569e+00
2.100000e-06	1.180671e-06	1.546705e-10	8.199140e+00	9.100633e+00
2.110000e-06	1.226361e-06	1.784960e-10	8.516438e+00	1.072282e+01
2.120000e-06	1.271959e-06	1.988892e-10	8.833090e+00	1.233773e+01
2.130000e-06	1.317485e-06	2.173951e-10	9.149242e+00	1.394302e+01
2.140000e-06	1.362890e-06	2.350987e-10	9.464558e+00	1.553646e+01
2.150000e-06	1.408248e-06	2.541899e-10	9.779547e+00	1.711588e+01
2.160000e-06	1.453582e-06	2.774716e-10	1.009437e+01	1.867924e+01
2.170000e-06	1.498819e-06	3.028594e-10	1.040851e+01	2.022463e+01
2.180000e-06	1.543890e-06	3.274406e-10	1.072151e+01	2.175023e+01
2.190000e-06	1.588755e-06	3.501403e-10	1.103307e+01	2.325438e+01
2.200000e-06	1.633544e-06	3.711829e-10	1.134411e+01	2.473556e+01
2.210000e-06	1.678215e-06	3.882267e-10	1.165433e+01	2.619238e+01
2.220000e-06	1.722731e-06	4.016833e-10	1.196347e+01	2.762361e+01
2.230000e-06	1.767100e-06	4.164654e-10	1.227159e+01	2.902814e+01
2.240000e-06	1.811318e-06	4.345403e-10	1.257865e+01	3.040504e+01
2.250000e-06	1.855443e-06	4.527434e-10	1.288508e+01	3.175349e+01
2.260000e-06	1.899477e-06	4.725921e-10	1.319088e+01	3.307282e+01
2.270000e-06	1.943429e-06	4.950003e-10	1.349610e+01	3.436250e+01
2.280000e-06	1.987283e-06	5.161726e-10	1.380064e+01	3.562214e+01
2.290000e-06	2.031094e-06	5.340953e-10	1.410488e+01	3.685144e+01
2.300000e-06	2.074875e-06	5.489127e-10	1.440892e+01	3.805023e+01
2.310000e-06	2.118572e-06	5.611445e-10	1.471238e+01	3.921847e+01
2.320000e-06	2.162184e-06	5.740102e-10	1.501524e+01	4.035620e+01
2.330000e-06	2.205668e-06	5.901150e-10	1.531721e+01	4.146353e+01
2.340000e-06	2.248938e-06	6.064649e-10	1.561770e+01	4.254069e+01
2.350000e-06	2.292045e-06	6.241324e-10	1.591705e+01	4.358796e+01
2.360000e-06	2.335013e-06	6.404429e-10	1.621545e+01	4.460570e+01
2.370000e-06	2.377730e-06	6.532460e-10	1.651209e+01	4.559431e+01
2.380000e-06	2.420125e-06	6.648542e-10	1.680650e+01	4.655426e+01
2.390000e-06	2.462246e-06	6.764151e-10	1.709901e+01	4.748604e+01
2.400000e-06	2.504173e-06	6.884309e-10	1.739017e+01	4.839020e+01
2.410000e-06	2.545870e-06	6.993202e-10	1.767974e+01	4.926728e+01
2.420000e-06	2.587157e-06	7.107343e-10	1.796646e+01	5.011788e+01
2.430000e-06	2.628017e-06	7.234980e-10	1.825021e+01	5.094259e+01
2.440000e-06	2.668613e-06	7.365873e-10	1.853212e+01	5.174202e+01
2.450000e-06	2.709039e-06	7.477145e-10	1.881286e+01	5.251679e+01
2.460000e-06	2.749299e-06	7.574164e-10	1.909245e+01	5.326751e+01
2.470000e-06	2.789380e-06	7.682451e-10	1.937078e+01	5.399481e+01
2.480000e-06	2.829330e-06	7.786694e-10	1.964822e+01	5.469928e+01
2.490000e-06	2.869166e-06	7.907835e-10	1.992486e+01	5.538154e+01
2.500000e-06	2.908795e-06	8.034276e-10	2.020006e+01	5.604218e+01
2.510000e-06	2.948214e-06	8.140618e-10	2.047381e+01	5.668178e+01
2.520000e-06	2.987534e-06	8.215141e-10	2.074686e+01	5.730091e+01
2.530000e-06	3.026760e-06	8.265875e-10	2.101927e+01	5.790013e+01
2.540000e-06	3.065803e-06	8.322898e-10	2.129040e+01	5.847997e+01
2.550000e-06	3.104626e-06	8.365241e-10	2.156000e+01	5.904097e+01
2.560000e-06	3.143206e-06	8.422279e-10	2.182792e+01	5.958363e+01
2.570000e-06	3.181550e-06	8.502307e-10	2.209420e+01	6.010843e+01
2.580000e-06	3.219618e-06	8.588566e-10	2.235856e+01	6.061586e+01
2.590000e-06	3.257477e-06	8.681311e-10	2.262148e+01	6.110637e+01
2.600000e-06	3.295207e-06	8.739043e-10	2.288349e+01	6.158038e+01
2.610000e-06	3.332684e-06	8.772257e-10	2.314375e+01	6.203833e+01
2.620000e-06	3.369944e-06	8.790383e-10	2.340250e+01	6.248061e+01
2.630000e-06	3.406969e-06	8.837792e-10	2.365962e+01	6.290761e+01
2.640000e-06	3.443679e-06	8.895447e-10	2.391455e+01	6.331968e+01
2.650000e-06	3.480142e-06	8.963116e-10	2.416777e+01	6.371719e+01
2.660000e-06	3.516412e-06	9.041429e-10	2.441965e+01	6.410047e+01
2.670000e-06	3.552498e-06	9.100985e-10	2.467024e+01	6.446983e+01
2.680000e-06	3.588408e-06	9.145512e-10	2.491962e+01	6.482557e+01
2.690000e-06	3.624159e-06	9.168255e-10	2.516789e+01	6.516801e+01
2.700000e-06	3.659760e-06	9.206444e-10	2.541512e+01	6.549740e+01
2.710000e-06	3.695189e-06	9.225066e-10	2.566116e+01	6.581404e+01
2.720000e-06	3.730405e-06	9.250896e-10	2.590571e+01	6.611818e+01
2.730000e-06	3.765405e-06	9.298303e-10	2.614877e+01	6.641009e+01
2.740000e-06	3.800022e-06	9.341770e-10	2.638917e+01	6.669002e+01
2.750000e-06	3.834068e-06	9.392922e-10	2.662560e+01	6.695822e+01
2.760000e-06	3.867599e-06	9.455470e-10	2.685845e+01	6.721496e+01
2.770000e-06	3.900697e-06	9.507757e-10	2.708830e+01	6.746050e+01
2.780000e-06	3.933369e-06	9.558486e-10	2.731519e+01	6.769509e+01
2.790000e-06	3.965722e-06	9.599125e-10	2.753987e+01	6.791902e+01
2.800000e-06	3.997867e-06	9.625049e-10	2.776310e+01	6.813256e+01
2.810000e-06	4.029784e-06	9.637581e-10	2.798474e+01	6.833601e+01
2.820000e-06	4.061504e-06	9.643738e-10	2.820502e+01	6.852968e+01
2.830000e-06	4.093107e-06	9.660223e-10	2.842449e+01	6.871388e+01
2.840000e-06	4.124544e-06	9.697409e-10	2.864280e+01	6.888895e+01
2.850000e-06	4.155656e-06	9.743484e-10	2.885886e+01	6.905524e+01
2.860000e-06	4.186436e-06	9.801342e-10	2.907261e+01	6.921311e+01
2.870000e-06	4.216981e-06	9.848436e-10	2.928473e+01	6.936295e+01
2.880000e-06	4.247198e-06	9.881843e-10	2.949457e+01	6.950515e+01
2.890000e-06	4.277053e-06	9.904518e-10	2.970190e+01	6.964012e+01
2.900000e-06	4.306676e-06	9.926509e-10	2.990762e+01	6.976828e+01
