# Temperatura_=_10.2
# Concentracion g/m^3_=_1620.0
# C_Vs_to_Am_M_A/Vsm_=_65563218390.804596
# pendiente_HvsI_1/m_=_3716.3
# ordenada_HvsI_A/m_=_1297.0
# frecuencia_Hz_=_135102.6338533907

Tiempo_(s)	Campo_(V.s)	Magnetizacion_(V.s)	Campo_(kA/m)	Magnetizacion_(A/m)
0.000000e+00	-5.524096e-06	-1.423727e-09	-3.837875e+01	-9.524055e+01
1.000000e-08	-5.524337e-06	-1.423625e-09	-3.838042e+01	-9.522276e+01
2.000000e-08	-5.524339e-06	-1.422342e-09	-3.838043e+01	-9.520748e+01
3.000000e-08	-5.523893e-06	-1.420412e-09	-3.837733e+01	-9.519485e+01
4.000000e-08	-5.522976e-06	-1.418623e-09	-3.837097e+01	-9.518498e+01
5.000000e-08	-5.521664e-06	-1.414861e-09	-3.836185e+01	-9.517787e+01
6.000000e-08	-5.519756e-06	-1.412025e-09	-3.834859e+01	-9.517348e+01
7.000000e-08	-5.517203e-06	-1.411985e-09	-3.833085e+01	-9.517166e+01
8.000000e-08	-5.514055e-06	-1.417283e-09	-3.830899e+01	-9.517220e+01
9.000000e-08	-5.510404e-06	-1.424453e-09	-3.828362e+01	-9.517477e+01
1.000000e-07	-5.506389e-06	-1.421658e-09	-3.825573e+01	-9.517899e+01
1.100000e-07	-5.502099e-06	-1.393361e-09	-3.822592e+01	-9.518438e+01
1.200000e-07	-5.497635e-06	-1.380050e-09	-3.819491e+01	-9.519036e+01
1.300000e-07	-5.492860e-06	-1.414695e-09	-3.816173e+01	-9.519630e+01
1.400000e-07	-5.487603e-06	-1.432750e-09	-3.812521e+01	-9.520149e+01
1.500000e-07	-5.481898e-06	-1.399988e-09	-3.808558e+01	-9.520515e+01
1.600000e-07	-5.475939e-06	-1.382214e-09	-3.804417e+01	-9.520646e+01
1.700000e-07	-5.469719e-06	-1.418320e-09	-3.800096e+01	-9.520455e+01
1.800000e-07	-5.463018e-06	-1.459182e-09	-3.795440e+01	-9.519853e+01
1.900000e-07	-5.455849e-06	-1.431981e-09	-3.790460e+01	-9.518749e+01
2.000000e-07	-5.448389e-06	-1.406758e-09	-3.785277e+01	-9.517053e+01
2.100000e-07	-5.440644e-06	-1.419045e-09	-3.779896e+01	-9.514675e+01
2.200000e-07	-5.432642e-06	-1.452833e-09	-3.774337e+01	-9.511530e+01
2.300000e-07	-5.424461e-06	-1.443550e-09	-3.768653e+01	-9.507537e+01
2.400000e-07	-5.415954e-06	-1.424526e-09	-3.762743e+01	-9.502619e+01
2.500000e-07	-5.406745e-06	-1.434884e-09	-3.756345e+01	-9.496710e+01
2.600000e-07	-5.396647e-06	-1.451357e-09	-3.749329e+01	-9.489752e+01
2.700000e-07	-5.385967e-06	-1.425075e-09	-3.741909e+01	-9.481694e+01
2.800000e-07	-5.374856e-06	-1.390996e-09	-3.734190e+01	-9.472500e+01
2.900000e-07	-5.363333e-06	-1.409580e-09	-3.726184e+01	-9.462145e+01
3.000000e-07	-5.351456e-06	-1.430834e-09	-3.717932e+01	-9.450614e+01
3.100000e-07	-5.339205e-06	-1.415453e-09	-3.709421e+01	-9.437909e+01
3.200000e-07	-5.326529e-06	-1.405261e-09	-3.700615e+01	-9.424043e+01
3.300000e-07	-5.313384e-06	-1.435865e-09	-3.691482e+01	-9.409043e+01
3.400000e-07	-5.299924e-06	-1.434506e-09	-3.682131e+01	-9.392947e+01
3.500000e-07	-5.286129e-06	-1.397659e-09	-3.672547e+01	-9.375808e+01
3.600000e-07	-5.271855e-06	-1.380325e-09	-3.662629e+01	-9.357691e+01
3.700000e-07	-5.257180e-06	-1.404449e-09	-3.652434e+01	-9.338668e+01
3.800000e-07	-5.242055e-06	-1.403949e-09	-3.641926e+01	-9.318824e+01
3.900000e-07	-5.226256e-06	-1.384283e-09	-3.630950e+01	-9.298252e+01
4.000000e-07	-5.209871e-06	-1.386201e-09	-3.619566e+01	-9.277049e+01
4.100000e-07	-5.193176e-06	-1.401504e-09	-3.607967e+01	-9.255321e+01
4.200000e-07	-5.176177e-06	-1.381389e-09	-3.596157e+01	-9.233173e+01
4.300000e-07	-5.158873e-06	-1.367933e-09	-3.584135e+01	-9.210716e+01
4.400000e-07	-5.141376e-06	-1.383733e-09	-3.571979e+01	-9.188055e+01
4.500000e-07	-5.123483e-06	-1.382579e-09	-3.559548e+01	-9.165299e+01
4.600000e-07	-5.105010e-06	-1.349736e-09	-3.546714e+01	-9.142548e+01
4.700000e-07	-5.086186e-06	-1.354372e-09	-3.533636e+01	-9.119900e+01
4.800000e-07	-5.067079e-06	-1.375468e-09	-3.520361e+01	-9.097443e+01
4.900000e-07	-5.047629e-06	-1.364486e-09	-3.506849e+01	-9.075257e+01
5.000000e-07	-5.027931e-06	-1.356566e-09	-3.493163e+01	-9.053414e+01
5.100000e-07	-5.007978e-06	-1.374956e-09	-3.479301e+01	-9.031972e+01
5.200000e-07	-4.987790e-06	-1.363476e-09	-3.465275e+01	-9.010979e+01
5.300000e-07	-4.967233e-06	-1.344912e-09	-3.450993e+01	-8.990470e+01
5.400000e-07	-4.946179e-06	-1.358730e-09	-3.436366e+01	-8.970467e+01
5.500000e-07	-4.924850e-06	-1.352226e-09	-3.421547e+01	-8.950979e+01
5.600000e-07	-4.903320e-06	-1.319030e-09	-3.406589e+01	-8.932002e+01
5.700000e-07	-4.881450e-06	-1.329592e-09	-3.391395e+01	-8.913520e+01
5.800000e-07	-4.859185e-06	-1.355310e-09	-3.375926e+01	-8.895505e+01
5.900000e-07	-4.836495e-06	-1.337778e-09	-3.360163e+01	-8.877917e+01
6.000000e-07	-4.813468e-06	-1.329329e-09	-3.344165e+01	-8.860706e+01
6.100000e-07	-4.790212e-06	-1.343499e-09	-3.328007e+01	-8.843816e+01
6.200000e-07	-4.766684e-06	-1.330486e-09	-3.311661e+01	-8.827178e+01
6.300000e-07	-4.742942e-06	-1.313015e-09	-3.295166e+01	-8.810722e+01
6.400000e-07	-4.719015e-06	-1.325025e-09	-3.278543e+01	-8.794371e+01
6.500000e-07	-4.694735e-06	-1.321170e-09	-3.261674e+01	-8.778046e+01
6.600000e-07	-4.669949e-06	-1.307123e-09	-3.244455e+01	-8.761664e+01
6.700000e-07	-4.644737e-06	-1.312188e-09	-3.226938e+01	-8.745146e+01
6.800000e-07	-4.619096e-06	-1.313569e-09	-3.209124e+01	-8.728411e+01
6.900000e-07	-4.592785e-06	-1.297741e-09	-3.190844e+01	-8.711385e+01
7.000000e-07	-4.565932e-06	-1.301380e-09	-3.172189e+01	-8.693994e+01
7.100000e-07	-4.538773e-06	-1.303452e-09	-3.153319e+01	-8.676174e+01
7.200000e-07	-4.511338e-06	-1.286326e-09	-3.134259e+01	-8.657864e+01
7.300000e-07	-4.483688e-06	-1.280263e-09	-3.115049e+01	-8.639012e+01
7.400000e-07	-4.455799e-06	-1.287454e-09	-3.095673e+01	-8.619573e+01
7.500000e-07	-4.427681e-06	-1.277495e-09	-3.076139e+01	-8.599512e+01
7.600000e-07	-4.399367e-06	-1.271381e-09	-3.056467e+01	-8.578802e+01
7.700000e-07	-4.370788e-06	-1.275781e-09	-3.036612e+01	-8.557423e+01
7.800000e-07	-4.341838e-06	-1.269251e-09	-3.016499e+01	-8.535366e+01
7.900000e-07	-4.312527e-06	-1.259880e-09	-2.996135e+01	-8.512628e+01
8.000000e-07	-4.282932e-06	-1.263635e-09	-2.975574e+01	-8.489213e+01
8.100000e-07	-4.253117e-06	-1.258379e-09	-2.954859e+01	-8.465135e+01
8.200000e-07	-4.223053e-06	-1.246657e-09	-2.933973e+01	-8.440410e+01
8.300000e-07	-4.192647e-06	-1.246835e-09	-2.912848e+01	-8.415061e+01
8.400000e-07	-4.161872e-06	-1.244801e-09	-2.891467e+01	-8.389114e+01
8.500000e-07	-4.130775e-06	-1.231720e-09	-2.869863e+01	-8.362598e+01
8.600000e-07	-4.099443e-06	-1.227691e-09	-2.848095e+01	-8.335544e+01
8.700000e-07	-4.067941e-06	-1.229800e-09	-2.826208e+01	-8.307982e+01
8.800000e-07	-4.036253e-06	-1.220946e-09	-2.804193e+01	-8.279944e+01
8.900000e-07	-4.004354e-06	-1.214755e-09	-2.782031e+01	-8.251458e+01
9.000000e-07	-3.972297e-06	-1.215901e-09	-2.759759e+01	-8.222551e+01
9.100000e-07	-3.940045e-06	-1.209698e-09	-2.737353e+01	-8.193245e+01
9.200000e-07	-3.907386e-06	-1.199449e-09	-2.714662e+01	-8.163561e+01
9.300000e-07	-3.874207e-06	-1.199080e-09	-2.691612e+01	-8.133512e+01
9.400000e-07	-3.840579e-06	-1.195137e-09	-2.668248e+01	-8.103109e+01
9.500000e-07	-3.806574e-06	-1.184281e-09	-2.644623e+01	-8.072357e+01
9.600000e-07	-3.772231e-06	-1.177125e-09	-2.620763e+01	-8.041256e+01
9.700000e-07	-3.737484e-06	-1.172019e-09	-2.596623e+01	-8.009800e+01
9.800000e-07	-3.702348e-06	-1.159464e-09	-2.572212e+01	-7.977981e+01
9.900000e-07	-3.666950e-06	-1.152016e-09	-2.547619e+01	-7.945784e+01
1.000000e-06	-3.631399e-06	-1.151449e-09	-2.522920e+01	-7.913192e+01
1.010000e-06	-3.595731e-06	-1.146608e-09	-2.498140e+01	-7.880185e+01
1.020000e-06	-3.559958e-06	-1.140299e-09	-2.473287e+01	-7.846742e+01
1.030000e-06	-3.523961e-06	-1.139652e-09	-2.448278e+01	-7.812838e+01
1.040000e-06	-3.487697e-06	-1.135116e-09	-2.423083e+01	-7.778449e+01
1.050000e-06	-3.451225e-06	-1.125729e-09	-2.397744e+01	-7.743553e+01
1.060000e-06	-3.414470e-06	-1.118889e-09	-2.372208e+01	-7.708128e+01
1.070000e-06	-3.377412e-06	-1.114803e-09	-2.346463e+01	-7.672154e+01
1.080000e-06	-3.340045e-06	-1.109230e-09	-2.320501e+01	-7.635615e+01
1.090000e-06	-3.302472e-06	-1.108438e-09	-2.294398e+01	-7.598499e+01
1.100000e-06	-3.264779e-06	-1.108327e-09	-2.268211e+01	-7.560796e+01
1.110000e-06	-3.226812e-06	-1.101881e-09	-2.241833e+01	-7.522505e+01
1.120000e-06	-3.188590e-06	-1.093840e-09	-2.215278e+01	-7.483626e+01
1.130000e-06	-3.150192e-06	-1.086311e-09	-2.188601e+01	-7.444168e+01
1.140000e-06	-3.111655e-06	-1.076781e-09	-2.161827e+01	-7.404142e+01
1.150000e-06	-3.072936e-06	-1.068787e-09	-2.134927e+01	-7.363567e+01
1.160000e-06	-3.033914e-06	-1.064100e-09	-2.107817e+01	-7.322465e+01
1.170000e-06	-2.994650e-06	-1.058502e-09	-2.080538e+01	-7.280865e+01
1.180000e-06	-2.955182e-06	-1.051271e-09	-2.053117e+01	-7.238796e+01
1.190000e-06	-2.915522e-06	-1.047137e-09	-2.025564e+01	-7.196293e+01
1.200000e-06	-2.875796e-06	-1.043821e-09	-1.997964e+01	-7.153393e+01
1.210000e-06	-2.836003e-06	-1.035858e-09	-1.970318e+01	-7.110134e+01
1.220000e-06	-2.796076e-06	-1.028777e-09	-1.942578e+01	-7.066553e+01
1.230000e-06	-2.756025e-06	-1.023996e-09	-1.914753e+01	-7.022689e+01
1.240000e-06	-2.715776e-06	-1.016664e-09	-1.886789e+01	-6.978576e+01
1.250000e-06	-2.675272e-06	-1.008551e-09	-1.858649e+01	-6.934247e+01
1.260000e-06	-2.634548e-06	-1.004215e-09	-1.830356e+01	-6.889731e+01
1.270000e-06	-2.593637e-06	-9.987138e-10	-1.801934e+01	-6.845051e+01
1.280000e-06	-2.552456e-06	-9.913911e-10	-1.773323e+01	-6.800225e+01
1.290000e-06	-2.510911e-06	-9.846895e-10	-1.744459e+01	-6.755265e+01
1.300000e-06	-2.468982e-06	-9.780732e-10	-1.715329e+01	-6.710175e+01
1.310000e-06	-2.426753e-06	-9.695922e-10	-1.685991e+01	-6.664950e+01
1.320000e-06	-2.384240e-06	-9.618719e-10	-1.656455e+01	-6.619579e+01
1.330000e-06	-2.341374e-06	-9.551669e-10	-1.626674e+01	-6.574041e+01
1.340000e-06	-2.298287e-06	-9.484556e-10	-1.596739e+01	-6.528308e+01
1.350000e-06	-2.255082e-06	-9.409606e-10	-1.566722e+01	-6.482341e+01
1.360000e-06	-2.211698e-06	-9.322620e-10	-1.536581e+01	-6.436098e+01
1.370000e-06	-2.168171e-06	-9.222046e-10	-1.506340e+01	-6.389524e+01
1.380000e-06	-2.124531e-06	-9.134180e-10	-1.476021e+01	-6.342560e+01
1.390000e-06	-2.080776e-06	-9.046511e-10	-1.445622e+01	-6.295142e+01
1.400000e-06	-2.036966e-06	-8.956794e-10	-1.415185e+01	-6.247196e+01
1.410000e-06	-1.993045e-06	-8.877918e-10	-1.384671e+01	-6.198649e+01
1.420000e-06	-1.949078e-06	-8.804983e-10	-1.354125e+01	-6.149422e+01
1.430000e-06	-1.905127e-06	-8.713032e-10	-1.323590e+01	-6.099432e+01
1.440000e-06	-1.861075e-06	-8.592925e-10	-1.292985e+01	-6.048596e+01
1.450000e-06	-1.816837e-06	-8.469117e-10	-1.262250e+01	-5.996832e+01
1.460000e-06	-1.772430e-06	-8.349691e-10	-1.231399e+01	-5.944057e+01
1.470000e-06	-1.727982e-06	-8.222222e-10	-1.200518e+01	-5.890188e+01
1.480000e-06	-1.683462e-06	-8.110309e-10	-1.169588e+01	-5.835147e+01
1.490000e-06	-1.638746e-06	-8.022697e-10	-1.138521e+01	-5.778857e+01
1.500000e-06	-1.593874e-06	-7.938706e-10	-1.107346e+01	-5.721245e+01
1.510000e-06	-1.548887e-06	-7.863929e-10	-1.076092e+01	-5.662242e+01
1.520000e-06	-1.503726e-06	-7.790171e-10	-1.044716e+01	-5.601781e+01
1.530000e-06	-1.458447e-06	-7.699690e-10	-1.013259e+01	-5.539803e+01
1.540000e-06	-1.413073e-06	-7.579307e-10	-9.817345e+00	-5.476251e+01
1.550000e-06	-1.367570e-06	-7.446179e-10	-9.501212e+00	-5.411070e+01
1.560000e-06	-1.322061e-06	-7.308468e-10	-9.185036e+00	-5.344213e+01
1.570000e-06	-1.276454e-06	-7.187455e-10	-8.868187e+00	-5.275632e+01
1.580000e-06	-1.230692e-06	-7.101110e-10	-8.550253e+00	-5.205284e+01
1.590000e-06	-1.184901e-06	-7.026167e-10	-8.232122e+00	-5.133127e+01
1.600000e-06	-1.139033e-06	-6.937262e-10	-7.913449e+00	-5.059119e+01
1.610000e-06	-1.093066e-06	-6.831418e-10	-7.594097e+00	-4.983220e+01
1.620000e-06	-1.047056e-06	-6.690428e-10	-7.274440e+00	-4.905388e+01
1.630000e-06	-1.001000e-06	-6.522606e-10	-6.954465e+00	-4.825581e+01
1.640000e-06	-9.548544e-07	-6.378919e-10	-6.633866e+00	-4.743754e+01
1.650000e-06	-9.086117e-07	-6.250044e-10	-6.312594e+00	-4.659858e+01
1.660000e-06	-8.623260e-07	-6.102171e-10	-5.991023e+00	-4.573841e+01
1.670000e-06	-8.160138e-07	-5.955073e-10	-5.669269e+00	-4.485648e+01
1.680000e-06	-7.696696e-07	-5.828395e-10	-5.347292e+00	-4.395220e+01
1.690000e-06	-7.232894e-07	-5.708765e-10	-5.025064e+00	-4.302490e+01
1.700000e-06	-6.768447e-07	-5.564912e-10	-4.702390e+00	-4.207391e+01
1.710000e-06	-6.303244e-07	-5.412509e-10	-4.379189e+00	-4.109847e+01
1.720000e-06	-5.836930e-07	-5.264260e-10	-4.055216e+00	-4.009782e+01
1.730000e-06	-5.369429e-07	-5.102495e-10	-3.730419e+00	-3.907114e+01
1.740000e-06	-4.901626e-07	-4.920957e-10	-3.405412e+00	-3.801758e+01
1.750000e-06	-4.433955e-07	-4.727835e-10	-3.080497e+00	-3.693630e+01
1.760000e-06	-3.966350e-07	-4.535068e-10	-2.755628e+00	-3.582643e+01
1.770000e-06	-3.498873e-07	-4.365832e-10	-2.430848e+00	-3.468711e+01
1.780000e-06	-3.030935e-07	-4.222484e-10	-2.105747e+00	-3.351752e+01
1.790000e-06	-2.562012e-07	-4.088952e-10	-1.779962e+00	-3.231687e+01
1.800000e-06	-2.092436e-07	-3.949858e-10	-1.453724e+00	-3.108441e+01
1.810000e-06	-1.623249e-07	-3.775329e-10	-1.127755e+00	-2.981948e+01
1.820000e-06	-1.154698e-07	-3.580661e-10	-8.022283e-01	-2.852152e+01
1.830000e-06	-6.860117e-08	-3.405406e-10	-4.766077e-01	-2.719005e+01
1.840000e-06	-2.174352e-08	-3.244378e-10	-1.510635e-01	-2.582473e+01
1.850000e-06	2.508911e-08	-3.062566e-10	1.743070e-01	-2.442538e+01
1.860000e-06	7.194148e-08	-2.857166e-10	4.998146e-01	-2.299193e+01
1.870000e-06	1.188050e-07	-2.649865e-10	8.253998e-01	-2.152452e+01
1.880000e-06	1.656670e-07	-2.434564e-10	1.150974e+00	-2.002346e+01
1.890000e-06	2.125161e-07	-2.208847e-10	1.476459e+00	-1.848923e+01
1.900000e-06	2.591792e-07	-1.993540e-10	1.800652e+00	-1.692254e+01
1.910000e-06	3.058153e-07	-1.777211e-10	2.124657e+00	-1.532427e+01
1.920000e-06	3.526160e-07	-1.558469e-10	2.449805e+00	-1.369553e+01
1.930000e-06	3.994573e-07	-1.347686e-10	2.775236e+00	-1.203760e+01
1.940000e-06	4.462377e-07	-1.128736e-10	3.100243e+00	-1.035199e+01
1.950000e-06	4.928778e-07	-8.904763e-11	3.424276e+00	-8.640372e+00
1.960000e-06	5.394539e-07	-6.572180e-11	3.747865e+00	-6.904622e+00
1.970000e-06	5.859543e-07	-4.302847e-11	4.070927e+00	-5.146771e+00
1.980000e-06	6.324228e-07	-1.917312e-11	4.393767e+00	-3.369008e+00
1.990000e-06	6.788152e-07	4.930601e-12	4.716080e+00	-1.573658e+00
2.000000e-06	7.251170e-07	3.061456e-11	5.037762e+00	2.368334e-01
2.010000e-06	7.714986e-07	5.900321e-11	5.359999e+00	2.059925e+00
2.020000e-06	8.178178e-07	8.765839e-11	5.681802e+00	3.892999e+00
2.030000e-06	8.640140e-07	1.132805e-10	6.002751e+00	5.733383e+00
2.040000e-06	9.101842e-07	1.370320e-10	6.323519e+00	7.578375e+00
2.050000e-06	9.562785e-07	1.604433e-10	6.643760e+00	9.425266e+00
2.060000e-06	1.002272e-06	1.862101e-10	6.963300e+00	1.127136e+01
2.070000e-06	1.048187e-06	2.139187e-10	7.282293e+00	1.311401e+01
2.080000e-06	1.094109e-06	2.439700e-10	7.601342e+00	1.495062e+01
2.090000e-06	1.139941e-06	2.733854e-10	7.919758e+00	1.677867e+01
2.100000e-06	1.185634e-06	2.966441e-10	8.237213e+00	1.859576e+01
2.110000e-06	1.231297e-06	3.179799e-10	8.554456e+00	2.039958e+01
2.120000e-06	1.276926e-06	3.400739e-10	8.871465e+00	2.218796e+01
2.130000e-06	1.322534e-06	3.650286e-10	9.188326e+00	2.395888e+01
2.140000e-06	1.367971e-06	3.887558e-10	9.503998e+00	2.571048e+01
2.150000e-06	1.413240e-06	4.133275e-10	9.818504e+00	2.744104e+01
2.160000e-06	1.458413e-06	4.406503e-10	1.013234e+01	2.914902e+01
2.170000e-06	1.503513e-06	4.672085e-10	1.044568e+01	3.083304e+01
2.180000e-06	1.548583e-06	4.902772e-10	1.075881e+01	3.249190e+01
2.190000e-06	1.593549e-06	5.122113e-10	1.107121e+01	3.412455e+01
2.200000e-06	1.638308e-06	5.337025e-10	1.138217e+01	3.573012e+01
2.210000e-06	1.682848e-06	5.542099e-10	1.169161e+01	3.730788e+01
2.220000e-06	1.727244e-06	5.739979e-10	1.200006e+01	3.885726e+01
2.230000e-06	1.771585e-06	5.923295e-10	1.230811e+01	4.037781e+01
2.240000e-06	1.815863e-06	6.120968e-10	1.261574e+01	4.186922e+01
2.250000e-06	1.859988e-06	6.333109e-10	1.292230e+01	4.333130e+01
2.260000e-06	1.904021e-06	6.554710e-10	1.322822e+01	4.476394e+01
2.270000e-06	1.947990e-06	6.790057e-10	1.353369e+01	4.616714e+01
2.280000e-06	1.991874e-06	7.003948e-10	1.383858e+01	4.754095e+01
2.290000e-06	2.035696e-06	7.179937e-10	1.414303e+01	4.888552e+01
2.300000e-06	2.079458e-06	7.320168e-10	1.444707e+01	5.020102e+01
2.310000e-06	2.123152e-06	7.447582e-10	1.475063e+01	5.148767e+01
2.320000e-06	2.166759e-06	7.598066e-10	1.505359e+01	5.274572e+01
2.330000e-06	2.210276e-06	7.764486e-10	1.535592e+01	5.397543e+01
2.340000e-06	2.253708e-06	7.955554e-10	1.565768e+01	5.517707e+01
2.350000e-06	2.296987e-06	8.152341e-10	1.595836e+01	5.635094e+01
2.360000e-06	2.340018e-06	8.339219e-10	1.625731e+01	5.749730e+01
2.370000e-06	2.382800e-06	8.482875e-10	1.655454e+01	5.861641e+01
2.380000e-06	2.425291e-06	8.607125e-10	1.684975e+01	5.970855e+01
2.390000e-06	2.467511e-06	8.737753e-10	1.714308e+01	6.077395e+01
2.400000e-06	2.509536e-06	8.877849e-10	1.743504e+01	6.181286e+01
2.410000e-06	2.551197e-06	9.027450e-10	1.772448e+01	6.282548e+01
2.420000e-06	2.592419e-06	9.178440e-10	1.801087e+01	6.381204e+01
2.430000e-06	2.633337e-06	9.326308e-10	1.829515e+01	6.477275e+01
2.440000e-06	2.674029e-06	9.465339e-10	1.857786e+01	6.570781e+01
2.450000e-06	2.714475e-06	9.585467e-10	1.885886e+01	6.661741e+01
2.460000e-06	2.754667e-06	9.690960e-10	1.913810e+01	6.750179e+01
2.470000e-06	2.794704e-06	9.796361e-10	1.941625e+01	6.836115e+01
2.480000e-06	2.834659e-06	9.910353e-10	1.969384e+01	6.919573e+01
2.490000e-06	2.874507e-06	1.002631e-09	1.997069e+01	7.000578e+01
2.500000e-06	2.914186e-06	1.014602e-09	2.024636e+01	7.079159e+01
2.510000e-06	2.953680e-06	1.025809e-09	2.052074e+01	7.155345e+01
2.520000e-06	2.993039e-06	1.034936e-09	2.079419e+01	7.229170e+01
2.530000e-06	3.032227e-06	1.044525e-09	2.106645e+01	7.300671e+01
2.540000e-06	3.071218e-06	1.054656e-09	2.133734e+01	7.369887e+01
2.550000e-06	3.110054e-06	1.063147e-09	2.160715e+01	7.436862e+01
2.560000e-06	3.148666e-06	1.069806e-09	2.187541e+01	7.501642e+01
2.570000e-06	3.186990e-06	1.076321e-09	2.214166e+01	7.564277e+01
2.580000e-06	3.225052e-06	1.082524e-09	2.240610e+01	7.624820e+01
2.590000e-06	3.262869e-06	1.089463e-09	2.266883e+01	7.683328e+01
2.600000e-06	3.300487e-06	1.097601e-09	2.293019e+01	7.739859e+01
2.610000e-06	3.337900e-06	1.105885e-09	2.319011e+01	7.794474e+01
2.620000e-06	3.375104e-06	1.112630e-09	2.344859e+01	7.847236e+01
2.630000e-06	3.412056e-06	1.117195e-09	2.370531e+01	7.898208e+01
2.640000e-06	3.448725e-06	1.121616e-09	2.396007e+01	7.947456e+01
2.650000e-06	3.485174e-06	1.127623e-09	2.421330e+01	7.995045e+01
2.660000e-06	3.521365e-06	1.133732e-09	2.446474e+01	8.041041e+01
2.670000e-06	3.557350e-06	1.140242e-09	2.471475e+01	8.085509e+01
2.680000e-06	3.593204e-06	1.147732e-09	2.496384e+01	8.128512e+01
2.690000e-06	3.628945e-06	1.156566e-09	2.521216e+01	8.170115e+01
2.700000e-06	3.664564e-06	1.165346e-09	2.545962e+01	8.210378e+01
2.710000e-06	3.699996e-06	1.171016e-09	2.570578e+01	8.249361e+01
2.720000e-06	3.735108e-06	1.173572e-09	2.594972e+01	8.287121e+01
2.730000e-06	3.769850e-06	1.175412e-09	2.619109e+01	8.323714e+01
2.740000e-06	3.804278e-06	1.179475e-09	2.643029e+01	8.359193e+01
2.750000e-06	3.838315e-06	1.186957e-09	2.666676e+01	8.393607e+01
2.760000e-06	3.871850e-06	1.197381e-09	2.689974e+01	8.427006e+01
2.770000e-06	3.904920e-06	1.206269e-09	2.712949e+01	8.459434e+01
2.780000e-06	3.937603e-06	1.212562e-09	2.735656e+01	8.490937e+01
2.790000e-06	3.969989e-06	1.217110e-09	2.758156e+01	8.521556e+01
2.800000e-06	4.002164e-06	1.220721e-09	2.780510e+01	8.551330e+01
2.810000e-06	4.034143e-06	1.224119e-09	2.802727e+01	8.580298e+01
2.820000e-06	4.065921e-06	1.227535e-09	2.824805e+01	8.608498e+01
2.830000e-06	4.097482e-06	1.234175e-09	2.846732e+01	8.635965e+01
2.840000e-06	4.128763e-06	1.242778e-09	2.868464e+01	8.662734e+01
2.850000e-06	4.159763e-06	1.250305e-09	2.890002e+01	8.688841e+01
2.860000e-06	4.190448e-06	1.258351e-09	2.911321e+01	8.714318e+01
2.870000e-06	4.220809e-06	1.265203e-09	2.932414e+01	8.739199e+01
2.880000e-06	4.250932e-06	1.270003e-09	2.953342e+01	8.763518e+01
2.890000e-06	4.280845e-06	1.274487e-09	2.974124e+01	8.787308e+01
2.900000e-06	4.310505e-06	1.278670e-09	2.994730e+01	8.810600e+01
