# Temperatura_=_10.17
# Concentracion g/m^3_=_1620.0
# C_Vs_to_Am_M_A/Vsm_=_65563218390.804596
# pendiente_HvsI_1/m_=_3716.3
# ordenada_HvsI_A/m_=_1297.0
# frecuencia_Hz_=_135102.69446584245

Tiempo_(s)	Campo_(V.s)	Magnetizacion_(V.s)	Campo_(kA/m)	Magnetizacion_(A/m)
0.000000e+00	-5.527912e-06	-1.357944e-09	-3.836593e+01	-9.047262e+01
1.000000e-08	-5.528096e-06	-1.357878e-09	-3.836720e+01	-9.047158e+01
2.000000e-08	-5.527990e-06	-1.360099e-09	-3.836647e+01	-9.046851e+01
3.000000e-08	-5.527541e-06	-1.362025e-09	-3.836335e+01	-9.046335e+01
4.000000e-08	-5.526707e-06	-1.362927e-09	-3.835757e+01	-9.045608e+01
5.000000e-08	-5.525242e-06	-1.356566e-09	-3.834739e+01	-9.044670e+01
6.000000e-08	-5.523089e-06	-1.343292e-09	-3.833246e+01	-9.043521e+01
7.000000e-08	-5.520353e-06	-1.339450e-09	-3.831346e+01	-9.042167e+01
8.000000e-08	-5.517054e-06	-1.360087e-09	-3.829057e+01	-9.040611e+01
9.000000e-08	-5.513283e-06	-1.387000e-09	-3.826439e+01	-9.038858e+01
1.000000e-07	-5.509038e-06	-1.373558e-09	-3.823493e+01	-9.036914e+01
1.100000e-07	-5.504514e-06	-1.338673e-09	-3.820353e+01	-9.034783e+01
1.200000e-07	-5.499939e-06	-1.314415e-09	-3.817178e+01	-9.032466e+01
1.300000e-07	-5.495076e-06	-1.346786e-09	-3.813803e+01	-9.029964e+01
1.400000e-07	-5.489769e-06	-1.368920e-09	-3.810120e+01	-9.027274e+01
1.500000e-07	-5.484176e-06	-1.351768e-09	-3.806238e+01	-9.024391e+01
1.600000e-07	-5.478219e-06	-1.349327e-09	-3.802104e+01	-9.021303e+01
1.700000e-07	-5.471765e-06	-1.364577e-09	-3.797624e+01	-9.017999e+01
1.800000e-07	-5.464883e-06	-1.392070e-09	-3.792848e+01	-9.014459e+01
1.900000e-07	-5.457647e-06	-1.364435e-09	-3.787826e+01	-9.010661e+01
2.000000e-07	-5.450142e-06	-1.341996e-09	-3.782618e+01	-9.006580e+01
2.100000e-07	-5.442391e-06	-1.349430e-09	-3.777238e+01	-9.002184e+01
2.200000e-07	-5.434395e-06	-1.390097e-09	-3.771688e+01	-8.997440e+01
2.300000e-07	-5.426090e-06	-1.387529e-09	-3.765924e+01	-8.992310e+01
2.400000e-07	-5.417300e-06	-1.370766e-09	-3.759824e+01	-8.986757e+01
2.500000e-07	-5.407829e-06	-1.369088e-09	-3.753250e+01	-8.980738e+01
2.600000e-07	-5.397677e-06	-1.376368e-09	-3.746204e+01	-8.974213e+01
2.700000e-07	-5.387004e-06	-1.354418e-09	-3.738797e+01	-8.967139e+01
2.800000e-07	-5.375858e-06	-1.339060e-09	-3.731061e+01	-8.959476e+01
2.900000e-07	-5.364229e-06	-1.357207e-09	-3.722990e+01	-8.951186e+01
3.000000e-07	-5.352201e-06	-1.362096e-09	-3.714642e+01	-8.942231e+01
3.100000e-07	-5.339840e-06	-1.344807e-09	-3.706063e+01	-8.932581e+01
3.200000e-07	-5.327042e-06	-1.349695e-09	-3.697181e+01	-8.922208e+01
3.300000e-07	-5.313793e-06	-1.375835e-09	-3.687986e+01	-8.911091e+01
3.400000e-07	-5.300183e-06	-1.352553e-09	-3.678540e+01	-8.899214e+01
3.500000e-07	-5.286154e-06	-1.324308e-09	-3.668803e+01	-8.886570e+01
3.600000e-07	-5.271710e-06	-1.334197e-09	-3.658778e+01	-8.873156e+01
3.700000e-07	-5.256859e-06	-1.350385e-09	-3.648471e+01	-8.858980e+01
3.800000e-07	-5.241524e-06	-1.328781e-09	-3.637828e+01	-8.844056e+01
3.900000e-07	-5.225606e-06	-1.328485e-09	-3.626780e+01	-8.828406e+01
4.000000e-07	-5.209167e-06	-1.338753e-09	-3.615371e+01	-8.812060e+01
4.100000e-07	-5.192429e-06	-1.325524e-09	-3.603754e+01	-8.795056e+01
4.200000e-07	-5.175405e-06	-1.303597e-09	-3.591939e+01	-8.777438e+01
4.300000e-07	-5.158045e-06	-1.319639e-09	-3.579890e+01	-8.759255e+01
4.400000e-07	-5.140377e-06	-1.322808e-09	-3.567628e+01	-8.740563e+01
4.500000e-07	-5.122326e-06	-1.308951e-09	-3.555099e+01	-8.721423e+01
4.600000e-07	-5.103763e-06	-1.304240e-09	-3.542216e+01	-8.701897e+01
4.700000e-07	-5.084778e-06	-1.302804e-09	-3.529040e+01	-8.682050e+01
4.800000e-07	-5.065536e-06	-1.288838e-09	-3.515685e+01	-8.661950e+01
4.900000e-07	-5.046054e-06	-1.296753e-09	-3.502164e+01	-8.641662e+01
5.000000e-07	-5.026335e-06	-1.302016e-09	-3.488478e+01	-8.621252e+01
5.100000e-07	-5.006391e-06	-1.290211e-09	-3.474636e+01	-8.600782e+01
5.200000e-07	-4.986106e-06	-1.290152e-09	-3.460558e+01	-8.580310e+01
5.300000e-07	-4.965474e-06	-1.303862e-09	-3.446238e+01	-8.559891e+01
5.400000e-07	-4.944465e-06	-1.287279e-09	-3.431657e+01	-8.539574e+01
5.500000e-07	-4.923133e-06	-1.267218e-09	-3.416852e+01	-8.519399e+01
5.600000e-07	-4.901474e-06	-1.266840e-09	-3.401819e+01	-8.499401e+01
5.700000e-07	-4.879479e-06	-1.261358e-09	-3.386554e+01	-8.479607e+01
5.800000e-07	-4.857213e-06	-1.257372e-09	-3.371100e+01	-8.460034e+01
5.900000e-07	-4.834606e-06	-1.268699e-09	-3.355411e+01	-8.440695e+01
6.000000e-07	-4.811636e-06	-1.264466e-09	-3.339468e+01	-8.421588e+01
6.100000e-07	-4.788274e-06	-1.247065e-09	-3.323254e+01	-8.402709e+01
6.200000e-07	-4.764632e-06	-1.250408e-09	-3.306846e+01	-8.384042e+01
6.300000e-07	-4.740813e-06	-1.250120e-09	-3.290315e+01	-8.365565e+01
6.400000e-07	-4.716737e-06	-1.235859e-09	-3.273605e+01	-8.347248e+01
6.500000e-07	-4.692235e-06	-1.237786e-09	-3.256599e+01	-8.329057e+01
6.600000e-07	-4.667328e-06	-1.249103e-09	-3.239313e+01	-8.310950e+01
6.700000e-07	-4.642040e-06	-1.234453e-09	-3.221762e+01	-8.292884e+01
6.800000e-07	-4.616174e-06	-1.225611e-09	-3.203810e+01	-8.274810e+01
6.900000e-07	-4.589677e-06	-1.232544e-09	-3.185420e+01	-8.256678e+01
7.000000e-07	-4.562718e-06	-1.223817e-09	-3.166709e+01	-8.238436e+01
7.100000e-07	-4.535443e-06	-1.203906e-09	-3.147780e+01	-8.220034e+01
7.200000e-07	-4.507910e-06	-1.210390e-09	-3.128670e+01	-8.201422e+01
7.300000e-07	-4.480155e-06	-1.214993e-09	-3.109407e+01	-8.182551e+01
7.400000e-07	-4.452219e-06	-1.206189e-09	-3.090019e+01	-8.163377e+01
7.500000e-07	-4.424134e-06	-1.205859e-09	-3.070527e+01	-8.143860e+01
7.600000e-07	-4.395788e-06	-1.209054e-09	-3.050853e+01	-8.123962e+01
7.700000e-07	-4.367069e-06	-1.191047e-09	-3.030921e+01	-8.103652e+01
7.800000e-07	-4.338011e-06	-1.180411e-09	-3.010753e+01	-8.082906e+01
7.900000e-07	-4.308673e-06	-1.185893e-09	-2.990392e+01	-8.061703e+01
8.000000e-07	-4.279023e-06	-1.183058e-09	-2.969814e+01	-8.040029e+01
8.100000e-07	-4.249051e-06	-1.173484e-09	-2.949012e+01	-8.017877e+01
8.200000e-07	-4.218826e-06	-1.180785e-09	-2.928035e+01	-7.995246e+01
8.300000e-07	-4.188278e-06	-1.184161e-09	-2.906833e+01	-7.972138e+01
8.400000e-07	-4.157386e-06	-1.174082e-09	-2.885393e+01	-7.948563e+01
8.500000e-07	-4.126311e-06	-1.171497e-09	-2.863825e+01	-7.924533e+01
8.600000e-07	-4.095051e-06	-1.171285e-09	-2.842130e+01	-7.900066e+01
8.700000e-07	-4.063530e-06	-1.158066e-09	-2.820253e+01	-7.875182e+01
8.800000e-07	-4.031798e-06	-1.150139e-09	-2.798230e+01	-7.849902e+01
8.900000e-07	-3.999854e-06	-1.152917e-09	-2.776059e+01	-7.824251e+01
9.000000e-07	-3.967668e-06	-1.147562e-09	-2.753721e+01	-7.798254e+01
9.100000e-07	-3.935184e-06	-1.141062e-09	-2.731176e+01	-7.771934e+01
9.200000e-07	-3.902360e-06	-1.144180e-09	-2.708394e+01	-7.745315e+01
9.300000e-07	-3.869210e-06	-1.146341e-09	-2.685387e+01	-7.718418e+01
9.400000e-07	-3.835598e-06	-1.138506e-09	-2.662059e+01	-7.691262e+01
9.500000e-07	-3.801487e-06	-1.134790e-09	-2.638385e+01	-7.663865e+01
9.600000e-07	-3.766968e-06	-1.128055e-09	-2.614427e+01	-7.636237e+01
9.700000e-07	-3.732049e-06	-1.112476e-09	-2.590191e+01	-7.608388e+01
9.800000e-07	-3.696794e-06	-1.102558e-09	-2.565724e+01	-7.580322e+01
9.900000e-07	-3.661272e-06	-1.102469e-09	-2.541070e+01	-7.552041e+01
1.000000e-06	-3.625544e-06	-1.097913e-09	-2.516273e+01	-7.523539e+01
1.010000e-06	-3.589688e-06	-1.094814e-09	-2.491388e+01	-7.494809e+01
1.020000e-06	-3.553764e-06	-1.098459e-09	-2.466455e+01	-7.465839e+01
1.030000e-06	-3.517693e-06	-1.098941e-09	-2.441420e+01	-7.436614e+01
1.040000e-06	-3.481368e-06	-1.092088e-09	-2.416209e+01	-7.407114e+01
1.050000e-06	-3.444748e-06	-1.085926e-09	-2.390793e+01	-7.377319e+01
1.060000e-06	-3.407912e-06	-1.076874e-09	-2.365227e+01	-7.347206e+01
1.070000e-06	-3.370879e-06	-1.066090e-09	-2.339525e+01	-7.316748e+01
1.080000e-06	-3.333522e-06	-1.059637e-09	-2.313598e+01	-7.285922e+01
1.090000e-06	-3.295928e-06	-1.058875e-09	-2.287506e+01	-7.254701e+01
1.100000e-06	-3.258101e-06	-1.053808e-09	-2.261253e+01	-7.223061e+01
1.110000e-06	-3.219991e-06	-1.048432e-09	-2.234803e+01	-7.190977e+01
1.120000e-06	-3.181612e-06	-1.047641e-09	-2.208166e+01	-7.158428e+01
1.130000e-06	-3.143034e-06	-1.040932e-09	-2.181391e+01	-7.125392e+01
1.140000e-06	-3.104392e-06	-1.031222e-09	-2.154573e+01	-7.091854e+01
1.150000e-06	-3.065562e-06	-1.024464e-09	-2.127623e+01	-7.057798e+01
1.160000e-06	-3.026437e-06	-1.017352e-09	-2.100469e+01	-7.023214e+01
1.170000e-06	-2.987099e-06	-1.009588e-09	-2.073166e+01	-6.988093e+01
1.180000e-06	-2.947635e-06	-1.005768e-09	-2.045777e+01	-6.952432e+01
1.190000e-06	-2.908003e-06	-1.002727e-09	-2.018271e+01	-6.916229e+01
1.200000e-06	-2.868221e-06	-9.929756e-10	-1.990661e+01	-6.879487e+01
1.210000e-06	-2.828310e-06	-9.839455e-10	-1.962961e+01	-6.842210e+01
1.220000e-06	-2.788223e-06	-9.784880e-10	-1.935138e+01	-6.804406e+01
1.230000e-06	-2.748041e-06	-9.742855e-10	-1.907251e+01	-6.766084e+01
1.240000e-06	-2.707715e-06	-9.711032e-10	-1.879263e+01	-6.727255e+01
1.250000e-06	-2.667162e-06	-9.711195e-10	-1.851117e+01	-6.687930e+01
1.260000e-06	-2.626355e-06	-9.697159e-10	-1.822796e+01	-6.648123e+01
1.270000e-06	-2.585217e-06	-9.632977e-10	-1.794245e+01	-6.607845e+01
1.280000e-06	-2.543785e-06	-9.548504e-10	-1.765489e+01	-6.567106e+01
1.290000e-06	-2.502108e-06	-9.451100e-10	-1.736563e+01	-6.525918e+01
1.300000e-06	-2.460157e-06	-9.349309e-10	-1.707448e+01	-6.484286e+01
1.310000e-06	-2.417965e-06	-9.261266e-10	-1.678165e+01	-6.442216e+01
1.320000e-06	-2.375535e-06	-9.215754e-10	-1.648717e+01	-6.399709e+01
1.330000e-06	-2.332844e-06	-9.185318e-10	-1.619087e+01	-6.356765e+01
1.340000e-06	-2.289861e-06	-9.149261e-10	-1.589256e+01	-6.313377e+01
1.350000e-06	-2.246645e-06	-9.091642e-10	-1.559262e+01	-6.269536e+01
1.360000e-06	-2.203236e-06	-8.975916e-10	-1.529134e+01	-6.225230e+01
1.370000e-06	-2.159640e-06	-8.838098e-10	-1.498877e+01	-6.180440e+01
1.380000e-06	-2.115936e-06	-8.728896e-10	-1.468545e+01	-6.135144e+01
1.390000e-06	-2.072147e-06	-8.637328e-10	-1.438153e+01	-6.089318e+01
1.400000e-06	-2.028234e-06	-8.579435e-10	-1.407676e+01	-6.042931e+01
1.410000e-06	-1.984230e-06	-8.534365e-10	-1.377135e+01	-5.995951e+01
1.420000e-06	-1.940129e-06	-8.511444e-10	-1.346527e+01	-5.948342e+01
1.430000e-06	-1.895998e-06	-8.450447e-10	-1.315898e+01	-5.900063e+01
1.440000e-06	-1.851888e-06	-8.356733e-10	-1.285284e+01	-5.851075e+01
1.450000e-06	-1.807690e-06	-8.242198e-10	-1.254609e+01	-5.801332e+01
1.460000e-06	-1.763370e-06	-8.114063e-10	-1.223850e+01	-5.750790e+01
1.470000e-06	-1.718886e-06	-7.978699e-10	-1.192976e+01	-5.699400e+01
1.480000e-06	-1.674256e-06	-7.903590e-10	-1.162001e+01	-5.647116e+01
1.490000e-06	-1.629470e-06	-7.839894e-10	-1.130917e+01	-5.593888e+01
1.500000e-06	-1.584519e-06	-7.770888e-10	-1.099720e+01	-5.539666e+01
1.510000e-06	-1.539462e-06	-7.718997e-10	-1.068448e+01	-5.484399e+01
1.520000e-06	-1.494264e-06	-7.655525e-10	-1.037079e+01	-5.428036e+01
1.530000e-06	-1.449002e-06	-7.568466e-10	-1.005666e+01	-5.370526e+01
1.540000e-06	-1.403674e-06	-7.474705e-10	-9.742064e+00	-5.311816e+01
1.550000e-06	-1.358197e-06	-7.399145e-10	-9.426429e+00	-5.251851e+01
1.560000e-06	-1.312607e-06	-7.306044e-10	-9.110021e+00	-5.190578e+01
1.570000e-06	-1.266936e-06	-7.196294e-10	-8.793043e+00	-5.127938e+01
1.580000e-06	-1.221185e-06	-7.087198e-10	-8.475513e+00	-5.063874e+01
1.590000e-06	-1.175307e-06	-6.995932e-10	-8.157104e+00	-4.998324e+01
1.600000e-06	-1.129357e-06	-6.900450e-10	-7.838194e+00	-4.931222e+01
1.610000e-06	-1.083354e-06	-6.808697e-10	-7.518910e+00	-4.862502e+01
1.620000e-06	-1.037255e-06	-6.720051e-10	-7.198965e+00	-4.792091e+01
1.630000e-06	-9.910959e-07	-6.622821e-10	-6.878603e+00	-4.719912e+01
1.640000e-06	-9.449075e-07	-6.514868e-10	-6.558037e+00	-4.645885e+01
1.650000e-06	-8.987128e-07	-6.410149e-10	-6.237427e+00	-4.569924e+01
1.660000e-06	-8.524326e-07	-6.272663e-10	-5.916224e+00	-4.491936e+01
1.670000e-06	-8.060707e-07	-6.114910e-10	-5.594454e+00	-4.411827e+01
1.680000e-06	-7.597048e-07	-5.960839e-10	-5.272656e+00	-4.329495e+01
1.690000e-06	-7.133145e-07	-5.808294e-10	-4.950689e+00	-4.244835e+01
1.700000e-06	-6.667976e-07	-5.652068e-10	-4.627843e+00	-4.157735e+01
1.710000e-06	-6.202287e-07	-5.528395e-10	-4.304636e+00	-4.068084e+01
1.720000e-06	-5.736711e-07	-5.430430e-10	-3.981508e+00	-3.975764e+01
1.730000e-06	-5.270910e-07	-5.317308e-10	-3.658223e+00	-3.880659e+01
1.740000e-06	-4.804571e-07	-5.167482e-10	-3.334565e+00	-3.782648e+01
1.750000e-06	-4.337129e-07	-4.981972e-10	-3.010141e+00	-3.681616e+01
1.760000e-06	-3.869558e-07	-4.776468e-10	-2.685628e+00	-3.577448e+01
1.770000e-06	-3.401542e-07	-4.585604e-10	-2.360807e+00	-3.470031e+01
1.780000e-06	-2.932147e-07	-4.412348e-10	-2.035028e+00	-3.359261e+01
1.790000e-06	-2.462131e-07	-4.256069e-10	-1.708818e+00	-3.245041e+01
1.800000e-06	-1.992635e-07	-4.108966e-10	-1.382969e+00	-3.127280e+01
1.810000e-06	-1.523943e-07	-3.951216e-10	-1.057678e+00	-3.005904e+01
1.820000e-06	-1.056155e-07	-3.774158e-10	-7.330142e-01	-2.880847e+01
1.830000e-06	-5.882269e-08	-3.571507e-10	-4.082530e-01	-2.752060e+01
1.840000e-06	-1.182658e-08	-3.374072e-10	-8.208121e-02	-2.619511e+01
1.850000e-06	3.518897e-08	-3.192469e-10	2.442256e-01	-2.483186e+01
1.860000e-06	8.204924e-08	-2.998199e-10	5.694546e-01	-2.343089e+01
1.870000e-06	1.289502e-07	-2.769949e-10	8.949660e-01	-2.199247e+01
1.880000e-06	1.758825e-07	-2.539083e-10	1.220695e+00	-2.051706e+01
1.890000e-06	2.227743e-07	-2.332044e-10	1.546143e+00	-1.900538e+01
1.900000e-06	2.696420e-07	-2.129789e-10	1.871423e+00	-1.745835e+01
1.910000e-06	3.164539e-07	-1.927464e-10	2.196317e+00	-1.587713e+01
1.920000e-06	3.633535e-07	-1.735933e-10	2.521819e+00	-1.426310e+01
1.930000e-06	4.102655e-07	-1.524417e-10	2.847407e+00	-1.261788e+01
1.940000e-06	4.570494e-07	-1.276314e-10	3.172106e+00	-1.094330e+01
1.950000e-06	5.037464e-07	-1.004721e-10	3.496202e+00	-9.241379e+00
1.960000e-06	5.504302e-07	-7.611934e-11	3.820206e+00	-7.514352e+00
1.970000e-06	5.970557e-07	-5.325392e-11	4.143806e+00	-5.764614e+00
1.980000e-06	6.435953e-07	-3.033475e-11	4.466810e+00	-3.994722e+00
1.990000e-06	6.901136e-07	-5.971491e-12	4.789665e+00	-2.207364e+00
2.000000e-06	7.366085e-07	2.204857e-11	5.112359e+00	-4.053414e-01
2.010000e-06	7.830479e-07	5.213189e-11	5.434666e+00	1.408457e+00
2.020000e-06	8.294070e-07	8.117028e-11	5.756417e+00	3.231082e+00
2.030000e-06	8.756970e-07	1.067482e-10	6.077688e+00	5.059549e+00
2.040000e-06	9.219091e-07	1.289177e-10	6.398419e+00	6.890865e+00
2.050000e-06	9.680423e-07	1.518776e-10	6.718602e+00	8.722056e+00
2.060000e-06	1.014085e-06	1.769991e-10	7.038155e+00	1.055019e+01
2.070000e-06	1.060053e-06	2.030905e-10	7.357196e+00	1.237242e+01
2.080000e-06	1.105917e-06	2.317826e-10	7.675507e+00	1.418595e+01
2.090000e-06	1.151710e-06	2.610729e-10	7.993330e+00	1.598816e+01
2.100000e-06	1.197493e-06	2.872605e-10	8.311080e+00	1.777650e+01
2.110000e-06	1.243203e-06	3.112725e-10	8.628327e+00	1.954863e+01
2.120000e-06	1.288813e-06	3.332593e-10	8.944881e+00	2.130232e+01
2.130000e-06	1.334334e-06	3.521761e-10	9.260811e+00	2.303556e+01
2.140000e-06	1.379739e-06	3.715353e-10	9.575941e+00	2.474650e+01
2.150000e-06	1.425051e-06	3.954748e-10	9.890427e+00	2.643350e+01
2.160000e-06	1.470287e-06	4.233534e-10	1.020438e+01	2.809510e+01
2.170000e-06	1.515449e-06	4.487027e-10	1.051783e+01	2.973003e+01
2.180000e-06	1.560539e-06	4.706410e-10	1.083076e+01	3.133722e+01
2.190000e-06	1.605488e-06	4.922009e-10	1.114273e+01	3.291579e+01
2.200000e-06	1.650256e-06	5.113045e-10	1.145344e+01	3.446503e+01
2.210000e-06	1.694863e-06	5.281402e-10	1.176303e+01	3.598438e+01
2.220000e-06	1.739332e-06	5.456049e-10	1.207166e+01	3.747345e+01
2.230000e-06	1.783678e-06	5.660210e-10	1.237944e+01	3.893200e+01
2.240000e-06	1.827867e-06	5.871167e-10	1.268613e+01	4.035990e+01
2.250000e-06	1.871894e-06	6.082023e-10	1.299170e+01	4.175713e+01
2.260000e-06	1.915828e-06	6.293230e-10	1.329662e+01	4.312376e+01
2.270000e-06	1.959719e-06	6.484211e-10	1.360123e+01	4.445996e+01
2.280000e-06	2.003554e-06	6.666205e-10	1.390547e+01	4.576594e+01
2.290000e-06	2.047341e-06	6.824637e-10	1.420937e+01	4.704197e+01
2.300000e-06	2.091105e-06	6.996896e-10	1.451311e+01	4.828834e+01
2.310000e-06	2.134849e-06	7.144936e-10	1.481671e+01	4.950539e+01
2.320000e-06	2.178536e-06	7.282954e-10	1.511991e+01	5.069344e+01
2.330000e-06	2.222008e-06	7.439591e-10	1.542163e+01	5.185283e+01
2.340000e-06	2.265299e-06	7.587577e-10	1.572208e+01	5.298390e+01
2.350000e-06	2.308521e-06	7.745205e-10	1.602206e+01	5.408695e+01
2.360000e-06	2.351619e-06	7.891568e-10	1.632118e+01	5.516229e+01
2.370000e-06	2.394395e-06	8.030464e-10	1.661806e+01	5.621022e+01
2.380000e-06	2.436810e-06	8.168551e-10	1.691244e+01	5.723099e+01
2.390000e-06	2.478989e-06	8.319924e-10	1.720518e+01	5.822488e+01
2.400000e-06	2.520903e-06	8.479716e-10	1.749608e+01	5.919213e+01
2.410000e-06	2.562406e-06	8.626351e-10	1.778413e+01	6.013298e+01
2.420000e-06	2.603516e-06	8.764920e-10	1.806945e+01	6.104767e+01
2.430000e-06	2.644330e-06	8.887616e-10	1.835271e+01	6.193645e+01
2.440000e-06	2.684826e-06	8.986570e-10	1.863377e+01	6.279959e+01
2.450000e-06	2.725102e-06	9.071915e-10	1.891330e+01	6.363736e+01
2.460000e-06	2.765233e-06	9.168408e-10	1.919183e+01	6.445008e+01
2.470000e-06	2.805268e-06	9.282414e-10	1.946968e+01	6.523809e+01
2.480000e-06	2.845201e-06	9.413876e-10	1.974684e+01	6.600178e+01
2.490000e-06	2.884988e-06	9.565018e-10	2.002297e+01	6.674158e+01
2.500000e-06	2.924650e-06	9.698764e-10	2.029825e+01	6.745799e+01
2.510000e-06	2.964197e-06	9.798760e-10	2.057271e+01	6.815154e+01
2.520000e-06	3.003655e-06	9.860592e-10	2.084657e+01	6.882282e+01
2.530000e-06	3.042944e-06	9.919203e-10	2.111925e+01	6.947248e+01
2.540000e-06	3.081914e-06	9.991061e-10	2.138972e+01	7.010124e+01
2.550000e-06	3.120530e-06	1.007335e-09	2.165773e+01	7.070983e+01
2.560000e-06	3.158886e-06	1.017064e-09	2.192394e+01	7.129906e+01
2.570000e-06	3.197157e-06	1.027743e-09	2.218955e+01	7.186977e+01
2.580000e-06	3.235280e-06	1.038380e-09	2.245414e+01	7.242283e+01
2.590000e-06	3.273127e-06	1.046796e-09	2.271682e+01	7.295912e+01
2.600000e-06	3.310736e-06	1.052436e-09	2.297783e+01	7.347956e+01
2.610000e-06	3.348152e-06	1.056750e-09	2.323752e+01	7.398504e+01
2.620000e-06	3.385406e-06	1.061800e-09	2.349608e+01	7.447646e+01
2.630000e-06	3.422362e-06	1.067504e-09	2.375257e+01	7.495469e+01
2.640000e-06	3.458912e-06	1.072241e-09	2.400623e+01	7.542057e+01
2.650000e-06	3.495175e-06	1.075962e-09	2.425791e+01	7.587491e+01
2.660000e-06	3.531235e-06	1.080363e-09	2.450818e+01	7.631845e+01
2.670000e-06	3.567129e-06	1.085901e-09	2.475731e+01	7.675187e+01
2.680000e-06	3.602933e-06	1.093762e-09	2.500580e+01	7.717578e+01
2.690000e-06	3.638652e-06	1.102862e-09	2.525370e+01	7.759071e+01
2.700000e-06	3.674253e-06	1.109423e-09	2.550079e+01	7.799712e+01
2.710000e-06	3.709739e-06	1.113196e-09	2.574708e+01	7.839537e+01
2.720000e-06	3.745020e-06	1.117391e-09	2.599194e+01	7.878575e+01
2.730000e-06	3.779912e-06	1.122500e-09	2.623410e+01	7.916844e+01
2.740000e-06	3.814407e-06	1.128088e-09	2.647351e+01	7.954355e+01
2.750000e-06	3.848463e-06	1.135793e-09	2.670988e+01	7.991111e+01
2.760000e-06	3.881919e-06	1.144348e-09	2.694208e+01	8.027107e+01
2.770000e-06	3.914793e-06	1.150196e-09	2.717024e+01	8.062333e+01
2.780000e-06	3.947235e-06	1.156409e-09	2.739540e+01	8.096771e+01
2.790000e-06	3.979397e-06	1.161928e-09	2.761861e+01	8.130401e+01
2.800000e-06	4.011380e-06	1.167018e-09	2.784059e+01	8.163197e+01
2.810000e-06	4.043216e-06	1.170470e-09	2.806154e+01	8.195133e+01
2.820000e-06	4.074936e-06	1.175717e-09	2.828169e+01	8.226181e+01
2.830000e-06	4.106467e-06	1.182659e-09	2.850053e+01	8.256313e+01
2.840000e-06	4.137743e-06	1.187988e-09	2.871760e+01	8.285505e+01
2.850000e-06	4.168792e-06	1.194594e-09	2.893309e+01	8.313733e+01
2.860000e-06	4.199539e-06	1.201473e-09	2.914649e+01	8.340979e+01
2.870000e-06	4.229895e-06	1.206541e-09	2.935717e+01	8.367229e+01
2.880000e-06	4.259884e-06	1.209417e-09	2.956530e+01	8.392477e+01
2.890000e-06	4.289603e-06	1.213915e-09	2.977157e+01	8.416722e+01
2.900000e-06	4.319137e-06	1.219077e-09	2.997654e+01	8.439971e+01
