# Temperatura_=_7.75
# Concentracion g/m^3_=_1620.0
# C_Vs_to_Am_M_A/Vsm_=_65563218390.804596
# pendiente_HvsI_1/m_=_3716.3
# ordenada_HvsI_A/m_=_1297.0
# frecuencia_Hz_=_135105.96533802286

Tiempo_(s)	Campo_(V.s)	Magnetizacion_(V.s)	Campo_(kA/m)	Magnetizacion_(A/m)
0.000000e+00	-5.511297e-06	-1.345113e-09	-3.837056e+01	-8.930010e+01
1.000000e-08	-5.511592e-06	-1.342937e-09	-3.837262e+01	-8.926946e+01
2.000000e-08	-5.511550e-06	-1.339823e-09	-3.837232e+01	-8.924098e+01
3.000000e-08	-5.511166e-06	-1.336046e-09	-3.836965e+01	-8.921488e+01
4.000000e-08	-5.510302e-06	-1.333413e-09	-3.836364e+01	-8.919136e+01
5.000000e-08	-5.508874e-06	-1.330837e-09	-3.835370e+01	-8.917054e+01
6.000000e-08	-5.506877e-06	-1.328044e-09	-3.833979e+01	-8.915249e+01
7.000000e-08	-5.504362e-06	-1.339106e-09	-3.832228e+01	-8.913723e+01
8.000000e-08	-5.501357e-06	-1.341622e-09	-3.830136e+01	-8.912467e+01
9.000000e-08	-5.497856e-06	-1.314268e-09	-3.827698e+01	-8.911470e+01
1.000000e-07	-5.493920e-06	-1.319923e-09	-3.824958e+01	-8.910709e+01
1.100000e-07	-5.489657e-06	-1.388182e-09	-3.821990e+01	-8.910155e+01
1.200000e-07	-5.485103e-06	-1.355200e-09	-3.818819e+01	-8.909770e+01
1.300000e-07	-5.480290e-06	-1.308726e-09	-3.815468e+01	-8.909512e+01
1.400000e-07	-5.475168e-06	-1.292116e-09	-3.811903e+01	-8.909327e+01
1.500000e-07	-5.469658e-06	-1.375331e-09	-3.808067e+01	-8.909159e+01
1.600000e-07	-5.463808e-06	-1.379695e-09	-3.803994e+01	-8.908944e+01
1.700000e-07	-5.457593e-06	-1.300921e-09	-3.799666e+01	-8.908612e+01
1.800000e-07	-5.450954e-06	-1.302171e-09	-3.795044e+01	-8.908092e+01
1.900000e-07	-5.443853e-06	-1.368129e-09	-3.790101e+01	-8.907308e+01
2.000000e-07	-5.436387e-06	-1.403917e-09	-3.784903e+01	-8.906183e+01
2.100000e-07	-5.428693e-06	-1.327575e-09	-3.779546e+01	-8.904640e+01
2.200000e-07	-5.420819e-06	-1.321079e-09	-3.774064e+01	-8.902602e+01
2.300000e-07	-5.412608e-06	-1.352287e-09	-3.768348e+01	-8.899996e+01
2.400000e-07	-5.403959e-06	-1.389425e-09	-3.762326e+01	-8.896751e+01
2.500000e-07	-5.394827e-06	-1.342858e-09	-3.755968e+01	-8.892802e+01
2.600000e-07	-5.384918e-06	-1.339005e-09	-3.749069e+01	-8.888091e+01
2.700000e-07	-5.374274e-06	-1.345890e-09	-3.741659e+01	-8.882565e+01
2.800000e-07	-5.363254e-06	-1.363034e-09	-3.733986e+01	-8.876183e+01
2.900000e-07	-5.351851e-06	-1.336167e-09	-3.726047e+01	-8.868911e+01
3.000000e-07	-5.340033e-06	-1.333475e-09	-3.717819e+01	-8.860725e+01
3.100000e-07	-5.327806e-06	-1.340087e-09	-3.709306e+01	-8.851614e+01
3.200000e-07	-5.315222e-06	-1.360643e-09	-3.700546e+01	-8.841575e+01
3.300000e-07	-5.302236e-06	-1.346315e-09	-3.691504e+01	-8.830618e+01
3.400000e-07	-5.288789e-06	-1.328203e-09	-3.682143e+01	-8.818764e+01
3.500000e-07	-5.275010e-06	-1.346673e-09	-3.672549e+01	-8.806044e+01
3.600000e-07	-5.260817e-06	-1.356428e-09	-3.662668e+01	-8.792499e+01
3.700000e-07	-5.246164e-06	-1.322907e-09	-3.652467e+01	-8.778181e+01
3.800000e-07	-5.231047e-06	-1.313480e-09	-3.641941e+01	-8.763150e+01
3.900000e-07	-5.215375e-06	-1.346738e-09	-3.631030e+01	-8.747471e+01
4.000000e-07	-5.199125e-06	-1.311468e-09	-3.619717e+01	-8.731217e+01
4.100000e-07	-5.182498e-06	-1.290930e-09	-3.608141e+01	-8.714467e+01
4.200000e-07	-5.165623e-06	-1.343591e-09	-3.596392e+01	-8.697301e+01
4.300000e-07	-5.148376e-06	-1.356772e-09	-3.584385e+01	-8.679801e+01
4.400000e-07	-5.130762e-06	-1.277962e-09	-3.572121e+01	-8.662050e+01
4.500000e-07	-5.112850e-06	-1.309612e-09	-3.559651e+01	-8.644126e+01
4.600000e-07	-5.094575e-06	-1.354479e-09	-3.546928e+01	-8.626109e+01
4.700000e-07	-5.075806e-06	-1.289499e-09	-3.533860e+01	-8.608070e+01
4.800000e-07	-5.056656e-06	-1.256893e-09	-3.520528e+01	-8.590074e+01
4.900000e-07	-5.037329e-06	-1.343660e-09	-3.507072e+01	-8.572182e+01
5.000000e-07	-5.017766e-06	-1.315714e-09	-3.493452e+01	-8.554442e+01
5.100000e-07	-4.997918e-06	-1.260937e-09	-3.479633e+01	-8.536895e+01
5.200000e-07	-4.977807e-06	-1.317266e-09	-3.465632e+01	-8.519571e+01
5.300000e-07	-4.957412e-06	-1.338984e-09	-3.451433e+01	-8.502490e+01
5.400000e-07	-4.936581e-06	-1.246788e-09	-3.436930e+01	-8.485659e+01
5.500000e-07	-4.915406e-06	-1.268516e-09	-3.422187e+01	-8.469076e+01
5.600000e-07	-4.893957e-06	-1.320806e-09	-3.407254e+01	-8.452727e+01
5.700000e-07	-4.872130e-06	-1.263862e-09	-3.392058e+01	-8.436588e+01
5.800000e-07	-4.849928e-06	-1.242646e-09	-3.376600e+01	-8.420625e+01
5.900000e-07	-4.827360e-06	-1.311289e-09	-3.360888e+01	-8.404797e+01
6.000000e-07	-4.804450e-06	-1.287185e-09	-3.344938e+01	-8.389052e+01
6.100000e-07	-4.781257e-06	-1.240572e-09	-3.328790e+01	-8.373334e+01
6.200000e-07	-4.757868e-06	-1.277923e-09	-3.312506e+01	-8.357582e+01
6.300000e-07	-4.734242e-06	-1.279783e-09	-3.296058e+01	-8.341729e+01
6.400000e-07	-4.710349e-06	-1.234135e-09	-3.279423e+01	-8.325710e+01
6.500000e-07	-4.686187e-06	-1.251689e-09	-3.262601e+01	-8.309456e+01
6.600000e-07	-4.661643e-06	-1.272949e-09	-3.245513e+01	-8.292900e+01
6.700000e-07	-4.636597e-06	-1.239592e-09	-3.228076e+01	-8.275979e+01
6.800000e-07	-4.610980e-06	-1.237985e-09	-3.210241e+01	-8.258633e+01
6.900000e-07	-4.584765e-06	-1.253223e-09	-3.191989e+01	-8.240808e+01
7.000000e-07	-4.558044e-06	-1.233032e-09	-3.173385e+01	-8.222455e+01
7.100000e-07	-4.530936e-06	-1.215548e-09	-3.154512e+01	-8.203536e+01
7.200000e-07	-4.503545e-06	-1.231216e-09	-3.135443e+01	-8.184018e+01
7.300000e-07	-4.475920e-06	-1.222397e-09	-3.116210e+01	-8.163878e+01
7.400000e-07	-4.448117e-06	-1.211761e-09	-3.096852e+01	-8.143105e+01
7.500000e-07	-4.420137e-06	-1.213620e-09	-3.077373e+01	-8.121694e+01
7.600000e-07	-4.391874e-06	-1.214655e-09	-3.057696e+01	-8.099652e+01
7.700000e-07	-4.363322e-06	-1.202226e-09	-3.037817e+01	-8.076993e+01
7.800000e-07	-4.334443e-06	-1.206329e-09	-3.017711e+01	-8.053742e+01
7.900000e-07	-4.305208e-06	-1.202172e-09	-2.997357e+01	-8.029930e+01
8.000000e-07	-4.275672e-06	-1.193140e-09	-2.976794e+01	-8.005596e+01
8.100000e-07	-4.245846e-06	-1.188165e-09	-2.956028e+01	-7.980783e+01
8.200000e-07	-4.215759e-06	-1.190975e-09	-2.935081e+01	-7.955541e+01
8.300000e-07	-4.185338e-06	-1.179816e-09	-2.913902e+01	-7.929919e+01
8.400000e-07	-4.154613e-06	-1.176357e-09	-2.892510e+01	-7.903973e+01
8.500000e-07	-4.123633e-06	-1.178860e-09	-2.870941e+01	-7.877754e+01
8.600000e-07	-4.092412e-06	-1.175450e-09	-2.849205e+01	-7.851315e+01
8.700000e-07	-4.061050e-06	-1.164685e-09	-2.827370e+01	-7.824704e+01
8.800000e-07	-4.029516e-06	-1.164095e-09	-2.805416e+01	-7.797966e+01
8.900000e-07	-3.997761e-06	-1.156991e-09	-2.783308e+01	-7.771140e+01
9.000000e-07	-3.965751e-06	-1.143647e-09	-2.761021e+01	-7.744259e+01
9.100000e-07	-3.933486e-06	-1.141532e-09	-2.738558e+01	-7.717347e+01
9.200000e-07	-3.900891e-06	-1.144117e-09	-2.715865e+01	-7.690422e+01
9.300000e-07	-3.867909e-06	-1.136901e-09	-2.692902e+01	-7.663492e+01
9.400000e-07	-3.834535e-06	-1.132770e-09	-2.669666e+01	-7.636555e+01
9.500000e-07	-3.800652e-06	-1.134344e-09	-2.646077e+01	-7.609600e+01
9.600000e-07	-3.766269e-06	-1.121960e-09	-2.622139e+01	-7.582609e+01
9.700000e-07	-3.731459e-06	-1.107066e-09	-2.597904e+01	-7.555553e+01
9.800000e-07	-3.696325e-06	-1.102600e-09	-2.573443e+01	-7.528395e+01
9.900000e-07	-3.660977e-06	-1.100267e-09	-2.548833e+01	-7.501093e+01
1.000000e-06	-3.625477e-06	-1.090383e-09	-2.524117e+01	-7.473597e+01
1.010000e-06	-3.589833e-06	-1.090627e-09	-2.499301e+01	-7.445852e+01
1.020000e-06	-3.554031e-06	-1.091578e-09	-2.474376e+01	-7.417799e+01
1.030000e-06	-3.518127e-06	-1.085882e-09	-2.449378e+01	-7.389378e+01
1.040000e-06	-3.481971e-06	-1.078464e-09	-2.424206e+01	-7.360528e+01
1.050000e-06	-3.445469e-06	-1.077358e-09	-2.398793e+01	-7.331187e+01
1.060000e-06	-3.408709e-06	-1.068351e-09	-2.373200e+01	-7.301296e+01
1.070000e-06	-3.371722e-06	-1.061273e-09	-2.347449e+01	-7.270801e+01
1.080000e-06	-3.334487e-06	-1.061088e-09	-2.321525e+01	-7.239652e+01
1.090000e-06	-3.296994e-06	-1.061933e-09	-2.295422e+01	-7.207803e+01
1.100000e-06	-3.259297e-06	-1.053316e-09	-2.269176e+01	-7.175219e+01
1.110000e-06	-3.221424e-06	-1.047141e-09	-2.242809e+01	-7.141870e+01
1.120000e-06	-3.183347e-06	-1.040568e-09	-2.216299e+01	-7.107738e+01
1.130000e-06	-3.145058e-06	-1.030903e-09	-2.189641e+01	-7.072812e+01
1.140000e-06	-3.106532e-06	-1.022481e-09	-2.162819e+01	-7.037090e+01
1.150000e-06	-3.067802e-06	-1.020073e-09	-2.135855e+01	-7.000583e+01
1.160000e-06	-3.028932e-06	-1.013199e-09	-2.108792e+01	-6.963309e+01
1.170000e-06	-2.989895e-06	-1.003420e-09	-2.081614e+01	-6.925294e+01
1.180000e-06	-2.950692e-06	-9.970988e-10	-2.054321e+01	-6.886575e+01
1.190000e-06	-2.911304e-06	-9.929750e-10	-2.026898e+01	-6.847194e+01
1.200000e-06	-2.871698e-06	-9.847380e-10	-1.999324e+01	-6.807201e+01
1.210000e-06	-2.831934e-06	-9.765735e-10	-1.971639e+01	-6.766649e+01
1.220000e-06	-2.792103e-06	-9.701230e-10	-1.943908e+01	-6.725596e+01
1.230000e-06	-2.752141e-06	-9.628440e-10	-1.916086e+01	-6.684101e+01
1.240000e-06	-2.711955e-06	-9.583272e-10	-1.888108e+01	-6.642226e+01
1.250000e-06	-2.671569e-06	-9.558948e-10	-1.859991e+01	-6.600027e+01
1.260000e-06	-2.630993e-06	-9.528974e-10	-1.831741e+01	-6.557563e+01
1.270000e-06	-2.590196e-06	-9.448287e-10	-1.803337e+01	-6.514883e+01
1.280000e-06	-2.549133e-06	-9.373679e-10	-1.774749e+01	-6.472036e+01
1.290000e-06	-2.507766e-06	-9.296092e-10	-1.745948e+01	-6.429058e+01
1.300000e-06	-2.466192e-06	-9.177188e-10	-1.717004e+01	-6.385982e+01
1.310000e-06	-2.424274e-06	-9.039293e-10	-1.687820e+01	-6.342829e+01
1.320000e-06	-2.381861e-06	-8.955634e-10	-1.658291e+01	-6.299609e+01
1.330000e-06	-2.339095e-06	-8.896409e-10	-1.628516e+01	-6.256324e+01
1.340000e-06	-2.296035e-06	-8.853832e-10	-1.598538e+01	-6.212963e+01
1.350000e-06	-2.252776e-06	-8.832125e-10	-1.568420e+01	-6.169504e+01
1.360000e-06	-2.209483e-06	-8.789731e-10	-1.538278e+01	-6.125915e+01
1.370000e-06	-2.166122e-06	-8.677881e-10	-1.508090e+01	-6.082153e+01
1.380000e-06	-2.122632e-06	-8.566092e-10	-1.477811e+01	-6.038163e+01
1.390000e-06	-2.079052e-06	-8.460991e-10	-1.447470e+01	-5.993884e+01
1.400000e-06	-2.035358e-06	-8.381038e-10	-1.417050e+01	-5.949245e+01
1.410000e-06	-1.991581e-06	-8.325950e-10	-1.386572e+01	-5.904167e+01
1.420000e-06	-1.947739e-06	-8.296475e-10	-1.356048e+01	-5.858566e+01
1.430000e-06	-1.903826e-06	-8.240798e-10	-1.325475e+01	-5.812355e+01
1.440000e-06	-1.859847e-06	-8.167691e-10	-1.294856e+01	-5.765440e+01
1.450000e-06	-1.815721e-06	-8.083812e-10	-1.264135e+01	-5.717730e+01
1.460000e-06	-1.771473e-06	-7.972250e-10	-1.233329e+01	-5.669130e+01
1.470000e-06	-1.727154e-06	-7.837405e-10	-1.202473e+01	-5.619549e+01
1.480000e-06	-1.682729e-06	-7.725452e-10	-1.171543e+01	-5.568896e+01
1.490000e-06	-1.638098e-06	-7.648190e-10	-1.140471e+01	-5.517086e+01
1.500000e-06	-1.593282e-06	-7.579562e-10	-1.109269e+01	-5.464037e+01
1.510000e-06	-1.548381e-06	-7.523532e-10	-1.078008e+01	-5.409672e+01
1.520000e-06	-1.503378e-06	-7.484072e-10	-1.046677e+01	-5.353922e+01
1.530000e-06	-1.458235e-06	-7.426380e-10	-1.015247e+01	-5.296723e+01
1.540000e-06	-1.413007e-06	-7.327195e-10	-9.837589e+00	-5.238019e+01
1.550000e-06	-1.367682e-06	-7.200897e-10	-9.522027e+00	-5.177759e+01
1.560000e-06	-1.322207e-06	-7.075760e-10	-9.205425e+00	-5.115900e+01
1.570000e-06	-1.276669e-06	-6.955237e-10	-8.888378e+00	-5.052404e+01
1.580000e-06	-1.231117e-06	-6.837305e-10	-8.571239e+00	-4.987238e+01
1.590000e-06	-1.185492e-06	-6.755239e-10	-8.253589e+00	-4.920374e+01
1.600000e-06	-1.139793e-06	-6.695853e-10	-7.935429e+00	-4.851788e+01
1.610000e-06	-1.094044e-06	-6.609440e-10	-7.616912e+00	-4.781455e+01
1.620000e-06	-1.048210e-06	-6.487055e-10	-7.297812e+00	-4.709356e+01
1.630000e-06	-1.002307e-06	-6.367207e-10	-6.978230e+00	-4.635466e+01
1.640000e-06	-9.563080e-07	-6.240707e-10	-6.657974e+00	-4.559764e+01
1.650000e-06	-9.101323e-07	-6.113311e-10	-6.336492e+00	-4.482220e+01
1.660000e-06	-8.638923e-07	-5.989167e-10	-6.014561e+00	-4.402805e+01
1.670000e-06	-8.176149e-07	-5.860836e-10	-5.692370e+00	-4.321482e+01
1.680000e-06	-7.712710e-07	-5.724279e-10	-5.369716e+00	-4.238208e+01
1.690000e-06	-7.250071e-07	-5.594853e-10	-5.047620e+00	-4.152932e+01
1.700000e-06	-6.787104e-07	-5.443921e-10	-4.725294e+00	-4.065598e+01
1.710000e-06	-6.323351e-07	-5.289961e-10	-4.402422e+00	-3.976139e+01
1.720000e-06	-5.859418e-07	-5.152810e-10	-4.079424e+00	-3.884481e+01
1.730000e-06	-5.394651e-07	-5.026056e-10	-3.755845e+00	-3.790542e+01
1.740000e-06	-4.929551e-07	-4.888342e-10	-3.432035e+00	-3.694233e+01
1.750000e-06	-4.463550e-07	-4.719960e-10	-3.107597e+00	-3.595458e+01
1.760000e-06	-3.996546e-07	-4.543768e-10	-2.782461e+00	-3.494114e+01
1.770000e-06	-3.529992e-07	-4.384722e-10	-2.457639e+00	-3.390096e+01
1.780000e-06	-3.063354e-07	-4.235367e-10	-2.132758e+00	-3.283294e+01
1.790000e-06	-2.596578e-07	-4.074613e-10	-1.807780e+00	-3.173598e+01
1.800000e-06	-2.130147e-07	-3.911363e-10	-1.483043e+00	-3.060898e+01
1.810000e-06	-1.662934e-07	-3.733680e-10	-1.157762e+00	-2.945090e+01
1.820000e-06	-1.194536e-07	-3.551658e-10	-8.316560e-01	-2.826071e+01
1.830000e-06	-7.260581e-08	-3.401080e-10	-5.054937e-01	-2.703749e+01
1.840000e-06	-2.579541e-08	-3.255480e-10	-1.795919e-01	-2.578041e+01
1.850000e-06	2.097031e-08	-3.097778e-10	1.459988e-01	-2.448876e+01
1.860000e-06	6.770837e-08	-2.925723e-10	4.713969e-01	-2.316199e+01
1.870000e-06	1.144490e-07	-2.709870e-10	7.968130e-01	-2.179971e+01
1.880000e-06	1.611534e-07	-2.479810e-10	1.121977e+00	-2.040171e+01
1.890000e-06	2.078189e-07	-2.267259e-10	1.446869e+00	-1.896801e+01
1.900000e-06	2.545373e-07	-2.076652e-10	1.772131e+00	-1.749882e+01
1.910000e-06	3.012437e-07	-1.899093e-10	2.097308e+00	-1.599462e+01
1.920000e-06	3.478624e-07	-1.723332e-10	2.421876e+00	-1.445611e+01
1.930000e-06	3.944844e-07	-1.538077e-10	2.746465e+00	-1.288424e+01
1.940000e-06	4.411036e-07	-1.313800e-10	3.071036e+00	-1.128023e+01
1.950000e-06	4.876957e-07	-1.060038e-10	3.395418e+00	-9.645524e+00
1.960000e-06	5.341802e-07	-8.135829e-11	3.719051e+00	-7.981829e+00
1.970000e-06	5.805362e-07	-5.802936e-11	4.041789e+00	-6.291080e+00
1.980000e-06	6.268573e-07	-3.686399e-11	4.364284e+00	-4.575437e+00
1.990000e-06	6.732017e-07	-1.713500e-11	4.686942e+00	-2.837266e+00
2.000000e-06	7.195471e-07	5.655036e-12	5.009606e+00	-1.079119e+00
2.010000e-06	7.657911e-07	3.359481e-11	5.331564e+00	6.962874e-01
2.020000e-06	8.119210e-07	6.317348e-11	5.652729e+00	2.486096e+00
2.030000e-06	8.579956e-07	9.003688e-11	5.973508e+00	4.287338e+00
2.040000e-06	9.040720e-07	1.135125e-10	6.294299e+00	6.096958e+00
2.050000e-06	9.501207e-07	1.362711e-10	6.614898e+00	7.911851e+00
2.060000e-06	9.961094e-07	1.607085e-10	6.935078e+00	9.728882e+00
2.070000e-06	1.042032e-06	1.849783e-10	7.254800e+00	1.154493e+01
2.080000e-06	1.087865e-06	2.106686e-10	7.573896e+00	1.335689e+01
2.090000e-06	1.133656e-06	2.394063e-10	7.892702e+00	1.516176e+01
2.100000e-06	1.179389e-06	2.676713e-10	8.211103e+00	1.695660e+01
2.110000e-06	1.224994e-06	2.919392e-10	8.528608e+00	1.873859e+01
2.120000e-06	1.270542e-06	3.134363e-10	8.845722e+00	2.050508e+01
2.130000e-06	1.315992e-06	3.349098e-10	9.162151e+00	2.225355e+01
2.140000e-06	1.361292e-06	3.560053e-10	9.477541e+00	2.398168e+01
2.150000e-06	1.406529e-06	3.780478e-10	9.792486e+00	2.568735e+01
2.160000e-06	1.451684e-06	4.033130e-10	1.010687e+01	2.736865e+01
2.170000e-06	1.496729e-06	4.294560e-10	1.042047e+01	2.902387e+01
2.180000e-06	1.541642e-06	4.537690e-10	1.073317e+01	3.065154e+01
2.190000e-06	1.586442e-06	4.763152e-10	1.104507e+01	3.225041e+01
2.200000e-06	1.631127e-06	4.983874e-10	1.135618e+01	3.381945e+01
2.210000e-06	1.675601e-06	5.186308e-10	1.166581e+01	3.535786e+01
2.220000e-06	1.719904e-06	5.373075e-10	1.197426e+01	3.686502e+01
2.230000e-06	1.764134e-06	5.556307e-10	1.228219e+01	3.834054e+01
2.240000e-06	1.808263e-06	5.723206e-10	1.258942e+01	3.978419e+01
2.250000e-06	1.852284e-06	5.885768e-10	1.289591e+01	4.119593e+01
2.260000e-06	1.896189e-06	6.071513e-10	1.320158e+01	4.257587e+01
2.270000e-06	1.939996e-06	6.284215e-10	1.350657e+01	4.392424e+01
2.280000e-06	1.983817e-06	6.494425e-10	1.381166e+01	4.524142e+01
2.290000e-06	2.027607e-06	6.685749e-10	1.411654e+01	4.652785e+01
2.300000e-06	2.071278e-06	6.847009e-10	1.442058e+01	4.778408e+01
2.310000e-06	2.114877e-06	6.978766e-10	1.472413e+01	4.901069e+01
2.320000e-06	2.158419e-06	7.098509e-10	1.502727e+01	5.020833e+01
2.330000e-06	2.201918e-06	7.225344e-10	1.533012e+01	5.137767e+01
2.340000e-06	2.245313e-06	7.373382e-10	1.563224e+01	5.251936e+01
2.350000e-06	2.288459e-06	7.546798e-10	1.593263e+01	5.363408e+01
2.360000e-06	2.331384e-06	7.723814e-10	1.623148e+01	5.472248e+01
2.370000e-06	2.374132e-06	7.875506e-10	1.652910e+01	5.578517e+01
2.380000e-06	2.416494e-06	8.006159e-10	1.682403e+01	5.682273e+01
2.390000e-06	2.458513e-06	8.131726e-10	1.711658e+01	5.783570e+01
2.400000e-06	2.500358e-06	8.263330e-10	1.740790e+01	5.882457e+01
2.410000e-06	2.541871e-06	8.420410e-10	1.769693e+01	5.978978e+01
2.420000e-06	2.583035e-06	8.574850e-10	1.798352e+01	6.073171e+01
2.430000e-06	2.623943e-06	8.706844e-10	1.826832e+01	6.165071e+01
2.440000e-06	2.664527e-06	8.826207e-10	1.855088e+01	6.254705e+01
2.450000e-06	2.704808e-06	8.933085e-10	1.883132e+01	6.342099e+01
2.460000e-06	2.744947e-06	9.043906e-10	1.911078e+01	6.427274e+01
2.470000e-06	2.784949e-06	9.165382e-10	1.938927e+01	6.510247e+01
2.480000e-06	2.824779e-06	9.295104e-10	1.966658e+01	6.591034e+01
2.490000e-06	2.864523e-06	9.429273e-10	1.994328e+01	6.669650e+01
2.500000e-06	2.904146e-06	9.558067e-10	2.021914e+01	6.746107e+01
2.510000e-06	2.943634e-06	9.668584e-10	2.049407e+01	6.820418e+01
2.520000e-06	2.983008e-06	9.754902e-10	2.076819e+01	6.892598e+01
2.530000e-06	3.022180e-06	9.838058e-10	2.104092e+01	6.962661e+01
2.540000e-06	3.061127e-06	9.921736e-10	2.131207e+01	7.030625e+01
2.550000e-06	3.099864e-06	1.000239e-09	2.158177e+01	7.096510e+01
2.560000e-06	3.138346e-06	1.010073e-09	2.184969e+01	7.160339e+01
2.570000e-06	3.176543e-06	1.020011e-09	2.211562e+01	7.222138e+01
2.580000e-06	3.214502e-06	1.028671e-09	2.237990e+01	7.281937e+01
2.590000e-06	3.252267e-06	1.034398e-09	2.264282e+01	7.339770e+01
2.600000e-06	3.289864e-06	1.039142e-09	2.290458e+01	7.395674e+01
2.610000e-06	3.327255e-06	1.044470e-09	2.316490e+01	7.449690e+01
2.620000e-06	3.364430e-06	1.050895e-09	2.342372e+01	7.501864e+01
2.630000e-06	3.401359e-06	1.059524e-09	2.368083e+01	7.552242e+01
2.640000e-06	3.437965e-06	1.068403e-09	2.393568e+01	7.600876e+01
2.650000e-06	3.474330e-06	1.076051e-09	2.418886e+01	7.647818e+01
2.660000e-06	3.510467e-06	1.082766e-09	2.444045e+01	7.693123e+01
2.670000e-06	3.546390e-06	1.088552e-09	2.469055e+01	7.736848e+01
2.680000e-06	3.582150e-06	1.092604e-09	2.493952e+01	7.779049e+01
2.690000e-06	3.617771e-06	1.097633e-09	2.518752e+01	7.819786e+01
2.700000e-06	3.653312e-06	1.104056e-09	2.543496e+01	7.859114e+01
2.710000e-06	3.688706e-06	1.110463e-09	2.568138e+01	7.897090e+01
2.720000e-06	3.723802e-06	1.117152e-09	2.592573e+01	7.933771e+01
2.730000e-06	3.758539e-06	1.123624e-09	2.616757e+01	7.969211e+01
2.740000e-06	3.792921e-06	1.129572e-09	2.640694e+01	8.003462e+01
2.750000e-06	3.826963e-06	1.135477e-09	2.664395e+01	8.036574e+01
2.760000e-06	3.860562e-06	1.141589e-09	2.687787e+01	8.068597e+01
2.770000e-06	3.893564e-06	1.146214e-09	2.710764e+01	8.099574e+01
2.780000e-06	3.926121e-06	1.149649e-09	2.733431e+01	8.129551e+01
2.790000e-06	3.958370e-06	1.155167e-09	2.755883e+01	8.158568e+01
2.800000e-06	3.990342e-06	1.159432e-09	2.778142e+01	8.186663e+01
2.810000e-06	4.022161e-06	1.164140e-09	2.800295e+01	8.213873e+01
2.820000e-06	4.053813e-06	1.168610e-09	2.822332e+01	8.240233e+01
2.830000e-06	4.085299e-06	1.171733e-09	2.844253e+01	8.265775e+01
2.840000e-06	4.116604e-06	1.177067e-09	2.866048e+01	8.290531e+01
2.850000e-06	4.147599e-06	1.183383e-09	2.887627e+01	8.314530e+01
2.860000e-06	4.178300e-06	1.191501e-09	2.909001e+01	8.337802e+01
2.870000e-06	4.208707e-06	1.197796e-09	2.930171e+01	8.360375e+01
2.880000e-06	4.238762e-06	1.201101e-09	2.951097e+01	8.382277e+01
2.890000e-06	4.268473e-06	1.203046e-09	2.971782e+01	8.403536e+01
2.900000e-06	4.297872e-06	1.206529e-09	2.992250e+01	8.424179e+01
