# Temperatura_=_3.83
# Concentracion g/m^3_=_1620.0
# C_Vs_to_Am_M_A/Vsm_=_65563218390.804596
# pendiente_HvsI_1/m_=_3716.3
# ordenada_HvsI_A/m_=_1297.0
# frecuencia_Hz_=_135108.13928065365

Tiempo_(s)	Campo_(V.s)	Magnetizacion_(V.s)	Campo_(kA/m)	Magnetizacion_(A/m)
0.000000e+00	-5.517744e-06	-1.232934e-09	-3.836933e+01	-8.338990e+01
1.000000e-08	-5.517869e-06	-1.233385e-09	-3.837020e+01	-8.335406e+01
2.000000e-08	-5.517690e-06	-1.232091e-09	-3.836895e+01	-8.331866e+01
3.000000e-08	-5.517180e-06	-1.229228e-09	-3.836541e+01	-8.328414e+01
4.000000e-08	-5.516233e-06	-1.226328e-09	-3.835882e+01	-8.325094e+01
5.000000e-08	-5.514722e-06	-1.228052e-09	-3.834831e+01	-8.321952e+01
6.000000e-08	-5.512621e-06	-1.242383e-09	-3.833371e+01	-8.319030e+01
7.000000e-08	-5.509963e-06	-1.246117e-09	-3.831522e+01	-8.316368e+01
8.000000e-08	-5.506787e-06	-1.186498e-09	-3.829314e+01	-8.314000e+01
9.000000e-08	-5.503103e-06	-1.128855e-09	-3.826752e+01	-8.311956e+01
1.000000e-07	-5.498948e-06	-1.192816e-09	-3.823863e+01	-8.310257e+01
1.100000e-07	-5.494470e-06	-1.300691e-09	-3.820749e+01	-8.308918e+01
1.200000e-07	-5.489809e-06	-1.239405e-09	-3.817507e+01	-8.307944e+01
1.300000e-07	-5.484942e-06	-1.144552e-09	-3.814123e+01	-8.307331e+01
1.400000e-07	-5.479759e-06	-1.162169e-09	-3.810519e+01	-8.307063e+01
1.500000e-07	-5.474188e-06	-1.283581e-09	-3.806645e+01	-8.307116e+01
1.600000e-07	-5.468227e-06	-1.249327e-09	-3.802500e+01	-8.307455e+01
1.700000e-07	-5.461866e-06	-1.157480e-09	-3.798076e+01	-8.308033e+01
1.800000e-07	-5.455002e-06	-1.187789e-09	-3.793303e+01	-8.308795e+01
1.900000e-07	-5.447714e-06	-1.317100e-09	-3.788236e+01	-8.309676e+01
2.000000e-07	-5.440121e-06	-1.306011e-09	-3.782955e+01	-8.310602e+01
2.100000e-07	-5.432291e-06	-1.208342e-09	-3.777511e+01	-8.311492e+01
2.200000e-07	-5.424227e-06	-1.187808e-09	-3.771903e+01	-8.312261e+01
2.300000e-07	-5.415747e-06	-1.260875e-09	-3.766006e+01	-8.312815e+01
2.400000e-07	-5.406757e-06	-1.284447e-09	-3.759755e+01	-8.313062e+01
2.500000e-07	-5.397169e-06	-1.257397e-09	-3.753088e+01	-8.312904e+01
2.600000e-07	-5.386961e-06	-1.253635e-09	-3.745989e+01	-8.312247e+01
2.700000e-07	-5.376252e-06	-1.254817e-09	-3.738542e+01	-8.310998e+01
2.800000e-07	-5.365043e-06	-1.247066e-09	-3.730748e+01	-8.309067e+01
2.900000e-07	-5.353390e-06	-1.218449e-09	-3.722644e+01	-8.306371e+01
3.000000e-07	-5.341409e-06	-1.236694e-09	-3.714313e+01	-8.302833e+01
3.100000e-07	-5.329015e-06	-1.257149e-09	-3.705694e+01	-8.298387e+01
3.200000e-07	-5.316166e-06	-1.295211e-09	-3.696759e+01	-8.292975e+01
3.300000e-07	-5.302980e-06	-1.260707e-09	-3.687590e+01	-8.286551e+01
3.400000e-07	-5.289499e-06	-1.253176e-09	-3.678216e+01	-8.279083e+01
3.500000e-07	-5.275577e-06	-1.256295e-09	-3.668535e+01	-8.270550e+01
3.600000e-07	-5.261162e-06	-1.257911e-09	-3.658511e+01	-8.260947e+01
3.700000e-07	-5.246263e-06	-1.207064e-09	-3.648150e+01	-8.250279e+01
3.800000e-07	-5.230898e-06	-1.247511e-09	-3.637466e+01	-8.238568e+01
3.900000e-07	-5.215074e-06	-1.272296e-09	-3.626462e+01	-8.225849e+01
4.000000e-07	-5.198863e-06	-1.221267e-09	-3.615189e+01	-8.212168e+01
4.100000e-07	-5.182263e-06	-1.203099e-09	-3.603646e+01	-8.197585e+01
4.200000e-07	-5.165265e-06	-1.275921e-09	-3.591826e+01	-8.182170e+01
4.300000e-07	-5.147908e-06	-1.236194e-09	-3.579756e+01	-8.166002e+01
4.400000e-07	-5.130198e-06	-1.158770e-09	-3.567441e+01	-8.149167e+01
4.500000e-07	-5.112165e-06	-1.221661e-09	-3.554901e+01	-8.131761e+01
4.600000e-07	-5.093687e-06	-1.265259e-09	-3.542052e+01	-8.113881e+01
4.700000e-07	-5.074676e-06	-1.168523e-09	-3.528832e+01	-8.095628e+01
4.800000e-07	-5.055366e-06	-1.166008e-09	-3.515404e+01	-8.077103e+01
4.900000e-07	-5.035865e-06	-1.251882e-09	-3.501843e+01	-8.058407e+01
5.000000e-07	-5.016086e-06	-1.203121e-09	-3.488090e+01	-8.039638e+01
5.100000e-07	-4.996027e-06	-1.161323e-09	-3.474141e+01	-8.020887e+01
5.200000e-07	-4.975668e-06	-1.236669e-09	-3.459984e+01	-8.002242e+01
5.300000e-07	-4.954985e-06	-1.223813e-09	-3.445601e+01	-7.983780e+01
5.400000e-07	-4.934006e-06	-1.136870e-09	-3.431013e+01	-7.965570e+01
5.500000e-07	-4.912693e-06	-1.193267e-09	-3.416192e+01	-7.947670e+01
5.600000e-07	-4.891009e-06	-1.228800e-09	-3.401113e+01	-7.930128e+01
5.700000e-07	-4.869006e-06	-1.151002e-09	-3.385813e+01	-7.912977e+01
5.800000e-07	-4.846635e-06	-1.153014e-09	-3.370257e+01	-7.896241e+01
5.900000e-07	-4.823865e-06	-1.225640e-09	-3.354423e+01	-7.879929e+01
6.000000e-07	-4.800781e-06	-1.179500e-09	-3.338370e+01	-7.864038e+01
6.100000e-07	-4.777428e-06	-1.147585e-09	-3.322131e+01	-7.848553e+01
6.200000e-07	-4.753811e-06	-1.191712e-09	-3.305709e+01	-7.833449e+01
6.300000e-07	-4.730025e-06	-1.183420e-09	-3.289168e+01	-7.818687e+01
6.400000e-07	-4.706003e-06	-1.136010e-09	-3.272464e+01	-7.804223e+01
6.500000e-07	-4.681609e-06	-1.168310e-09	-3.255501e+01	-7.790000e+01
6.600000e-07	-4.656708e-06	-1.177067e-09	-3.238185e+01	-7.775957e+01
6.700000e-07	-4.631208e-06	-1.142590e-09	-3.220453e+01	-7.762027e+01
6.800000e-07	-4.605115e-06	-1.148100e-09	-3.202308e+01	-7.748139e+01
6.900000e-07	-4.578547e-06	-1.174175e-09	-3.183833e+01	-7.734220e+01
7.000000e-07	-4.551651e-06	-1.146456e-09	-3.165131e+01	-7.720195e+01
7.100000e-07	-4.524414e-06	-1.135002e-09	-3.146191e+01	-7.705992e+01
7.200000e-07	-4.496898e-06	-1.148642e-09	-3.127056e+01	-7.691541e+01
7.300000e-07	-4.469208e-06	-1.138669e-09	-3.107802e+01	-7.676774e+01
7.400000e-07	-4.441326e-06	-1.122950e-09	-3.088412e+01	-7.661632e+01
7.500000e-07	-4.413209e-06	-1.135497e-09	-3.068861e+01	-7.646058e+01
7.600000e-07	-4.384821e-06	-1.137370e-09	-3.049120e+01	-7.630007e+01
7.700000e-07	-4.356095e-06	-1.122834e-09	-3.029145e+01	-7.613438e+01
7.800000e-07	-4.327033e-06	-1.122338e-09	-3.008935e+01	-7.596321e+01
7.900000e-07	-4.297718e-06	-1.122503e-09	-2.988551e+01	-7.578634e+01
8.000000e-07	-4.268127e-06	-1.112824e-09	-2.967973e+01	-7.560365e+01
8.100000e-07	-4.238195e-06	-1.111736e-09	-2.947159e+01	-7.541510e+01
8.200000e-07	-4.207935e-06	-1.118238e-09	-2.926117e+01	-7.522075e+01
8.300000e-07	-4.177450e-06	-1.107563e-09	-2.904918e+01	-7.502073e+01
8.400000e-07	-4.146647e-06	-1.104514e-09	-2.883499e+01	-7.481524e+01
8.500000e-07	-4.115431e-06	-1.109767e-09	-2.861791e+01	-7.460457e+01
8.600000e-07	-4.084019e-06	-1.103825e-09	-2.839948e+01	-7.438904e+01
8.700000e-07	-4.052491e-06	-1.089904e-09	-2.818024e+01	-7.416902e+01
8.800000e-07	-4.020806e-06	-1.093005e-09	-2.795991e+01	-7.394493e+01
8.900000e-07	-3.988943e-06	-1.088637e-09	-2.773834e+01	-7.371719e+01
9.000000e-07	-3.956826e-06	-1.079980e-09	-2.751501e+01	-7.348624e+01
9.100000e-07	-3.924425e-06	-1.081447e-09	-2.728970e+01	-7.325250e+01
9.200000e-07	-3.891663e-06	-1.085775e-09	-2.706187e+01	-7.301640e+01
9.300000e-07	-3.858399e-06	-1.072228e-09	-2.683056e+01	-7.277831e+01
9.400000e-07	-3.824687e-06	-1.067085e-09	-2.659614e+01	-7.253858e+01
9.500000e-07	-3.790549e-06	-1.066999e-09	-2.635875e+01	-7.229750e+01
9.600000e-07	-3.756008e-06	-1.057403e-09	-2.611856e+01	-7.205533e+01
9.700000e-07	-3.721129e-06	-1.044928e-09	-2.587601e+01	-7.181224e+01
9.800000e-07	-3.685906e-06	-1.048248e-09	-2.563108e+01	-7.156835e+01
9.900000e-07	-3.650437e-06	-1.045966e-09	-2.538443e+01	-7.132369e+01
1.000000e-06	-3.614823e-06	-1.036286e-09	-2.513679e+01	-7.107825e+01
1.010000e-06	-3.579074e-06	-1.033507e-09	-2.488819e+01	-7.083192e+01
1.020000e-06	-3.543162e-06	-1.034892e-09	-2.463847e+01	-7.058455e+01
1.030000e-06	-3.507096e-06	-1.026562e-09	-2.438767e+01	-7.033590e+01
1.040000e-06	-3.470824e-06	-1.022120e-09	-2.413545e+01	-7.008570e+01
1.050000e-06	-3.434311e-06	-1.021701e-09	-2.388154e+01	-6.983361e+01
1.060000e-06	-3.397527e-06	-1.010972e-09	-2.362575e+01	-6.957926e+01
1.070000e-06	-3.360399e-06	-1.001042e-09	-2.336757e+01	-6.932224e+01
1.080000e-06	-3.322951e-06	-9.998933e-10	-2.310716e+01	-6.906211e+01
1.090000e-06	-3.285257e-06	-9.993442e-10	-2.284504e+01	-6.879843e+01
1.100000e-06	-3.247414e-06	-9.917934e-10	-2.258189e+01	-6.853076e+01
1.110000e-06	-3.209435e-06	-9.896872e-10	-2.231780e+01	-6.825865e+01
1.120000e-06	-3.171221e-06	-9.866403e-10	-2.205206e+01	-6.798168e+01
1.130000e-06	-3.132789e-06	-9.774969e-10	-2.178481e+01	-6.769944e+01
1.140000e-06	-3.094208e-06	-9.715989e-10	-2.151652e+01	-6.741157e+01
1.150000e-06	-3.055445e-06	-9.702413e-10	-2.124698e+01	-6.711776e+01
1.160000e-06	-3.016426e-06	-9.606051e-10	-2.097565e+01	-6.681771e+01
1.170000e-06	-2.977160e-06	-9.499796e-10	-2.070260e+01	-6.651121e+01
1.180000e-06	-2.937738e-06	-9.453971e-10	-2.042846e+01	-6.619809e+01
1.190000e-06	-2.898181e-06	-9.450599e-10	-2.015340e+01	-6.587824e+01
1.200000e-06	-2.858501e-06	-9.409898e-10	-1.987747e+01	-6.555161e+01
1.210000e-06	-2.818762e-06	-9.384132e-10	-1.960113e+01	-6.521820e+01
1.220000e-06	-2.778848e-06	-9.333410e-10	-1.932358e+01	-6.487808e+01
1.230000e-06	-2.738732e-06	-9.270216e-10	-1.904462e+01	-6.453136e+01
1.240000e-06	-2.698510e-06	-9.214440e-10	-1.876492e+01	-6.417821e+01
1.250000e-06	-2.658068e-06	-9.206252e-10	-1.848369e+01	-6.381882e+01
1.260000e-06	-2.617317e-06	-9.189689e-10	-1.820032e+01	-6.345344e+01
1.270000e-06	-2.576236e-06	-9.149435e-10	-1.791465e+01	-6.308234e+01
1.280000e-06	-2.534831e-06	-9.108154e-10	-1.762673e+01	-6.270579e+01
1.290000e-06	-2.493142e-06	-9.055326e-10	-1.733683e+01	-6.232409e+01
1.300000e-06	-2.451172e-06	-8.953779e-10	-1.704498e+01	-6.193755e+01
1.310000e-06	-2.408888e-06	-8.857956e-10	-1.675094e+01	-6.154645e+01
1.320000e-06	-2.366238e-06	-8.805411e-10	-1.645436e+01	-6.115107e+01
1.330000e-06	-2.323316e-06	-8.749935e-10	-1.615589e+01	-6.075168e+01
1.340000e-06	-2.280198e-06	-8.702882e-10	-1.585606e+01	-6.034849e+01
1.350000e-06	-2.236859e-06	-8.647221e-10	-1.555468e+01	-5.994170e+01
1.360000e-06	-2.193425e-06	-8.547679e-10	-1.525266e+01	-5.953146e+01
1.370000e-06	-2.149915e-06	-8.435992e-10	-1.495010e+01	-5.911786e+01
1.380000e-06	-2.106323e-06	-8.366901e-10	-1.464696e+01	-5.870095e+01
1.390000e-06	-2.062675e-06	-8.328173e-10	-1.434344e+01	-5.828073e+01
1.400000e-06	-2.018914e-06	-8.287246e-10	-1.403914e+01	-5.785714e+01
1.410000e-06	-1.975038e-06	-8.227432e-10	-1.373403e+01	-5.743004e+01
1.420000e-06	-1.931088e-06	-8.164508e-10	-1.342841e+01	-5.699926e+01
1.430000e-06	-1.887095e-06	-8.076029e-10	-1.312250e+01	-5.656456e+01
1.440000e-06	-1.843034e-06	-7.974480e-10	-1.281610e+01	-5.612563e+01
1.450000e-06	-1.798809e-06	-7.862765e-10	-1.250857e+01	-5.568212e+01
1.460000e-06	-1.754433e-06	-7.768051e-10	-1.219999e+01	-5.523362e+01
1.470000e-06	-1.709992e-06	-7.679677e-10	-1.189096e+01	-5.477966e+01
1.480000e-06	-1.665489e-06	-7.621441e-10	-1.158149e+01	-5.431974e+01
1.490000e-06	-1.620773e-06	-7.563693e-10	-1.127054e+01	-5.385329e+01
1.500000e-06	-1.575881e-06	-7.499283e-10	-1.095837e+01	-5.337970e+01
1.510000e-06	-1.530854e-06	-7.425852e-10	-1.064526e+01	-5.289834e+01
1.520000e-06	-1.485606e-06	-7.332527e-10	-1.033062e+01	-5.240852e+01
1.530000e-06	-1.440257e-06	-7.223252e-10	-1.001527e+01	-5.190953e+01
1.540000e-06	-1.394917e-06	-7.121167e-10	-9.699984e+00	-5.140060e+01
1.550000e-06	-1.349526e-06	-7.035347e-10	-9.384347e+00	-5.088097e+01
1.560000e-06	-1.303995e-06	-6.939529e-10	-9.067729e+00	-5.034981e+01
1.570000e-06	-1.258350e-06	-6.835773e-10	-8.750325e+00	-4.980629e+01
1.580000e-06	-1.212646e-06	-6.750320e-10	-8.432509e+00	-4.924953e+01
1.590000e-06	-1.166913e-06	-6.708471e-10	-8.114491e+00	-4.867864e+01
1.600000e-06	-1.121110e-06	-6.661868e-10	-7.795980e+00	-4.809271e+01
1.610000e-06	-1.075120e-06	-6.561183e-10	-7.476180e+00	-4.749077e+01
1.620000e-06	-1.028990e-06	-6.448721e-10	-7.155400e+00	-4.687188e+01
1.630000e-06	-9.828661e-07	-6.353649e-10	-6.834662e+00	-4.623502e+01
1.640000e-06	-9.366638e-07	-6.254150e-10	-6.513380e+00	-4.557918e+01
1.650000e-06	-8.903720e-07	-6.148690e-10	-6.191476e+00	-4.490334e+01
1.660000e-06	-8.441140e-07	-6.026783e-10	-5.869806e+00	-4.420643e+01
1.670000e-06	-7.977748e-07	-5.893050e-10	-5.547572e+00	-4.348739e+01
1.680000e-06	-7.513661e-07	-5.736408e-10	-5.224855e+00	-4.274514e+01
1.690000e-06	-7.049922e-07	-5.577333e-10	-4.902380e+00	-4.197859e+01
1.700000e-06	-6.585327e-07	-5.419706e-10	-4.579310e+00	-4.118665e+01
1.710000e-06	-6.119998e-07	-5.285635e-10	-4.255729e+00	-4.036825e+01
1.720000e-06	-5.654911e-07	-5.208712e-10	-3.932317e+00	-3.952230e+01
1.730000e-06	-5.190024e-07	-5.117226e-10	-3.609042e+00	-3.864776e+01
1.740000e-06	-4.724572e-07	-4.980435e-10	-3.285377e+00	-3.774361e+01
1.750000e-06	-4.257900e-07	-4.819953e-10	-2.960862e+00	-3.680887e+01
1.760000e-06	-3.790709e-07	-4.640183e-10	-2.635986e+00	-3.584259e+01
1.770000e-06	-3.323737e-07	-4.459979e-10	-2.311263e+00	-3.484392e+01
1.780000e-06	-2.856659e-07	-4.308149e-10	-1.986466e+00	-3.381206e+01
1.790000e-06	-2.389001e-07	-4.206743e-10	-1.661265e+00	-3.274628e+01
1.800000e-06	-1.920825e-07	-4.105428e-10	-1.335705e+00	-3.164598e+01
1.810000e-06	-1.452444e-07	-3.960120e-10	-1.010002e+00	-3.051065e+01
1.820000e-06	-9.844428e-08	-3.796368e-10	-6.845626e-01	-2.933990e+01
1.830000e-06	-5.162392e-08	-3.615331e-10	-3.589828e-01	-2.813348e+01
1.840000e-06	-4.795029e-09	-3.420302e-10	-3.334371e-02	-2.689128e+01
1.850000e-06	4.197201e-08	-3.211747e-10	2.918653e-01	-2.561334e+01
1.860000e-06	8.874682e-08	-2.992541e-10	6.171283e-01	-2.429986e+01
1.870000e-06	1.355685e-07	-2.788450e-10	9.427173e-01	-2.295120e+01
1.880000e-06	1.824249e-07	-2.613258e-10	1.268548e+00	-2.156791e+01
1.890000e-06	2.292390e-07	-2.465541e-10	1.594084e+00	-2.015069e+01
1.900000e-06	2.760047e-07	-2.295440e-10	1.919283e+00	-1.870043e+01
1.910000e-06	3.228439e-07	-2.108819e-10	2.244994e+00	-1.721821e+01
1.920000e-06	3.696754e-07	-1.918196e-10	2.570652e+00	-1.570526e+01
1.930000e-06	4.163681e-07	-1.690175e-10	2.895344e+00	-1.416299e+01
1.940000e-06	4.629748e-07	-1.434138e-10	3.219438e+00	-1.259297e+01
1.950000e-06	5.094710e-07	-1.178528e-10	3.542763e+00	-1.099693e+01
1.960000e-06	5.559570e-07	-9.696777e-11	3.866018e+00	-9.376735e+00
1.970000e-06	6.024596e-07	-7.945106e-11	4.189388e+00	-7.734395e+00
1.980000e-06	6.488875e-07	-6.265489e-11	4.512239e+00	-6.072029e+00
1.990000e-06	6.952924e-07	-4.343445e-11	4.834930e+00	-4.391861e+00
2.000000e-06	7.417369e-07	-1.946363e-11	5.157895e+00	-2.696207e+00
2.010000e-06	7.881231e-07	8.051251e-12	5.480456e+00	-9.874477e-01
2.020000e-06	8.344069e-07	3.678114e-11	5.802305e+00	7.319781e-01
2.030000e-06	8.806428e-07	6.221225e-11	6.123821e+00	2.459599e+00
2.040000e-06	9.268048e-07	8.303693e-11	6.444822e+00	4.192926e+00
2.050000e-06	9.728888e-07	1.044626e-10	6.765281e+00	5.929472e+00
2.060000e-06	1.018888e-06	1.264247e-10	7.085150e+00	7.666768e+00
2.070000e-06	1.064800e-06	1.468243e-10	7.404415e+00	9.402380e+00
2.080000e-06	1.110598e-06	1.702131e-10	7.722884e+00	1.113393e+01
2.090000e-06	1.156314e-06	1.973999e-10	8.040786e+00	1.285910e+01
2.100000e-06	1.201989e-06	2.242302e-10	8.358402e+00	1.457565e+01
2.110000e-06	1.247613e-06	2.485421e-10	8.675663e+00	1.628144e+01
2.120000e-06	1.293177e-06	2.708187e-10	8.992503e+00	1.797444e+01
2.130000e-06	1.338626e-06	2.908846e-10	9.308544e+00	1.965271e+01
2.140000e-06	1.383990e-06	3.093514e-10	9.624001e+00	2.131443e+01
2.150000e-06	1.429255e-06	3.302953e-10	9.938766e+00	2.295794e+01
2.160000e-06	1.474414e-06	3.551093e-10	1.025279e+01	2.458165e+01
2.170000e-06	1.519484e-06	3.797178e-10	1.056620e+01	2.618415e+01
2.180000e-06	1.564374e-06	4.033525e-10	1.087835e+01	2.776412e+01
2.190000e-06	1.609119e-06	4.266928e-10	1.118951e+01	2.932040e+01
2.200000e-06	1.653816e-06	4.478299e-10	1.150031e+01	3.085192e+01
2.210000e-06	1.698395e-06	4.652965e-10	1.181031e+01	3.235777e+01
2.220000e-06	1.742831e-06	4.806176e-10	1.211931e+01	3.383712e+01
2.230000e-06	1.787067e-06	4.963632e-10	1.242692e+01	3.528927e+01
2.240000e-06	1.831121e-06	5.130846e-10	1.273326e+01	3.671362e+01
2.250000e-06	1.875100e-06	5.312640e-10	1.303909e+01	3.810966e+01
2.260000e-06	1.918977e-06	5.537300e-10	1.334419e+01	3.947697e+01
2.270000e-06	1.962797e-06	5.759421e-10	1.364891e+01	4.081524e+01
2.280000e-06	2.006554e-06	5.965310e-10	1.395319e+01	4.212419e+01
2.290000e-06	2.050237e-06	6.167245e-10	1.425695e+01	4.340365e+01
2.300000e-06	2.093870e-06	6.334095e-10	1.456037e+01	4.465348e+01
2.310000e-06	2.137472e-06	6.463595e-10	1.486357e+01	4.587362e+01
2.320000e-06	2.180988e-06	6.579332e-10	1.516617e+01	4.706406e+01
2.330000e-06	2.224381e-06	6.711917e-10	1.546792e+01	4.822482e+01
2.340000e-06	2.267660e-06	6.870212e-10	1.576887e+01	4.935598e+01
2.350000e-06	2.310860e-06	7.069271e-10	1.606927e+01	5.045767e+01
2.360000e-06	2.353950e-06	7.278093e-10	1.636892e+01	5.153003e+01
2.370000e-06	2.396737e-06	7.429889e-10	1.666645e+01	5.257327e+01
2.380000e-06	2.439151e-06	7.557047e-10	1.696139e+01	5.358762e+01
2.390000e-06	2.481108e-06	7.655372e-10	1.725315e+01	5.457334e+01
2.400000e-06	2.522640e-06	7.744342e-10	1.754195e+01	5.553075e+01
2.410000e-06	2.563979e-06	7.838192e-10	1.782941e+01	5.646018e+01
2.420000e-06	2.605085e-06	7.960952e-10	1.811526e+01	5.736202e+01
2.430000e-06	2.645872e-06	8.120871e-10	1.839888e+01	5.823668e+01
2.440000e-06	2.686360e-06	8.279957e-10	1.868043e+01	5.908462e+01
2.450000e-06	2.726634e-06	8.423240e-10	1.896049e+01	5.990633e+01
2.460000e-06	2.766728e-06	8.524116e-10	1.923929e+01	6.070234e+01
2.470000e-06	2.806580e-06	8.594968e-10	1.951642e+01	6.147323e+01
2.480000e-06	2.846315e-06	8.641247e-10	1.979272e+01	6.221958e+01
2.490000e-06	2.885989e-06	8.706897e-10	2.006861e+01	6.294205e+01
2.500000e-06	2.925550e-06	8.805527e-10	2.034371e+01	6.364128e+01
2.510000e-06	2.965004e-06	8.902205e-10	2.061807e+01	6.431798e+01
2.520000e-06	3.004311e-06	9.007486e-10	2.089140e+01	6.497287e+01
2.530000e-06	3.043382e-06	9.121293e-10	2.116310e+01	6.560666e+01
2.540000e-06	3.082186e-06	9.223078e-10	2.143293e+01	6.622011e+01
2.550000e-06	3.120797e-06	9.297353e-10	2.170142e+01	6.681396e+01
2.560000e-06	3.159243e-06	9.353277e-10	2.196876e+01	6.738898e+01
2.570000e-06	3.197472e-06	9.412621e-10	2.223460e+01	6.794591e+01
2.580000e-06	3.235398e-06	9.453446e-10	2.249833e+01	6.848547e+01
2.590000e-06	3.273033e-06	9.509736e-10	2.276004e+01	6.900839e+01
2.600000e-06	3.310501e-06	9.587373e-10	2.302059e+01	6.951535e+01
2.610000e-06	3.347805e-06	9.679522e-10	2.327999e+01	7.000700e+01
2.620000e-06	3.384890e-06	9.760662e-10	2.353787e+01	7.048398e+01
2.630000e-06	3.421741e-06	9.823798e-10	2.379413e+01	7.094686e+01
2.640000e-06	3.458356e-06	9.872568e-10	2.404874e+01	7.139617e+01
2.650000e-06	3.494695e-06	9.908442e-10	2.430143e+01	7.183239e+01
2.660000e-06	3.530780e-06	9.955730e-10	2.455237e+01	7.225596e+01
2.670000e-06	3.566686e-06	1.001856e-09	2.480205e+01	7.266726e+01
2.680000e-06	3.602432e-06	1.009537e-09	2.505062e+01	7.306662e+01
2.690000e-06	3.638078e-06	1.018191e-09	2.529849e+01	7.345432e+01
2.700000e-06	3.673588e-06	1.024487e-09	2.554543e+01	7.383060e+01
2.710000e-06	3.708901e-06	1.027251e-09	2.579098e+01	7.419564e+01
2.720000e-06	3.743945e-06	1.030010e-09	2.603468e+01	7.454960e+01
2.730000e-06	3.778670e-06	1.033348e-09	2.627615e+01	7.489260e+01
2.740000e-06	3.813001e-06	1.038182e-09	2.651488e+01	7.522473e+01
2.750000e-06	3.846847e-06	1.047234e-09	2.675023e+01	7.554606e+01
2.760000e-06	3.880181e-06	1.056551e-09	2.698203e+01	7.585665e+01
2.770000e-06	3.913030e-06	1.062084e-09	2.721046e+01	7.615658e+01
2.780000e-06	3.945496e-06	1.065132e-09	2.743622e+01	7.644590e+01
2.790000e-06	3.977639e-06	1.066797e-09	2.765973e+01	7.672469e+01
2.800000e-06	4.009556e-06	1.068281e-09	2.788168e+01	7.699306e+01
2.810000e-06	4.041324e-06	1.070296e-09	2.810259e+01	7.725114e+01
2.820000e-06	4.072906e-06	1.076279e-09	2.832221e+01	7.749909e+01
2.830000e-06	4.104286e-06	1.081793e-09	2.854041e+01	7.773712e+01
2.840000e-06	4.135456e-06	1.087631e-09	2.875717e+01	7.796548e+01
2.850000e-06	4.166333e-06	1.092449e-09	2.897188e+01	7.818448e+01
2.860000e-06	4.196891e-06	1.095565e-09	2.918437e+01	7.839445e+01
2.870000e-06	4.227210e-06	1.097940e-09	2.939520e+01	7.859580e+01
2.880000e-06	4.257232e-06	1.101302e-09	2.960397e+01	7.878899e+01
2.890000e-06	4.286898e-06	1.107492e-09	2.981026e+01	7.897451e+01
2.900000e-06	4.316252e-06	1.112515e-09	3.001439e+01	7.915289e+01
