# Temperatura_=_6.4
# Concentracion g/m^3_=_1620.0
# C_Vs_to_Am_M_A/Vsm_=_65563218390.804596
# pendiente_HvsI_1/m_=_3716.3
# ordenada_HvsI_A/m_=_1297.0
# frecuencia_Hz_=_135107.01749264213

Tiempo_(s)	Campo_(V.s)	Magnetizacion_(V.s)	Campo_(kA/m)	Magnetizacion_(A/m)
0.000000e+00	-5.526456e-06	-1.299087e-09	-3.836468e+01	-8.575573e+01
1.000000e-08	-5.526691e-06	-1.297579e-09	-3.836632e+01	-8.571409e+01
2.000000e-08	-5.526701e-06	-1.297754e-09	-3.836639e+01	-8.567169e+01
3.000000e-08	-5.526389e-06	-1.299100e-09	-3.836422e+01	-8.562858e+01
4.000000e-08	-5.525561e-06	-1.299879e-09	-3.835847e+01	-8.558486e+01
5.000000e-08	-5.524135e-06	-1.296566e-09	-3.834858e+01	-8.554062e+01
6.000000e-08	-5.522036e-06	-1.286465e-09	-3.833400e+01	-8.549596e+01
7.000000e-08	-5.519320e-06	-1.274280e-09	-3.831515e+01	-8.545100e+01
8.000000e-08	-5.516155e-06	-1.279921e-09	-3.829318e+01	-8.540583e+01
9.000000e-08	-5.512550e-06	-1.322610e-09	-3.826815e+01	-8.536058e+01
1.000000e-07	-5.508525e-06	-1.355471e-09	-3.824021e+01	-8.531533e+01
1.100000e-07	-5.504147e-06	-1.321472e-09	-3.820982e+01	-8.527018e+01
1.200000e-07	-5.499537e-06	-1.232506e-09	-3.817781e+01	-8.522519e+01
1.300000e-07	-5.494739e-06	-1.238143e-09	-3.814451e+01	-8.518041e+01
1.400000e-07	-5.489568e-06	-1.296954e-09	-3.810861e+01	-8.513586e+01
1.500000e-07	-5.483990e-06	-1.322338e-09	-3.806988e+01	-8.509154e+01
1.600000e-07	-5.478168e-06	-1.268911e-09	-3.802947e+01	-8.504738e+01
1.700000e-07	-5.472009e-06	-1.255090e-09	-3.798671e+01	-8.500330e+01
1.800000e-07	-5.465285e-06	-1.312204e-09	-3.794004e+01	-8.495919e+01
1.900000e-07	-5.458094e-06	-1.330799e-09	-3.789012e+01	-8.491485e+01
2.000000e-07	-5.450709e-06	-1.293028e-09	-3.783885e+01	-8.487009e+01
2.100000e-07	-5.443055e-06	-1.254239e-09	-3.778572e+01	-8.482465e+01
2.200000e-07	-5.435021e-06	-1.288370e-09	-3.772994e+01	-8.477824e+01
2.300000e-07	-5.426733e-06	-1.310254e-09	-3.767241e+01	-8.473052e+01
2.400000e-07	-5.418121e-06	-1.304704e-09	-3.761262e+01	-8.468113e+01
2.500000e-07	-5.408834e-06	-1.280069e-09	-3.754816e+01	-8.462968e+01
2.600000e-07	-5.398669e-06	-1.289095e-09	-3.747759e+01	-8.457575e+01
2.700000e-07	-5.387865e-06	-1.288911e-09	-3.740259e+01	-8.451891e+01
2.800000e-07	-5.376676e-06	-1.283520e-09	-3.732491e+01	-8.445873e+01
2.900000e-07	-5.365115e-06	-1.268444e-09	-3.724466e+01	-8.439475e+01
3.000000e-07	-5.353216e-06	-1.286176e-09	-3.716205e+01	-8.432657e+01
3.100000e-07	-5.340998e-06	-1.298031e-09	-3.707723e+01	-8.425375e+01
3.200000e-07	-5.328332e-06	-1.293234e-09	-3.698931e+01	-8.417591e+01
3.300000e-07	-5.315209e-06	-1.272800e-09	-3.689821e+01	-8.409268e+01
3.400000e-07	-5.301796e-06	-1.279966e-09	-3.680510e+01	-8.400376e+01
3.500000e-07	-5.288086e-06	-1.290761e-09	-3.670992e+01	-8.390888e+01
3.600000e-07	-5.273930e-06	-1.278927e-09	-3.661165e+01	-8.380780e+01
3.700000e-07	-5.259240e-06	-1.263989e-09	-3.650967e+01	-8.370039e+01
3.800000e-07	-5.243987e-06	-1.271379e-09	-3.640379e+01	-8.358654e+01
3.900000e-07	-5.228079e-06	-1.263715e-09	-3.629335e+01	-8.346622e+01
4.000000e-07	-5.211707e-06	-1.244962e-09	-3.617970e+01	-8.333948e+01
4.100000e-07	-5.195092e-06	-1.266462e-09	-3.606435e+01	-8.320642e+01
4.200000e-07	-5.178170e-06	-1.275921e-09	-3.594688e+01	-8.306723e+01
4.300000e-07	-5.160958e-06	-1.243035e-09	-3.582740e+01	-8.292213e+01
4.400000e-07	-5.143425e-06	-1.232914e-09	-3.570568e+01	-8.277143e+01
4.500000e-07	-5.125467e-06	-1.269850e-09	-3.558102e+01	-8.261550e+01
4.600000e-07	-5.106925e-06	-1.242554e-09	-3.545230e+01	-8.245473e+01
4.700000e-07	-5.087855e-06	-1.205589e-09	-3.531992e+01	-8.228960e+01
4.800000e-07	-5.068512e-06	-1.231611e-09	-3.518564e+01	-8.212057e+01
4.900000e-07	-5.049027e-06	-1.255747e-09	-3.505037e+01	-8.194817e+01
5.000000e-07	-5.029410e-06	-1.214869e-09	-3.491419e+01	-8.177293e+01
5.100000e-07	-5.009608e-06	-1.221701e-09	-3.477672e+01	-8.159540e+01
5.200000e-07	-4.989542e-06	-1.244079e-09	-3.463743e+01	-8.141610e+01
5.300000e-07	-4.969078e-06	-1.217113e-09	-3.449537e+01	-8.123557e+01
5.400000e-07	-4.948231e-06	-1.197204e-09	-3.435065e+01	-8.105430e+01
5.500000e-07	-4.927056e-06	-1.229220e-09	-3.420365e+01	-8.087279e+01
5.600000e-07	-4.905421e-06	-1.213995e-09	-3.405346e+01	-8.069145e+01
5.700000e-07	-4.883389e-06	-1.182446e-09	-3.390051e+01	-8.051070e+01
5.800000e-07	-4.861035e-06	-1.199236e-09	-3.374533e+01	-8.033085e+01
5.900000e-07	-4.838334e-06	-1.213350e-09	-3.358774e+01	-8.015221e+01
6.000000e-07	-4.815287e-06	-1.186631e-09	-3.342775e+01	-7.997499e+01
6.100000e-07	-4.791970e-06	-1.189189e-09	-3.326588e+01	-7.979935e+01
6.200000e-07	-4.768447e-06	-1.203604e-09	-3.310258e+01	-7.962539e+01
6.300000e-07	-4.744704e-06	-1.187211e-09	-3.293776e+01	-7.945314e+01
6.400000e-07	-4.720755e-06	-1.173357e-09	-3.277150e+01	-7.928256e+01
6.500000e-07	-4.696431e-06	-1.180021e-09	-3.260265e+01	-7.911356e+01
6.600000e-07	-4.671585e-06	-1.176788e-09	-3.243017e+01	-7.894600e+01
6.700000e-07	-4.646239e-06	-1.169336e-09	-3.225421e+01	-7.877966e+01
6.800000e-07	-4.620327e-06	-1.176962e-09	-3.207433e+01	-7.861431e+01
6.900000e-07	-4.593799e-06	-1.180012e-09	-3.189018e+01	-7.844967e+01
7.000000e-07	-4.566761e-06	-1.174410e-09	-3.170248e+01	-7.828540e+01
7.100000e-07	-4.539450e-06	-1.167072e-09	-3.151289e+01	-7.812118e+01
7.200000e-07	-4.512000e-06	-1.163726e-09	-3.132233e+01	-7.795666e+01
7.300000e-07	-4.484364e-06	-1.155752e-09	-3.113048e+01	-7.779145e+01
7.400000e-07	-4.456548e-06	-1.151218e-09	-3.093738e+01	-7.762522e+01
7.500000e-07	-4.428567e-06	-1.149566e-09	-3.074313e+01	-7.745759e+01
7.600000e-07	-4.400252e-06	-1.155194e-09	-3.054658e+01	-7.728824e+01
7.700000e-07	-4.371541e-06	-1.152782e-09	-3.034726e+01	-7.711684e+01
7.800000e-07	-4.342562e-06	-1.148265e-09	-3.014609e+01	-7.694310e+01
7.900000e-07	-4.313300e-06	-1.143830e-09	-2.994295e+01	-7.676676e+01
8.000000e-07	-4.283739e-06	-1.142148e-09	-2.973774e+01	-7.658760e+01
8.100000e-07	-4.253863e-06	-1.133281e-09	-2.953034e+01	-7.640543e+01
8.200000e-07	-4.223640e-06	-1.130541e-09	-2.932053e+01	-7.622010e+01
8.300000e-07	-4.193048e-06	-1.129867e-09	-2.910816e+01	-7.603149e+01
8.400000e-07	-4.162152e-06	-1.129314e-09	-2.889368e+01	-7.583954e+01
8.500000e-07	-4.130997e-06	-1.124066e-09	-2.867740e+01	-7.564421e+01
8.600000e-07	-4.099645e-06	-1.120398e-09	-2.845976e+01	-7.544548e+01
8.700000e-07	-4.068205e-06	-1.113942e-09	-2.824150e+01	-7.524339e+01
8.800000e-07	-4.036613e-06	-1.108724e-09	-2.802219e+01	-7.503799e+01
8.900000e-07	-4.004822e-06	-1.104109e-09	-2.780150e+01	-7.482933e+01
9.000000e-07	-3.972795e-06	-1.101368e-09	-2.757917e+01	-7.461750e+01
9.100000e-07	-3.940485e-06	-1.100962e-09	-2.735486e+01	-7.440259e+01
9.200000e-07	-3.907792e-06	-1.100210e-09	-2.712791e+01	-7.418469e+01
9.300000e-07	-3.874654e-06	-1.098445e-09	-2.689787e+01	-7.396388e+01
9.400000e-07	-3.841006e-06	-1.099211e-09	-2.666428e+01	-7.374024e+01
9.500000e-07	-3.806827e-06	-1.095211e-09	-2.642702e+01	-7.351382e+01
9.600000e-07	-3.772252e-06	-1.085540e-09	-2.618699e+01	-7.328466e+01
9.700000e-07	-3.737306e-06	-1.075543e-09	-2.594440e+01	-7.305278e+01
9.800000e-07	-3.702109e-06	-1.067308e-09	-2.570006e+01	-7.281817e+01
9.900000e-07	-3.666756e-06	-1.058981e-09	-2.545464e+01	-7.258078e+01
1.000000e-06	-3.631222e-06	-1.052030e-09	-2.520796e+01	-7.234053e+01
1.010000e-06	-3.595570e-06	-1.052224e-09	-2.496046e+01	-7.209732e+01
1.020000e-06	-3.559749e-06	-1.052524e-09	-2.471180e+01	-7.185101e+01
1.030000e-06	-3.523766e-06	-1.052739e-09	-2.446200e+01	-7.160143e+01
1.040000e-06	-3.487654e-06	-1.051035e-09	-2.421131e+01	-7.134837e+01
1.050000e-06	-3.451287e-06	-1.046502e-09	-2.395885e+01	-7.109162e+01
1.060000e-06	-3.414531e-06	-1.034908e-09	-2.370369e+01	-7.083092e+01
1.070000e-06	-3.377398e-06	-1.026547e-09	-2.344592e+01	-7.056603e+01
1.080000e-06	-3.340092e-06	-1.022696e-09	-2.318693e+01	-7.029665e+01
1.090000e-06	-3.302583e-06	-1.022047e-09	-2.292655e+01	-7.002252e+01
1.100000e-06	-3.264849e-06	-1.019706e-09	-2.266460e+01	-6.974334e+01
1.110000e-06	-3.226921e-06	-1.020339e-09	-2.240130e+01	-6.945885e+01
1.120000e-06	-3.188747e-06	-1.019932e-09	-2.213630e+01	-6.916876e+01
1.130000e-06	-3.150316e-06	-1.016774e-09	-2.186951e+01	-6.887284e+01
1.140000e-06	-3.111591e-06	-1.009840e-09	-2.160068e+01	-6.857084e+01
1.150000e-06	-3.072701e-06	-9.999281e-10	-2.133070e+01	-6.826256e+01
1.160000e-06	-3.033641e-06	-9.866174e-10	-2.105955e+01	-6.794782e+01
1.170000e-06	-2.994348e-06	-9.769303e-10	-2.078678e+01	-6.762647e+01
1.180000e-06	-2.954901e-06	-9.725784e-10	-2.051294e+01	-6.729839e+01
1.190000e-06	-2.915360e-06	-9.727749e-10	-2.023844e+01	-6.696349e+01
1.200000e-06	-2.875755e-06	-9.713266e-10	-1.996351e+01	-6.662174e+01
1.210000e-06	-2.835999e-06	-9.673269e-10	-1.968752e+01	-6.627312e+01
1.220000e-06	-2.796056e-06	-9.592678e-10	-1.941023e+01	-6.591765e+01
1.230000e-06	-2.755956e-06	-9.490083e-10	-1.913186e+01	-6.555537e+01
1.240000e-06	-2.715635e-06	-9.395973e-10	-1.885195e+01	-6.518637e+01
1.250000e-06	-2.674985e-06	-9.333835e-10	-1.856976e+01	-6.481074e+01
1.260000e-06	-2.633978e-06	-9.288436e-10	-1.828509e+01	-6.442861e+01
1.270000e-06	-2.592759e-06	-9.246093e-10	-1.799894e+01	-6.404009e+01
1.280000e-06	-2.551373e-06	-9.223687e-10	-1.771165e+01	-6.364534e+01
1.290000e-06	-2.509724e-06	-9.159353e-10	-1.742251e+01	-6.324449e+01
1.300000e-06	-2.467764e-06	-9.038842e-10	-1.713123e+01	-6.283769e+01
1.310000e-06	-2.425484e-06	-8.923152e-10	-1.683772e+01	-6.242506e+01
1.320000e-06	-2.382883e-06	-8.843030e-10	-1.654199e+01	-6.200673e+01
1.330000e-06	-2.340037e-06	-8.766970e-10	-1.624455e+01	-6.158279e+01
1.340000e-06	-2.297016e-06	-8.721897e-10	-1.594590e+01	-6.115331e+01
1.350000e-06	-2.253822e-06	-8.695506e-10	-1.564604e+01	-6.071834e+01
1.360000e-06	-2.210455e-06	-8.650919e-10	-1.534499e+01	-6.027790e+01
1.370000e-06	-2.166963e-06	-8.579534e-10	-1.504307e+01	-5.983197e+01
1.380000e-06	-2.123397e-06	-8.511509e-10	-1.474064e+01	-5.938048e+01
1.390000e-06	-2.079720e-06	-8.419582e-10	-1.443743e+01	-5.892335e+01
1.400000e-06	-2.035961e-06	-8.337432e-10	-1.413365e+01	-5.846043e+01
1.410000e-06	-1.992162e-06	-8.272794e-10	-1.382960e+01	-5.799156e+01
1.420000e-06	-1.948295e-06	-8.223305e-10	-1.352507e+01	-5.751653e+01
1.430000e-06	-1.904332e-06	-8.163158e-10	-1.321988e+01	-5.703508e+01
1.440000e-06	-1.860250e-06	-8.095251e-10	-1.291387e+01	-5.654694e+01
1.450000e-06	-1.815980e-06	-7.994065e-10	-1.260655e+01	-5.605178e+01
1.460000e-06	-1.771549e-06	-7.859578e-10	-1.229810e+01	-5.554926e+01
1.470000e-06	-1.727042e-06	-7.719488e-10	-1.198914e+01	-5.503899e+01
1.480000e-06	-1.682370e-06	-7.624490e-10	-1.167902e+01	-5.452059e+01
1.490000e-06	-1.637537e-06	-7.548604e-10	-1.136779e+01	-5.399362e+01
1.500000e-06	-1.592638e-06	-7.455276e-10	-1.105610e+01	-5.345763e+01
1.510000e-06	-1.547634e-06	-7.380455e-10	-1.074368e+01	-5.291216e+01
1.520000e-06	-1.502498e-06	-7.321655e-10	-1.043035e+01	-5.235673e+01
1.530000e-06	-1.457230e-06	-7.227536e-10	-1.011610e+01	-5.179084e+01
1.540000e-06	-1.411870e-06	-7.114769e-10	-9.801208e+00	-5.121397e+01
1.550000e-06	-1.366400e-06	-7.001162e-10	-9.485555e+00	-5.062560e+01
1.560000e-06	-1.320825e-06	-6.876549e-10	-9.169176e+00	-5.002517e+01
1.570000e-06	-1.275206e-06	-6.766456e-10	-8.852484e+00	-4.941214e+01
1.580000e-06	-1.229533e-06	-6.659675e-10	-8.535423e+00	-4.878591e+01
1.590000e-06	-1.183752e-06	-6.594232e-10	-8.217610e+00	-4.814589e+01
1.600000e-06	-1.137818e-06	-6.525223e-10	-7.898741e+00	-4.749146e+01
1.610000e-06	-1.091818e-06	-6.417797e-10	-7.579410e+00	-4.682196e+01
1.620000e-06	-1.045793e-06	-6.303095e-10	-7.259904e+00	-4.613673e+01
1.630000e-06	-9.997440e-07	-6.192837e-10	-6.940228e+00	-4.543505e+01
1.640000e-06	-9.536643e-07	-6.080201e-10	-6.620343e+00	-4.471620e+01
1.650000e-06	-9.074265e-07	-5.949994e-10	-6.299359e+00	-4.397939e+01
1.660000e-06	-8.610671e-07	-5.812748e-10	-5.977532e+00	-4.322382e+01
1.670000e-06	-8.146536e-07	-5.671783e-10	-5.655330e+00	-4.244864e+01
1.680000e-06	-7.680890e-07	-5.538498e-10	-5.332078e+00	-4.165297e+01
1.690000e-06	-7.215218e-07	-5.393916e-10	-5.008808e+00	-4.083589e+01
1.700000e-06	-6.750393e-07	-5.224666e-10	-4.686126e+00	-3.999644e+01
1.710000e-06	-6.285492e-07	-5.076663e-10	-4.363392e+00	-3.913364e+01
1.720000e-06	-5.820040e-07	-4.958428e-10	-4.040274e+00	-3.824648e+01
1.730000e-06	-5.354159e-07	-4.847298e-10	-3.716860e+00	-3.733394e+01
1.740000e-06	-4.887523e-07	-4.708728e-10	-3.392921e+00	-3.639496e+01
1.750000e-06	-4.419327e-07	-4.536526e-10	-3.067899e+00	-3.542852e+01
1.760000e-06	-3.950168e-07	-4.322863e-10	-2.742209e+00	-3.443357e+01
1.770000e-06	-3.480930e-07	-4.117642e-10	-2.416463e+00	-3.340910e+01
1.780000e-06	-3.012024e-07	-3.966009e-10	-2.090949e+00	-3.235413e+01
1.790000e-06	-2.543252e-07	-3.861422e-10	-1.765527e+00	-3.126773e+01
1.800000e-06	-2.074573e-07	-3.761022e-10	-1.440169e+00	-3.014904e+01
1.810000e-06	-1.605330e-07	-3.620153e-10	-1.114421e+00	-2.899725e+01
1.820000e-06	-1.134902e-07	-3.438653e-10	-7.878494e-01	-2.781167e+01
1.830000e-06	-6.646089e-08	-3.240084e-10	-4.613718e-01	-2.659172e+01
1.840000e-06	-1.951410e-08	-3.037409e-10	-1.354670e-01	-2.533693e+01
1.850000e-06	2.739978e-08	-2.832257e-10	1.902094e-01	-2.404700e+01
1.860000e-06	7.431401e-08	-2.646162e-10	5.158883e-01	-2.272175e+01
1.870000e-06	1.212975e-07	-2.465209e-10	8.420476e-01	-2.136120e+01
1.880000e-06	1.683621e-07	-2.291840e-10	1.168771e+00	-1.996553e+01
1.890000e-06	2.153788e-07	-2.127093e-10	1.495161e+00	-1.853514e+01
1.900000e-06	2.622783e-07	-1.948310e-10	1.820738e+00	-1.707060e+01
1.910000e-06	3.090649e-07	-1.754875e-10	2.145530e+00	-1.557270e+01
1.920000e-06	3.558334e-07	-1.544955e-10	2.470197e+00	-1.404245e+01
1.930000e-06	4.026364e-07	-1.305391e-10	2.795104e+00	-1.248106e+01
1.940000e-06	4.493482e-07	-1.041081e-10	3.119377e+00	-1.088995e+01
1.950000e-06	4.960157e-07	-7.893220e-11	3.443343e+00	-9.270745e+00
1.960000e-06	5.427153e-07	-5.873902e-11	3.767532e+00	-7.625278e+00
1.970000e-06	5.893372e-07	-4.195320e-11	4.091182e+00	-5.955563e+00
1.980000e-06	6.359573e-07	-2.642384e-11	4.414819e+00	-4.263793e+00
1.990000e-06	6.824987e-07	-5.927117e-12	4.737910e+00	-2.552319e+00
2.000000e-06	7.288969e-07	2.069525e-11	5.060006e+00	-8.236398e-01
2.010000e-06	7.752478e-07	5.186445e-11	5.381774e+00	9.196239e-01
2.020000e-06	8.215577e-07	8.317677e-11	5.703258e+00	2.674747e+00
2.030000e-06	8.678610e-07	1.089141e-10	6.024695e+00	4.438926e+00
2.040000e-06	9.140909e-07	1.278422e-10	6.345624e+00	6.209300e+00
2.050000e-06	9.601942e-07	1.440241e-10	6.665673e+00	7.982975e+00
2.060000e-06	1.006220e-06	1.647827e-10	6.985187e+00	9.757056e+00
2.070000e-06	1.052221e-06	1.898369e-10	7.304524e+00	1.152866e+01
2.080000e-06	1.098214e-06	2.178346e-10	7.623807e+00	1.329496e+01
2.090000e-06	1.144122e-06	2.491099e-10	7.942499e+00	1.505318e+01
2.100000e-06	1.189886e-06	2.793907e-10	8.260198e+00	1.680065e+01
2.110000e-06	1.235605e-06	3.024418e-10	8.577578e+00	1.853480e+01
2.120000e-06	1.281236e-06	3.190804e-10	8.894350e+00	2.025322e+01
2.130000e-06	1.326745e-06	3.344363e-10	9.210273e+00	2.195360e+01
2.140000e-06	1.372232e-06	3.503967e-10	9.526043e+00	2.363385e+01
2.150000e-06	1.417727e-06	3.709115e-10	9.841869e+00	2.529201e+01
2.160000e-06	1.463112e-06	3.977583e-10	1.015693e+01	2.692635e+01
2.170000e-06	1.508336e-06	4.261529e-10	1.047087e+01	2.853530e+01
2.180000e-06	1.553446e-06	4.531919e-10	1.078403e+01	3.011750e+01
2.190000e-06	1.598409e-06	4.750783e-10	1.109617e+01	3.167179e+01
2.200000e-06	1.643206e-06	4.921609e-10	1.140714e+01	3.319722e+01
2.210000e-06	1.687774e-06	5.053266e-10	1.171654e+01	3.469300e+01
2.220000e-06	1.732210e-06	5.166622e-10	1.202501e+01	3.615857e+01
2.230000e-06	1.776644e-06	5.308527e-10	1.233347e+01	3.759350e+01
2.240000e-06	1.820907e-06	5.498275e-10	1.264074e+01	3.899756e+01
2.250000e-06	1.864992e-06	5.736374e-10	1.294678e+01	4.037067e+01
2.260000e-06	1.908948e-06	5.989218e-10	1.325193e+01	4.171286e+01
2.270000e-06	1.952811e-06	6.227403e-10	1.355642e+01	4.302432e+01
2.280000e-06	1.996627e-06	6.431346e-10	1.386059e+01	4.430531e+01
2.290000e-06	2.040388e-06	6.597644e-10	1.416438e+01	4.555620e+01
2.300000e-06	2.084096e-06	6.721601e-10	1.446780e+01	4.677743e+01
2.310000e-06	2.127715e-06	6.810137e-10	1.477061e+01	4.796949e+01
2.320000e-06	2.171233e-06	6.942072e-10	1.507271e+01	4.913290e+01
2.330000e-06	2.214637e-06	7.119661e-10	1.537402e+01	5.026823e+01
2.340000e-06	2.257923e-06	7.317876e-10	1.567451e+01	5.137602e+01
2.350000e-06	2.301102e-06	7.540991e-10	1.597426e+01	5.245684e+01
2.360000e-06	2.344197e-06	7.745086e-10	1.627343e+01	5.351124e+01
2.370000e-06	2.387111e-06	7.891603e-10	1.657134e+01	5.453972e+01
2.380000e-06	2.429780e-06	7.957337e-10	1.686755e+01	5.554278e+01
2.390000e-06	2.472103e-06	8.011189e-10	1.716135e+01	5.652087e+01
2.400000e-06	2.514072e-06	8.092288e-10	1.745270e+01	5.747439e+01
2.410000e-06	2.555690e-06	8.238175e-10	1.774161e+01	5.840372e+01
2.420000e-06	2.596905e-06	8.420710e-10	1.802773e+01	5.930919e+01
2.430000e-06	2.637847e-06	8.604238e-10	1.831195e+01	6.019107e+01
2.440000e-06	2.678548e-06	8.771303e-10	1.859449e+01	6.104962e+01
2.450000e-06	2.719009e-06	8.864522e-10	1.887538e+01	6.188505e+01
2.460000e-06	2.759279e-06	8.905128e-10	1.915493e+01	6.269757e+01
2.470000e-06	2.799389e-06	8.947822e-10	1.943338e+01	6.348733e+01
2.480000e-06	2.839267e-06	9.027794e-10	1.971021e+01	6.425450e+01
2.490000e-06	2.878946e-06	9.151133e-10	1.998566e+01	6.499924e+01
2.500000e-06	2.918547e-06	9.293300e-10	2.026057e+01	6.572172e+01
2.510000e-06	2.958030e-06	9.429291e-10	2.053466e+01	6.642210e+01
2.520000e-06	2.997349e-06	9.540027e-10	2.080761e+01	6.710058e+01
2.530000e-06	3.036465e-06	9.616240e-10	2.107916e+01	6.775738e+01
2.540000e-06	3.075393e-06	9.671099e-10	2.134940e+01	6.839276e+01
2.550000e-06	3.114052e-06	9.723619e-10	2.161777e+01	6.900701e+01
2.560000e-06	3.152493e-06	9.807163e-10	2.188462e+01	6.960047e+01
2.570000e-06	3.190756e-06	9.887541e-10	2.215024e+01	7.017350e+01
2.580000e-06	3.228750e-06	9.965334e-10	2.241400e+01	7.072654e+01
2.590000e-06	3.266569e-06	1.005004e-09	2.267654e+01	7.126006e+01
2.600000e-06	3.304212e-06	1.013452e-09	2.293786e+01	7.177457e+01
2.610000e-06	3.341646e-06	1.021020e-09	2.319772e+01	7.227063e+01
2.620000e-06	3.378856e-06	1.028090e-09	2.345604e+01	7.274884e+01
2.630000e-06	3.415805e-06	1.035048e-09	2.371253e+01	7.320982e+01
2.640000e-06	3.452437e-06	1.040696e-09	2.396683e+01	7.365424e+01
2.650000e-06	3.488804e-06	1.044753e-09	2.421930e+01	7.408277e+01
2.660000e-06	3.524944e-06	1.049015e-09	2.447018e+01	7.449610e+01
2.670000e-06	3.560884e-06	1.052821e-09	2.471968e+01	7.489494e+01
2.680000e-06	3.596685e-06	1.057004e-09	2.496820e+01	7.527996e+01
2.690000e-06	3.632329e-06	1.062981e-09	2.521565e+01	7.565188e+01
2.700000e-06	3.667829e-06	1.068802e-09	2.546209e+01	7.601134e+01
2.710000e-06	3.703157e-06	1.072653e-09	2.570733e+01	7.635900e+01
2.720000e-06	3.738341e-06	1.077148e-09	2.595158e+01	7.669546e+01
2.730000e-06	3.773303e-06	1.083638e-09	2.619429e+01	7.702131e+01
2.740000e-06	3.807851e-06	1.089119e-09	2.643412e+01	7.733708e+01
2.750000e-06	3.841876e-06	1.095063e-09	2.667032e+01	7.764325e+01
2.760000e-06	3.875444e-06	1.102420e-09	2.690335e+01	7.794027e+01
2.770000e-06	3.908591e-06	1.107909e-09	2.713346e+01	7.822853e+01
2.780000e-06	3.941314e-06	1.110930e-09	2.736062e+01	7.850837e+01
2.790000e-06	3.973737e-06	1.113595e-09	2.758570e+01	7.878007e+01
2.800000e-06	4.005881e-06	1.116506e-09	2.780885e+01	7.904390e+01
2.810000e-06	4.037751e-06	1.119882e-09	2.803009e+01	7.930005e+01
2.820000e-06	4.069396e-06	1.125100e-09	2.824977e+01	7.954869e+01
2.830000e-06	4.100844e-06	1.132135e-09	2.846808e+01	7.978995e+01
2.840000e-06	4.132066e-06	1.137983e-09	2.868482e+01	8.002394e+01
2.850000e-06	4.163059e-06	1.142580e-09	2.889998e+01	8.025075e+01
2.860000e-06	4.193844e-06	1.146334e-09	2.911369e+01	8.047043e+01
2.870000e-06	4.224316e-06	1.148389e-09	2.932522e+01	8.068307e+01
2.880000e-06	4.254449e-06	1.149649e-09	2.953441e+01	8.088872e+01
2.890000e-06	4.284271e-06	1.152833e-09	2.974143e+01	8.108747e+01
2.900000e-06	4.313764e-06	1.158093e-09	2.994617e+01	8.127939e+01
