# Temperatura_=_7.42
# Concentracion g/m^3_=_1620.0
# C_Vs_to_Am_M_A/Vsm_=_65563218390.804596
# pendiente_HvsI_1/m_=_3716.3
# ordenada_HvsI_A/m_=_1297.0
# frecuencia_Hz_=_135106.14633916752

Tiempo_(s)	Campo_(V.s)	Magnetizacion_(V.s)	Campo_(kA/m)	Magnetizacion_(A/m)
0.000000e+00	-5.524324e-06	-1.319036e-09	-3.837404e+01	-8.848136e+01
1.000000e-08	-5.524595e-06	-1.317011e-09	-3.837592e+01	-8.845800e+01
2.000000e-08	-5.524593e-06	-1.312207e-09	-3.837591e+01	-8.843568e+01
3.000000e-08	-5.524190e-06	-1.307287e-09	-3.837310e+01	-8.841462e+01
4.000000e-08	-5.523264e-06	-1.301393e-09	-3.836667e+01	-8.839500e+01
5.000000e-08	-5.521830e-06	-1.294984e-09	-3.835671e+01	-8.837698e+01
6.000000e-08	-5.519787e-06	-1.284422e-09	-3.834252e+01	-8.836063e+01
7.000000e-08	-5.517079e-06	-1.273350e-09	-3.832371e+01	-8.834601e+01
8.000000e-08	-5.513904e-06	-1.290583e-09	-3.830165e+01	-8.833307e+01
9.000000e-08	-5.510351e-06	-1.344180e-09	-3.827698e+01	-8.832172e+01
1.000000e-07	-5.506366e-06	-1.369699e-09	-3.824929e+01	-8.831179e+01
1.100000e-07	-5.501978e-06	-1.317641e-09	-3.821881e+01	-8.830304e+01
1.200000e-07	-5.497370e-06	-1.243504e-09	-3.818680e+01	-8.829514e+01
1.300000e-07	-5.492668e-06	-1.244756e-09	-3.815414e+01	-8.828769e+01
1.400000e-07	-5.487642e-06	-1.308071e-09	-3.811923e+01	-8.828024e+01
1.500000e-07	-5.482084e-06	-1.309448e-09	-3.808062e+01	-8.827223e+01
1.600000e-07	-5.476090e-06	-1.272934e-09	-3.803898e+01	-8.826306e+01
1.700000e-07	-5.469787e-06	-1.273966e-09	-3.799520e+01	-8.825209e+01
1.800000e-07	-5.463102e-06	-1.334124e-09	-3.794876e+01	-8.823859e+01
1.900000e-07	-5.455939e-06	-1.336952e-09	-3.789900e+01	-8.822183e+01
2.000000e-07	-5.448496e-06	-1.288278e-09	-3.784730e+01	-8.820103e+01
2.100000e-07	-5.440827e-06	-1.272323e-09	-3.779404e+01	-8.817542e+01
2.200000e-07	-5.432901e-06	-1.317299e-09	-3.773898e+01	-8.814421e+01
2.300000e-07	-5.424730e-06	-1.347163e-09	-3.768222e+01	-8.810662e+01
2.400000e-07	-5.416161e-06	-1.327172e-09	-3.762269e+01	-8.806191e+01
2.500000e-07	-5.406971e-06	-1.317676e-09	-3.755885e+01	-8.800939e+01
2.600000e-07	-5.396948e-06	-1.327606e-09	-3.748923e+01	-8.794839e+01
2.700000e-07	-5.386248e-06	-1.322900e-09	-3.741490e+01	-8.787834e+01
2.800000e-07	-5.375131e-06	-1.292852e-09	-3.733768e+01	-8.779873e+01
2.900000e-07	-5.363633e-06	-1.291468e-09	-3.725782e+01	-8.770917e+01
3.000000e-07	-5.351753e-06	-1.304018e-09	-3.717529e+01	-8.760932e+01
3.100000e-07	-5.339522e-06	-1.307668e-09	-3.709033e+01	-8.749899e+01
3.200000e-07	-5.326844e-06	-1.297807e-09	-3.700226e+01	-8.737809e+01
3.300000e-07	-5.313721e-06	-1.311233e-09	-3.691111e+01	-8.724665e+01
3.400000e-07	-5.300305e-06	-1.319175e-09	-3.681791e+01	-8.710482e+01
3.500000e-07	-5.286534e-06	-1.306907e-09	-3.672226e+01	-8.695287e+01
3.600000e-07	-5.272228e-06	-1.290904e-09	-3.662288e+01	-8.679117e+01
3.700000e-07	-5.257383e-06	-1.296931e-09	-3.651976e+01	-8.662024e+01
3.800000e-07	-5.242094e-06	-1.292089e-09	-3.641356e+01	-8.644067e+01
3.900000e-07	-5.226300e-06	-1.279841e-09	-3.630385e+01	-8.625318e+01
4.000000e-07	-5.210004e-06	-1.287521e-09	-3.619065e+01	-8.605855e+01
4.100000e-07	-5.193370e-06	-1.303086e-09	-3.607511e+01	-8.585764e+01
4.200000e-07	-5.176449e-06	-1.284559e-09	-3.595756e+01	-8.565139e+01
4.300000e-07	-5.159179e-06	-1.267093e-09	-3.583760e+01	-8.544077e+01
4.400000e-07	-5.141576e-06	-1.283167e-09	-3.571532e+01	-8.522677e+01
4.500000e-07	-5.123583e-06	-1.286251e-09	-3.559034e+01	-8.501042e+01
4.600000e-07	-5.105061e-06	-1.256705e-09	-3.546168e+01	-8.479272e+01
4.700000e-07	-5.086101e-06	-1.246057e-09	-3.532997e+01	-8.457468e+01
4.800000e-07	-5.066872e-06	-1.257600e-09	-3.519640e+01	-8.435725e+01
4.900000e-07	-5.047437e-06	-1.252218e-09	-3.506140e+01	-8.414133e+01
5.000000e-07	-5.027818e-06	-1.247328e-09	-3.492512e+01	-8.392777e+01
5.100000e-07	-5.007986e-06	-1.260371e-09	-3.478736e+01	-8.371732e+01
5.200000e-07	-4.987883e-06	-1.258960e-09	-3.464771e+01	-8.351065e+01
5.300000e-07	-4.967387e-06	-1.245054e-09	-3.450534e+01	-8.330832e+01
5.400000e-07	-4.946494e-06	-1.249073e-09	-3.436021e+01	-8.311080e+01
5.500000e-07	-4.925221e-06	-1.247205e-09	-3.421244e+01	-8.291842e+01
5.600000e-07	-4.903650e-06	-1.229149e-09	-3.406260e+01	-8.273140e+01
5.700000e-07	-4.881801e-06	-1.223156e-09	-3.391083e+01	-8.254983e+01
5.800000e-07	-4.859537e-06	-1.235047e-09	-3.375618e+01	-8.237370e+01
5.900000e-07	-4.836902e-06	-1.235819e-09	-3.359894e+01	-8.220285e+01
6.000000e-07	-4.813894e-06	-1.227316e-09	-3.343912e+01	-8.203703e+01
6.100000e-07	-4.790579e-06	-1.223205e-09	-3.327717e+01	-8.187589e+01
6.200000e-07	-4.767080e-06	-1.220403e-09	-3.311393e+01	-8.171895e+01
6.300000e-07	-4.743416e-06	-1.213114e-09	-3.294956e+01	-8.156567e+01
6.400000e-07	-4.719576e-06	-1.209903e-09	-3.278395e+01	-8.141544e+01
6.500000e-07	-4.695360e-06	-1.209965e-09	-3.261574e+01	-8.126755e+01
6.600000e-07	-4.670539e-06	-1.210856e-09	-3.244333e+01	-8.112129e+01
6.700000e-07	-4.645139e-06	-1.210129e-09	-3.226689e+01	-8.097588e+01
6.800000e-07	-4.619237e-06	-1.210933e-09	-3.208696e+01	-8.083053e+01
6.900000e-07	-4.592820e-06	-1.209694e-09	-3.190346e+01	-8.068446e+01
7.000000e-07	-4.565881e-06	-1.204427e-09	-3.171633e+01	-8.053688e+01
7.100000e-07	-4.538534e-06	-1.194866e-09	-3.152637e+01	-8.038704e+01
7.200000e-07	-4.511013e-06	-1.190741e-09	-3.133520e+01	-8.023422e+01
7.300000e-07	-4.483373e-06	-1.189540e-09	-3.114319e+01	-8.007773e+01
7.400000e-07	-4.455573e-06	-1.185838e-09	-3.095009e+01	-7.991697e+01
7.500000e-07	-4.427551e-06	-1.182610e-09	-3.075544e+01	-7.975138e+01
7.600000e-07	-4.399170e-06	-1.181145e-09	-3.055829e+01	-7.958050e+01
7.700000e-07	-4.370498e-06	-1.177021e-09	-3.035912e+01	-7.940392e+01
7.800000e-07	-4.341587e-06	-1.168671e-09	-3.015830e+01	-7.922133e+01
7.900000e-07	-4.312310e-06	-1.163463e-09	-2.995493e+01	-7.903251e+01
8.000000e-07	-4.282745e-06	-1.159458e-09	-2.974956e+01	-7.883730e+01
8.100000e-07	-4.252997e-06	-1.151785e-09	-2.954292e+01	-7.863564e+01
8.200000e-07	-4.222994e-06	-1.147687e-09	-2.933451e+01	-7.842756e+01
8.300000e-07	-4.192628e-06	-1.152831e-09	-2.912358e+01	-7.821312e+01
8.400000e-07	-4.161818e-06	-1.156389e-09	-2.890955e+01	-7.799249e+01
8.500000e-07	-4.130609e-06	-1.152217e-09	-2.869277e+01	-7.776588e+01
8.600000e-07	-4.099257e-06	-1.147372e-09	-2.847499e+01	-7.753355e+01
8.700000e-07	-4.067801e-06	-1.139434e-09	-2.825648e+01	-7.729579e+01
8.800000e-07	-4.036177e-06	-1.129832e-09	-2.803680e+01	-7.705293e+01
8.900000e-07	-4.004392e-06	-1.125084e-09	-2.781601e+01	-7.680533e+01
9.000000e-07	-3.972449e-06	-1.121991e-09	-2.759413e+01	-7.655334e+01
9.100000e-07	-3.940269e-06	-1.116984e-09	-2.737059e+01	-7.629732e+01
9.200000e-07	-3.907665e-06	-1.113778e-09	-2.714411e+01	-7.603761e+01
9.300000e-07	-3.874622e-06	-1.114367e-09	-2.691458e+01	-7.577454e+01
9.400000e-07	-3.841077e-06	-1.110414e-09	-2.668157e+01	-7.550841e+01
9.500000e-07	-3.807066e-06	-1.103592e-09	-2.644531e+01	-7.523949e+01
9.600000e-07	-3.772621e-06	-1.096303e-09	-2.620604e+01	-7.496800e+01
9.700000e-07	-3.737728e-06	-1.088840e-09	-2.596366e+01	-7.469412e+01
9.800000e-07	-3.702479e-06	-1.083348e-09	-2.571881e+01	-7.441798e+01
9.900000e-07	-3.667019e-06	-1.079264e-09	-2.547250e+01	-7.413966e+01
1.000000e-06	-3.631469e-06	-1.075313e-09	-2.522555e+01	-7.385920e+01
1.010000e-06	-3.595805e-06	-1.073232e-09	-2.497781e+01	-7.357658e+01
1.020000e-06	-3.560024e-06	-1.072157e-09	-2.472927e+01	-7.329172e+01
1.030000e-06	-3.524085e-06	-1.070523e-09	-2.447962e+01	-7.300453e+01
1.040000e-06	-3.487933e-06	-1.066720e-09	-2.422850e+01	-7.271484e+01
1.050000e-06	-3.451468e-06	-1.061262e-09	-2.397520e+01	-7.242246e+01
1.060000e-06	-3.414622e-06	-1.053003e-09	-2.371925e+01	-7.212719e+01
1.070000e-06	-3.377473e-06	-1.043520e-09	-2.346120e+01	-7.182878e+01
1.080000e-06	-3.340121e-06	-1.038285e-09	-2.320174e+01	-7.152696e+01
1.090000e-06	-3.302649e-06	-1.037426e-09	-2.294144e+01	-7.122148e+01
1.100000e-06	-3.265046e-06	-1.034059e-09	-2.268024e+01	-7.091206e+01
1.110000e-06	-3.227180e-06	-1.029473e-09	-2.241720e+01	-7.059842e+01
1.120000e-06	-3.189051e-06	-1.026436e-09	-2.215235e+01	-7.028032e+01
1.130000e-06	-3.150716e-06	-1.022594e-09	-2.188606e+01	-6.995750e+01
1.140000e-06	-3.112135e-06	-1.018116e-09	-2.161806e+01	-6.962975e+01
1.150000e-06	-3.073330e-06	-1.014211e-09	-2.134851e+01	-6.929687e+01
1.160000e-06	-3.034298e-06	-1.008857e-09	-2.107737e+01	-6.895868e+01
1.170000e-06	-2.995093e-06	-1.000295e-09	-2.080504e+01	-6.861505e+01
1.180000e-06	-2.955699e-06	-9.930402e-10	-2.053140e+01	-6.826587e+01
1.190000e-06	-2.916145e-06	-9.876316e-10	-2.025665e+01	-6.791107e+01
1.200000e-06	-2.876495e-06	-9.821211e-10	-1.998122e+01	-6.755062e+01
1.210000e-06	-2.836737e-06	-9.778903e-10	-1.970504e+01	-6.718450e+01
1.220000e-06	-2.796869e-06	-9.743016e-10	-1.942811e+01	-6.681275e+01
1.230000e-06	-2.756856e-06	-9.683266e-10	-1.915016e+01	-6.643541e+01
1.240000e-06	-2.716725e-06	-9.606065e-10	-1.887140e+01	-6.605256e+01
1.250000e-06	-2.676367e-06	-9.556842e-10	-1.859105e+01	-6.566429e+01
1.260000e-06	-2.635673e-06	-9.507959e-10	-1.830838e+01	-6.527072e+01
1.270000e-06	-2.594671e-06	-9.439713e-10	-1.802356e+01	-6.487197e+01
1.280000e-06	-2.553304e-06	-9.386188e-10	-1.773621e+01	-6.446817e+01
1.290000e-06	-2.511553e-06	-9.347207e-10	-1.744619e+01	-6.405943e+01
1.300000e-06	-2.469492e-06	-9.300312e-10	-1.715402e+01	-6.364588e+01
1.310000e-06	-2.427252e-06	-9.251332e-10	-1.686061e+01	-6.322764e+01
1.320000e-06	-2.384874e-06	-9.220005e-10	-1.656623e+01	-6.280479e+01
1.330000e-06	-2.342145e-06	-9.164727e-10	-1.626942e+01	-6.237742e+01
1.340000e-06	-2.299103e-06	-9.089548e-10	-1.597043e+01	-6.194557e+01
1.350000e-06	-2.255936e-06	-9.015504e-10	-1.567058e+01	-6.150927e+01
1.360000e-06	-2.212593e-06	-8.913782e-10	-1.536950e+01	-6.106852e+01
1.370000e-06	-2.169103e-06	-8.823242e-10	-1.506741e+01	-6.062328e+01
1.380000e-06	-2.125536e-06	-8.741662e-10	-1.476477e+01	-6.017347e+01
1.390000e-06	-2.081882e-06	-8.663520e-10	-1.446154e+01	-5.971899e+01
1.400000e-06	-2.038195e-06	-8.589311e-10	-1.415807e+01	-5.925970e+01
1.410000e-06	-1.994444e-06	-8.513998e-10	-1.385416e+01	-5.879541e+01
1.420000e-06	-1.950585e-06	-8.433662e-10	-1.354950e+01	-5.832591e+01
1.430000e-06	-1.906627e-06	-8.344498e-10	-1.324415e+01	-5.785095e+01
1.440000e-06	-1.862547e-06	-8.262126e-10	-1.293795e+01	-5.737023e+01
1.450000e-06	-1.818397e-06	-8.180404e-10	-1.263127e+01	-5.688343e+01
1.460000e-06	-1.774098e-06	-8.107237e-10	-1.232355e+01	-5.639019e+01
1.470000e-06	-1.729631e-06	-8.020143e-10	-1.201467e+01	-5.589013e+01
1.480000e-06	-1.685021e-06	-7.937043e-10	-1.170479e+01	-5.538281e+01
1.490000e-06	-1.640207e-06	-7.851649e-10	-1.139350e+01	-5.486779e+01
1.500000e-06	-1.595285e-06	-7.758753e-10	-1.108145e+01	-5.434457e+01
1.510000e-06	-1.550285e-06	-7.673434e-10	-1.076887e+01	-5.381264e+01
1.520000e-06	-1.505176e-06	-7.589389e-10	-1.045552e+01	-5.327146e+01
1.530000e-06	-1.459931e-06	-7.500903e-10	-1.014123e+01	-5.272043e+01
1.540000e-06	-1.414548e-06	-7.391186e-10	-9.825986e+00	-5.215896e+01
1.550000e-06	-1.369079e-06	-7.278905e-10	-9.510140e+00	-5.158640e+01
1.560000e-06	-1.323551e-06	-7.166187e-10	-9.193881e+00	-5.100206e+01
1.570000e-06	-1.278012e-06	-7.036228e-10	-8.877555e+00	-5.040525e+01
1.580000e-06	-1.232401e-06	-6.928193e-10	-8.560723e+00	-4.979522e+01
1.590000e-06	-1.186648e-06	-6.844410e-10	-8.242903e+00	-4.917117e+01
1.600000e-06	-1.140850e-06	-6.766716e-10	-7.924772e+00	-4.853229e+01
1.610000e-06	-1.094989e-06	-6.678575e-10	-7.606204e+00	-4.787773e+01
1.620000e-06	-1.048988e-06	-6.597727e-10	-7.286668e+00	-4.720657e+01
1.630000e-06	-1.002889e-06	-6.534671e-10	-6.966442e+00	-4.651790e+01
1.640000e-06	-9.566991e-07	-6.454040e-10	-6.645592e+00	-4.581073e+01
1.650000e-06	-9.104712e-07	-6.327047e-10	-6.324476e+00	-4.508405e+01
1.660000e-06	-8.642657e-07	-6.172269e-10	-6.003515e+00	-4.433683e+01
1.670000e-06	-8.179873e-07	-6.014546e-10	-5.682048e+00	-4.356800e+01
1.680000e-06	-7.715985e-07	-5.852821e-10	-5.359814e+00	-4.277645e+01
1.690000e-06	-7.251126e-07	-5.693354e-10	-5.036906e+00	-4.196108e+01
1.700000e-06	-6.785858e-07	-5.548864e-10	-4.713712e+00	-4.112075e+01
1.710000e-06	-6.320253e-07	-5.419633e-10	-4.390286e+00	-4.025435e+01
1.720000e-06	-5.853273e-07	-5.303943e-10	-4.065904e+00	-3.936073e+01
1.730000e-06	-5.385878e-07	-5.184590e-10	-3.741234e+00	-3.843878e+01
1.740000e-06	-4.918658e-07	-5.042822e-10	-3.416685e+00	-3.748743e+01
1.750000e-06	-4.451382e-07	-4.866292e-10	-3.092098e+00	-3.650560e+01
1.760000e-06	-3.984315e-07	-4.664170e-10	-2.767656e+00	-3.549231e+01
1.770000e-06	-3.516601e-07	-4.481503e-10	-2.442764e+00	-3.444662e+01
1.780000e-06	-3.048376e-07	-4.335925e-10	-2.117517e+00	-3.336765e+01
1.790000e-06	-2.579476e-07	-4.216412e-10	-1.791801e+00	-3.225464e+01
1.800000e-06	-2.110839e-07	-4.083069e-10	-1.466268e+00	-3.110690e+01
1.810000e-06	-1.643168e-07	-3.909254e-10	-1.141406e+00	-2.992389e+01
1.820000e-06	-1.174415e-07	-3.711876e-10	-8.157928e-01	-2.870517e+01
1.830000e-06	-7.044160e-08	-3.520577e-10	-4.893139e-01	-2.745046e+01
1.840000e-06	-2.351064e-08	-3.329264e-10	-1.633137e-01	-2.615961e+01
1.850000e-06	2.340021e-08	-3.135737e-10	1.625466e-01	-2.483265e+01
1.860000e-06	7.031816e-08	-2.940163e-10	4.884564e-01	-2.346978e+01
1.870000e-06	1.171386e-07	-2.740224e-10	8.136889e-01	-2.207136e+01
1.880000e-06	1.639154e-07	-2.546312e-10	1.138618e+00	-2.063794e+01
1.890000e-06	2.106460e-07	-2.365014e-10	1.463226e+00	-1.917026e+01
1.900000e-06	2.573532e-07	-2.187740e-10	1.787672e+00	-1.766925e+01
1.910000e-06	3.040654e-07	-2.000328e-10	2.112153e+00	-1.613599e+01
1.920000e-06	3.508256e-07	-1.799014e-10	2.436967e+00	-1.457179e+01
1.930000e-06	3.975532e-07	-1.602835e-10	2.761554e+00	-1.297810e+01
1.940000e-06	4.442417e-07	-1.385892e-10	3.085870e+00	-1.135657e+01
1.950000e-06	4.909407e-07	-1.128812e-10	3.410259e+00	-9.708973e+00
1.960000e-06	5.376085e-07	-8.851020e-11	3.734431e+00	-8.037264e+00
1.970000e-06	5.842177e-07	-6.764802e-11	4.058196e+00	-6.343520e+00
1.980000e-06	6.307363e-07	-4.770309e-11	4.381332e+00	-4.629942e+00
1.990000e-06	6.772313e-07	-2.650389e-11	4.704304e+00	-2.898835e+00
2.000000e-06	7.237600e-07	-8.783543e-13	5.027510e+00	-1.152596e+00
2.010000e-06	7.702632e-07	2.875927e-11	5.350539e+00	6.063076e-01
2.020000e-06	8.165922e-07	5.871440e-11	5.672357e+00	2.375357e+00
2.030000e-06	8.627352e-07	8.549859e-11	5.992884e+00	4.151999e+00
2.040000e-06	9.087995e-07	1.075649e-10	6.312864e+00	5.933665e+00
2.050000e-06	9.548698e-07	1.274801e-10	6.632885e+00	7.717791e+00
2.060000e-06	1.000974e-06	1.480380e-10	6.953143e+00	9.501836e+00
2.070000e-06	1.047067e-06	1.699095e-10	7.273322e+00	1.128330e+01
2.080000e-06	1.092988e-06	1.942499e-10	7.592306e+00	1.305973e+01
2.090000e-06	1.138780e-06	2.216413e-10	7.910397e+00	1.482877e+01
2.100000e-06	1.184574e-06	2.497498e-10	8.228499e+00	1.658812e+01
2.110000e-06	1.230303e-06	2.761241e-10	8.546147e+00	1.833560e+01
2.120000e-06	1.275989e-06	2.988338e-10	8.863503e+00	2.006913e+01
2.130000e-06	1.321587e-06	3.193812e-10	9.180243e+00	2.178675e+01
2.140000e-06	1.366963e-06	3.393769e-10	9.495439e+00	2.348664e+01
2.150000e-06	1.412202e-06	3.607326e-10	9.809684e+00	2.516710e+01
2.160000e-06	1.457400e-06	3.859030e-10	1.012365e+01	2.682657e+01
2.170000e-06	1.502442e-06	4.126650e-10	1.043653e+01	2.846362e+01
2.180000e-06	1.547369e-06	4.386900e-10	1.074860e+01	3.007697e+01
2.190000e-06	1.592300e-06	4.631527e-10	1.106072e+01	3.166547e+01
2.200000e-06	1.637164e-06	4.836298e-10	1.137236e+01	3.322811e+01
2.210000e-06	1.681813e-06	4.998979e-10	1.168251e+01	3.476401e+01
2.220000e-06	1.726243e-06	5.140578e-10	1.199114e+01	3.627241e+01
2.230000e-06	1.770539e-06	5.295524e-10	1.229883e+01	3.775267e+01
2.240000e-06	1.814709e-06	5.478018e-10	1.260565e+01	3.920425e+01
2.250000e-06	1.858779e-06	5.673510e-10	1.291178e+01	4.062674e+01
2.260000e-06	1.902755e-06	5.890121e-10	1.321725e+01	4.201980e+01
2.270000e-06	1.946631e-06	6.119475e-10	1.352203e+01	4.338319e+01
2.280000e-06	1.990458e-06	6.332082e-10	1.382647e+01	4.471674e+01
2.290000e-06	2.034221e-06	6.505980e-10	1.413047e+01	4.602036e+01
2.300000e-06	2.077911e-06	6.648448e-10	1.443395e+01	4.729401e+01
2.310000e-06	2.121568e-06	6.791161e-10	1.473721e+01	4.853773e+01
2.320000e-06	2.165169e-06	6.958027e-10	1.504008e+01	4.975157e+01
2.330000e-06	2.208655e-06	7.132544e-10	1.534215e+01	5.093566e+01
2.340000e-06	2.251994e-06	7.303344e-10	1.564320e+01	5.209014e+01
2.350000e-06	2.295156e-06	7.486701e-10	1.594302e+01	5.321521e+01
2.360000e-06	2.338104e-06	7.652495e-10	1.624135e+01	5.431106e+01
2.370000e-06	2.380834e-06	7.775733e-10	1.653817e+01	5.537795e+01
2.380000e-06	2.423322e-06	7.888241e-10	1.683331e+01	5.641614e+01
2.390000e-06	2.465529e-06	8.011364e-10	1.712649e+01	5.742590e+01
2.400000e-06	2.507561e-06	8.129615e-10	1.741846e+01	5.840756e+01
2.410000e-06	2.549291e-06	8.258099e-10	1.770834e+01	5.936143e+01
2.420000e-06	2.590641e-06	8.398334e-10	1.799557e+01	6.028786e+01
2.430000e-06	2.631710e-06	8.537918e-10	1.828085e+01	6.118723e+01
2.440000e-06	2.672409e-06	8.673558e-10	1.856356e+01	6.205994e+01
2.450000e-06	2.712749e-06	8.794798e-10	1.884378e+01	6.290640e+01
2.460000e-06	2.752890e-06	8.910946e-10	1.912261e+01	6.372705e+01
2.470000e-06	2.792892e-06	9.023651e-10	1.940048e+01	6.452235e+01
2.480000e-06	2.832703e-06	9.132273e-10	1.967702e+01	6.529281e+01
2.490000e-06	2.872385e-06	9.237077e-10	1.995267e+01	6.603894e+01
2.500000e-06	2.911978e-06	9.333656e-10	2.022770e+01	6.676128e+01
2.510000e-06	2.951454e-06	9.431795e-10	2.050191e+01	6.746040e+01
2.520000e-06	2.990879e-06	9.521370e-10	2.077577e+01	6.813689e+01
2.530000e-06	3.030156e-06	9.597960e-10	2.104861e+01	6.879136e+01
2.540000e-06	3.069158e-06	9.674595e-10	2.131953e+01	6.942443e+01
2.550000e-06	3.107901e-06	9.751950e-10	2.158865e+01	7.003676e+01
2.560000e-06	3.146391e-06	9.834028e-10	2.185601e+01	7.062901e+01
2.570000e-06	3.184656e-06	9.919555e-10	2.212182e+01	7.120183e+01
2.580000e-06	3.222737e-06	1.001347e-09	2.238635e+01	7.175592e+01
2.590000e-06	3.260679e-06	1.010454e-09	2.264991e+01	7.229194e+01
2.600000e-06	3.298407e-06	1.018485e-09	2.291198e+01	7.281057e+01
2.610000e-06	3.335862e-06	1.026754e-09	2.317215e+01	7.331247e+01
2.620000e-06	3.373119e-06	1.033460e-09	2.343095e+01	7.379831e+01
2.630000e-06	3.410159e-06	1.037970e-09	2.368825e+01	7.426871e+01
2.640000e-06	3.446852e-06	1.042406e-09	2.394313e+01	7.472430e+01
2.650000e-06	3.483242e-06	1.047931e-09	2.419591e+01	7.516568e+01
2.660000e-06	3.519456e-06	1.055499e-09	2.444747e+01	7.559342e+01
2.670000e-06	3.555498e-06	1.063615e-09	2.469783e+01	7.600807e+01
2.680000e-06	3.591352e-06	1.070114e-09	2.494688e+01	7.641014e+01
2.690000e-06	3.627059e-06	1.076318e-09	2.519492e+01	7.680011e+01
2.700000e-06	3.662651e-06	1.081817e-09	2.544215e+01	7.717845e+01
2.710000e-06	3.698040e-06	1.086684e-09	2.568798e+01	7.754556e+01
2.720000e-06	3.733240e-06	1.091109e-09	2.593249e+01	7.790184e+01
2.730000e-06	3.768131e-06	1.094211e-09	2.617486e+01	7.824765e+01
2.740000e-06	3.802572e-06	1.097849e-09	2.641410e+01	7.858333e+01
2.750000e-06	3.836618e-06	1.104150e-09	2.665059e+01	7.890919e+01
2.760000e-06	3.870200e-06	1.113459e-09	2.688387e+01	7.922551e+01
2.770000e-06	3.903317e-06	1.121335e-09	2.711391e+01	7.953257e+01
2.780000e-06	3.936009e-06	1.127907e-09	2.734100e+01	7.983063e+01
2.790000e-06	3.968323e-06	1.132880e-09	2.756547e+01	8.011993e+01
2.800000e-06	4.000368e-06	1.135683e-09	2.778807e+01	8.040072e+01
2.810000e-06	4.032214e-06	1.137937e-09	2.800928e+01	8.067322e+01
2.820000e-06	4.063920e-06	1.142097e-09	2.822952e+01	8.093769e+01
2.830000e-06	4.095470e-06	1.148049e-09	2.844868e+01	8.119437e+01
2.840000e-06	4.126777e-06	1.153787e-09	2.866615e+01	8.144350e+01
2.850000e-06	4.157827e-06	1.158243e-09	2.888183e+01	8.168535e+01
2.860000e-06	4.188565e-06	1.162085e-09	2.909535e+01	8.192019e+01
2.870000e-06	4.218966e-06	1.165807e-09	2.930653e+01	8.214830e+01
2.880000e-06	4.249061e-06	1.168153e-09	2.951558e+01	8.236998e+01
2.890000e-06	4.278851e-06	1.172329e-09	2.972251e+01	8.258554e+01
2.900000e-06	4.308405e-06	1.181480e-09	2.992781e+01	8.279531e+01
