# Temperatura_=_-0.52
# Concentracion g/m^3_=_1620.0
# C_Vs_to_Am_M_A/Vsm_=_65563218390.804596
# pendiente_HvsI_1/m_=_3716.3
# ordenada_HvsI_A/m_=_1297.0
# frecuencia_Hz_=_135106.85577743832

Tiempo_(s)	Campo_(V.s)	Magnetizacion_(V.s)	Campo_(kA/m)	Magnetizacion_(A/m)
0.000000e+00	-5.524699e-06	-1.156450e-09	-3.837244e+01	-7.713433e+01
1.000000e-08	-5.524969e-06	-1.155848e-09	-3.837432e+01	-7.710835e+01
2.000000e-08	-5.524987e-06	-1.155434e-09	-3.837444e+01	-7.708318e+01
3.000000e-08	-5.524663e-06	-1.154081e-09	-3.837219e+01	-7.705920e+01
4.000000e-08	-5.523956e-06	-1.152237e-09	-3.836728e+01	-7.703680e+01
5.000000e-08	-5.522692e-06	-1.150343e-09	-3.835850e+01	-7.701634e+01
6.000000e-08	-5.520758e-06	-1.144015e-09	-3.834506e+01	-7.699816e+01
7.000000e-08	-5.518249e-06	-1.140919e-09	-3.832764e+01	-7.698256e+01
8.000000e-08	-5.515205e-06	-1.144859e-09	-3.830650e+01	-7.696978e+01
9.000000e-08	-5.511619e-06	-1.140005e-09	-3.828159e+01	-7.696001e+01
1.000000e-07	-5.507558e-06	-1.147498e-09	-3.825338e+01	-7.695337e+01
1.100000e-07	-5.503193e-06	-1.192357e-09	-3.822307e+01	-7.694989e+01
1.200000e-07	-5.498607e-06	-1.156559e-09	-3.819121e+01	-7.694954e+01
1.300000e-07	-5.493789e-06	-1.073184e-09	-3.815775e+01	-7.695218e+01
1.400000e-07	-5.488694e-06	-1.081860e-09	-3.812236e+01	-7.695759e+01
1.500000e-07	-5.483202e-06	-1.151846e-09	-3.808422e+01	-7.696546e+01
1.600000e-07	-5.477319e-06	-1.186901e-09	-3.804335e+01	-7.697537e+01
1.700000e-07	-5.471031e-06	-1.104405e-09	-3.799968e+01	-7.698684e+01
1.800000e-07	-5.464287e-06	-1.114766e-09	-3.795284e+01	-7.699930e+01
1.900000e-07	-5.457199e-06	-1.187668e-09	-3.790361e+01	-7.701208e+01
2.000000e-07	-5.449816e-06	-1.197367e-09	-3.785233e+01	-7.702449e+01
2.100000e-07	-5.442154e-06	-1.116333e-09	-3.779912e+01	-7.703574e+01
2.200000e-07	-5.434309e-06	-1.092367e-09	-3.774463e+01	-7.704502e+01
2.300000e-07	-5.426234e-06	-1.147886e-09	-3.768854e+01	-7.705149e+01
2.400000e-07	-5.417653e-06	-1.176002e-09	-3.762894e+01	-7.705429e+01
2.500000e-07	-5.408445e-06	-1.152224e-09	-3.756498e+01	-7.705258e+01
2.600000e-07	-5.398618e-06	-1.130298e-09	-3.749673e+01	-7.704551e+01
2.700000e-07	-5.388057e-06	-1.142979e-09	-3.742338e+01	-7.703227e+01
2.800000e-07	-5.376850e-06	-1.135579e-09	-3.734553e+01	-7.701212e+01
2.900000e-07	-5.365270e-06	-1.127019e-09	-3.726511e+01	-7.698436e+01
3.000000e-07	-5.353350e-06	-1.117677e-09	-3.718232e+01	-7.694837e+01
3.100000e-07	-5.341035e-06	-1.140498e-09	-3.709678e+01	-7.690364e+01
3.200000e-07	-5.328336e-06	-1.158760e-09	-3.700858e+01	-7.684975e+01
3.300000e-07	-5.315262e-06	-1.158057e-09	-3.691777e+01	-7.678638e+01
3.400000e-07	-5.301762e-06	-1.124687e-09	-3.682401e+01	-7.671335e+01
3.500000e-07	-5.287855e-06	-1.140456e-09	-3.672741e+01	-7.663060e+01
3.600000e-07	-5.273595e-06	-1.156157e-09	-3.662837e+01	-7.653818e+01
3.700000e-07	-5.258858e-06	-1.127238e-09	-3.652601e+01	-7.643628e+01
3.800000e-07	-5.243635e-06	-1.112803e-09	-3.642027e+01	-7.632522e+01
3.900000e-07	-5.227930e-06	-1.165974e-09	-3.631119e+01	-7.620544e+01
4.000000e-07	-5.211676e-06	-1.146947e-09	-3.619830e+01	-7.607748e+01
4.100000e-07	-5.194933e-06	-1.097502e-09	-3.608201e+01	-7.594199e+01
4.200000e-07	-5.177877e-06	-1.140386e-09	-3.596355e+01	-7.579972e+01
4.300000e-07	-5.160645e-06	-1.171321e-09	-3.584386e+01	-7.565149e+01
4.400000e-07	-5.143098e-06	-1.091235e-09	-3.572198e+01	-7.549819e+01
4.500000e-07	-5.125125e-06	-1.095254e-09	-3.559715e+01	-7.534076e+01
4.600000e-07	-5.106716e-06	-1.179106e-09	-3.546929e+01	-7.518016e+01
4.700000e-07	-5.087791e-06	-1.121990e-09	-3.533784e+01	-7.501738e+01
4.800000e-07	-5.068467e-06	-1.057066e-09	-3.520363e+01	-7.485339e+01
4.900000e-07	-5.048956e-06	-1.140845e-09	-3.506811e+01	-7.468915e+01
5.000000e-07	-5.029296e-06	-1.156846e-09	-3.493156e+01	-7.452557e+01
5.100000e-07	-5.009429e-06	-1.067246e-09	-3.479357e+01	-7.436352e+01
5.200000e-07	-4.989262e-06	-1.111297e-09	-3.465350e+01	-7.420378e+01
5.300000e-07	-4.968803e-06	-1.167010e-09	-3.451140e+01	-7.404706e+01
5.400000e-07	-4.947977e-06	-1.087003e-09	-3.436675e+01	-7.389397e+01
5.500000e-07	-4.926639e-06	-1.077483e-09	-3.421855e+01	-7.374500e+01
5.600000e-07	-4.904968e-06	-1.157824e-09	-3.406803e+01	-7.360056e+01
5.700000e-07	-4.883058e-06	-1.107261e-09	-3.391585e+01	-7.346091e+01
5.800000e-07	-4.860871e-06	-1.058198e-09	-3.376174e+01	-7.332620e+01
5.900000e-07	-4.838306e-06	-1.128992e-09	-3.360502e+01	-7.319647e+01
6.000000e-07	-4.815336e-06	-1.130389e-09	-3.344548e+01	-7.307161e+01
6.100000e-07	-4.792046e-06	-1.057426e-09	-3.328372e+01	-7.295144e+01
6.200000e-07	-4.768511e-06	-1.090817e-09	-3.312024e+01	-7.283562e+01
6.300000e-07	-4.744820e-06	-1.120004e-09	-3.295570e+01	-7.272376e+01
6.400000e-07	-4.720850e-06	-1.074675e-09	-3.278921e+01	-7.261536e+01
6.500000e-07	-4.696480e-06	-1.078856e-09	-3.261995e+01	-7.250984e+01
6.600000e-07	-4.671704e-06	-1.115698e-09	-3.244786e+01	-7.240656e+01
6.700000e-07	-4.646502e-06	-1.083017e-09	-3.227282e+01	-7.230483e+01
6.800000e-07	-4.620771e-06	-1.068668e-09	-3.209410e+01	-7.220396e+01
6.900000e-07	-4.594437e-06	-1.097112e-09	-3.191120e+01	-7.210319e+01
7.000000e-07	-4.567502e-06	-1.087514e-09	-3.172411e+01	-7.200179e+01
7.100000e-07	-4.540089e-06	-1.065858e-09	-3.153371e+01	-7.189905e+01
7.200000e-07	-4.512458e-06	-1.080126e-09	-3.134180e+01	-7.179427e+01
7.300000e-07	-4.484737e-06	-1.078560e-09	-3.114926e+01	-7.168679e+01
7.400000e-07	-4.456854e-06	-1.060889e-09	-3.095560e+01	-7.157602e+01
7.500000e-07	-4.428732e-06	-1.066978e-09	-3.076028e+01	-7.146142e+01
7.600000e-07	-4.400367e-06	-1.069487e-09	-3.056326e+01	-7.134251e+01
7.700000e-07	-4.371785e-06	-1.054761e-09	-3.036474e+01	-7.121891e+01
7.800000e-07	-4.342925e-06	-1.053747e-09	-3.016429e+01	-7.109030e+01
7.900000e-07	-4.313696e-06	-1.056791e-09	-2.996128e+01	-7.095648e+01
8.000000e-07	-4.284107e-06	-1.046055e-09	-2.975576e+01	-7.081728e+01
8.100000e-07	-4.254220e-06	-1.043090e-09	-2.954818e+01	-7.067267e+01
8.200000e-07	-4.224097e-06	-1.045893e-09	-2.933896e+01	-7.052265e+01
8.300000e-07	-4.193669e-06	-1.036223e-09	-2.912762e+01	-7.036732e+01
8.400000e-07	-4.162891e-06	-1.025236e-09	-2.891384e+01	-7.020686e+01
8.500000e-07	-4.131863e-06	-1.030853e-09	-2.869834e+01	-7.004146e+01
8.600000e-07	-4.100583e-06	-1.027442e-09	-2.848108e+01	-6.987141e+01
8.700000e-07	-4.069074e-06	-1.017928e-09	-2.826223e+01	-6.969701e+01
8.800000e-07	-4.037406e-06	-1.019588e-09	-2.804227e+01	-6.951859e+01
8.900000e-07	-4.005575e-06	-1.023278e-09	-2.782118e+01	-6.933649e+01
9.000000e-07	-3.973530e-06	-1.010863e-09	-2.759862e+01	-6.915108e+01
9.100000e-07	-3.941233e-06	-1.004212e-09	-2.737429e+01	-6.896268e+01
9.200000e-07	-3.908706e-06	-1.003954e-09	-2.714837e+01	-6.877163e+01
9.300000e-07	-3.875770e-06	-9.941190e-10	-2.691961e+01	-6.857823e+01
9.400000e-07	-3.842350e-06	-9.869396e-10	-2.668749e+01	-6.838274e+01
9.500000e-07	-3.808501e-06	-9.958335e-10	-2.645238e+01	-6.818538e+01
9.600000e-07	-3.774082e-06	-9.947073e-10	-2.621332e+01	-6.798631e+01
9.700000e-07	-3.739120e-06	-9.832979e-10	-2.597049e+01	-6.778567e+01
9.800000e-07	-3.703868e-06	-9.797060e-10	-2.572565e+01	-6.758350e+01
9.900000e-07	-3.668471e-06	-9.783353e-10	-2.547979e+01	-6.737982e+01
1.000000e-06	-3.632882e-06	-9.653703e-10	-2.523260e+01	-6.717458e+01
1.010000e-06	-3.597121e-06	-9.603236e-10	-2.498422e+01	-6.696767e+01
1.020000e-06	-3.561241e-06	-9.656131e-10	-2.473501e+01	-6.675894e+01
1.030000e-06	-3.525280e-06	-9.684063e-10	-2.448524e+01	-6.654819e+01
1.040000e-06	-3.489120e-06	-9.685863e-10	-2.423409e+01	-6.633520e+01
1.050000e-06	-3.452675e-06	-9.723059e-10	-2.398096e+01	-6.611970e+01
1.060000e-06	-3.415959e-06	-9.667808e-10	-2.372594e+01	-6.590140e+01
1.070000e-06	-3.378878e-06	-9.538048e-10	-2.346839e+01	-6.568001e+01
1.080000e-06	-3.341472e-06	-9.477791e-10	-2.320858e+01	-6.545522e+01
1.090000e-06	-3.303931e-06	-9.456857e-10	-2.294784e+01	-6.522674e+01
1.100000e-06	-3.266212e-06	-9.434152e-10	-2.268586e+01	-6.499430e+01
1.110000e-06	-3.228203e-06	-9.436549e-10	-2.242186e+01	-6.475763e+01
1.120000e-06	-3.190022e-06	-9.462140e-10	-2.215667e+01	-6.451650e+01
1.130000e-06	-3.151627e-06	-9.411671e-10	-2.188999e+01	-6.427073e+01
1.140000e-06	-3.112976e-06	-9.335653e-10	-2.162154e+01	-6.402016e+01
1.150000e-06	-3.074196e-06	-9.277579e-10	-2.135218e+01	-6.376469e+01
1.160000e-06	-3.035171e-06	-9.214054e-10	-2.108113e+01	-6.350427e+01
1.170000e-06	-2.995832e-06	-9.128135e-10	-2.080790e+01	-6.323890e+01
1.180000e-06	-2.956314e-06	-9.088968e-10	-2.053342e+01	-6.296863e+01
1.190000e-06	-2.916672e-06	-9.047083e-10	-2.025808e+01	-6.269355e+01
1.200000e-06	-2.876887e-06	-8.984231e-10	-1.998175e+01	-6.241379e+01
1.210000e-06	-2.836965e-06	-8.921960e-10	-1.970447e+01	-6.212955e+01
1.220000e-06	-2.796973e-06	-8.892239e-10	-1.942670e+01	-6.184102e+01
1.230000e-06	-2.756872e-06	-8.859247e-10	-1.914817e+01	-6.154846e+01
1.240000e-06	-2.716526e-06	-8.851208e-10	-1.886794e+01	-6.125213e+01
1.250000e-06	-2.675971e-06	-8.877655e-10	-1.858627e+01	-6.095227e+01
1.260000e-06	-2.635232e-06	-8.887642e-10	-1.830331e+01	-6.064918e+01
1.270000e-06	-2.594158e-06	-8.816998e-10	-1.801802e+01	-6.034309e+01
1.280000e-06	-2.552794e-06	-8.731103e-10	-1.773073e+01	-6.003426e+01
1.290000e-06	-2.511209e-06	-8.671884e-10	-1.744190e+01	-5.972288e+01
1.300000e-06	-2.469369e-06	-8.628126e-10	-1.715129e+01	-5.940913e+01
1.310000e-06	-2.427181e-06	-8.575391e-10	-1.685827e+01	-5.909313e+01
1.320000e-06	-2.384624e-06	-8.551476e-10	-1.656269e+01	-5.877495e+01
1.330000e-06	-2.341779e-06	-8.513645e-10	-1.626510e+01	-5.845461e+01
1.340000e-06	-2.298651e-06	-8.442945e-10	-1.596555e+01	-5.813204e+01
1.350000e-06	-2.255343e-06	-8.372026e-10	-1.566474e+01	-5.780712e+01
1.360000e-06	-2.211897e-06	-8.283587e-10	-1.536299e+01	-5.747966e+01
1.370000e-06	-2.168292e-06	-8.178681e-10	-1.506013e+01	-5.714940e+01
1.380000e-06	-2.124572e-06	-8.084122e-10	-1.475646e+01	-5.681598e+01
1.390000e-06	-2.080809e-06	-8.038762e-10	-1.445250e+01	-5.647902e+01
1.400000e-06	-2.037041e-06	-8.009965e-10	-1.414851e+01	-5.613803e+01
1.410000e-06	-1.993217e-06	-7.972650e-10	-1.384412e+01	-5.579250e+01
1.420000e-06	-1.949354e-06	-7.921779e-10	-1.353946e+01	-5.544182e+01
1.430000e-06	-1.905416e-06	-7.844828e-10	-1.323429e+01	-5.508537e+01
1.440000e-06	-1.861323e-06	-7.741040e-10	-1.292804e+01	-5.472249e+01
1.450000e-06	-1.817086e-06	-7.628705e-10	-1.262078e+01	-5.435246e+01
1.460000e-06	-1.772782e-06	-7.524043e-10	-1.231306e+01	-5.397456e+01
1.470000e-06	-1.728438e-06	-7.438482e-10	-1.200507e+01	-5.358805e+01
1.480000e-06	-1.683892e-06	-7.384816e-10	-1.169567e+01	-5.319219e+01
1.490000e-06	-1.639098e-06	-7.354121e-10	-1.138454e+01	-5.278623e+01
1.500000e-06	-1.594181e-06	-7.299517e-10	-1.107257e+01	-5.236945e+01
1.510000e-06	-1.549151e-06	-7.206818e-10	-1.075981e+01	-5.194111e+01
1.520000e-06	-1.503922e-06	-7.089538e-10	-1.044566e+01	-5.150054e+01
1.530000e-06	-1.458593e-06	-6.980886e-10	-1.013083e+01	-5.104705e+01
1.540000e-06	-1.413206e-06	-6.882562e-10	-9.815584e+00	-5.058000e+01
1.550000e-06	-1.367664e-06	-6.816975e-10	-9.499271e+00	-5.009879e+01
1.560000e-06	-1.322028e-06	-6.759037e-10	-9.182296e+00	-4.960283e+01
1.570000e-06	-1.276277e-06	-6.694279e-10	-8.864529e+00	-4.909157e+01
1.580000e-06	-1.230483e-06	-6.612507e-10	-8.546465e+00	-4.856449e+01
1.590000e-06	-1.184706e-06	-6.536098e-10	-8.228516e+00	-4.802108e+01
1.600000e-06	-1.138903e-06	-6.458359e-10	-7.910381e+00	-4.746088e+01
1.610000e-06	-1.093078e-06	-6.341792e-10	-7.592098e+00	-4.688341e+01
1.620000e-06	-1.047122e-06	-6.210482e-10	-7.272910e+00	-4.628822e+01
1.630000e-06	-1.001003e-06	-6.112889e-10	-6.952582e+00	-4.567484e+01
1.640000e-06	-9.548500e-07	-6.043257e-10	-6.632022e+00	-4.504282e+01
1.650000e-06	-9.086959e-07	-5.979729e-10	-6.311453e+00	-4.439167e+01
1.660000e-06	-8.624639e-07	-5.882607e-10	-5.990343e+00	-4.372091e+01
1.670000e-06	-8.160581e-07	-5.753650e-10	-5.668027e+00	-4.303001e+01
1.680000e-06	-7.695500e-07	-5.614561e-10	-5.344999e+00	-4.231842e+01
1.690000e-06	-7.231104e-07	-5.474455e-10	-5.022447e+00	-4.158556e+01
1.700000e-06	-6.766494e-07	-5.334097e-10	-4.699747e+00	-4.083079e+01
1.710000e-06	-6.301437e-07	-5.205709e-10	-4.376736e+00	-4.005347e+01
1.720000e-06	-5.836020e-07	-5.109458e-10	-4.053476e+00	-3.925288e+01
1.730000e-06	-5.369970e-07	-5.016446e-10	-3.729775e+00	-3.842829e+01
1.740000e-06	-4.903686e-07	-4.911460e-10	-3.405912e+00	-3.757892e+01
1.750000e-06	-4.437102e-07	-4.778502e-10	-3.081841e+00	-3.670398e+01
1.760000e-06	-3.970272e-07	-4.613680e-10	-2.757598e+00	-3.580265e+01
1.770000e-06	-3.503473e-07	-4.450197e-10	-2.433378e+00	-3.487408e+01
1.780000e-06	-3.036150e-07	-4.322343e-10	-2.108793e+00	-3.391746e+01
1.790000e-06	-2.568004e-07	-4.206596e-10	-1.783637e+00	-3.293197e+01
1.800000e-06	-2.099680e-07	-4.087207e-10	-1.458357e+00	-3.191681e+01
1.810000e-06	-1.630909e-07	-3.943837e-10	-1.132767e+00	-3.087123e+01
1.820000e-06	-1.160845e-07	-3.781410e-10	-8.062787e-01	-2.979454e+01
1.830000e-06	-6.901373e-08	-3.618468e-10	-4.793429e-01	-2.868611e+01
1.840000e-06	-2.209263e-08	-3.464939e-10	-1.534469e-01	-2.754543e+01
1.850000e-06	2.473576e-08	-3.313818e-10	1.718051e-01	-2.637207e+01
1.860000e-06	7.159753e-08	-3.150639e-10	4.972890e-01	-2.516572e+01
1.870000e-06	1.184581e-07	-2.985071e-10	8.227643e-01	-2.392622e+01
1.880000e-06	1.653042e-07	-2.811447e-10	1.148140e+00	-2.265356e+01
1.890000e-06	2.121466e-07	-2.633072e-10	1.473489e+00	-2.134790e+01
1.900000e-06	2.590152e-07	-2.466306e-10	1.799020e+00	-2.000955e+01
1.910000e-06	3.058347e-07	-2.278869e-10	2.124211e+00	-1.863902e+01
1.920000e-06	3.526087e-07	-2.070627e-10	2.449085e+00	-1.723702e+01
1.930000e-06	3.993745e-07	-1.873176e-10	2.773902e+00	-1.580444e+01
1.940000e-06	4.461537e-07	-1.669315e-10	3.098813e+00	-1.434236e+01
1.950000e-06	4.929677e-07	-1.445358e-10	3.423964e+00	-1.285206e+01
1.960000e-06	5.396960e-07	-1.233915e-10	3.748521e+00	-1.133502e+01
1.970000e-06	5.863137e-07	-1.034055e-10	4.072310e+00	-9.792869e+00
1.980000e-06	6.328274e-07	-8.299256e-11	4.395376e+00	-8.227448e+00
1.990000e-06	6.792191e-07	-6.193677e-11	4.717595e+00	-6.640736e+00
2.000000e-06	7.255443e-07	-3.963440e-11	5.039352e+00	-5.034865e+00
2.010000e-06	7.717991e-07	-1.535567e-11	5.360620e+00	-3.412094e+00
2.020000e-06	8.180512e-07	1.099891e-11	5.681869e+00	-1.774798e+00
2.030000e-06	8.643018e-07	3.526783e-11	6.003108e+00	-1.254400e-01
2.040000e-06	9.104500e-07	5.530288e-11	6.323636e+00	1.533444e+00
2.050000e-06	9.565046e-07	7.544255e-11	6.643514e+00	3.199270e+00
2.060000e-06	1.002551e-06	9.754326e-11	6.963337e+00	4.869428e+00
2.070000e-06	1.048590e-06	1.197762e-10	7.283106e+00	6.541302e+00
2.080000e-06	1.094477e-06	1.445080e-10	7.601817e+00	8.212298e+00
2.090000e-06	1.140232e-06	1.714419e-10	7.919614e+00	9.879857e+00
2.100000e-06	1.185984e-06	1.965203e-10	8.237386e+00	1.154149e+01
2.110000e-06	1.231672e-06	2.189861e-10	8.554723e+00	1.319477e+01
2.120000e-06	1.277283e-06	2.405049e-10	8.871519e+00	1.483739e+01
2.130000e-06	1.322844e-06	2.609527e-10	9.187964e+00	1.646715e+01
2.140000e-06	1.368251e-06	2.800204e-10	9.503350e+00	1.808197e+01
2.150000e-06	1.413532e-06	3.013080e-10	9.817852e+00	1.967992e+01
2.160000e-06	1.458794e-06	3.250311e-10	1.013222e+01	2.125920e+01
2.170000e-06	1.503974e-06	3.478737e-10	1.044602e+01	2.281819e+01
2.180000e-06	1.549055e-06	3.701581e-10	1.075914e+01	2.435542e+01
2.190000e-06	1.594071e-06	3.919693e-10	1.107180e+01	2.586959e+01
2.200000e-06	1.638925e-06	4.131101e-10	1.138335e+01	2.735953e+01
2.210000e-06	1.683599e-06	4.318973e-10	1.169363e+01	2.882427e+01
2.220000e-06	1.728137e-06	4.487516e-10	1.200297e+01	3.026297e+01
2.230000e-06	1.772479e-06	4.665625e-10	1.231096e+01	3.167494e+01
2.240000e-06	1.816715e-06	4.852371e-10	1.261821e+01	3.305964e+01
2.250000e-06	1.860886e-06	5.025080e-10	1.292500e+01	3.441664e+01
2.260000e-06	1.904910e-06	5.194342e-10	1.323077e+01	3.574563e+01
2.270000e-06	1.948819e-06	5.388778e-10	1.353575e+01	3.704643e+01
2.280000e-06	1.992657e-06	5.587155e-10	1.384023e+01	3.831893e+01
2.290000e-06	2.036447e-06	5.769701e-10	1.414438e+01	3.956311e+01
2.300000e-06	2.080173e-06	5.940007e-10	1.444808e+01	4.077901e+01
2.310000e-06	2.123850e-06	6.091701e-10	1.475145e+01	4.196674e+01
2.320000e-06	2.167427e-06	6.230303e-10	1.505412e+01	4.312644e+01
2.330000e-06	2.210866e-06	6.360409e-10	1.535582e+01	4.425830e+01
2.340000e-06	2.254146e-06	6.486589e-10	1.565643e+01	4.536252e+01
2.350000e-06	2.297324e-06	6.623278e-10	1.595633e+01	4.643932e+01
2.360000e-06	2.340431e-06	6.771910e-10	1.625574e+01	4.748893e+01
2.370000e-06	2.383292e-06	6.895480e-10	1.655343e+01	4.851158e+01
2.380000e-06	2.425837e-06	6.993501e-10	1.684894e+01	4.950750e+01
2.390000e-06	2.468114e-06	7.111981e-10	1.714257e+01	5.047691e+01
2.400000e-06	2.510051e-06	7.255880e-10	1.743385e+01	5.142003e+01
2.410000e-06	2.551590e-06	7.397156e-10	1.772236e+01	5.233707e+01
2.420000e-06	2.592751e-06	7.520213e-10	1.800825e+01	5.322823e+01
2.430000e-06	2.633588e-06	7.637921e-10	1.829189e+01	5.409370e+01
2.440000e-06	2.674184e-06	7.750882e-10	1.857386e+01	5.493369e+01
2.450000e-06	2.714534e-06	7.857169e-10	1.885411e+01	5.574839e+01
2.460000e-06	2.754679e-06	7.946528e-10	1.913294e+01	5.653801e+01
2.470000e-06	2.794721e-06	8.038209e-10	1.941106e+01	5.730276e+01
2.480000e-06	2.834662e-06	8.147105e-10	1.968847e+01	5.804289e+01
2.490000e-06	2.874429e-06	8.256447e-10	1.996468e+01	5.875864e+01
2.500000e-06	2.914050e-06	8.357482e-10	2.023987e+01	5.945030e+01
2.510000e-06	2.953636e-06	8.440972e-10	2.051482e+01	6.011819e+01
2.520000e-06	2.993083e-06	8.495352e-10	2.078880e+01	6.076265e+01
2.530000e-06	3.032282e-06	8.543454e-10	2.106107e+01	6.138408e+01
2.540000e-06	3.071231e-06	8.626938e-10	2.133159e+01	6.198291e+01
2.550000e-06	3.109935e-06	8.724793e-10	2.160042e+01	6.255960e+01
2.560000e-06	3.148448e-06	8.802838e-10	2.186791e+01	6.311468e+01
2.570000e-06	3.186705e-06	8.868657e-10	2.213363e+01	6.364871e+01
2.580000e-06	3.224657e-06	8.924105e-10	2.239723e+01	6.416228e+01
2.590000e-06	3.262488e-06	8.961714e-10	2.265999e+01	6.465605e+01
2.600000e-06	3.300248e-06	9.011480e-10	2.292226e+01	6.513068e+01
2.610000e-06	3.337820e-06	9.083480e-10	2.318322e+01	6.558688e+01
2.620000e-06	3.375121e-06	9.154293e-10	2.344229e+01	6.602540e+01
2.630000e-06	3.412124e-06	9.223227e-10	2.369930e+01	6.644698e+01
2.640000e-06	3.448823e-06	9.285495e-10	2.395420e+01	6.685241e+01
2.650000e-06	3.485173e-06	9.334350e-10	2.420667e+01	6.724247e+01
2.660000e-06	3.521298e-06	9.379401e-10	2.445758e+01	6.761793e+01
2.670000e-06	3.557284e-06	9.424132e-10	2.470753e+01	6.797958e+01
2.680000e-06	3.593121e-06	9.478752e-10	2.495644e+01	6.832820e+01
2.690000e-06	3.628840e-06	9.548037e-10	2.520453e+01	6.866453e+01
2.700000e-06	3.664449e-06	9.619520e-10	2.545186e+01	6.898930e+01
2.710000e-06	3.699913e-06	9.690996e-10	2.569818e+01	6.930322e+01
2.720000e-06	3.735147e-06	9.766114e-10	2.594290e+01	6.960696e+01
2.730000e-06	3.770125e-06	9.840979e-10	2.618584e+01	6.990115e+01
2.740000e-06	3.804805e-06	9.903705e-10	2.642672e+01	7.018638e+01
2.750000e-06	3.838905e-06	9.948147e-10	2.666356e+01	7.046320e+01
2.760000e-06	3.872318e-06	9.980759e-10	2.689563e+01	7.073212e+01
2.770000e-06	3.905285e-06	1.000021e-09	2.712461e+01	7.099359e+01
2.780000e-06	3.937892e-06	1.002861e-09	2.735109e+01	7.124805e+01
2.790000e-06	3.970142e-06	1.009255e-09	2.757508e+01	7.149586e+01
2.800000e-06	4.002130e-06	1.017687e-09	2.779726e+01	7.173734e+01
2.810000e-06	4.033968e-06	1.024115e-09	2.801839e+01	7.197281e+01
2.820000e-06	4.065668e-06	1.028622e-09	2.823857e+01	7.220250e+01
2.830000e-06	4.097249e-06	1.033490e-09	2.845792e+01	7.242664e+01
2.840000e-06	4.128675e-06	1.036586e-09	2.867619e+01	7.264543e+01
2.850000e-06	4.159778e-06	1.038519e-09	2.889222e+01	7.285902e+01
2.860000e-06	4.190588e-06	1.042583e-09	2.910622e+01	7.306756e+01
2.870000e-06	4.220989e-06	1.047399e-09	2.931737e+01	7.327117e+01
2.880000e-06	4.250974e-06	1.050932e-09	2.952563e+01	7.346996e+01
2.890000e-06	4.280700e-06	1.054469e-09	2.973210e+01	7.366402e+01
2.900000e-06	4.310183e-06	1.058794e-09	2.993688e+01	7.385343e+01
