# Temperatura_=_13.3
# Concentracion g/m^3_=_1620.0
# C_Vs_to_Am_M_A/Vsm_=_65563218390.804596
# pendiente_HvsI_1/m_=_3716.3
# ordenada_HvsI_A/m_=_1297.0
# frecuencia_Hz_=_135101.92398759048

Tiempo_(s)	Campo_(V.s)	Magnetizacion_(V.s)	Campo_(kA/m)	Magnetizacion_(A/m)
0.000000e+00	-5.526278e-06	-1.443468e-09	-3.837348e+01	-9.664870e+01
1.000000e-08	-5.526438e-06	-1.442285e-09	-3.837459e+01	-9.661456e+01
2.000000e-08	-5.526404e-06	-1.441920e-09	-3.837435e+01	-9.658273e+01
3.000000e-08	-5.526088e-06	-1.440873e-09	-3.837216e+01	-9.655348e+01
4.000000e-08	-5.525276e-06	-1.440588e-09	-3.836652e+01	-9.652699e+01
5.000000e-08	-5.523856e-06	-1.439405e-09	-3.835666e+01	-9.650340e+01
6.000000e-08	-5.521923e-06	-1.439044e-09	-3.834324e+01	-9.648278e+01
7.000000e-08	-5.519475e-06	-1.438347e-09	-3.832624e+01	-9.646511e+01
8.000000e-08	-5.516437e-06	-1.399658e-09	-3.830514e+01	-9.645031e+01
9.000000e-08	-5.512931e-06	-1.393522e-09	-3.828080e+01	-9.643820e+01
1.000000e-07	-5.508990e-06	-1.497608e-09	-3.825344e+01	-9.642852e+01
1.100000e-07	-5.504576e-06	-1.527472e-09	-3.822279e+01	-9.642092e+01
1.200000e-07	-5.499916e-06	-1.390407e-09	-3.819043e+01	-9.641496e+01
1.300000e-07	-5.495182e-06	-1.333096e-09	-3.815756e+01	-9.641013e+01
1.400000e-07	-5.490147e-06	-1.424535e-09	-3.812260e+01	-9.640583e+01
1.500000e-07	-5.484627e-06	-1.530913e-09	-3.808427e+01	-9.640138e+01
1.600000e-07	-5.478680e-06	-1.386763e-09	-3.804297e+01	-9.639605e+01
1.700000e-07	-5.472462e-06	-1.342546e-09	-3.799979e+01	-9.638904e+01
1.800000e-07	-5.465796e-06	-1.449811e-09	-3.795351e+01	-9.637951e+01
1.900000e-07	-5.458545e-06	-1.576964e-09	-3.790316e+01	-9.636660e+01
2.000000e-07	-5.450959e-06	-1.465400e-09	-3.785048e+01	-9.634940e+01
2.100000e-07	-5.443252e-06	-1.378046e-09	-3.779696e+01	-9.632702e+01
2.200000e-07	-5.435325e-06	-1.426594e-09	-3.774192e+01	-9.629857e+01
2.300000e-07	-5.427083e-06	-1.517412e-09	-3.768469e+01	-9.626316e+01
2.400000e-07	-5.418499e-06	-1.486623e-09	-3.762508e+01	-9.621998e+01
2.500000e-07	-5.409323e-06	-1.435459e-09	-3.756137e+01	-9.616824e+01
2.600000e-07	-5.399216e-06	-1.480116e-09	-3.749119e+01	-9.610722e+01
2.700000e-07	-5.388402e-06	-1.496161e-09	-3.741610e+01	-9.603629e+01
2.800000e-07	-5.377249e-06	-1.460639e-09	-3.733865e+01	-9.595491e+01
2.900000e-07	-5.365669e-06	-1.404008e-09	-3.725824e+01	-9.586261e+01
3.000000e-07	-5.353688e-06	-1.457755e-09	-3.717504e+01	-9.575909e+01
3.100000e-07	-5.341444e-06	-1.471825e-09	-3.709003e+01	-9.564410e+01
3.200000e-07	-5.328820e-06	-1.474902e-09	-3.700236e+01	-9.551757e+01
3.300000e-07	-5.315586e-06	-1.420887e-09	-3.691047e+01	-9.537952e+01
3.400000e-07	-5.301960e-06	-1.472560e-09	-3.681585e+01	-9.523010e+01
3.500000e-07	-5.288152e-06	-1.475189e-09	-3.671998e+01	-9.506961e+01
3.600000e-07	-5.273854e-06	-1.436486e-09	-3.662069e+01	-9.489843e+01
3.700000e-07	-5.259004e-06	-1.386797e-09	-3.651758e+01	-9.471710e+01
3.800000e-07	-5.243929e-06	-1.468367e-09	-3.641290e+01	-9.452623e+01
3.900000e-07	-5.228330e-06	-1.451659e-09	-3.630458e+01	-9.432655e+01
4.000000e-07	-5.211986e-06	-1.383179e-09	-3.619109e+01	-9.411885e+01
4.100000e-07	-5.195208e-06	-1.418530e-09	-3.607459e+01	-9.390402e+01
4.200000e-07	-5.178172e-06	-1.490998e-09	-3.595629e+01	-9.368299e+01
4.300000e-07	-5.160803e-06	-1.384260e-09	-3.583569e+01	-9.345673e+01
4.400000e-07	-5.143159e-06	-1.352828e-09	-3.571317e+01	-9.322624e+01
4.500000e-07	-5.125277e-06	-1.472795e-09	-3.558900e+01	-9.299252e+01
4.600000e-07	-5.106949e-06	-1.444992e-09	-3.546174e+01	-9.275656e+01
4.700000e-07	-5.088082e-06	-1.318626e-09	-3.533073e+01	-9.251933e+01
4.800000e-07	-5.068842e-06	-1.394611e-09	-3.519713e+01	-9.228174e+01
4.900000e-07	-5.049325e-06	-1.460421e-09	-3.506160e+01	-9.204466e+01
5.000000e-07	-5.029521e-06	-1.350850e-09	-3.492409e+01	-9.180888e+01
5.100000e-07	-5.009528e-06	-1.368170e-09	-3.478526e+01	-9.157509e+01
5.200000e-07	-4.989335e-06	-1.458590e-09	-3.464504e+01	-9.134390e+01
5.300000e-07	-4.968768e-06	-1.374320e-09	-3.450223e+01	-9.111581e+01
5.400000e-07	-4.947858e-06	-1.325614e-09	-3.435704e+01	-9.089120e+01
5.500000e-07	-4.926620e-06	-1.442896e-09	-3.420956e+01	-9.067035e+01
5.600000e-07	-4.904977e-06	-1.400934e-09	-3.405928e+01	-9.045338e+01
5.700000e-07	-4.882957e-06	-1.296729e-09	-3.390637e+01	-9.024034e+01
5.800000e-07	-4.860675e-06	-1.363009e-09	-3.375165e+01	-9.003113e+01
5.900000e-07	-4.838160e-06	-1.413699e-09	-3.359531e+01	-8.982555e+01
6.000000e-07	-4.815201e-06	-1.322697e-09	-3.343589e+01	-8.962329e+01
6.100000e-07	-4.791837e-06	-1.348436e-09	-3.327365e+01	-8.942394e+01
6.200000e-07	-4.768223e-06	-1.401192e-09	-3.310968e+01	-8.922700e+01
6.300000e-07	-4.744421e-06	-1.346533e-09	-3.294440e+01	-8.903191e+01
6.400000e-07	-4.720408e-06	-1.316209e-09	-3.277766e+01	-8.883802e+01
6.500000e-07	-4.696122e-06	-1.370722e-09	-3.260903e+01	-8.864467e+01
6.600000e-07	-4.671421e-06	-1.340308e-09	-3.243750e+01	-8.845114e+01
6.700000e-07	-4.646228e-06	-1.312613e-09	-3.226257e+01	-8.825669e+01
6.800000e-07	-4.620592e-06	-1.342650e-09	-3.208456e+01	-8.806058e+01
6.900000e-07	-4.594309e-06	-1.348961e-09	-3.190206e+01	-8.786210e+01
7.000000e-07	-4.567339e-06	-1.315125e-09	-3.171478e+01	-8.766053e+01
7.100000e-07	-4.540000e-06	-1.327127e-09	-3.152495e+01	-8.745522e+01
7.200000e-07	-4.512484e-06	-1.321572e-09	-3.133388e+01	-8.724555e+01
7.300000e-07	-4.484785e-06	-1.295349e-09	-3.114154e+01	-8.703097e+01
7.400000e-07	-4.456865e-06	-1.295457e-09	-3.094767e+01	-8.681099e+01
7.500000e-07	-4.428768e-06	-1.308324e-09	-3.075257e+01	-8.658518e+01
7.600000e-07	-4.400410e-06	-1.295341e-09	-3.055566e+01	-8.635323e+01
7.700000e-07	-4.371733e-06	-1.288453e-09	-3.035653e+01	-8.611487e+01
7.800000e-07	-4.342706e-06	-1.285027e-09	-3.015497e+01	-8.586994e+01
7.900000e-07	-4.313320e-06	-1.266609e-09	-2.995092e+01	-8.561834e+01
8.000000e-07	-4.283626e-06	-1.260732e-09	-2.974473e+01	-8.536007e+01
8.100000e-07	-4.253666e-06	-1.265844e-09	-2.953669e+01	-8.509518e+01
8.200000e-07	-4.223399e-06	-1.259802e-09	-2.932652e+01	-8.482381e+01
8.300000e-07	-4.192872e-06	-1.249529e-09	-2.911455e+01	-8.454614e+01
8.400000e-07	-4.162105e-06	-1.259255e-09	-2.890091e+01	-8.426240e+01
8.500000e-07	-4.130981e-06	-1.251589e-09	-2.868479e+01	-8.397287e+01
8.600000e-07	-4.099626e-06	-1.235388e-09	-2.846706e+01	-8.367785e+01
8.700000e-07	-4.068094e-06	-1.231090e-09	-2.824811e+01	-8.337768e+01
8.800000e-07	-4.036372e-06	-1.233588e-09	-2.802784e+01	-8.307266e+01
8.900000e-07	-4.004539e-06	-1.215488e-09	-2.780680e+01	-8.276313e+01
9.000000e-07	-3.972545e-06	-1.212152e-09	-2.758464e+01	-8.244939e+01
9.100000e-07	-3.940257e-06	-1.213300e-09	-2.736044e+01	-8.213173e+01
9.200000e-07	-3.907558e-06	-1.203332e-09	-2.713338e+01	-8.181039e+01
9.300000e-07	-3.874461e-06	-1.190114e-09	-2.690356e+01	-8.148560e+01
9.400000e-07	-3.841002e-06	-1.199813e-09	-2.667123e+01	-8.115750e+01
9.500000e-07	-3.807002e-06	-1.194114e-09	-2.643514e+01	-8.082622e+01
9.600000e-07	-3.772420e-06	-1.177546e-09	-2.619501e+01	-8.049181e+01
9.700000e-07	-3.737461e-06	-1.168196e-09	-2.595226e+01	-8.015428e+01
9.800000e-07	-3.702189e-06	-1.165155e-09	-2.570734e+01	-7.981358e+01
9.900000e-07	-3.666629e-06	-1.148759e-09	-2.546041e+01	-7.946960e+01
1.000000e-06	-3.630949e-06	-1.143030e-09	-2.521266e+01	-7.912219e+01
1.010000e-06	-3.595193e-06	-1.145268e-09	-2.496437e+01	-7.877116e+01
1.020000e-06	-3.559318e-06	-1.141213e-09	-2.471526e+01	-7.841627e+01
1.030000e-06	-3.523256e-06	-1.132567e-09	-2.446486e+01	-7.805726e+01
1.040000e-06	-3.487026e-06	-1.131782e-09	-2.421328e+01	-7.769385e+01
1.050000e-06	-3.450547e-06	-1.124414e-09	-2.395998e+01	-7.732574e+01
1.060000e-06	-3.413748e-06	-1.110171e-09	-2.370445e+01	-7.695264e+01
1.070000e-06	-3.376642e-06	-1.103665e-09	-2.344679e+01	-7.657425e+01
1.080000e-06	-3.339279e-06	-1.100057e-09	-2.318736e+01	-7.619031e+01
1.090000e-06	-3.301744e-06	-1.093617e-09	-2.292672e+01	-7.580055e+01
1.100000e-06	-3.263935e-06	-1.089407e-09	-2.266418e+01	-7.540478e+01
1.110000e-06	-3.225783e-06	-1.089011e-09	-2.239926e+01	-7.500280e+01
1.120000e-06	-3.187473e-06	-1.081746e-09	-2.213324e+01	-7.459450e+01
1.130000e-06	-3.149072e-06	-1.074032e-09	-2.186659e+01	-7.417980e+01
1.140000e-06	-3.110370e-06	-1.069648e-09	-2.159785e+01	-7.375868e+01
1.150000e-06	-3.071319e-06	-1.064992e-09	-2.132669e+01	-7.333118e+01
1.160000e-06	-3.032118e-06	-1.052845e-09	-2.105448e+01	-7.289739e+01
1.170000e-06	-2.992871e-06	-1.043844e-09	-2.078196e+01	-7.245748e+01
1.180000e-06	-2.953461e-06	-1.035313e-09	-2.050830e+01	-7.201164e+01
1.190000e-06	-2.913904e-06	-1.028536e-09	-2.023362e+01	-7.156014e+01
1.200000e-06	-2.874206e-06	-1.020017e-09	-1.995797e+01	-7.110327e+01
1.210000e-06	-2.834333e-06	-1.015126e-09	-1.968110e+01	-7.064138e+01
1.220000e-06	-2.794346e-06	-1.006182e-09	-1.940343e+01	-7.017482e+01
1.230000e-06	-2.754240e-06	-9.988447e-10	-1.912495e+01	-6.970398e+01
1.240000e-06	-2.713962e-06	-9.917549e-10	-1.884527e+01	-6.922925e+01
1.250000e-06	-2.673484e-06	-9.868604e-10	-1.856419e+01	-6.875101e+01
1.260000e-06	-2.632701e-06	-9.820454e-10	-1.828100e+01	-6.826964e+01
1.270000e-06	-2.591705e-06	-9.752814e-10	-1.799633e+01	-6.778548e+01
1.280000e-06	-2.550580e-06	-9.686581e-10	-1.771077e+01	-6.729885e+01
1.290000e-06	-2.509153e-06	-9.619881e-10	-1.742311e+01	-6.681001e+01
1.300000e-06	-2.467403e-06	-9.524652e-10	-1.713320e+01	-6.631918e+01
1.310000e-06	-2.425374e-06	-9.461089e-10	-1.684136e+01	-6.582649e+01
1.320000e-06	-2.383093e-06	-9.388826e-10	-1.654777e+01	-6.533204e+01
1.330000e-06	-2.340492e-06	-9.298384e-10	-1.625196e+01	-6.483581e+01
1.340000e-06	-2.297454e-06	-9.184905e-10	-1.595311e+01	-6.433774e+01
1.350000e-06	-2.254149e-06	-9.091380e-10	-1.565240e+01	-6.383765e+01
1.360000e-06	-2.210726e-06	-8.984005e-10	-1.535089e+01	-6.333531e+01
1.370000e-06	-2.167187e-06	-8.873858e-10	-1.504856e+01	-6.283037e+01
1.380000e-06	-2.123562e-06	-8.773503e-10	-1.474563e+01	-6.232244e+01
1.390000e-06	-2.079842e-06	-8.686660e-10	-1.444205e+01	-6.181102e+01
1.400000e-06	-2.036080e-06	-8.610220e-10	-1.413818e+01	-6.129555e+01
1.410000e-06	-1.992276e-06	-8.535391e-10	-1.383400e+01	-6.077541e+01
1.420000e-06	-1.948403e-06	-8.473316e-10	-1.352936e+01	-6.024991e+01
1.430000e-06	-1.904423e-06	-8.381972e-10	-1.322397e+01	-5.971833e+01
1.440000e-06	-1.860288e-06	-8.280909e-10	-1.291751e+01	-5.917988e+01
1.450000e-06	-1.815974e-06	-8.167502e-10	-1.260979e+01	-5.863377e+01
1.460000e-06	-1.771593e-06	-8.048893e-10	-1.230163e+01	-5.807917e+01
1.470000e-06	-1.727166e-06	-7.928782e-10	-1.199313e+01	-5.751525e+01
1.480000e-06	-1.682618e-06	-7.840957e-10	-1.168380e+01	-5.694117e+01
1.490000e-06	-1.637844e-06	-7.765639e-10	-1.137290e+01	-5.635611e+01
1.500000e-06	-1.592871e-06	-7.662947e-10	-1.106061e+01	-5.575924e+01
1.510000e-06	-1.547877e-06	-7.536259e-10	-1.074818e+01	-5.514978e+01
1.520000e-06	-1.502792e-06	-7.430251e-10	-1.043512e+01	-5.452696e+01
1.530000e-06	-1.457525e-06	-7.303311e-10	-1.012079e+01	-5.389005e+01
1.540000e-06	-1.412158e-06	-7.193877e-10	-9.805774e+00	-5.323835e+01
1.550000e-06	-1.366754e-06	-7.094719e-10	-9.490492e+00	-5.257120e+01
1.560000e-06	-1.321206e-06	-7.018962e-10	-9.174219e+00	-5.188796e+01
1.570000e-06	-1.275569e-06	-6.920502e-10	-8.857320e+00	-5.118806e+01
1.580000e-06	-1.229867e-06	-6.822057e-10	-8.539975e+00	-5.047092e+01
1.590000e-06	-1.184022e-06	-6.716979e-10	-8.221635e+00	-4.973602e+01
1.600000e-06	-1.138109e-06	-6.602010e-10	-7.902821e+00	-4.898284e+01
1.610000e-06	-1.092167e-06	-6.456859e-10	-7.583814e+00	-4.821089e+01
1.620000e-06	-1.046147e-06	-6.311286e-10	-7.264256e+00	-4.741968e+01
1.630000e-06	-1.000009e-06	-6.207571e-10	-6.943885e+00	-4.660874e+01
1.640000e-06	-9.537923e-07	-6.133139e-10	-6.622962e+00	-4.577758e+01
1.650000e-06	-9.075366e-07	-6.051042e-10	-6.301771e+00	-4.492568e+01
1.660000e-06	-8.611821e-07	-5.919722e-10	-5.979894e+00	-4.405255e+01
1.670000e-06	-8.147445e-07	-5.725898e-10	-5.657439e+00	-4.315762e+01
1.680000e-06	-7.682899e-07	-5.499773e-10	-5.334867e+00	-4.224033e+01
1.690000e-06	-7.218009e-07	-5.310746e-10	-5.012056e+00	-4.130006e+01
1.700000e-06	-6.752393e-07	-5.159369e-10	-4.688741e+00	-4.033617e+01
1.710000e-06	-6.286548e-07	-5.034123e-10	-4.365266e+00	-3.934797e+01
1.720000e-06	-5.820689e-07	-4.929739e-10	-4.041782e+00	-3.833475e+01
1.730000e-06	-5.354672e-07	-4.832472e-10	-3.718188e+00	-3.729574e+01
1.740000e-06	-4.887683e-07	-4.706385e-10	-3.393919e+00	-3.623016e+01
1.750000e-06	-4.419186e-07	-4.536452e-10	-3.068604e+00	-3.513720e+01
1.760000e-06	-3.950231e-07	-4.323226e-10	-2.742969e+00	-3.401605e+01
1.770000e-06	-3.481733e-07	-4.100969e-10	-2.417653e+00	-3.286588e+01
1.780000e-06	-3.014092e-07	-3.894711e-10	-2.092931e+00	-3.168587e+01
1.790000e-06	-2.546669e-07	-3.740965e-10	-1.768361e+00	-3.047523e+01
1.800000e-06	-2.078368e-07	-3.619197e-10	-1.443181e+00	-2.923323e+01
1.810000e-06	-1.609181e-07	-3.490340e-10	-1.117386e+00	-2.795915e+01
1.820000e-06	-1.140649e-07	-3.353772e-10	-7.920464e-01	-2.665238e+01
1.830000e-06	-6.720726e-08	-3.207079e-10	-4.666751e-01	-2.531239e+01
1.840000e-06	-2.023577e-08	-3.017757e-10	-1.405135e-01	-2.393877e+01
1.850000e-06	2.668542e-08	-2.793219e-10	1.852988e-01	-2.253121e+01
1.860000e-06	7.350498e-08	-2.559500e-10	5.104054e-01	-2.108956e+01
1.870000e-06	1.202833e-07	-2.320760e-10	8.352259e-01	-1.961384e+01
1.880000e-06	1.671050e-07	-2.097777e-10	1.160347e+00	-1.810423e+01
1.890000e-06	2.139568e-07	-1.934163e-10	1.485677e+00	-1.656110e+01
1.900000e-06	2.608388e-07	-1.790105e-10	1.811218e+00	-1.498501e+01
1.910000e-06	3.077009e-07	-1.623845e-10	2.136620e+00	-1.337675e+01
1.920000e-06	3.544714e-07	-1.431121e-10	2.461386e+00	-1.173729e+01
1.930000e-06	4.012424e-07	-1.204726e-10	2.786155e+00	-1.006784e+01
1.940000e-06	4.479528e-07	-9.338119e-11	3.110504e+00	-8.369809e+00
1.950000e-06	4.945583e-07	-6.454069e-11	3.434124e+00	-6.644822e+00
1.960000e-06	5.411261e-07	-3.888374e-11	3.757482e+00	-4.894709e+00
1.970000e-06	5.876315e-07	-1.763298e-11	4.080408e+00	-3.121496e+00
1.980000e-06	6.341196e-07	1.892129e-12	4.403213e+00	-1.327391e+00
1.990000e-06	6.805708e-07	2.191844e-11	4.725761e+00	4.852306e-01
2.000000e-06	7.269547e-07	4.620903e-11	5.047842e+00	2.313843e+00
2.010000e-06	7.733030e-07	7.702256e-11	5.369677e+00	4.155789e+00
2.020000e-06	8.195717e-07	1.093636e-10	5.690958e+00	6.008307e+00
2.030000e-06	8.657585e-07	1.400163e-10	6.011672e+00	7.868550e+00
2.040000e-06	9.119455e-07	1.682861e-10	6.332386e+00	9.733613e+00
2.050000e-06	9.581512e-07	1.909534e-10	6.653230e+00	1.160056e+01
2.060000e-06	1.004284e-06	2.129362e-10	6.973564e+00	1.346644e+01
2.070000e-06	1.050314e-06	2.353590e-10	7.293194e+00	1.532835e+01
2.080000e-06	1.096246e-06	2.571984e-10	7.612133e+00	1.718341e+01
2.090000e-06	1.142094e-06	2.838711e-10	7.930498e+00	1.902882e+01
2.100000e-06	1.187856e-06	3.146680e-10	8.248260e+00	2.086188e+01
2.110000e-06	1.233522e-06	3.471119e-10	8.565358e+00	2.268002e+01
2.120000e-06	1.279160e-06	3.767718e-10	8.882256e+00	2.448080e+01
2.130000e-06	1.324739e-06	4.027670e-10	9.198749e+00	2.626194e+01
2.140000e-06	1.370148e-06	4.228976e-10	9.514063e+00	2.802134e+01
2.150000e-06	1.415481e-06	4.406041e-10	9.828844e+00	2.975711e+01
2.160000e-06	1.460746e-06	4.613127e-10	1.014316e+01	3.146752e+01
2.170000e-06	1.505889e-06	4.873786e-10	1.045662e+01	3.315107e+01
2.180000e-06	1.550897e-06	5.140854e-10	1.076915e+01	3.480649e+01
2.190000e-06	1.595731e-06	5.401605e-10	1.108047e+01	3.643267e+01
2.200000e-06	1.640452e-06	5.644741e-10	1.139101e+01	3.802876e+01
2.210000e-06	1.685077e-06	5.833986e-10	1.170087e+01	3.959410e+01
2.220000e-06	1.729594e-06	5.981437e-10	1.200999e+01	4.112820e+01
2.230000e-06	1.773999e-06	6.124606e-10	1.231833e+01	4.263079e+01
2.240000e-06	1.818280e-06	6.292847e-10	1.262581e+01	4.410176e+01
2.250000e-06	1.862488e-06	6.498613e-10	1.293278e+01	4.554115e+01
2.260000e-06	1.906585e-06	6.738394e-10	1.323898e+01	4.694915e+01
2.270000e-06	1.950573e-06	6.982935e-10	1.354443e+01	4.832608e+01
2.280000e-06	1.994498e-06	7.196383e-10	1.384944e+01	4.967235e+01
2.290000e-06	2.038372e-06	7.375005e-10	1.415409e+01	5.098847e+01
2.300000e-06	2.082215e-06	7.537117e-10	1.445852e+01	5.227501e+01
2.310000e-06	2.125957e-06	7.684675e-10	1.476226e+01	5.353259e+01
2.320000e-06	2.169641e-06	7.833715e-10	1.506560e+01	5.476186e+01
2.330000e-06	2.213268e-06	7.981556e-10	1.536853e+01	5.596348e+01
2.340000e-06	2.256722e-06	8.121587e-10	1.567027e+01	5.713812e+01
2.350000e-06	2.299984e-06	8.268280e-10	1.597067e+01	5.828642e+01
2.360000e-06	2.343062e-06	8.435111e-10	1.626980e+01	5.940898e+01
2.370000e-06	2.385883e-06	8.596263e-10	1.656714e+01	6.050638e+01
2.380000e-06	2.428359e-06	8.743513e-10	1.686209e+01	6.157914e+01
2.390000e-06	2.470472e-06	8.883599e-10	1.715452e+01	6.262772e+01
2.400000e-06	2.512251e-06	9.021792e-10	1.744462e+01	6.365252e+01
2.410000e-06	2.553690e-06	9.155132e-10	1.773236e+01	6.465388e+01
2.420000e-06	2.594825e-06	9.280587e-10	1.801800e+01	6.563208e+01
2.430000e-06	2.635713e-06	9.416801e-10	1.830191e+01	6.658732e+01
2.440000e-06	2.676338e-06	9.564646e-10	1.858401e+01	6.751976e+01
2.450000e-06	2.716775e-06	9.707323e-10	1.886479e+01	6.842951e+01
2.460000e-06	2.757028e-06	9.843477e-10	1.914431e+01	6.931662e+01
2.470000e-06	2.797118e-06	9.963573e-10	1.942268e+01	7.018111e+01
2.480000e-06	2.837064e-06	1.009748e-09	1.970006e+01	7.102298e+01
2.490000e-06	2.876875e-06	1.020700e-09	1.997650e+01	7.184220e+01
2.500000e-06	2.916553e-06	1.029132e-09	2.025202e+01	7.263875e+01
2.510000e-06	2.956099e-06	1.037183e-09	2.052662e+01	7.341259e+01
2.520000e-06	2.995578e-06	1.046512e-09	2.080075e+01	7.416371e+01
2.530000e-06	3.034897e-06	1.055985e-09	2.107378e+01	7.489213e+01
2.540000e-06	3.073921e-06	1.065588e-09	2.134475e+01	7.559790e+01
2.550000e-06	3.112643e-06	1.075598e-09	2.161363e+01	7.628110e+01
2.560000e-06	3.151152e-06	1.085120e-09	2.188103e+01	7.694188e+01
2.570000e-06	3.189435e-06	1.094575e-09	2.214686e+01	7.758044e+01
2.580000e-06	3.227463e-06	1.101216e-09	2.241092e+01	7.819704e+01
2.590000e-06	3.265312e-06	1.107741e-09	2.267374e+01	7.879202e+01
2.600000e-06	3.302982e-06	1.115617e-09	2.293531e+01	7.936577e+01
2.610000e-06	3.340431e-06	1.122707e-09	2.319535e+01	7.991878e+01
2.620000e-06	3.377665e-06	1.129610e-09	2.345390e+01	8.045158e+01
2.630000e-06	3.414593e-06	1.136121e-09	2.371032e+01	8.096478e+01
2.640000e-06	3.451145e-06	1.141958e-09	2.396413e+01	8.145906e+01
2.650000e-06	3.487522e-06	1.148115e-09	2.421673e+01	8.193516e+01
2.660000e-06	3.523789e-06	1.153284e-09	2.446855e+01	8.239386e+01
2.670000e-06	3.559821e-06	1.159787e-09	2.471876e+01	8.283600e+01
2.680000e-06	3.595703e-06	1.165865e-09	2.496792e+01	8.326246e+01
2.690000e-06	3.631486e-06	1.172577e-09	2.521639e+01	8.367414e+01
2.700000e-06	3.667149e-06	1.179973e-09	2.546402e+01	8.407198e+01
2.710000e-06	3.702654e-06	1.188010e-09	2.571056e+01	8.445690e+01
2.720000e-06	3.737917e-06	1.196304e-09	2.595542e+01	8.482985e+01
2.730000e-06	3.772881e-06	1.203619e-09	2.619821e+01	8.519177e+01
2.740000e-06	3.807368e-06	1.210751e-09	2.643768e+01	8.554356e+01
2.750000e-06	3.841302e-06	1.216974e-09	2.667331e+01	8.588614e+01
2.760000e-06	3.874717e-06	1.221960e-09	2.690534e+01	8.622034e+01
2.770000e-06	3.907602e-06	1.227168e-09	2.713369e+01	8.654699e+01
2.780000e-06	3.940097e-06	1.234622e-09	2.735933e+01	8.686686e+01
2.790000e-06	3.972382e-06	1.243493e-09	2.758350e+01	8.718065e+01
2.800000e-06	4.004493e-06	1.251006e-09	2.780648e+01	8.748903e+01
2.810000e-06	4.036435e-06	1.256773e-09	2.802828e+01	8.779258e+01
2.820000e-06	4.068236e-06	1.261022e-09	2.824910e+01	8.809183e+01
2.830000e-06	4.099860e-06	1.265655e-09	2.846869e+01	8.838723e+01
2.840000e-06	4.131214e-06	1.270160e-09	2.868641e+01	8.867915e+01
2.850000e-06	4.162213e-06	1.273708e-09	2.890166e+01	8.896793e+01
2.860000e-06	4.192928e-06	1.277894e-09	2.911494e+01	8.925380e+01
2.870000e-06	4.223418e-06	1.284383e-09	2.932666e+01	8.953695e+01
2.880000e-06	4.253564e-06	1.292073e-09	2.953599e+01	8.981748e+01
2.890000e-06	4.283393e-06	1.300030e-09	2.974311e+01	9.009546e+01
2.900000e-06	4.312949e-06	1.308560e-09	2.994834e+01	9.037087e+01
