# Temperatura_=_-12.63
# Concentracion g/m^3_=_1620.0
# C_Vs_to_Am_M_A/Vsm_=_65563218390.804596
# pendiente_HvsI_1/m_=_3716.3
# ordenada_HvsI_A/m_=_1297.0
# frecuencia_Hz_=_135111.57835498432

Tiempo_(s)	Campo_(V.s)	Magnetizacion_(V.s)	Campo_(kA/m)	Magnetizacion_(A/m)
0.000000e+00	-5.524908e-06	-9.041307e-10	-3.837218e+01	-6.184346e+01
1.000000e-08	-5.524992e-06	-9.022036e-10	-3.837276e+01	-6.179009e+01
2.000000e-08	-5.524777e-06	-9.002341e-10	-3.837126e+01	-6.173691e+01
3.000000e-08	-5.524190e-06	-9.000861e-10	-3.836719e+01	-6.168447e+01
4.000000e-08	-5.523099e-06	-8.976577e-10	-3.835961e+01	-6.163335e+01
5.000000e-08	-5.521411e-06	-8.892466e-10	-3.834789e+01	-6.158412e+01
6.000000e-08	-5.519014e-06	-8.794218e-10	-3.833124e+01	-6.153732e+01
7.000000e-08	-5.516017e-06	-8.834126e-10	-3.831043e+01	-6.149347e+01
8.000000e-08	-5.512635e-06	-9.005876e-10	-3.828694e+01	-6.145306e+01
9.000000e-08	-5.508835e-06	-9.009938e-10	-3.826054e+01	-6.141649e+01
1.000000e-07	-5.504573e-06	-8.852812e-10	-3.823095e+01	-6.138411e+01
1.100000e-07	-5.499999e-06	-8.888859e-10	-3.819918e+01	-6.135619e+01
1.200000e-07	-5.495314e-06	-8.875290e-10	-3.816663e+01	-6.133291e+01
1.300000e-07	-5.490399e-06	-8.893055e-10	-3.813250e+01	-6.131436e+01
1.400000e-07	-5.485042e-06	-8.906006e-10	-3.809529e+01	-6.130054e+01
1.500000e-07	-5.479282e-06	-8.980917e-10	-3.805529e+01	-6.129131e+01
1.600000e-07	-5.473201e-06	-9.030305e-10	-3.801305e+01	-6.128649e+01
1.700000e-07	-5.466639e-06	-8.888764e-10	-3.796748e+01	-6.128575e+01
1.800000e-07	-5.459544e-06	-9.139624e-10	-3.791820e+01	-6.128870e+01
1.900000e-07	-5.452181e-06	-9.283617e-10	-3.786706e+01	-6.129484e+01
2.000000e-07	-5.444628e-06	-9.054494e-10	-3.781460e+01	-6.130360e+01
2.100000e-07	-5.436800e-06	-8.823137e-10	-3.776024e+01	-6.131436e+01
2.200000e-07	-5.428687e-06	-9.037889e-10	-3.770389e+01	-6.132642e+01
2.300000e-07	-5.420290e-06	-9.406030e-10	-3.764558e+01	-6.133905e+01
2.400000e-07	-5.411349e-06	-9.407095e-10	-3.758348e+01	-6.135150e+01
2.500000e-07	-5.401552e-06	-9.329443e-10	-3.751543e+01	-6.136299e+01
2.600000e-07	-5.391087e-06	-9.224428e-10	-3.744275e+01	-6.137277e+01
2.700000e-07	-5.380168e-06	-9.201818e-10	-3.736691e+01	-6.138008e+01
2.800000e-07	-5.368742e-06	-9.163557e-10	-3.728756e+01	-6.138422e+01
2.900000e-07	-5.356964e-06	-9.189681e-10	-3.720575e+01	-6.138453e+01
3.000000e-07	-5.344898e-06	-9.148265e-10	-3.712195e+01	-6.138040e+01
3.100000e-07	-5.332412e-06	-9.168863e-10	-3.703524e+01	-6.137133e+01
3.200000e-07	-5.319465e-06	-9.328271e-10	-3.694531e+01	-6.135688e+01
3.300000e-07	-5.306104e-06	-9.369987e-10	-3.685251e+01	-6.133670e+01
3.400000e-07	-5.292388e-06	-9.214340e-10	-3.675725e+01	-6.131055e+01
3.500000e-07	-5.278233e-06	-9.172886e-10	-3.665894e+01	-6.127831e+01
3.600000e-07	-5.263553e-06	-9.221775e-10	-3.655698e+01	-6.123994e+01
3.700000e-07	-5.248373e-06	-9.001901e-10	-3.645156e+01	-6.119552e+01
3.800000e-07	-5.232643e-06	-8.895503e-10	-3.634231e+01	-6.114524e+01
3.900000e-07	-5.216348e-06	-9.141584e-10	-3.622913e+01	-6.108938e+01
4.000000e-07	-5.199711e-06	-9.144421e-10	-3.611358e+01	-6.102830e+01
4.100000e-07	-5.182758e-06	-8.934732e-10	-3.599584e+01	-6.096248e+01
4.200000e-07	-5.165454e-06	-9.103164e-10	-3.587566e+01	-6.089243e+01
4.300000e-07	-5.147904e-06	-9.208792e-10	-3.575377e+01	-6.081875e+01
4.400000e-07	-5.130056e-06	-8.864703e-10	-3.562981e+01	-6.074207e+01
4.500000e-07	-5.111722e-06	-8.820597e-10	-3.550248e+01	-6.066305e+01
4.600000e-07	-5.092939e-06	-9.112005e-10	-3.537202e+01	-6.058239e+01
4.700000e-07	-5.073871e-06	-8.875217e-10	-3.523959e+01	-6.050077e+01
4.800000e-07	-5.054524e-06	-8.690409e-10	-3.510522e+01	-6.041885e+01
4.900000e-07	-5.034948e-06	-9.084209e-10	-3.496926e+01	-6.033730e+01
5.000000e-07	-5.015205e-06	-9.142558e-10	-3.483213e+01	-6.025671e+01
5.100000e-07	-4.995195e-06	-8.747290e-10	-3.469316e+01	-6.017765e+01
5.200000e-07	-4.974803e-06	-8.947963e-10	-3.455153e+01	-6.010060e+01
5.300000e-07	-4.953997e-06	-9.196753e-10	-3.440702e+01	-6.002599e+01
5.400000e-07	-4.932765e-06	-8.812250e-10	-3.425956e+01	-5.995415e+01
5.500000e-07	-4.911258e-06	-8.696082e-10	-3.411019e+01	-5.988534e+01
5.600000e-07	-4.889479e-06	-9.017315e-10	-3.395893e+01	-5.981974e+01
5.700000e-07	-4.867320e-06	-8.780073e-10	-3.380503e+01	-5.975741e+01
5.800000e-07	-4.844785e-06	-8.559457e-10	-3.364851e+01	-5.969836e+01
5.900000e-07	-4.821861e-06	-8.967124e-10	-3.348930e+01	-5.964250e+01
6.000000e-07	-4.798694e-06	-9.091722e-10	-3.332840e+01	-5.958965e+01
6.100000e-07	-4.775301e-06	-8.788603e-10	-3.316592e+01	-5.953957e+01
6.200000e-07	-4.751646e-06	-8.911734e-10	-3.300163e+01	-5.949197e+01
6.300000e-07	-4.727780e-06	-9.061590e-10	-3.283588e+01	-5.944648e+01
6.400000e-07	-4.703660e-06	-8.761702e-10	-3.266836e+01	-5.940271e+01
6.500000e-07	-4.679100e-06	-8.679254e-10	-3.249778e+01	-5.936023e+01
6.600000e-07	-4.653958e-06	-8.902772e-10	-3.232317e+01	-5.931858e+01
6.700000e-07	-4.628338e-06	-8.805359e-10	-3.214522e+01	-5.927733e+01
6.800000e-07	-4.602175e-06	-8.674071e-10	-3.196351e+01	-5.923604e+01
6.900000e-07	-4.575483e-06	-8.885139e-10	-3.177813e+01	-5.919426e+01
7.000000e-07	-4.548397e-06	-8.902830e-10	-3.159001e+01	-5.915162e+01
7.100000e-07	-4.520985e-06	-8.662717e-10	-3.139963e+01	-5.910777e+01
7.200000e-07	-4.493356e-06	-8.664733e-10	-3.120773e+01	-5.906239e+01
7.300000e-07	-4.465560e-06	-8.755219e-10	-3.101468e+01	-5.901524e+01
7.400000e-07	-4.437595e-06	-8.611875e-10	-3.082045e+01	-5.896615e+01
7.500000e-07	-4.409352e-06	-8.600085e-10	-3.062430e+01	-5.891498e+01
7.600000e-07	-4.380798e-06	-8.753543e-10	-3.042598e+01	-5.886169e+01
7.700000e-07	-4.351958e-06	-8.700251e-10	-3.022568e+01	-5.880631e+01
7.800000e-07	-4.322809e-06	-8.587079e-10	-3.002323e+01	-5.874890e+01
7.900000e-07	-4.293371e-06	-8.682503e-10	-2.981878e+01	-5.868963e+01
8.000000e-07	-4.263660e-06	-8.689253e-10	-2.961243e+01	-5.862868e+01
8.100000e-07	-4.233612e-06	-8.572152e-10	-2.940373e+01	-5.856631e+01
8.200000e-07	-4.203258e-06	-8.605830e-10	-2.919291e+01	-5.850282e+01
8.300000e-07	-4.172605e-06	-8.683554e-10	-2.898002e+01	-5.843852e+01
8.400000e-07	-4.141591e-06	-8.617712e-10	-2.876461e+01	-5.837376e+01
8.500000e-07	-4.110284e-06	-8.634342e-10	-2.854718e+01	-5.830889e+01
8.600000e-07	-4.078821e-06	-8.703290e-10	-2.832866e+01	-5.824427e+01
8.700000e-07	-4.047220e-06	-8.622377e-10	-2.810918e+01	-5.818023e+01
8.800000e-07	-4.015440e-06	-8.537435e-10	-2.788846e+01	-5.811709e+01
8.900000e-07	-3.983516e-06	-8.556865e-10	-2.766674e+01	-5.805513e+01
9.000000e-07	-3.951316e-06	-8.501044e-10	-2.744310e+01	-5.799459e+01
9.100000e-07	-3.918755e-06	-8.450690e-10	-2.721695e+01	-5.793564e+01
9.200000e-07	-3.885779e-06	-8.510314e-10	-2.698793e+01	-5.787842e+01
9.300000e-07	-3.852252e-06	-8.524569e-10	-2.675507e+01	-5.782298e+01
9.400000e-07	-3.818215e-06	-8.470416e-10	-2.651867e+01	-5.776932e+01
9.500000e-07	-3.783768e-06	-8.468766e-10	-2.627943e+01	-5.771734e+01
9.600000e-07	-3.748990e-06	-8.423493e-10	-2.603788e+01	-5.766689e+01
9.700000e-07	-3.713941e-06	-8.291128e-10	-2.579446e+01	-5.761774e+01
9.800000e-07	-3.678616e-06	-8.257965e-10	-2.554912e+01	-5.756960e+01
9.900000e-07	-3.643078e-06	-8.297518e-10	-2.530229e+01	-5.752211e+01
1.000000e-06	-3.607436e-06	-8.269562e-10	-2.505475e+01	-5.747486e+01
1.010000e-06	-3.571688e-06	-8.244653e-10	-2.480647e+01	-5.742738e+01
1.020000e-06	-3.535766e-06	-8.312110e-10	-2.455697e+01	-5.737916e+01
1.030000e-06	-3.499641e-06	-8.317978e-10	-2.430608e+01	-5.732968e+01
1.040000e-06	-3.463318e-06	-8.256716e-10	-2.405380e+01	-5.727837e+01
1.050000e-06	-3.426718e-06	-8.239132e-10	-2.379960e+01	-5.722468e+01
1.060000e-06	-3.389782e-06	-8.219429e-10	-2.354307e+01	-5.716803e+01
1.070000e-06	-3.352565e-06	-8.162524e-10	-2.328459e+01	-5.710790e+01
1.080000e-06	-3.315125e-06	-8.158748e-10	-2.302456e+01	-5.704376e+01
1.090000e-06	-3.277469e-06	-8.180334e-10	-2.276302e+01	-5.697512e+01
1.100000e-06	-3.239597e-06	-8.155435e-10	-2.250000e+01	-5.690154e+01
1.110000e-06	-3.201500e-06	-8.143681e-10	-2.223540e+01	-5.682263e+01
1.120000e-06	-3.163172e-06	-8.180956e-10	-2.196920e+01	-5.673807e+01
1.130000e-06	-3.124602e-06	-8.156679e-10	-2.170132e+01	-5.664759e+01
1.140000e-06	-3.085737e-06	-8.091272e-10	-2.143139e+01	-5.655099e+01
1.150000e-06	-3.046702e-06	-8.058642e-10	-2.116027e+01	-5.644816e+01
1.160000e-06	-3.007511e-06	-8.011707e-10	-2.088809e+01	-5.633903e+01
1.170000e-06	-2.968189e-06	-7.951293e-10	-2.061498e+01	-5.622363e+01
1.180000e-06	-2.928800e-06	-7.963109e-10	-2.034141e+01	-5.610204e+01
1.190000e-06	-2.889297e-06	-8.004408e-10	-2.006705e+01	-5.597440e+01
1.200000e-06	-2.849602e-06	-7.986795e-10	-1.979135e+01	-5.584092e+01
1.210000e-06	-2.809630e-06	-7.942729e-10	-1.951374e+01	-5.570184e+01
1.220000e-06	-2.769495e-06	-7.921184e-10	-1.923499e+01	-5.555746e+01
1.230000e-06	-2.729240e-06	-7.885514e-10	-1.895541e+01	-5.540809e+01
1.240000e-06	-2.688773e-06	-7.854791e-10	-1.867435e+01	-5.525408e+01
1.250000e-06	-2.648078e-06	-7.882762e-10	-1.839171e+01	-5.509578e+01
1.260000e-06	-2.607118e-06	-7.902043e-10	-1.810723e+01	-5.493354e+01
1.270000e-06	-2.565869e-06	-7.885821e-10	-1.782075e+01	-5.476770e+01
1.280000e-06	-2.524376e-06	-7.856291e-10	-1.753257e+01	-5.459858e+01
1.290000e-06	-2.482578e-06	-7.812496e-10	-1.724226e+01	-5.442647e+01
1.300000e-06	-2.440457e-06	-7.727332e-10	-1.694972e+01	-5.425161e+01
1.310000e-06	-2.398066e-06	-7.668117e-10	-1.665530e+01	-5.407421e+01
1.320000e-06	-2.355366e-06	-7.673923e-10	-1.635874e+01	-5.389442e+01
1.330000e-06	-2.312386e-06	-7.694886e-10	-1.606023e+01	-5.371232e+01
1.340000e-06	-2.269203e-06	-7.720419e-10	-1.576031e+01	-5.352793e+01
1.350000e-06	-2.225843e-06	-7.738431e-10	-1.545916e+01	-5.334122e+01
1.360000e-06	-2.182366e-06	-7.712700e-10	-1.515720e+01	-5.315208e+01
1.370000e-06	-2.138811e-06	-7.634112e-10	-1.485470e+01	-5.296033e+01
1.380000e-06	-2.095137e-06	-7.565482e-10	-1.455137e+01	-5.276573e+01
1.390000e-06	-2.051319e-06	-7.532365e-10	-1.424704e+01	-5.256797e+01
1.400000e-06	-2.007467e-06	-7.504361e-10	-1.394248e+01	-5.236670e+01
1.410000e-06	-1.963607e-06	-7.501402e-10	-1.363785e+01	-5.216150e+01
1.420000e-06	-1.919678e-06	-7.516394e-10	-1.333275e+01	-5.195191e+01
1.430000e-06	-1.875677e-06	-7.499004e-10	-1.302715e+01	-5.173742e+01
1.440000e-06	-1.831532e-06	-7.438793e-10	-1.272055e+01	-5.151749e+01
1.450000e-06	-1.787207e-06	-7.361995e-10	-1.241270e+01	-5.129157e+01
1.460000e-06	-1.742756e-06	-7.279896e-10	-1.210397e+01	-5.105906e+01
1.470000e-06	-1.698238e-06	-7.197019e-10	-1.179478e+01	-5.081937e+01
1.480000e-06	-1.653569e-06	-7.165655e-10	-1.148454e+01	-5.057190e+01
1.490000e-06	-1.608698e-06	-7.159600e-10	-1.117290e+01	-5.031603e+01
1.500000e-06	-1.563660e-06	-7.130209e-10	-1.086010e+01	-5.005116e+01
1.510000e-06	-1.518513e-06	-7.100486e-10	-1.054654e+01	-4.977670e+01
1.520000e-06	-1.473365e-06	-7.082981e-10	-1.023297e+01	-4.949206e+01
1.530000e-06	-1.428122e-06	-7.052421e-10	-9.918744e+00	-4.919665e+01
1.540000e-06	-1.382751e-06	-6.993439e-10	-9.603626e+00	-4.888993e+01
1.550000e-06	-1.337257e-06	-6.929788e-10	-9.287657e+00	-4.857134e+01
1.560000e-06	-1.291630e-06	-6.855702e-10	-8.970764e+00	-4.824034e+01
1.570000e-06	-1.245948e-06	-6.785117e-10	-8.653487e+00	-4.789638e+01
1.580000e-06	-1.200158e-06	-6.731456e-10	-8.335466e+00	-4.753895e+01
1.590000e-06	-1.154282e-06	-6.694366e-10	-8.016843e+00	-4.716752e+01
1.600000e-06	-1.108416e-06	-6.657391e-10	-7.698290e+00	-4.678153e+01
1.610000e-06	-1.062486e-06	-6.594306e-10	-7.379288e+00	-4.638046e+01
1.620000e-06	-1.016386e-06	-6.521496e-10	-7.059109e+00	-4.596373e+01
1.630000e-06	-9.701689e-07	-6.460364e-10	-6.738120e+00	-4.553076e+01
1.640000e-06	-9.239102e-07	-6.398312e-10	-6.416839e+00	-4.508094e+01
1.650000e-06	-8.776766e-07	-6.312251e-10	-6.095732e+00	-4.461363e+01
1.660000e-06	-8.314304e-07	-6.211829e-10	-5.774538e+00	-4.412813e+01
1.670000e-06	-7.850224e-07	-6.114549e-10	-5.452221e+00	-4.362374e+01
1.680000e-06	-7.385454e-07	-6.009558e-10	-5.129424e+00	-4.309970e+01
1.690000e-06	-6.921327e-07	-5.912107e-10	-4.807073e+00	-4.255519e+01
1.700000e-06	-6.456534e-07	-5.820885e-10	-4.484261e+00	-4.198939e+01
1.710000e-06	-5.991083e-07	-5.732872e-10	-4.160990e+00	-4.140141e+01
1.720000e-06	-5.524797e-07	-5.667997e-10	-3.837140e+00	-4.079032e+01
1.730000e-06	-5.057669e-07	-5.598779e-10	-3.512706e+00	-4.015520e+01
1.740000e-06	-4.590152e-07	-5.495477e-10	-3.188001e+00	-3.949505e+01
1.750000e-06	-4.122895e-07	-5.357038e-10	-2.863477e+00	-3.880891e+01
1.760000e-06	-3.655895e-07	-5.214080e-10	-2.539131e+00	-3.809578e+01
1.770000e-06	-3.187716e-07	-5.089347e-10	-2.213966e+00	-3.735467e+01
1.780000e-06	-2.719101e-07	-4.989107e-10	-1.888499e+00	-3.658464e+01
1.790000e-06	-2.250521e-07	-4.901823e-10	-1.563055e+00	-3.578474e+01
1.800000e-06	-1.781772e-07	-4.796417e-10	-1.237495e+00	-3.495409e+01
1.810000e-06	-1.313527e-07	-4.676392e-10	-9.122848e-01	-3.409187e+01
1.820000e-06	-8.450929e-08	-4.554734e-10	-5.869429e-01	-3.319733e+01
1.830000e-06	-3.763639e-08	-4.439427e-10	-2.613962e-01	-3.226981e+01
1.840000e-06	9.221010e-09	-4.328609e-10	6.404273e-02	-3.130877e+01
1.850000e-06	5.607747e-08	-4.196290e-10	3.894752e-01	-3.031377e+01
1.860000e-06	1.029166e-07	-4.039912e-10	7.147872e-01	-2.928450e+01
1.870000e-06	1.497630e-07	-3.861164e-10	1.040150e+00	-2.822080e+01
1.880000e-06	1.965314e-07	-3.687441e-10	1.364970e+00	-2.712267e+01
1.890000e-06	2.432877e-07	-3.536369e-10	1.689707e+00	-2.599027e+01
1.900000e-06	2.900966e-07	-3.382911e-10	2.014810e+00	-2.482391e+01
1.910000e-06	3.368733e-07	-3.221048e-10	2.339688e+00	-2.362410e+01
1.920000e-06	3.836114e-07	-3.059589e-10	2.664298e+00	-2.239150e+01
1.930000e-06	4.303168e-07	-2.895289e-10	2.988682e+00	-2.112696e+01
1.940000e-06	4.769904e-07	-2.739159e-10	3.312844e+00	-1.983151e+01
1.950000e-06	5.235727e-07	-2.577013e-10	3.636372e+00	-1.850635e+01
1.960000e-06	5.700170e-07	-2.404299e-10	3.958943e+00	-1.715283e+01
1.970000e-06	6.165485e-07	-2.213694e-10	4.282118e+00	-1.577248e+01
1.980000e-06	6.631500e-07	-2.001506e-10	4.605780e+00	-1.436696e+01
1.990000e-06	7.096335e-07	-1.783283e-10	4.928622e+00	-1.293808e+01
2.000000e-06	7.560492e-07	-1.555735e-10	5.250993e+00	-1.148777e+01
2.010000e-06	8.023467e-07	-1.339560e-10	5.572544e+00	-1.001806e+01
2.020000e-06	8.485829e-07	-1.162539e-10	5.893668e+00	-8.531096e+00
2.030000e-06	8.948626e-07	-1.006105e-10	6.215094e+00	-7.029077e+00
2.040000e-06	9.411144e-07	-8.371176e-11	6.536327e+00	-5.514281e+00
2.050000e-06	9.872910e-07	-6.241115e-11	6.857038e+00	-3.989026e+00
2.060000e-06	1.033361e-06	-3.665612e-11	7.177007e+00	-2.455657e+00
2.070000e-06	1.079358e-06	-1.167296e-11	7.496474e+00	-9.165321e-01
2.080000e-06	1.125228e-06	1.360794e-11	7.815051e+00	6.259981e-01
2.090000e-06	1.170918e-06	3.722527e-11	8.132384e+00	2.169603e+00
2.100000e-06	1.216563e-06	5.530981e-11	8.449401e+00	3.711986e+00
2.110000e-06	1.262123e-06	6.932794e-11	8.765832e+00	5.250903e+00
2.120000e-06	1.307591e-06	8.596006e-11	9.081617e+00	6.784169e+00
2.130000e-06	1.353051e-06	1.075452e-10	9.397353e+00	8.309672e+00
2.140000e-06	1.398478e-06	1.305348e-10	9.712857e+00	9.825383e+00
2.150000e-06	1.443806e-06	1.555241e-10	1.002767e+01	1.132936e+01
2.160000e-06	1.489000e-06	1.807888e-10	1.034156e+01	1.281978e+01
2.170000e-06	1.534079e-06	2.029164e-10	1.065465e+01	1.429488e+01
2.180000e-06	1.579083e-06	2.205600e-10	1.096721e+01	1.575305e+01
2.190000e-06	1.623969e-06	2.360547e-10	1.127896e+01	1.719277e+01
2.200000e-06	1.668663e-06	2.534043e-10	1.158937e+01	1.861262e+01
2.210000e-06	1.713179e-06	2.725347e-10	1.189855e+01	2.001132e+01
2.220000e-06	1.757520e-06	2.925743e-10	1.220651e+01	2.138767e+01
2.230000e-06	1.801741e-06	3.119079e-10	1.251365e+01	2.274061e+01
2.240000e-06	1.845816e-06	3.290839e-10	1.281976e+01	2.406917e+01
2.250000e-06	1.889775e-06	3.460522e-10	1.312507e+01	2.537249e+01
2.260000e-06	1.933729e-06	3.645655e-10	1.343034e+01	2.664982e+01
2.270000e-06	1.977634e-06	3.839883e-10	1.373528e+01	2.790049e+01
2.280000e-06	2.021443e-06	4.023788e-10	1.403954e+01	2.912394e+01
2.290000e-06	2.065179e-06	4.211574e-10	1.434330e+01	3.031971e+01
2.300000e-06	2.108837e-06	4.391567e-10	1.464652e+01	3.148740e+01
2.310000e-06	2.152404e-06	4.544774e-10	1.494911e+01	3.262672e+01
2.320000e-06	2.195925e-06	4.687214e-10	1.525137e+01	3.373746e+01
2.330000e-06	2.239331e-06	4.810334e-10	1.555284e+01	3.481947e+01
2.340000e-06	2.282551e-06	4.932165e-10	1.585302e+01	3.587270e+01
2.350000e-06	2.325563e-06	5.078446e-10	1.615175e+01	3.689715e+01
2.360000e-06	2.368331e-06	5.228557e-10	1.644878e+01	3.789289e+01
2.370000e-06	2.410890e-06	5.361665e-10	1.674437e+01	3.886009e+01
2.380000e-06	2.453245e-06	5.497326e-10	1.703854e+01	3.979893e+01
2.390000e-06	2.495279e-06	5.632272e-10	1.733048e+01	4.070971e+01
2.400000e-06	2.536949e-06	5.753456e-10	1.761989e+01	4.159274e+01
2.410000e-06	2.578268e-06	5.874074e-10	1.790686e+01	4.244842e+01
2.420000e-06	2.619361e-06	5.992198e-10	1.819226e+01	4.327718e+01
2.430000e-06	2.660274e-06	6.111982e-10	1.847642e+01	4.407952e+01
2.440000e-06	2.700845e-06	6.208808e-10	1.875819e+01	4.485598e+01
2.450000e-06	2.741129e-06	6.288704e-10	1.903798e+01	4.560713e+01
2.460000e-06	2.781182e-06	6.382238e-10	1.931616e+01	4.633359e+01
2.470000e-06	2.821054e-06	6.486796e-10	1.959308e+01	4.703600e+01
2.480000e-06	2.860868e-06	6.600537e-10	1.986960e+01	4.771505e+01
2.490000e-06	2.900585e-06	6.721205e-10	2.014545e+01	4.837143e+01
2.500000e-06	2.940147e-06	6.838421e-10	2.042022e+01	4.900585e+01
2.510000e-06	2.979522e-06	6.926769e-10	2.069369e+01	4.961902e+01
2.520000e-06	3.018735e-06	6.977295e-10	2.096604e+01	5.021166e+01
2.530000e-06	3.057813e-06	7.011012e-10	2.123745e+01	5.078449e+01
2.540000e-06	3.096627e-06	7.054002e-10	2.150702e+01	5.133820e+01
2.550000e-06	3.135087e-06	7.112468e-10	2.177414e+01	5.187346e+01
2.560000e-06	3.173317e-06	7.196061e-10	2.203966e+01	5.239092e+01
2.570000e-06	3.211401e-06	7.279193e-10	2.230416e+01	5.289119e+01
2.580000e-06	3.249342e-06	7.343826e-10	2.256768e+01	5.337485e+01
2.590000e-06	3.287101e-06	7.406427e-10	2.282992e+01	5.384242e+01
2.600000e-06	3.324585e-06	7.464203e-10	2.309026e+01	5.429437e+01
2.610000e-06	3.361855e-06	7.495659e-10	2.334911e+01	5.473113e+01
2.620000e-06	3.398957e-06	7.512966e-10	2.360680e+01	5.515305e+01
2.630000e-06	3.435807e-06	7.554002e-10	2.386273e+01	5.556045e+01
2.640000e-06	3.472356e-06	7.590029e-10	2.411658e+01	5.595358e+01
2.650000e-06	3.508608e-06	7.627964e-10	2.436836e+01	5.633262e+01
2.660000e-06	3.544619e-06	7.694724e-10	2.461846e+01	5.669772e+01
2.670000e-06	3.580457e-06	7.742249e-10	2.486737e+01	5.704897e+01
2.680000e-06	3.616187e-06	7.771095e-10	2.511553e+01	5.738641e+01
2.690000e-06	3.651804e-06	7.822839e-10	2.536290e+01	5.771006e+01
2.700000e-06	3.687259e-06	7.860106e-10	2.560914e+01	5.801988e+01
2.710000e-06	3.722518e-06	7.889184e-10	2.585403e+01	5.831584e+01
2.720000e-06	3.757571e-06	7.926874e-10	2.609748e+01	5.859789e+01
2.730000e-06	3.792352e-06	7.952003e-10	2.633905e+01	5.886595e+01
2.740000e-06	3.826659e-06	7.986080e-10	2.657732e+01	5.911998e+01
2.750000e-06	3.860378e-06	8.048646e-10	2.681150e+01	5.935995e+01
2.760000e-06	3.893546e-06	8.117126e-10	2.704187e+01	5.958584e+01
2.770000e-06	3.926289e-06	8.167137e-10	2.726928e+01	5.979770e+01
2.780000e-06	3.958682e-06	8.210022e-10	2.749426e+01	5.999558e+01
2.790000e-06	3.990788e-06	8.254305e-10	2.771724e+01	6.017964e+01
2.800000e-06	4.022655e-06	8.291980e-10	2.793857e+01	6.035006e+01
2.810000e-06	4.054346e-06	8.318033e-10	2.815867e+01	6.050710e+01
2.820000e-06	4.085965e-06	8.355683e-10	2.837828e+01	6.065111e+01
2.830000e-06	4.117401e-06	8.391697e-10	2.859661e+01	6.078249e+01
2.840000e-06	4.148584e-06	8.416349e-10	2.881318e+01	6.090174e+01
2.850000e-06	4.179491e-06	8.448325e-10	2.902784e+01	6.100943e+01
2.860000e-06	4.210011e-06	8.488950e-10	2.923982e+01	6.110618e+01
2.870000e-06	4.240153e-06	8.523773e-10	2.944916e+01	6.119273e+01
2.880000e-06	4.270047e-06	8.554576e-10	2.965678e+01	6.126985e+01
2.890000e-06	4.299741e-06	8.598870e-10	2.986302e+01	6.133837e+01
2.900000e-06	4.329150e-06	8.645569e-10	3.006727e+01	6.139919e+01
