# Temperatura_=_-3.77
# Concentracion g/m^3_=_1620.0
# C_Vs_to_Am_M_A/Vsm_=_65563218390.804596
# pendiente_HvsI_1/m_=_3716.3
# ordenada_HvsI_A/m_=_1297.0
# frecuencia_Hz_=_135108.08466996616

Tiempo_(s)	Campo_(V.s)	Magnetizacion_(V.s)	Campo_(kA/m)	Magnetizacion_(A/m)
0.000000e+00	-5.532715e-06	-1.129717e-09	-3.836701e+01	-7.666801e+01
1.000000e-08	-5.532957e-06	-1.126776e-09	-3.836869e+01	-7.663724e+01
2.000000e-08	-5.532914e-06	-1.123697e-09	-3.836840e+01	-7.660590e+01
3.000000e-08	-5.532513e-06	-1.120659e-09	-3.836561e+01	-7.657449e+01
4.000000e-08	-5.531666e-06	-1.117801e-09	-3.835974e+01	-7.654356e+01
5.000000e-08	-5.530307e-06	-1.114363e-09	-3.835031e+01	-7.651365e+01
6.000000e-08	-5.528443e-06	-1.114234e-09	-3.833739e+01	-7.648534e+01
7.000000e-08	-5.525927e-06	-1.126494e-09	-3.831994e+01	-7.645921e+01
8.000000e-08	-5.522842e-06	-1.132683e-09	-3.829855e+01	-7.643581e+01
9.000000e-08	-5.519309e-06	-1.108916e-09	-3.827405e+01	-7.641565e+01
1.000000e-07	-5.515322e-06	-1.061289e-09	-3.824640e+01	-7.639921e+01
1.100000e-07	-5.510997e-06	-1.053933e-09	-3.821641e+01	-7.638690e+01
1.200000e-07	-5.506475e-06	-1.118521e-09	-3.818505e+01	-7.637904e+01
1.300000e-07	-5.501722e-06	-1.150141e-09	-3.815209e+01	-7.637588e+01
1.400000e-07	-5.496552e-06	-1.087434e-09	-3.811624e+01	-7.637756e+01
1.500000e-07	-5.491034e-06	-1.058223e-09	-3.807797e+01	-7.638410e+01
1.600000e-07	-5.485221e-06	-1.106319e-09	-3.803767e+01	-7.639543e+01
1.700000e-07	-5.479003e-06	-1.166884e-09	-3.799454e+01	-7.641134e+01
1.800000e-07	-5.472247e-06	-1.104565e-09	-3.794769e+01	-7.643152e+01
1.900000e-07	-5.465094e-06	-1.076363e-09	-3.789809e+01	-7.645552e+01
2.000000e-07	-5.457725e-06	-1.118739e-09	-3.784699e+01	-7.648280e+01
2.100000e-07	-5.450085e-06	-1.168975e-09	-3.779401e+01	-7.651269e+01
2.200000e-07	-5.442143e-06	-1.135607e-09	-3.773894e+01	-7.654444e+01
2.300000e-07	-5.433971e-06	-1.105933e-09	-3.768227e+01	-7.657721e+01
2.400000e-07	-5.425395e-06	-1.127893e-09	-3.762279e+01	-7.661007e+01
2.500000e-07	-5.416142e-06	-1.165551e-09	-3.755863e+01	-7.664205e+01
2.600000e-07	-5.406132e-06	-1.164406e-09	-3.748921e+01	-7.667214e+01
2.700000e-07	-5.395441e-06	-1.136089e-09	-3.741507e+01	-7.669930e+01
2.800000e-07	-5.384303e-06	-1.139234e-09	-3.733784e+01	-7.672249e+01
2.900000e-07	-5.372799e-06	-1.157089e-09	-3.725806e+01	-7.674068e+01
3.000000e-07	-5.360967e-06	-1.160701e-09	-3.717602e+01	-7.675288e+01
3.100000e-07	-5.348775e-06	-1.130277e-09	-3.709147e+01	-7.675816e+01
3.200000e-07	-5.336109e-06	-1.151900e-09	-3.700364e+01	-7.675565e+01
3.300000e-07	-5.323121e-06	-1.178330e-09	-3.691357e+01	-7.674458e+01
3.400000e-07	-5.309800e-06	-1.179350e-09	-3.682119e+01	-7.672428e+01
3.500000e-07	-5.295991e-06	-1.133998e-09	-3.672543e+01	-7.669419e+01
3.600000e-07	-5.281717e-06	-1.148208e-09	-3.662645e+01	-7.665389e+01
3.700000e-07	-5.266990e-06	-1.163406e-09	-3.652432e+01	-7.660308e+01
3.800000e-07	-5.251810e-06	-1.149325e-09	-3.641906e+01	-7.654163e+01
3.900000e-07	-5.236078e-06	-1.132601e-09	-3.630997e+01	-7.646953e+01
4.000000e-07	-5.219859e-06	-1.166540e-09	-3.619749e+01	-7.638692e+01
4.100000e-07	-5.203293e-06	-1.153506e-09	-3.608261e+01	-7.629410e+01
4.200000e-07	-5.186355e-06	-1.121661e-09	-3.596516e+01	-7.619150e+01
4.300000e-07	-5.169142e-06	-1.143118e-09	-3.584579e+01	-7.607966e+01
4.400000e-07	-5.151633e-06	-1.168022e-09	-3.572437e+01	-7.595928e+01
4.500000e-07	-5.133660e-06	-1.110011e-09	-3.559974e+01	-7.583113e+01
4.600000e-07	-5.115182e-06	-1.095809e-09	-3.547160e+01	-7.569610e+01
4.700000e-07	-5.096300e-06	-1.148833e-09	-3.534066e+01	-7.555512e+01
4.800000e-07	-5.077113e-06	-1.138767e-09	-3.520761e+01	-7.540922e+01
4.900000e-07	-5.057576e-06	-1.094809e-09	-3.507213e+01	-7.525945e+01
5.000000e-07	-5.037829e-06	-1.132106e-09	-3.493519e+01	-7.510686e+01
5.100000e-07	-5.017934e-06	-1.153179e-09	-3.479723e+01	-7.495253e+01
5.200000e-07	-4.997772e-06	-1.101549e-09	-3.465741e+01	-7.479751e+01
5.300000e-07	-4.977312e-06	-1.109208e-09	-3.451553e+01	-7.464280e+01
5.400000e-07	-4.956542e-06	-1.144224e-09	-3.437150e+01	-7.448936e+01
5.500000e-07	-4.935383e-06	-1.098677e-09	-3.422477e+01	-7.433807e+01
5.600000e-07	-4.913852e-06	-1.069920e-09	-3.407546e+01	-7.418973e+01
5.700000e-07	-4.892015e-06	-1.122994e-09	-3.392403e+01	-7.404501e+01
5.800000e-07	-4.869873e-06	-1.116329e-09	-3.377048e+01	-7.390451e+01
5.900000e-07	-4.847316e-06	-1.074834e-09	-3.361407e+01	-7.376868e+01
6.000000e-07	-4.824310e-06	-1.099452e-09	-3.345453e+01	-7.363785e+01
6.100000e-07	-4.800973e-06	-1.119438e-09	-3.329269e+01	-7.351224e+01
6.200000e-07	-4.777402e-06	-1.074365e-09	-3.312924e+01	-7.339192e+01
6.300000e-07	-4.753657e-06	-1.076907e-09	-3.296458e+01	-7.327684e+01
6.400000e-07	-4.729678e-06	-1.103403e-09	-3.279829e+01	-7.316681e+01
6.500000e-07	-4.705381e-06	-1.085914e-09	-3.262981e+01	-7.306154e+01
6.600000e-07	-4.680614e-06	-1.070714e-09	-3.245806e+01	-7.296063e+01
6.700000e-07	-4.655287e-06	-1.097749e-09	-3.228243e+01	-7.286358e+01
6.800000e-07	-4.629436e-06	-1.090619e-09	-3.210316e+01	-7.276979e+01
6.900000e-07	-4.603065e-06	-1.073221e-09	-3.192029e+01	-7.267860e+01
7.000000e-07	-4.576305e-06	-1.082722e-09	-3.173472e+01	-7.258930e+01
7.100000e-07	-4.549141e-06	-1.085409e-09	-3.154634e+01	-7.250111e+01
7.200000e-07	-4.521576e-06	-1.061353e-09	-3.135520e+01	-7.241324e+01
7.300000e-07	-4.493844e-06	-1.061473e-09	-3.116289e+01	-7.232489e+01
7.400000e-07	-4.465969e-06	-1.068079e-09	-3.096959e+01	-7.223525e+01
7.500000e-07	-4.437882e-06	-1.057768e-09	-3.077481e+01	-7.214353e+01
7.600000e-07	-4.409565e-06	-1.051659e-09	-3.057845e+01	-7.204898e+01
7.700000e-07	-4.380962e-06	-1.059508e-09	-3.038010e+01	-7.195089e+01
7.800000e-07	-4.352039e-06	-1.054187e-09	-3.017953e+01	-7.184860e+01
7.900000e-07	-4.322755e-06	-1.044909e-09	-2.997646e+01	-7.174152e+01
8.000000e-07	-4.293120e-06	-1.045710e-09	-2.977095e+01	-7.162912e+01
8.100000e-07	-4.263207e-06	-1.039514e-09	-2.956352e+01	-7.151097e+01
8.200000e-07	-4.233015e-06	-1.031541e-09	-2.935415e+01	-7.138670e+01
8.300000e-07	-4.202617e-06	-1.036439e-09	-2.914336e+01	-7.125605e+01
8.400000e-07	-4.171927e-06	-1.038519e-09	-2.893053e+01	-7.111882e+01
8.500000e-07	-4.140822e-06	-1.029750e-09	-2.871483e+01	-7.097491e+01
8.600000e-07	-4.109411e-06	-1.032931e-09	-2.849701e+01	-7.082429e+01
8.700000e-07	-4.077859e-06	-1.034646e-09	-2.827821e+01	-7.066704e+01
8.800000e-07	-4.046180e-06	-1.025234e-09	-2.805853e+01	-7.050326e+01
8.900000e-07	-4.014357e-06	-1.018910e-09	-2.783785e+01	-7.033315e+01
9.000000e-07	-3.982373e-06	-1.022249e-09	-2.761605e+01	-7.015697e+01
9.100000e-07	-3.950034e-06	-1.014781e-09	-2.739180e+01	-6.997499e+01
9.200000e-07	-3.917262e-06	-1.012103e-09	-2.716453e+01	-6.978756e+01
9.300000e-07	-3.884079e-06	-1.017511e-09	-2.693443e+01	-6.959504e+01
9.400000e-07	-3.850475e-06	-1.017249e-09	-2.670140e+01	-6.939781e+01
9.500000e-07	-3.816498e-06	-1.007982e-09	-2.646578e+01	-6.919626e+01
9.600000e-07	-3.782120e-06	-1.008742e-09	-2.622738e+01	-6.899078e+01
9.700000e-07	-3.747328e-06	-1.004488e-09	-2.598612e+01	-6.878175e+01
9.800000e-07	-3.712163e-06	-9.923324e-10	-2.574226e+01	-6.856953e+01
9.900000e-07	-3.676677e-06	-9.870681e-10	-2.549619e+01	-6.835448e+01
1.000000e-06	-3.641013e-06	-9.904157e-10	-2.524887e+01	-6.813690e+01
1.010000e-06	-3.605277e-06	-9.843866e-10	-2.500105e+01	-6.791708e+01
1.020000e-06	-3.569398e-06	-9.803218e-10	-2.475225e+01	-6.769526e+01
1.030000e-06	-3.533332e-06	-9.823750e-10	-2.450214e+01	-6.747163e+01
1.040000e-06	-3.497074e-06	-9.798278e-10	-2.425071e+01	-6.724635e+01
1.050000e-06	-3.460529e-06	-9.709665e-10	-2.399729e+01	-6.701955e+01
1.060000e-06	-3.423714e-06	-9.667678e-10	-2.374199e+01	-6.679129e+01
1.070000e-06	-3.386633e-06	-9.633406e-10	-2.348485e+01	-6.656160e+01
1.080000e-06	-3.349249e-06	-9.571463e-10	-2.322561e+01	-6.633048e+01
1.090000e-06	-3.311601e-06	-9.582478e-10	-2.296454e+01	-6.609787e+01
1.100000e-06	-3.273740e-06	-9.599674e-10	-2.270199e+01	-6.586370e+01
1.110000e-06	-3.235742e-06	-9.539608e-10	-2.243849e+01	-6.562785e+01
1.120000e-06	-3.197570e-06	-9.500821e-10	-2.217378e+01	-6.539019e+01
1.130000e-06	-3.159098e-06	-9.516863e-10	-2.190699e+01	-6.515056e+01
1.140000e-06	-3.120289e-06	-9.458227e-10	-2.163787e+01	-6.490879e+01
1.150000e-06	-3.081255e-06	-9.381301e-10	-2.136719e+01	-6.466468e+01
1.160000e-06	-3.042058e-06	-9.348219e-10	-2.109537e+01	-6.441804e+01
1.170000e-06	-3.002694e-06	-9.317595e-10	-2.082240e+01	-6.416866e+01
1.180000e-06	-2.963173e-06	-9.266348e-10	-2.054833e+01	-6.391633e+01
1.190000e-06	-2.923476e-06	-9.252468e-10	-2.027306e+01	-6.366086e+01
1.200000e-06	-2.883705e-06	-9.256131e-10	-1.999726e+01	-6.340203e+01
1.210000e-06	-2.843873e-06	-9.220167e-10	-1.972104e+01	-6.313965e+01
1.220000e-06	-2.803909e-06	-9.150685e-10	-1.944391e+01	-6.287352e+01
1.230000e-06	-2.763812e-06	-9.097429e-10	-1.916586e+01	-6.260346e+01
1.240000e-06	-2.723557e-06	-9.013224e-10	-1.888671e+01	-6.232929e+01
1.250000e-06	-2.683078e-06	-8.946931e-10	-1.860600e+01	-6.205084e+01
1.260000e-06	-2.642346e-06	-8.906375e-10	-1.832354e+01	-6.176795e+01
1.270000e-06	-2.601368e-06	-8.885221e-10	-1.803938e+01	-6.148047e+01
1.280000e-06	-2.560078e-06	-8.843401e-10	-1.775305e+01	-6.118823e+01
1.290000e-06	-2.518459e-06	-8.826828e-10	-1.746444e+01	-6.089110e+01
1.300000e-06	-2.476596e-06	-8.800170e-10	-1.717413e+01	-6.058894e+01
1.310000e-06	-2.434365e-06	-8.728103e-10	-1.688128e+01	-6.028160e+01
1.320000e-06	-2.391745e-06	-8.651762e-10	-1.658573e+01	-5.996895e+01
1.330000e-06	-2.348817e-06	-8.585728e-10	-1.628804e+01	-5.965084e+01
1.340000e-06	-2.305665e-06	-8.521543e-10	-1.598880e+01	-5.932715e+01
1.350000e-06	-2.262344e-06	-8.478834e-10	-1.568839e+01	-5.899772e+01
1.360000e-06	-2.218846e-06	-8.466259e-10	-1.538675e+01	-5.866242e+01
1.370000e-06	-2.175271e-06	-8.447674e-10	-1.508458e+01	-5.832109e+01
1.380000e-06	-2.131631e-06	-8.385755e-10	-1.478195e+01	-5.797359e+01
1.390000e-06	-2.087918e-06	-8.315289e-10	-1.447882e+01	-5.761976e+01
1.400000e-06	-2.044135e-06	-8.252659e-10	-1.417520e+01	-5.725943e+01
1.410000e-06	-2.000252e-06	-8.183554e-10	-1.387089e+01	-5.689245e+01
1.420000e-06	-1.956268e-06	-8.121970e-10	-1.356588e+01	-5.651863e+01
1.430000e-06	-1.912167e-06	-8.074835e-10	-1.326006e+01	-5.613781e+01
1.440000e-06	-1.867928e-06	-8.021662e-10	-1.295328e+01	-5.574979e+01
1.450000e-06	-1.823609e-06	-7.956309e-10	-1.264595e+01	-5.535440e+01
1.460000e-06	-1.779227e-06	-7.895269e-10	-1.233818e+01	-5.495142e+01
1.470000e-06	-1.734747e-06	-7.807803e-10	-1.202973e+01	-5.454065e+01
1.480000e-06	-1.690050e-06	-7.714116e-10	-1.171977e+01	-5.412187e+01
1.490000e-06	-1.645187e-06	-7.631264e-10	-1.140867e+01	-5.369484e+01
1.500000e-06	-1.600243e-06	-7.551683e-10	-1.109700e+01	-5.325931e+01
1.510000e-06	-1.555260e-06	-7.465518e-10	-1.078506e+01	-5.281502e+01
1.520000e-06	-1.510143e-06	-7.408303e-10	-1.047220e+01	-5.236168e+01
1.530000e-06	-1.464800e-06	-7.354942e-10	-1.015776e+01	-5.189896e+01
1.540000e-06	-1.419381e-06	-7.262456e-10	-9.842800e+00	-5.142652e+01
1.550000e-06	-1.373898e-06	-7.135561e-10	-9.527397e+00	-5.094399e+01
1.560000e-06	-1.328309e-06	-7.022714e-10	-9.211254e+00	-5.045094e+01
1.570000e-06	-1.282576e-06	-6.933278e-10	-8.894113e+00	-4.994692e+01
1.580000e-06	-1.236770e-06	-6.855986e-10	-8.576474e+00	-4.943142e+01
1.590000e-06	-1.190913e-06	-6.817255e-10	-8.258476e+00	-4.890389e+01
1.600000e-06	-1.144952e-06	-6.818144e-10	-7.939755e+00	-4.836371e+01
1.610000e-06	-1.098878e-06	-6.781066e-10	-7.620251e+00	-4.781023e+01
1.620000e-06	-1.052802e-06	-6.695844e-10	-7.300734e+00	-4.724272e+01
1.630000e-06	-1.006710e-06	-6.590808e-10	-6.981104e+00	-4.666039e+01
1.640000e-06	-9.604424e-07	-6.479358e-10	-6.660257e+00	-4.606240e+01
1.650000e-06	-9.140771e-07	-6.371455e-10	-6.338734e+00	-4.544785e+01
1.660000e-06	-8.677243e-07	-6.279307e-10	-6.017297e+00	-4.481578e+01
1.670000e-06	-8.213493e-07	-6.187165e-10	-5.695706e+00	-4.416516e+01
1.680000e-06	-7.749344e-07	-6.080504e-10	-5.373838e+00	-4.349494e+01
1.690000e-06	-7.285143e-07	-5.966783e-10	-5.051935e+00	-4.280399e+01
1.700000e-06	-6.820176e-07	-5.844315e-10	-4.729501e+00	-4.209117e+01
1.710000e-06	-6.353743e-07	-5.713534e-10	-4.406049e+00	-4.135530e+01
1.720000e-06	-5.886353e-07	-5.606554e-10	-4.081934e+00	-4.059518e+01
1.730000e-06	-5.418428e-07	-5.507705e-10	-3.757448e+00	-3.980962e+01
1.740000e-06	-4.950519e-07	-5.388213e-10	-3.432973e+00	-3.899740e+01
1.750000e-06	-4.483101e-07	-5.261002e-10	-3.108839e+00	-3.815735e+01
1.760000e-06	-4.015249e-07	-5.111166e-10	-2.784404e+00	-3.728833e+01
1.770000e-06	-3.546749e-07	-4.958405e-10	-2.459519e+00	-3.638923e+01
1.780000e-06	-3.077581e-07	-4.820888e-10	-2.134171e+00	-3.545902e+01
1.790000e-06	-2.608029e-07	-4.701700e-10	-1.808557e+00	-3.449674e+01
1.800000e-06	-2.138845e-07	-4.575865e-10	-1.483198e+00	-3.350154e+01
1.810000e-06	-1.669676e-07	-4.424326e-10	-1.157849e+00	-3.247265e+01
1.820000e-06	-1.200588e-07	-4.253497e-10	-8.325563e-01	-3.140944e+01
1.830000e-06	-7.314544e-08	-4.081081e-10	-5.072323e-01	-3.031143e+01
1.840000e-06	-2.617364e-08	-3.912197e-10	-1.815030e-01	-2.917828e+01
1.850000e-06	2.077248e-08	-3.742598e-10	1.440483e-01	-2.800979e+01
1.860000e-06	6.767664e-08	-3.563080e-10	4.693086e-01	-2.680596e+01
1.870000e-06	1.146044e-07	-3.362824e-10	7.947324e-01	-2.556696e+01
1.880000e-06	1.616266e-07	-3.163085e-10	1.120811e+00	-2.429313e+01
1.890000e-06	2.086445e-07	-2.992775e-10	1.446861e+00	-2.298500e+01
1.900000e-06	2.555563e-07	-2.829392e-10	1.772173e+00	-2.164329e+01
1.910000e-06	3.024063e-07	-2.661888e-10	2.097058e+00	-2.026892e+01
1.920000e-06	3.492461e-07	-2.489384e-10	2.421873e+00	-1.886298e+01
1.930000e-06	3.961089e-07	-2.306734e-10	2.746846e+00	-1.742672e+01
1.940000e-06	4.429399e-07	-2.082986e-10	3.071599e+00	-1.596159e+01
1.950000e-06	4.897176e-07	-1.833278e-10	3.395982e+00	-1.446917e+01
1.960000e-06	5.364154e-07	-1.622982e-10	3.719812e+00	-1.295122e+01
1.970000e-06	5.830775e-07	-1.441727e-10	4.043393e+00	-1.140961e+01
1.980000e-06	6.297322e-07	-1.247274e-10	4.366923e+00	-9.846320e+00
1.990000e-06	6.763577e-07	-1.043738e-10	4.690251e+00	-8.263459e+00
2.000000e-06	7.229330e-07	-8.220071e-11	5.013231e+00	-6.663204e+00
2.010000e-06	7.693550e-07	-5.550206e-11	5.335148e+00	-5.047802e+00
2.020000e-06	8.156385e-07	-2.727539e-11	5.656104e+00	-3.419546e+00
2.030000e-06	8.618790e-07	-1.117248e-12	5.976762e+00	-1.780762e+00
2.040000e-06	9.081292e-07	2.166574e-11	6.297488e+00	-1.337853e-01
2.050000e-06	9.543270e-07	4.386611e-11	6.617850e+00	1.519054e+00
2.060000e-06	1.000362e-06	6.574395e-11	6.937085e+00	3.175448e+00
2.070000e-06	1.046372e-06	8.587781e-11	7.256140e+00	4.833130e+00
2.080000e-06	1.092406e-06	1.065323e-10	7.575370e+00	6.489885e+00
2.090000e-06	1.138397e-06	1.314012e-10	7.894296e+00	8.143566e+00
2.100000e-06	1.184313e-06	1.567381e-10	8.212701e+00	9.792101e+00
2.110000e-06	1.230035e-06	1.798618e-10	8.529768e+00	1.143351e+01
2.120000e-06	1.275694e-06	2.047193e-10	8.846394e+00	1.306590e+01
2.130000e-06	1.321413e-06	2.283650e-10	9.163433e+00	1.468748e+01
2.140000e-06	1.366995e-06	2.499420e-10	9.479523e+00	1.629658e+01
2.150000e-06	1.412360e-06	2.698758e-10	9.794113e+00	1.789162e+01
2.160000e-06	1.457648e-06	2.907731e-10	1.010817e+01	1.947112e+01
2.170000e-06	1.502849e-06	3.135516e-10	1.042161e+01	2.103373e+01
2.180000e-06	1.547927e-06	3.348954e-10	1.073421e+01	2.257819e+01
2.190000e-06	1.592895e-06	3.538917e-10	1.104604e+01	2.410332e+01
2.200000e-06	1.637743e-06	3.749890e-10	1.135705e+01	2.560807e+01
2.210000e-06	1.682525e-06	3.954616e-10	1.166759e+01	2.709146e+01
2.220000e-06	1.727137e-06	4.138553e-10	1.197696e+01	2.855258e+01
2.230000e-06	1.771578e-06	4.309356e-10	1.228514e+01	2.999060e+01
2.240000e-06	1.815940e-06	4.469213e-10	1.259276e+01	3.140478e+01
2.250000e-06	1.860128e-06	4.620080e-10	1.289919e+01	3.279441e+01
2.260000e-06	1.904205e-06	4.771364e-10	1.320485e+01	3.415884e+01
2.270000e-06	1.948282e-06	4.979291e-10	1.351050e+01	3.549748e+01
2.280000e-06	1.992240e-06	5.203830e-10	1.381533e+01	3.680978e+01
2.290000e-06	2.036075e-06	5.410757e-10	1.411931e+01	3.809521e+01
2.300000e-06	2.079861e-06	5.603724e-10	1.442295e+01	3.935330e+01
2.310000e-06	2.123627e-06	5.761072e-10	1.472644e+01	4.058360e+01
2.320000e-06	2.167307e-06	5.897756e-10	1.502935e+01	4.178570e+01
2.330000e-06	2.210825e-06	6.037535e-10	1.533112e+01	4.295920e+01
2.340000e-06	2.254197e-06	6.178675e-10	1.563189e+01	4.410376e+01
2.350000e-06	2.297457e-06	6.331397e-10	1.593188e+01	4.521906e+01
2.360000e-06	2.340589e-06	6.486187e-10	1.623098e+01	4.630483e+01
2.370000e-06	2.383411e-06	6.637471e-10	1.652794e+01	4.736084e+01
2.380000e-06	2.425985e-06	6.777230e-10	1.682317e+01	4.838691e+01
2.390000e-06	2.468321e-06	6.914798e-10	1.711675e+01	4.938290e+01
2.400000e-06	2.510271e-06	7.047748e-10	1.740766e+01	5.034875e+01
2.410000e-06	2.551889e-06	7.177014e-10	1.769626e+01	5.128446e+01
2.420000e-06	2.593290e-06	7.307735e-10	1.798335e+01	5.219008e+01
2.430000e-06	2.634365e-06	7.445087e-10	1.826820e+01	5.306576e+01
2.440000e-06	2.675086e-06	7.569878e-10	1.855058e+01	5.391172e+01
2.450000e-06	2.715675e-06	7.682741e-10	1.883205e+01	5.472826e+01
2.460000e-06	2.756068e-06	7.796667e-10	1.911215e+01	5.551576e+01
2.470000e-06	2.796250e-06	7.913334e-10	1.939080e+01	5.627472e+01
2.480000e-06	2.836309e-06	8.033134e-10	1.966859e+01	5.700567e+01
2.490000e-06	2.876214e-06	8.153254e-10	1.994532e+01	5.770928e+01
2.500000e-06	2.915943e-06	8.264348e-10	2.022082e+01	5.838627e+01
2.510000e-06	2.955514e-06	8.343037e-10	2.049523e+01	5.903744e+01
2.520000e-06	2.994955e-06	8.391252e-10	2.076873e+01	5.966367e+01
2.530000e-06	3.034156e-06	8.446683e-10	2.104058e+01	6.026590e+01
2.540000e-06	3.073110e-06	8.514626e-10	2.131070e+01	6.084513e+01
2.550000e-06	3.111868e-06	8.591600e-10	2.157947e+01	6.140240e+01
2.560000e-06	3.150448e-06	8.684462e-10	2.184701e+01	6.193878e+01
2.570000e-06	3.188883e-06	8.777845e-10	2.211354e+01	6.245538e+01
2.580000e-06	3.227130e-06	8.856596e-10	2.237876e+01	6.295330e+01
2.590000e-06	3.265201e-06	8.928986e-10	2.264278e+01	6.343366e+01
2.600000e-06	3.303085e-06	9.000436e-10	2.290548e+01	6.389754e+01
2.610000e-06	3.340709e-06	9.063126e-10	2.316639e+01	6.434603e+01
2.620000e-06	3.377991e-06	9.128155e-10	2.342492e+01	6.478013e+01
2.630000e-06	3.414957e-06	9.207851e-10	2.368127e+01	6.520085e+01
2.640000e-06	3.451667e-06	9.289757e-10	2.393583e+01	6.560909e+01
2.650000e-06	3.488122e-06	9.350852e-10	2.418863e+01	6.600570e+01
2.660000e-06	3.524371e-06	9.416501e-10	2.444001e+01	6.639147e+01
2.670000e-06	3.560473e-06	9.481959e-10	2.469036e+01	6.676709e+01
2.680000e-06	3.596463e-06	9.525168e-10	2.493993e+01	6.713316e+01
2.690000e-06	3.632285e-06	9.573556e-10	2.518835e+01	6.749021e+01
2.700000e-06	3.667890e-06	9.626360e-10	2.543525e+01	6.783866e+01
2.710000e-06	3.703337e-06	9.657763e-10	2.568106e+01	6.817885e+01
2.720000e-06	3.738639e-06	9.703954e-10	2.592587e+01	6.851104e+01
2.730000e-06	3.773584e-06	9.774230e-10	2.616819e+01	6.883541e+01
2.740000e-06	3.808026e-06	9.830800e-10	2.640703e+01	6.915206e+01
2.750000e-06	3.842002e-06	9.883825e-10	2.664264e+01	6.946103e+01
2.760000e-06	3.875562e-06	9.947464e-10	2.687537e+01	6.976230e+01
2.770000e-06	3.908798e-06	9.999278e-10	2.710584e+01	7.005582e+01
2.780000e-06	3.941721e-06	1.004579e-09	2.733415e+01	7.034149e+01
2.790000e-06	3.974273e-06	1.009596e-09	2.755988e+01	7.061918e+01
2.800000e-06	4.006505e-06	1.013383e-09	2.778340e+01	7.088878e+01
2.810000e-06	4.038505e-06	1.016158e-09	2.800531e+01	7.115014e+01
2.820000e-06	4.070239e-06	1.020014e-09	2.822537e+01	7.140316e+01
2.830000e-06	4.101754e-06	1.024923e-09	2.844391e+01	7.164774e+01
2.840000e-06	4.133050e-06	1.028185e-09	2.866094e+01	7.188382e+01
2.850000e-06	4.164058e-06	1.031289e-09	2.887596e+01	7.211138e+01
2.860000e-06	4.194810e-06	1.036433e-09	2.908921e+01	7.233045e+01
2.870000e-06	4.225323e-06	1.042242e-09	2.930081e+01	7.254112e+01
2.880000e-06	4.255565e-06	1.048273e-09	2.951052e+01	7.274351e+01
2.890000e-06	4.285414e-06	1.054177e-09	2.971752e+01	7.293785e+01
2.900000e-06	4.314999e-06	1.058845e-09	2.992267e+01	7.312437e+01
