# Temperatura_=_-9.58
# Concentracion g/m^3_=_1620.0
# C_Vs_to_Am_M_A/Vsm_=_65563218390.804596
# pendiente_HvsI_1/m_=_3716.3
# ordenada_HvsI_A/m_=_1297.0
# frecuencia_Hz_=_135108.7436956233

Tiempo_(s)	Campo_(V.s)	Magnetizacion_(V.s)	Campo_(kA/m)	Magnetizacion_(A/m)
0.000000e+00	-5.523163e-06	-9.561929e-10	-3.837327e+01	-6.510166e+01
1.000000e-08	-5.523433e-06	-9.548742e-10	-3.837515e+01	-6.509211e+01
2.000000e-08	-5.523403e-06	-9.513673e-10	-3.837494e+01	-6.508249e+01
3.000000e-08	-5.522967e-06	-9.476947e-10	-3.837191e+01	-6.507268e+01
4.000000e-08	-5.522028e-06	-9.442162e-10	-3.836539e+01	-6.506257e+01
5.000000e-08	-5.520657e-06	-9.411710e-10	-3.835586e+01	-6.505212e+01
6.000000e-08	-5.518689e-06	-9.372382e-10	-3.834219e+01	-6.504128e+01
7.000000e-08	-5.516014e-06	-9.448686e-10	-3.832360e+01	-6.503004e+01
8.000000e-08	-5.512820e-06	-9.474712e-10	-3.830141e+01	-6.501839e+01
9.000000e-08	-5.509156e-06	-9.197200e-10	-3.827596e+01	-6.500636e+01
1.000000e-07	-5.505078e-06	-9.305157e-10	-3.824762e+01	-6.499396e+01
1.100000e-07	-5.500674e-06	-1.028299e-09	-3.821703e+01	-6.498122e+01
1.200000e-07	-5.495997e-06	-9.925253e-10	-3.818453e+01	-6.496814e+01
1.300000e-07	-5.491047e-06	-8.893514e-10	-3.815014e+01	-6.495473e+01
1.400000e-07	-5.485784e-06	-8.945537e-10	-3.811358e+01	-6.494098e+01
1.500000e-07	-5.480202e-06	-9.962295e-10	-3.807479e+01	-6.492684e+01
1.600000e-07	-5.474243e-06	-1.030626e-09	-3.803339e+01	-6.491225e+01
1.700000e-07	-5.467894e-06	-8.923660e-10	-3.798928e+01	-6.489710e+01
1.800000e-07	-5.461187e-06	-8.998232e-10	-3.794268e+01	-6.488127e+01
1.900000e-07	-5.454071e-06	-1.012897e-09	-3.789324e+01	-6.486459e+01
2.000000e-07	-5.446503e-06	-1.034230e-09	-3.784066e+01	-6.484685e+01
2.100000e-07	-5.438683e-06	-9.173227e-10	-3.778633e+01	-6.482781e+01
2.200000e-07	-5.430808e-06	-9.076759e-10	-3.773162e+01	-6.480720e+01
2.300000e-07	-5.422627e-06	-1.009021e-09	-3.767478e+01	-6.478472e+01
2.400000e-07	-5.413902e-06	-1.045448e-09	-3.761416e+01	-6.476004e+01
2.500000e-07	-5.404603e-06	-9.828006e-10	-3.754956e+01	-6.473283e+01
2.600000e-07	-5.394627e-06	-9.553913e-10	-3.748024e+01	-6.470272e+01
2.700000e-07	-5.383905e-06	-9.875460e-10	-3.740575e+01	-6.466935e+01
2.800000e-07	-5.372657e-06	-9.803711e-10	-3.732760e+01	-6.463238e+01
2.900000e-07	-5.361104e-06	-9.579679e-10	-3.724733e+01	-6.459146e+01
3.000000e-07	-5.349194e-06	-9.551825e-10	-3.716459e+01	-6.454626e+01
3.100000e-07	-5.336854e-06	-9.919960e-10	-3.707886e+01	-6.449649e+01
3.200000e-07	-5.324170e-06	-1.010904e-09	-3.699073e+01	-6.444189e+01
3.300000e-07	-5.311108e-06	-9.939899e-10	-3.689998e+01	-6.438227e+01
3.400000e-07	-5.297539e-06	-9.485294e-10	-3.680570e+01	-6.431745e+01
3.500000e-07	-5.283543e-06	-9.697433e-10	-3.670846e+01	-6.424735e+01
3.600000e-07	-5.269213e-06	-9.852409e-10	-3.660891e+01	-6.417192e+01
3.700000e-07	-5.254394e-06	-9.387587e-10	-3.650594e+01	-6.409120e+01
3.800000e-07	-5.238990e-06	-9.350150e-10	-3.639893e+01	-6.400530e+01
3.900000e-07	-5.223159e-06	-1.014424e-09	-3.628894e+01	-6.391438e+01
4.000000e-07	-5.206845e-06	-9.707288e-10	-3.617559e+01	-6.381870e+01
4.100000e-07	-5.190020e-06	-8.977797e-10	-3.605870e+01	-6.371855e+01
4.200000e-07	-5.172899e-06	-9.731410e-10	-3.593974e+01	-6.361432e+01
4.300000e-07	-5.155563e-06	-1.013959e-09	-3.581930e+01	-6.350644e+01
4.400000e-07	-5.137919e-06	-8.879386e-10	-3.569672e+01	-6.339539e+01
4.500000e-07	-5.119918e-06	-9.058831e-10	-3.557165e+01	-6.328170e+01
4.600000e-07	-5.101525e-06	-1.028273e-09	-3.544386e+01	-6.316595e+01
4.700000e-07	-5.082662e-06	-9.389845e-10	-3.531281e+01	-6.304871e+01
4.800000e-07	-5.063418e-06	-8.532355e-10	-3.517910e+01	-6.293059e+01
4.900000e-07	-5.043979e-06	-9.852953e-10	-3.504404e+01	-6.281221e+01
5.000000e-07	-5.024335e-06	-9.974630e-10	-3.490757e+01	-6.269417e+01
5.100000e-07	-5.004405e-06	-8.733058e-10	-3.476910e+01	-6.257706e+01
5.200000e-07	-4.984189e-06	-9.484735e-10	-3.462865e+01	-6.246143e+01
5.300000e-07	-4.963687e-06	-1.018714e-09	-3.448620e+01	-6.234781e+01
5.400000e-07	-4.942779e-06	-8.922050e-10	-3.434094e+01	-6.223667e+01
5.500000e-07	-4.921457e-06	-8.912877e-10	-3.419280e+01	-6.212843e+01
5.600000e-07	-4.899833e-06	-1.003605e-09	-3.404256e+01	-6.202347e+01
5.700000e-07	-4.877859e-06	-9.173029e-10	-3.388989e+01	-6.192206e+01
5.800000e-07	-4.855560e-06	-8.566898e-10	-3.373497e+01	-6.182443e+01
5.900000e-07	-4.832953e-06	-9.719514e-10	-3.357790e+01	-6.173074e+01
6.000000e-07	-4.810012e-06	-9.664279e-10	-3.341851e+01	-6.164105e+01
6.100000e-07	-4.786742e-06	-8.711427e-10	-3.325684e+01	-6.155538e+01
6.200000e-07	-4.763179e-06	-9.321210e-10	-3.309313e+01	-6.147364e+01
6.300000e-07	-4.739432e-06	-9.619840e-10	-3.292815e+01	-6.139572e+01
6.400000e-07	-4.715444e-06	-8.825435e-10	-3.276149e+01	-6.132140e+01
6.500000e-07	-4.691113e-06	-8.963971e-10	-3.259244e+01	-6.125044e+01
6.600000e-07	-4.666373e-06	-9.494791e-10	-3.242055e+01	-6.118254e+01
6.700000e-07	-4.641120e-06	-8.998044e-10	-3.224510e+01	-6.111736e+01
6.800000e-07	-4.615309e-06	-8.910192e-10	-3.206578e+01	-6.105452e+01
6.900000e-07	-4.589043e-06	-9.377564e-10	-3.188329e+01	-6.099364e+01
7.000000e-07	-4.562317e-06	-9.174983e-10	-3.169761e+01	-6.093430e+01
7.100000e-07	-4.535122e-06	-8.890699e-10	-3.150866e+01	-6.087610e+01
7.200000e-07	-4.507605e-06	-9.169361e-10	-3.131748e+01	-6.081864e+01
7.300000e-07	-4.479908e-06	-9.126788e-10	-3.112505e+01	-6.076152e+01
7.400000e-07	-4.452059e-06	-8.892443e-10	-3.093156e+01	-6.070439e+01
7.500000e-07	-4.423977e-06	-9.048651e-10	-3.073646e+01	-6.064691e+01
7.600000e-07	-4.395653e-06	-9.111958e-10	-3.053968e+01	-6.058878e+01
7.700000e-07	-4.367086e-06	-8.890086e-10	-3.034120e+01	-6.052972e+01
7.800000e-07	-4.338237e-06	-8.914997e-10	-3.014076e+01	-6.046953e+01
7.900000e-07	-4.309036e-06	-9.005418e-10	-2.993788e+01	-6.040802e+01
8.000000e-07	-4.279469e-06	-8.894999e-10	-2.973246e+01	-6.034505e+01
8.100000e-07	-4.249587e-06	-8.926128e-10	-2.952485e+01	-6.028054e+01
8.200000e-07	-4.219436e-06	-9.057998e-10	-2.931537e+01	-6.021444e+01
8.300000e-07	-4.188996e-06	-8.957394e-10	-2.910388e+01	-6.014672e+01
8.400000e-07	-4.158261e-06	-8.866529e-10	-2.889034e+01	-6.007741e+01
8.500000e-07	-4.127259e-06	-8.990415e-10	-2.867495e+01	-6.000654e+01
8.600000e-07	-4.096017e-06	-8.934959e-10	-2.845789e+01	-5.993418e+01
8.700000e-07	-4.064529e-06	-8.784754e-10	-2.823912e+01	-5.986039e+01
8.800000e-07	-4.032821e-06	-8.846342e-10	-2.801882e+01	-5.978527e+01
8.900000e-07	-4.000997e-06	-8.921576e-10	-2.779772e+01	-5.970888e+01
9.000000e-07	-3.969010e-06	-8.817048e-10	-2.757549e+01	-5.963130e+01
9.100000e-07	-3.936670e-06	-8.863068e-10	-2.735079e+01	-5.955257e+01
9.200000e-07	-3.903957e-06	-8.937565e-10	-2.712351e+01	-5.947272e+01
9.300000e-07	-3.870874e-06	-8.806646e-10	-2.689367e+01	-5.939175e+01
9.400000e-07	-3.837331e-06	-8.711431e-10	-2.666062e+01	-5.930964e+01
9.500000e-07	-3.803360e-06	-8.793581e-10	-2.642460e+01	-5.922630e+01
9.600000e-07	-3.768964e-06	-8.710146e-10	-2.618563e+01	-5.914164e+01
9.700000e-07	-3.734126e-06	-8.575192e-10	-2.594358e+01	-5.905551e+01
9.800000e-07	-3.699001e-06	-8.636911e-10	-2.569954e+01	-5.896773e+01
9.900000e-07	-3.663670e-06	-8.705831e-10	-2.545407e+01	-5.887807e+01
1.000000e-06	-3.628087e-06	-8.611919e-10	-2.520686e+01	-5.878627e+01
1.010000e-06	-3.592300e-06	-8.612163e-10	-2.495822e+01	-5.869206e+01
1.020000e-06	-3.556384e-06	-8.661718e-10	-2.470868e+01	-5.859512e+01
1.030000e-06	-3.520345e-06	-8.583636e-10	-2.445829e+01	-5.849512e+01
1.040000e-06	-3.484148e-06	-8.524419e-10	-2.420681e+01	-5.839172e+01
1.050000e-06	-3.447676e-06	-8.578577e-10	-2.395342e+01	-5.828459e+01
1.060000e-06	-3.410888e-06	-8.545045e-10	-2.369782e+01	-5.817339e+01
1.070000e-06	-3.373885e-06	-8.452246e-10	-2.344074e+01	-5.805778e+01
1.080000e-06	-3.336707e-06	-8.472882e-10	-2.318243e+01	-5.793748e+01
1.090000e-06	-3.299266e-06	-8.494128e-10	-2.292230e+01	-5.781219e+01
1.100000e-06	-3.261501e-06	-8.427894e-10	-2.265993e+01	-5.768170e+01
1.110000e-06	-3.223531e-06	-8.399971e-10	-2.239612e+01	-5.754580e+01
1.120000e-06	-3.185295e-06	-8.425083e-10	-2.213047e+01	-5.740435e+01
1.130000e-06	-3.146809e-06	-8.374369e-10	-2.186308e+01	-5.725726e+01
1.140000e-06	-3.108165e-06	-8.324301e-10	-2.159460e+01	-5.710448e+01
1.150000e-06	-3.069333e-06	-8.318953e-10	-2.132480e+01	-5.694605e+01
1.160000e-06	-3.030374e-06	-8.265771e-10	-2.105412e+01	-5.678204e+01
1.170000e-06	-2.991203e-06	-8.172285e-10	-2.078198e+01	-5.661258e+01
1.180000e-06	-2.951748e-06	-8.157886e-10	-2.050785e+01	-5.643787e+01
1.190000e-06	-2.912078e-06	-8.169160e-10	-2.023224e+01	-5.625815e+01
1.200000e-06	-2.872253e-06	-8.142943e-10	-1.995555e+01	-5.607368e+01
1.210000e-06	-2.832333e-06	-8.115832e-10	-1.967820e+01	-5.588480e+01
1.220000e-06	-2.792348e-06	-8.101600e-10	-1.940040e+01	-5.569184e+01
1.230000e-06	-2.752221e-06	-8.060755e-10	-1.912161e+01	-5.549517e+01
1.240000e-06	-2.711897e-06	-8.033182e-10	-1.884145e+01	-5.529515e+01
1.250000e-06	-2.671381e-06	-8.013427e-10	-1.855995e+01	-5.509216e+01
1.260000e-06	-2.630675e-06	-7.983313e-10	-1.827714e+01	-5.488654e+01
1.270000e-06	-2.589684e-06	-7.921125e-10	-1.799234e+01	-5.467864e+01
1.280000e-06	-2.548351e-06	-7.889659e-10	-1.770517e+01	-5.446874e+01
1.290000e-06	-2.506782e-06	-7.877721e-10	-1.741636e+01	-5.425710e+01
1.300000e-06	-2.464940e-06	-7.848217e-10	-1.712566e+01	-5.404392e+01
1.310000e-06	-2.422804e-06	-7.819163e-10	-1.683291e+01	-5.382935e+01
1.320000e-06	-2.380316e-06	-7.814328e-10	-1.653772e+01	-5.361345e+01
1.330000e-06	-2.337531e-06	-7.784950e-10	-1.624046e+01	-5.339623e+01
1.340000e-06	-2.294571e-06	-7.715146e-10	-1.594199e+01	-5.317762e+01
1.350000e-06	-2.251410e-06	-7.665302e-10	-1.564212e+01	-5.295746e+01
1.360000e-06	-2.208064e-06	-7.616445e-10	-1.534096e+01	-5.273552e+01
1.370000e-06	-2.164506e-06	-7.555948e-10	-1.503833e+01	-5.251149e+01
1.380000e-06	-2.120785e-06	-7.520318e-10	-1.473458e+01	-5.228501e+01
1.390000e-06	-2.077028e-06	-7.514400e-10	-1.443057e+01	-5.205561e+01
1.400000e-06	-2.033150e-06	-7.505059e-10	-1.412571e+01	-5.182279e+01
1.410000e-06	-1.989138e-06	-7.471919e-10	-1.381993e+01	-5.158598e+01
1.420000e-06	-1.945055e-06	-7.426009e-10	-1.351365e+01	-5.134457e+01
1.430000e-06	-1.900926e-06	-7.369538e-10	-1.320706e+01	-5.109790e+01
1.440000e-06	-1.856798e-06	-7.320549e-10	-1.290047e+01	-5.084531e+01
1.450000e-06	-1.812572e-06	-7.284656e-10	-1.259321e+01	-5.058609e+01
1.460000e-06	-1.768169e-06	-7.226386e-10	-1.228470e+01	-5.031955e+01
1.470000e-06	-1.723655e-06	-7.163605e-10	-1.197544e+01	-5.004499e+01
1.480000e-06	-1.679044e-06	-7.126900e-10	-1.166549e+01	-4.976172e+01
1.490000e-06	-1.634335e-06	-7.089433e-10	-1.135486e+01	-4.946908e+01
1.500000e-06	-1.589427e-06	-7.038213e-10	-1.104286e+01	-4.916644e+01
1.510000e-06	-1.544339e-06	-7.011261e-10	-1.072960e+01	-4.885320e+01
1.520000e-06	-1.499187e-06	-6.990511e-10	-1.041590e+01	-4.852879e+01
1.530000e-06	-1.453893e-06	-6.945362e-10	-1.010121e+01	-4.819270e+01
1.540000e-06	-1.408463e-06	-6.867482e-10	-9.785579e+00	-4.784445e+01
1.550000e-06	-1.362972e-06	-6.775875e-10	-9.469520e+00	-4.748362e+01
1.560000e-06	-1.317451e-06	-6.650761e-10	-9.153253e+00	-4.710982e+01
1.570000e-06	-1.271806e-06	-6.532236e-10	-8.836122e+00	-4.672268e+01
1.580000e-06	-1.226071e-06	-6.458550e-10	-8.518375e+00	-4.632190e+01
1.590000e-06	-1.180318e-06	-6.432671e-10	-8.200497e+00	-4.590717e+01
1.600000e-06	-1.134449e-06	-6.416232e-10	-7.881807e+00	-4.547821e+01
1.610000e-06	-1.088497e-06	-6.382884e-10	-7.562551e+00	-4.503473e+01
1.620000e-06	-1.042471e-06	-6.313683e-10	-7.242777e+00	-4.457644e+01
1.630000e-06	-9.963566e-07	-6.215201e-10	-6.922386e+00	-4.410306e+01
1.640000e-06	-9.502441e-07	-6.112084e-10	-6.602010e+00	-4.361423e+01
1.650000e-06	-9.040698e-07	-6.000161e-10	-6.281205e+00	-4.310959e+01
1.660000e-06	-8.578216e-07	-5.893700e-10	-5.959886e+00	-4.258871e+01
1.670000e-06	-8.114745e-07	-5.822106e-10	-5.637881e+00	-4.205111e+01
1.680000e-06	-7.650081e-07	-5.769229e-10	-5.315046e+00	-4.149623e+01
1.690000e-06	-7.184966e-07	-5.689288e-10	-4.991898e+00	-4.092344e+01
1.700000e-06	-6.720106e-07	-5.593566e-10	-4.668927e+00	-4.033204e+01
1.710000e-06	-6.254828e-07	-5.500280e-10	-4.345666e+00	-3.972122e+01
1.720000e-06	-5.788913e-07	-5.416608e-10	-4.021962e+00	-3.909010e+01
1.730000e-06	-5.323142e-07	-5.336855e-10	-3.698358e+00	-3.843773e+01
1.740000e-06	-4.856983e-07	-5.253728e-10	-3.374485e+00	-3.776306e+01
1.750000e-06	-4.390096e-07	-5.142198e-10	-3.050106e+00	-3.706497e+01
1.760000e-06	-3.922462e-07	-4.994885e-10	-2.725208e+00	-3.634230e+01
1.770000e-06	-3.454908e-07	-4.856948e-10	-2.400366e+00	-3.559382e+01
1.780000e-06	-2.987370e-07	-4.747858e-10	-2.075535e+00	-3.481828e+01
1.790000e-06	-2.519514e-07	-4.635600e-10	-1.750483e+00	-3.401441e+01
1.800000e-06	-2.052023e-07	-4.519404e-10	-1.425684e+00	-3.318093e+01
1.810000e-06	-1.584624e-07	-4.407622e-10	-1.100949e+00	-3.231660e+01
1.820000e-06	-1.116802e-07	-4.278233e-10	-7.759207e-01	-3.142022e+01
1.830000e-06	-6.489127e-08	-4.149645e-10	-4.508450e-01	-3.049066e+01
1.840000e-06	-1.808411e-08	-4.017783e-10	-1.256430e-01	-2.952687e+01
1.850000e-06	2.873573e-08	-3.876076e-10	1.996472e-01	-2.852793e+01
1.860000e-06	7.555302e-08	-3.712988e-10	5.249197e-01	-2.749306e+01
1.870000e-06	1.224069e-07	-3.526706e-10	8.504459e-01	-2.642162e+01
1.880000e-06	1.692994e-07	-3.347756e-10	1.176242e+00	-2.531316e+01
1.890000e-06	2.161875e-07	-3.193935e-10	1.502006e+00	-2.416745e+01
1.900000e-06	2.629946e-07	-3.057028e-10	1.827207e+00	-2.298444e+01
1.910000e-06	3.097610e-07	-2.904675e-10	2.152126e+00	-2.176433e+01
1.920000e-06	3.564920e-07	-2.773532e-10	2.476799e+00	-2.050755e+01
1.930000e-06	4.031687e-07	-2.641564e-10	2.801095e+00	-1.921479e+01
1.940000e-06	4.498140e-07	-2.450084e-10	3.125172e+00	-1.788698e+01
1.950000e-06	4.963844e-07	-2.224952e-10	3.448730e+00	-1.652531e+01
1.960000e-06	5.429523e-07	-2.015108e-10	3.772269e+00	-1.513119e+01
1.970000e-06	5.895687e-07	-1.822821e-10	4.096146e+00	-1.370631e+01
1.980000e-06	6.361244e-07	-1.637812e-10	4.419601e+00	-1.225256e+01
1.990000e-06	6.825932e-07	-1.458256e-10	4.742452e+00	-1.077206e+01
2.000000e-06	7.289864e-07	-1.257583e-10	5.064778e+00	-9.267132e+00
2.010000e-06	7.752974e-07	-1.000922e-10	5.386532e+00	-7.740257e+00
2.020000e-06	8.216011e-07	-7.462808e-11	5.708237e+00	-6.194086e+00
2.030000e-06	8.678040e-07	-5.050209e-11	6.029241e+00	-4.631394e+00
2.040000e-06	9.139134e-07	-2.965128e-11	6.349595e+00	-3.055060e+00
2.050000e-06	9.600450e-07	-9.604008e-12	6.670103e+00	-1.468036e+00
2.060000e-06	1.006110e-06	1.117916e-11	6.990149e+00	1.266816e-01
2.070000e-06	1.052057e-06	3.087035e-11	7.309377e+00	1.726080e+00
2.080000e-06	1.097877e-06	5.273485e-11	7.627719e+00	3.327162e+00
2.090000e-06	1.143617e-06	7.625812e-11	7.945505e+00	4.926972e+00
2.100000e-06	1.189284e-06	1.018257e-10	8.262790e+00	6.522623e+00
2.110000e-06	1.234881e-06	1.263760e-10	8.579579e+00	8.111326e+00
2.120000e-06	1.280444e-06	1.489131e-10	8.896137e+00	9.690410e+00
2.130000e-06	1.325967e-06	1.690796e-10	9.212417e+00	1.125734e+01
2.140000e-06	1.371407e-06	1.870229e-10	9.528120e+00	1.280976e+01
2.150000e-06	1.416787e-06	2.040016e-10	9.843411e+00	1.434545e+01
2.160000e-06	1.462121e-06	2.237196e-10	1.015837e+01	1.586241e+01
2.170000e-06	1.507308e-06	2.460512e-10	1.047232e+01	1.735883e+01
2.180000e-06	1.552249e-06	2.689314e-10	1.078456e+01	1.883308e+01
2.190000e-06	1.597020e-06	2.914718e-10	1.109561e+01	2.028375e+01
2.200000e-06	1.641665e-06	3.143416e-10	1.140579e+01	2.170963e+01
2.210000e-06	1.686170e-06	3.343594e-10	1.171500e+01	2.310970e+01
2.220000e-06	1.730618e-06	3.495917e-10	1.202381e+01	2.448314e+01
2.230000e-06	1.774945e-06	3.620337e-10	1.233178e+01	2.582930e+01
2.240000e-06	1.819105e-06	3.740322e-10	1.263859e+01	2.714770e+01
2.250000e-06	1.863138e-06	3.887835e-10	1.294452e+01	2.843802e+01
2.260000e-06	1.907084e-06	4.090163e-10	1.324985e+01	2.970007e+01
2.270000e-06	1.950973e-06	4.332585e-10	1.355478e+01	3.093378e+01
2.280000e-06	1.994811e-06	4.578854e-10	1.385934e+01	3.213919e+01
2.290000e-06	2.038615e-06	4.785650e-10	1.416368e+01	3.331642e+01
2.300000e-06	2.082396e-06	4.922094e-10	1.446786e+01	3.446567e+01
2.310000e-06	2.126141e-06	5.010401e-10	1.477179e+01	3.558719e+01
2.320000e-06	2.169733e-06	5.101492e-10	1.507465e+01	3.668124e+01
2.330000e-06	2.213165e-06	5.212022e-10	1.537641e+01	3.774813e+01
2.340000e-06	2.256553e-06	5.337628e-10	1.567785e+01	3.878816e+01
2.350000e-06	2.299764e-06	5.497724e-10	1.597807e+01	3.980164e+01
2.360000e-06	2.342754e-06	5.684579e-10	1.627675e+01	4.078886e+01
2.370000e-06	2.385518e-06	5.854244e-10	1.657386e+01	4.175007e+01
2.380000e-06	2.427997e-06	5.983302e-10	1.686899e+01	4.268553e+01
2.390000e-06	2.470175e-06	6.085727e-10	1.716203e+01	4.359543e+01
2.400000e-06	2.511959e-06	6.164184e-10	1.745233e+01	4.447996e+01
2.410000e-06	2.553358e-06	6.262922e-10	1.773996e+01	4.533927e+01
2.420000e-06	2.594517e-06	6.379335e-10	1.802592e+01	4.617347e+01
2.430000e-06	2.635406e-06	6.504800e-10	1.831001e+01	4.698267e+01
2.440000e-06	2.675958e-06	6.641291e-10	1.859175e+01	4.776694e+01
2.450000e-06	2.716262e-06	6.768052e-10	1.887177e+01	4.852637e+01
2.460000e-06	2.756395e-06	6.877657e-10	1.915060e+01	4.926102e+01
2.470000e-06	2.796406e-06	6.985284e-10	1.942859e+01	4.997098e+01
2.480000e-06	2.836330e-06	7.082560e-10	1.970597e+01	5.065636e+01
2.490000e-06	2.876117e-06	7.159484e-10	1.998240e+01	5.131726e+01
2.500000e-06	2.915753e-06	7.236147e-10	2.025777e+01	5.195387e+01
2.510000e-06	2.955315e-06	7.310720e-10	2.053264e+01	5.256638e+01
2.520000e-06	2.994727e-06	7.384482e-10	2.080646e+01	5.315506e+01
2.530000e-06	3.033933e-06	7.471905e-10	2.107885e+01	5.372021e+01
2.540000e-06	3.072878e-06	7.570555e-10	2.134943e+01	5.426222e+01
2.550000e-06	3.111568e-06	7.643627e-10	2.161824e+01	5.478152e+01
2.560000e-06	3.150031e-06	7.701577e-10	2.188547e+01	5.527862e+01
2.570000e-06	3.188220e-06	7.765036e-10	2.215079e+01	5.575410e+01
2.580000e-06	3.226202e-06	7.840543e-10	2.241468e+01	5.620859e+01
2.590000e-06	3.264016e-06	7.919692e-10	2.267740e+01	5.664280e+01
2.600000e-06	3.301665e-06	7.974772e-10	2.293897e+01	5.705746e+01
2.610000e-06	3.339091e-06	8.020328e-10	2.319900e+01	5.745340e+01
2.620000e-06	3.376249e-06	8.062162e-10	2.345716e+01	5.783144e+01
2.630000e-06	3.413168e-06	8.095727e-10	2.371366e+01	5.819247e+01
2.640000e-06	3.449802e-06	8.123374e-10	2.396818e+01	5.853738e+01
2.650000e-06	3.486161e-06	8.158768e-10	2.422080e+01	5.886709e+01
2.660000e-06	3.522322e-06	8.209468e-10	2.447203e+01	5.918250e+01
2.670000e-06	3.558291e-06	8.275116e-10	2.472194e+01	5.948450e+01
2.680000e-06	3.594147e-06	8.337767e-10	2.497105e+01	5.977399e+01
2.690000e-06	3.629902e-06	8.380590e-10	2.521947e+01	6.005179e+01
2.700000e-06	3.665501e-06	8.401099e-10	2.546679e+01	6.031872e+01
2.710000e-06	3.700971e-06	8.403075e-10	2.571323e+01	6.057554e+01
2.720000e-06	3.736263e-06	8.423644e-10	2.595843e+01	6.082294e+01
2.730000e-06	3.771211e-06	8.470942e-10	2.620123e+01	6.106155e+01
2.740000e-06	3.805684e-06	8.527419e-10	2.644074e+01	6.129195e+01
2.750000e-06	3.839630e-06	8.599124e-10	2.667659e+01	6.151464e+01
2.760000e-06	3.873063e-06	8.672680e-10	2.690887e+01	6.173004e+01
2.770000e-06	3.906004e-06	8.720180e-10	2.713774e+01	6.193851e+01
2.780000e-06	3.938612e-06	8.747311e-10	2.736429e+01	6.214033e+01
2.790000e-06	3.970914e-06	8.777743e-10	2.758872e+01	6.233574e+01
2.800000e-06	4.002911e-06	8.806136e-10	2.781102e+01	6.252489e+01
2.810000e-06	4.034746e-06	8.814410e-10	2.803220e+01	6.270791e+01
2.820000e-06	4.066468e-06	8.839024e-10	2.825260e+01	6.288485e+01
2.830000e-06	4.098051e-06	8.890770e-10	2.847202e+01	6.305574e+01
2.840000e-06	4.129397e-06	8.925767e-10	2.868981e+01	6.322059e+01
2.850000e-06	4.160427e-06	8.957621e-10	2.890539e+01	6.337939e+01
2.860000e-06	4.191107e-06	8.992897e-10	2.911855e+01	6.353210e+01
2.870000e-06	4.221432e-06	9.012071e-10	2.932924e+01	6.367870e+01
2.880000e-06	4.251437e-06	9.032779e-10	2.953770e+01	6.381919e+01
2.890000e-06	4.281207e-06	9.072952e-10	2.974453e+01	6.395356e+01
2.900000e-06	4.310726e-06	9.112392e-10	2.994963e+01	6.408184e+01
