# Temperatura_=_-15.35
# Concentracion g/m^3_=_1620.0
# C_Vs_to_Am_M_A/Vsm_=_65563218390.804596
# pendiente_HvsI_1/m_=_3716.3
# ordenada_HvsI_A/m_=_1297.0
# frecuencia_Hz_=_135110.41040084016

Tiempo_(s)	Campo_(V.s)	Magnetizacion_(V.s)	Campo_(kA/m)	Magnetizacion_(A/m)
0.000000e+00	-5.520934e-06	-8.379589e-10	-3.836438e+01	-5.675245e+01
1.000000e-08	-5.521187e-06	-8.389269e-10	-3.836614e+01	-5.676233e+01
2.000000e-08	-5.521229e-06	-8.400402e-10	-3.836643e+01	-5.677588e+01
3.000000e-08	-5.520957e-06	-8.403966e-10	-3.836455e+01	-5.679293e+01
4.000000e-08	-5.520345e-06	-8.399474e-10	-3.836029e+01	-5.681330e+01
5.000000e-08	-5.519212e-06	-8.373643e-10	-3.835242e+01	-5.683675e+01
6.000000e-08	-5.517441e-06	-8.349222e-10	-3.834011e+01	-5.686304e+01
7.000000e-08	-5.515149e-06	-8.324666e-10	-3.832419e+01	-5.689188e+01
8.000000e-08	-5.512248e-06	-8.281643e-10	-3.830402e+01	-5.692294e+01
9.000000e-08	-5.508757e-06	-8.408175e-10	-3.827976e+01	-5.695590e+01
1.000000e-07	-5.504799e-06	-8.431648e-10	-3.825226e+01	-5.699037e+01
1.100000e-07	-5.500450e-06	-8.107646e-10	-3.822204e+01	-5.702596e+01
1.200000e-07	-5.495906e-06	-8.377316e-10	-3.819047e+01	-5.706224e+01
1.300000e-07	-5.491204e-06	-8.517804e-10	-3.815779e+01	-5.709877e+01
1.400000e-07	-5.486178e-06	-8.319103e-10	-3.812287e+01	-5.713510e+01
1.500000e-07	-5.480781e-06	-8.212325e-10	-3.808536e+01	-5.717074e+01
1.600000e-07	-5.474992e-06	-8.243586e-10	-3.804514e+01	-5.720521e+01
1.700000e-07	-5.468794e-06	-8.855597e-10	-3.800207e+01	-5.723801e+01
1.800000e-07	-5.462146e-06	-8.279659e-10	-3.795588e+01	-5.726864e+01
1.900000e-07	-5.455076e-06	-8.345542e-10	-3.790675e+01	-5.729662e+01
2.000000e-07	-5.447602e-06	-8.546330e-10	-3.785481e+01	-5.732146e+01
2.100000e-07	-5.439797e-06	-8.919028e-10	-3.780057e+01	-5.734270e+01
2.200000e-07	-5.431786e-06	-8.453739e-10	-3.774491e+01	-5.735988e+01
2.300000e-07	-5.423611e-06	-8.281639e-10	-3.768809e+01	-5.737259e+01
2.400000e-07	-5.415146e-06	-8.552607e-10	-3.762927e+01	-5.738045e+01
2.500000e-07	-5.406061e-06	-8.835571e-10	-3.756614e+01	-5.738312e+01
2.600000e-07	-5.396264e-06	-8.675398e-10	-3.749807e+01	-5.738029e+01
2.700000e-07	-5.385966e-06	-8.340812e-10	-3.742650e+01	-5.737173e+01
2.800000e-07	-5.375153e-06	-8.381263e-10	-3.735137e+01	-5.735724e+01
2.900000e-07	-5.363748e-06	-8.446866e-10	-3.727212e+01	-5.733669e+01
3.000000e-07	-5.351951e-06	-8.618217e-10	-3.719014e+01	-5.731004e+01
3.100000e-07	-5.339788e-06	-8.416849e-10	-3.710562e+01	-5.727727e+01
3.200000e-07	-5.327179e-06	-8.594317e-10	-3.701800e+01	-5.723847e+01
3.300000e-07	-5.314121e-06	-8.678404e-10	-3.692726e+01	-5.719378e+01
3.400000e-07	-5.300699e-06	-8.845093e-10	-3.683400e+01	-5.714341e+01
3.500000e-07	-5.286911e-06	-8.359888e-10	-3.673818e+01	-5.708764e+01
3.600000e-07	-5.272607e-06	-8.431093e-10	-3.663879e+01	-5.702682e+01
3.700000e-07	-5.257983e-06	-8.590684e-10	-3.653716e+01	-5.696135e+01
3.800000e-07	-5.242985e-06	-8.505952e-10	-3.643294e+01	-5.689169e+01
3.900000e-07	-5.227306e-06	-8.129827e-10	-3.632399e+01	-5.681836e+01
4.000000e-07	-5.211137e-06	-8.636774e-10	-3.621164e+01	-5.674191e+01
4.100000e-07	-5.194593e-06	-8.728601e-10	-3.609667e+01	-5.666293e+01
4.200000e-07	-5.177631e-06	-8.249473e-10	-3.597881e+01	-5.658204e+01
4.300000e-07	-5.160315e-06	-8.263618e-10	-3.585848e+01	-5.649987e+01
4.400000e-07	-5.142795e-06	-8.838329e-10	-3.573673e+01	-5.641707e+01
4.500000e-07	-5.124978e-06	-8.324991e-10	-3.561293e+01	-5.633427e+01
4.600000e-07	-5.106649e-06	-7.954597e-10	-3.548556e+01	-5.625212e+01
4.700000e-07	-5.087898e-06	-8.588298e-10	-3.535526e+01	-5.617122e+01
4.800000e-07	-5.068809e-06	-8.628114e-10	-3.522262e+01	-5.609215e+01
4.900000e-07	-5.049423e-06	-7.970521e-10	-3.508790e+01	-5.601546e+01
5.000000e-07	-5.029811e-06	-8.409029e-10	-3.495162e+01	-5.594165e+01
5.100000e-07	-5.009972e-06	-8.863816e-10	-3.481376e+01	-5.587118e+01
5.200000e-07	-4.989818e-06	-8.175143e-10	-3.467372e+01	-5.580442e+01
5.300000e-07	-4.969290e-06	-8.169767e-10	-3.453107e+01	-5.574171e+01
5.400000e-07	-4.948465e-06	-8.788132e-10	-3.438636e+01	-5.568330e+01
5.500000e-07	-4.927312e-06	-8.320166e-10	-3.423937e+01	-5.562940e+01
5.600000e-07	-4.905751e-06	-7.864877e-10	-3.408954e+01	-5.558012e+01
5.700000e-07	-4.883869e-06	-8.561017e-10	-3.393749e+01	-5.553551e+01
5.800000e-07	-4.861703e-06	-8.479244e-10	-3.378346e+01	-5.549557e+01
5.900000e-07	-4.839178e-06	-7.929777e-10	-3.362693e+01	-5.546020e+01
6.000000e-07	-4.816384e-06	-8.338305e-10	-3.346854e+01	-5.542928e+01
6.100000e-07	-4.793218e-06	-8.645116e-10	-3.330757e+01	-5.540260e+01
6.200000e-07	-4.769651e-06	-7.995562e-10	-3.314379e+01	-5.537992e+01
6.300000e-07	-4.745929e-06	-8.119044e-10	-3.297895e+01	-5.536095e+01
6.400000e-07	-4.722048e-06	-8.538891e-10	-3.281301e+01	-5.534536e+01
6.500000e-07	-4.697867e-06	-8.234414e-10	-3.264498e+01	-5.533280e+01
6.600000e-07	-4.673273e-06	-8.064546e-10	-3.247408e+01	-5.532291e+01
6.700000e-07	-4.648209e-06	-8.501024e-10	-3.229991e+01	-5.531529e+01
6.800000e-07	-4.622582e-06	-8.304612e-10	-3.212183e+01	-5.530957e+01
6.900000e-07	-4.596453e-06	-8.085320e-10	-3.194026e+01	-5.530535e+01
7.000000e-07	-4.569819e-06	-8.354240e-10	-3.175518e+01	-5.530227e+01
7.100000e-07	-4.542670e-06	-8.387888e-10	-3.156653e+01	-5.529998e+01
7.200000e-07	-4.515181e-06	-8.043951e-10	-3.137551e+01	-5.529815e+01
7.300000e-07	-4.487432e-06	-8.196905e-10	-3.118269e+01	-5.529648e+01
7.400000e-07	-4.459507e-06	-8.342600e-10	-3.098864e+01	-5.529470e+01
7.500000e-07	-4.431433e-06	-8.176997e-10	-3.079355e+01	-5.529258e+01
7.600000e-07	-4.403122e-06	-8.207180e-10	-3.059683e+01	-5.528994e+01
7.700000e-07	-4.374522e-06	-8.371680e-10	-3.039809e+01	-5.528660e+01
7.800000e-07	-4.345645e-06	-8.174557e-10	-3.019742e+01	-5.528246e+01
7.900000e-07	-4.316440e-06	-8.074747e-10	-2.999448e+01	-5.527743e+01
8.000000e-07	-4.286904e-06	-8.227150e-10	-2.978924e+01	-5.527145e+01
8.100000e-07	-4.257098e-06	-8.200999e-10	-2.958213e+01	-5.526451e+01
8.200000e-07	-4.226991e-06	-8.128763e-10	-2.937291e+01	-5.525660e+01
8.300000e-07	-4.196574e-06	-8.283281e-10	-2.916154e+01	-5.524775e+01
8.400000e-07	-4.165866e-06	-8.336162e-10	-2.894816e+01	-5.523799e+01
8.500000e-07	-4.134828e-06	-8.190306e-10	-2.873248e+01	-5.522737e+01
8.600000e-07	-4.103518e-06	-8.260261e-10	-2.851491e+01	-5.521594e+01
8.700000e-07	-4.072007e-06	-8.312417e-10	-2.829595e+01	-5.520373e+01
8.800000e-07	-4.040351e-06	-8.187041e-10	-2.807597e+01	-5.519079e+01
8.900000e-07	-4.008542e-06	-8.123580e-10	-2.785493e+01	-5.517713e+01
9.000000e-07	-3.976486e-06	-8.222628e-10	-2.763218e+01	-5.516276e+01
9.100000e-07	-3.944159e-06	-8.130760e-10	-2.740754e+01	-5.514766e+01
9.200000e-07	-3.911545e-06	-8.077400e-10	-2.718091e+01	-5.513179e+01
9.300000e-07	-3.878652e-06	-8.153309e-10	-2.695234e+01	-5.511507e+01
9.400000e-07	-3.845391e-06	-8.178931e-10	-2.672122e+01	-5.509741e+01
9.500000e-07	-3.811610e-06	-8.083295e-10	-2.648647e+01	-5.507868e+01
9.600000e-07	-3.777339e-06	-8.137351e-10	-2.624833e+01	-5.505872e+01
9.700000e-07	-3.742618e-06	-8.122595e-10	-2.600706e+01	-5.503737e+01
9.800000e-07	-3.707589e-06	-8.000585e-10	-2.576364e+01	-5.501441e+01
9.900000e-07	-3.672373e-06	-7.948308e-10	-2.551893e+01	-5.498962e+01
1.000000e-06	-3.636891e-06	-8.027575e-10	-2.527237e+01	-5.496278e+01
1.010000e-06	-3.601167e-06	-7.990732e-10	-2.502413e+01	-5.493364e+01
1.020000e-06	-3.565257e-06	-7.993190e-10	-2.477459e+01	-5.490196e+01
1.030000e-06	-3.529230e-06	-8.090631e-10	-2.452425e+01	-5.486748e+01
1.040000e-06	-3.493030e-06	-8.120551e-10	-2.427269e+01	-5.483000e+01
1.050000e-06	-3.456557e-06	-8.042205e-10	-2.401925e+01	-5.478927e+01
1.060000e-06	-3.419892e-06	-8.003868e-10	-2.376447e+01	-5.474512e+01
1.070000e-06	-3.383021e-06	-7.949559e-10	-2.350826e+01	-5.469737e+01
1.080000e-06	-3.345871e-06	-7.873702e-10	-2.325010e+01	-5.464588e+01
1.090000e-06	-3.308479e-06	-7.901288e-10	-2.299027e+01	-5.459056e+01
1.100000e-06	-3.270870e-06	-7.970605e-10	-2.272893e+01	-5.453135e+01
1.110000e-06	-3.233010e-06	-7.944467e-10	-2.246584e+01	-5.446824e+01
1.120000e-06	-3.194939e-06	-7.914748e-10	-2.220129e+01	-5.440123e+01
1.130000e-06	-3.156617e-06	-7.951719e-10	-2.193499e+01	-5.433041e+01
1.140000e-06	-3.118049e-06	-7.910177e-10	-2.166699e+01	-5.425589e+01
1.150000e-06	-3.079329e-06	-7.863815e-10	-2.139793e+01	-5.417782e+01
1.160000e-06	-3.040415e-06	-7.879904e-10	-2.112752e+01	-5.409639e+01
1.170000e-06	-3.001295e-06	-7.888946e-10	-2.085568e+01	-5.401181e+01
1.180000e-06	-2.961933e-06	-7.852658e-10	-2.058216e+01	-5.392433e+01
1.190000e-06	-2.922282e-06	-7.893986e-10	-2.030663e+01	-5.383422e+01
1.200000e-06	-2.882490e-06	-7.925748e-10	-2.003012e+01	-5.374176e+01
1.210000e-06	-2.842666e-06	-7.893443e-10	-1.975338e+01	-5.364723e+01
1.220000e-06	-2.802677e-06	-7.835820e-10	-1.947550e+01	-5.355091e+01
1.230000e-06	-2.762537e-06	-7.827896e-10	-1.919658e+01	-5.345305e+01
1.240000e-06	-2.722265e-06	-7.806025e-10	-1.891673e+01	-5.335392e+01
1.250000e-06	-2.681768e-06	-7.821031e-10	-1.863532e+01	-5.325372e+01
1.260000e-06	-2.641065e-06	-7.847238e-10	-1.835248e+01	-5.315262e+01
1.270000e-06	-2.600270e-06	-7.868258e-10	-1.806900e+01	-5.305077e+01
1.280000e-06	-2.559262e-06	-7.830256e-10	-1.778404e+01	-5.294825e+01
1.290000e-06	-2.517827e-06	-7.815488e-10	-1.749611e+01	-5.284508e+01
1.300000e-06	-2.476089e-06	-7.797715e-10	-1.720608e+01	-5.274122e+01
1.310000e-06	-2.433996e-06	-7.740858e-10	-1.691358e+01	-5.263659e+01
1.320000e-06	-2.391591e-06	-7.701331e-10	-1.661891e+01	-5.253100e+01
1.330000e-06	-2.348918e-06	-7.705165e-10	-1.632238e+01	-5.242424e+01
1.340000e-06	-2.305919e-06	-7.716063e-10	-1.602359e+01	-5.231601e+01
1.350000e-06	-2.262729e-06	-7.733876e-10	-1.572346e+01	-5.220594e+01
1.360000e-06	-2.219330e-06	-7.748870e-10	-1.542189e+01	-5.209363e+01
1.370000e-06	-2.175788e-06	-7.716883e-10	-1.511932e+01	-5.197860e+01
1.380000e-06	-2.132187e-06	-7.630539e-10	-1.481634e+01	-5.186034e+01
1.390000e-06	-2.088448e-06	-7.551478e-10	-1.451240e+01	-5.173827e+01
1.400000e-06	-2.044576e-06	-7.517714e-10	-1.420754e+01	-5.161182e+01
1.410000e-06	-2.000650e-06	-7.501570e-10	-1.390230e+01	-5.148037e+01
1.420000e-06	-1.956668e-06	-7.530132e-10	-1.359668e+01	-5.134328e+01
1.430000e-06	-1.912583e-06	-7.566802e-10	-1.329033e+01	-5.119991e+01
1.440000e-06	-1.868410e-06	-7.586186e-10	-1.298339e+01	-5.104962e+01
1.450000e-06	-1.824187e-06	-7.543547e-10	-1.267608e+01	-5.089179e+01
1.460000e-06	-1.779917e-06	-7.473553e-10	-1.236846e+01	-5.072579e+01
1.470000e-06	-1.735554e-06	-7.369686e-10	-1.206018e+01	-5.055105e+01
1.480000e-06	-1.691035e-06	-7.289387e-10	-1.175083e+01	-5.036701e+01
1.490000e-06	-1.646397e-06	-7.271120e-10	-1.144063e+01	-5.017313e+01
1.500000e-06	-1.601548e-06	-7.287368e-10	-1.112899e+01	-4.996893e+01
1.510000e-06	-1.556446e-06	-7.274857e-10	-1.081558e+01	-4.975395e+01
1.520000e-06	-1.511236e-06	-7.240435e-10	-1.050142e+01	-4.952780e+01
1.530000e-06	-1.466047e-06	-7.202266e-10	-1.018740e+01	-4.929008e+01
1.540000e-06	-1.420732e-06	-7.144434e-10	-9.872519e+00	-4.904047e+01
1.550000e-06	-1.375226e-06	-7.067401e-10	-9.556300e+00	-4.877865e+01
1.560000e-06	-1.329709e-06	-7.003804e-10	-9.240008e+00	-4.850433e+01
1.570000e-06	-1.284232e-06	-6.947497e-10	-8.923993e+00	-4.821724e+01
1.580000e-06	-1.238687e-06	-6.889598e-10	-8.607504e+00	-4.791711e+01
1.590000e-06	-1.192972e-06	-6.848541e-10	-8.289837e+00	-4.760368e+01
1.600000e-06	-1.147129e-06	-6.820049e-10	-7.971278e+00	-4.727668e+01
1.610000e-06	-1.101218e-06	-6.780211e-10	-7.652244e+00	-4.693580e+01
1.620000e-06	-1.055264e-06	-6.727268e-10	-7.332914e+00	-4.658071e+01
1.630000e-06	-1.009233e-06	-6.663897e-10	-7.013053e+00	-4.621105e+01
1.640000e-06	-9.630921e-07	-6.574617e-10	-6.692425e+00	-4.582638e+01
1.650000e-06	-9.168827e-07	-6.488061e-10	-6.371320e+00	-4.542624e+01
1.660000e-06	-8.706351e-07	-6.415514e-10	-6.049951e+00	-4.501005e+01
1.670000e-06	-8.243023e-07	-6.340332e-10	-5.727989e+00	-4.457721e+01
1.680000e-06	-7.778748e-07	-6.263389e-10	-5.405369e+00	-4.412702e+01
1.690000e-06	-7.314663e-07	-6.173293e-10	-5.082881e+00	-4.365868e+01
1.700000e-06	-6.850449e-07	-6.071540e-10	-4.760304e+00	-4.317134e+01
1.710000e-06	-6.385541e-07	-5.966423e-10	-4.437245e+00	-4.266406e+01
1.720000e-06	-5.920906e-07	-5.865891e-10	-4.114375e+00	-4.213581e+01
1.730000e-06	-5.455764e-07	-5.773454e-10	-3.791152e+00	-4.158552e+01
1.740000e-06	-4.990023e-07	-5.689079e-10	-3.467514e+00	-4.101204e+01
1.750000e-06	-4.523792e-07	-5.612269e-10	-3.143535e+00	-4.041417e+01
1.760000e-06	-4.056771e-07	-5.514392e-10	-2.819007e+00	-3.979069e+01
1.770000e-06	-3.589968e-07	-5.411610e-10	-2.494630e+00	-3.914033e+01
1.780000e-06	-3.122554e-07	-5.307882e-10	-2.169829e+00	-3.846183e+01
1.790000e-06	-2.654189e-07	-5.201544e-10	-1.844368e+00	-3.775396e+01
1.800000e-06	-2.185842e-07	-5.090687e-10	-1.518918e+00	-3.701548e+01
1.810000e-06	-1.717622e-07	-4.978895e-10	-1.193557e+00	-3.624525e+01
1.820000e-06	-1.249909e-07	-4.867890e-10	-8.685484e-01	-3.544217e+01
1.830000e-06	-7.820078e-08	-4.751542e-10	-5.434089e-01	-3.460523e+01
1.840000e-06	-3.135146e-08	-4.627346e-10	-2.178580e-01	-3.373356e+01
1.850000e-06	1.543138e-08	-4.511624e-10	1.072310e-01	-3.282639e+01
1.860000e-06	6.221729e-08	-4.382223e-10	4.323413e-01	-3.188312e+01
1.870000e-06	1.090674e-07	-4.226053e-10	7.578976e-01	-3.090331e+01
1.880000e-06	1.558978e-07	-4.061487e-10	1.083317e+00	-2.988670e+01
1.890000e-06	2.027433e-07	-3.914140e-10	1.408842e+00	-2.883323e+01
1.900000e-06	2.496148e-07	-3.776202e-10	1.734547e+00	-2.774304e+01
1.910000e-06	2.964109e-07	-3.633357e-10	2.059728e+00	-2.661648e+01
1.920000e-06	3.431072e-07	-3.495019e-10	2.384216e+00	-2.545413e+01
1.930000e-06	3.897909e-07	-3.349331e-10	2.708616e+00	-2.425677e+01
1.940000e-06	4.365462e-07	-3.172893e-10	3.033513e+00	-2.302541e+01
1.950000e-06	4.832303e-07	-2.976507e-10	3.357916e+00	-2.176128e+01
1.960000e-06	5.297870e-07	-2.797221e-10	3.681434e+00	-2.046580e+01
1.970000e-06	5.763380e-07	-2.636994e-10	4.004912e+00	-1.914059e+01
1.980000e-06	6.228298e-07	-2.478272e-10	4.327978e+00	-1.778747e+01
1.990000e-06	6.692497e-07	-2.305602e-10	4.650545e+00	-1.640841e+01
2.000000e-06	7.156180e-07	-2.101015e-10	4.972753e+00	-1.500553e+01
2.010000e-06	7.620048e-07	-1.858662e-10	5.295091e+00	-1.358110e+01
2.020000e-06	8.083818e-07	-1.615660e-10	5.617359e+00	-1.213747e+01
2.030000e-06	8.546153e-07	-1.399578e-10	5.938631e+00	-1.067711e+01
2.040000e-06	9.007454e-07	-1.213147e-10	6.259184e+00	-9.202540e+00
2.050000e-06	9.468410e-07	-1.040617e-10	6.579498e+00	-7.716312e+00
2.060000e-06	9.929222e-07	-8.614338e-11	6.899711e+00	-6.221008e+00
2.070000e-06	1.038981e-06	-6.734347e-11	7.219772e+00	-4.719199e+00
2.080000e-06	1.084939e-06	-4.695530e-11	7.539123e+00	-3.213429e+00
2.090000e-06	1.130784e-06	-2.366803e-11	7.857696e+00	-1.706194e+00
2.100000e-06	1.176573e-06	4.684116e-13	8.175879e+00	-1.999182e-01
2.110000e-06	1.222252e-06	2.263325e-11	8.493300e+00	1.303059e+00
2.120000e-06	1.267839e-06	4.333323e-11	8.810076e+00	2.800502e+00
2.130000e-06	1.313353e-06	6.379331e-11	9.126348e+00	4.290289e+00
2.140000e-06	1.358820e-06	8.306562e-11	9.442299e+00	5.770429e+00
2.150000e-06	1.404215e-06	1.013888e-10	9.757744e+00	7.239065e+00
2.160000e-06	1.449385e-06	1.210168e-10	1.007163e+01	8.694480e+00
2.170000e-06	1.494418e-06	1.435363e-10	1.038455e+01	1.013511e+01
2.180000e-06	1.539391e-06	1.665376e-10	1.069707e+01	1.155952e+01
2.190000e-06	1.584242e-06	1.883277e-10	1.100873e+01	1.296643e+01
2.200000e-06	1.629011e-06	2.086735e-10	1.131983e+01	1.435471e+01
2.210000e-06	1.673683e-06	2.265476e-10	1.163025e+01	1.572335e+01
2.220000e-06	1.718226e-06	2.422474e-10	1.193977e+01	1.707147e+01
2.230000e-06	1.762670e-06	2.576114e-10	1.224860e+01	1.839832e+01
2.240000e-06	1.806960e-06	2.731917e-10	1.255637e+01	1.970323e+01
2.250000e-06	1.851103e-06	2.886771e-10	1.286312e+01	2.098565e+01
2.260000e-06	1.895208e-06	3.064686e-10	1.316960e+01	2.224511e+01
2.270000e-06	1.939276e-06	3.267951e-10	1.347582e+01	2.348121e+01
2.280000e-06	1.983237e-06	3.474199e-10	1.378130e+01	2.469361e+01
2.290000e-06	2.027160e-06	3.669736e-10	1.408652e+01	2.588201e+01
2.300000e-06	2.071085e-06	3.846711e-10	1.439175e+01	2.704617e+01
2.310000e-06	2.114922e-06	4.003749e-10	1.469636e+01	2.818585e+01
2.320000e-06	2.158638e-06	4.146982e-10	1.500015e+01	2.930086e+01
2.330000e-06	2.202224e-06	4.296610e-10	1.530302e+01	3.039100e+01
2.340000e-06	2.245725e-06	4.455789e-10	1.560531e+01	3.145607e+01
2.350000e-06	2.289054e-06	4.602946e-10	1.590640e+01	3.249591e+01
2.360000e-06	2.332057e-06	4.745542e-10	1.620521e+01	3.351031e+01
2.370000e-06	2.374754e-06	4.878009e-10	1.650191e+01	3.449909e+01
2.380000e-06	2.417127e-06	4.997712e-10	1.679636e+01	3.546206e+01
2.390000e-06	2.459260e-06	5.114100e-10	1.708914e+01	3.639904e+01
2.400000e-06	2.501118e-06	5.231655e-10	1.738000e+01	3.730984e+01
2.410000e-06	2.542629e-06	5.358468e-10	1.766846e+01	3.819429e+01
2.420000e-06	2.583815e-06	5.505692e-10	1.795465e+01	3.905224e+01
2.430000e-06	2.624673e-06	5.644263e-10	1.823857e+01	3.988355e+01
2.440000e-06	2.665253e-06	5.776170e-10	1.852056e+01	4.068811e+01
2.450000e-06	2.705583e-06	5.874621e-10	1.880081e+01	4.146586e+01
2.460000e-06	2.745662e-06	5.927989e-10	1.907932e+01	4.221678e+01
2.470000e-06	2.785603e-06	5.988176e-10	1.935686e+01	4.294090e+01
2.480000e-06	2.825549e-06	6.085850e-10	1.963444e+01	4.363831e+01
2.490000e-06	2.865429e-06	6.232119e-10	1.991156e+01	4.430916e+01
2.500000e-06	2.905196e-06	6.392089e-10	2.018790e+01	4.495368e+01
2.510000e-06	2.944779e-06	6.509294e-10	2.046296e+01	4.557216e+01
2.520000e-06	2.984196e-06	6.573695e-10	2.073686e+01	4.616498e+01
2.530000e-06	3.023457e-06	6.613638e-10	2.100968e+01	4.673261e+01
2.540000e-06	3.062495e-06	6.636942e-10	2.128096e+01	4.727556e+01
2.550000e-06	3.101316e-06	6.667867e-10	2.155071e+01	4.779445e+01
2.560000e-06	3.139818e-06	6.725967e-10	2.181826e+01	4.828996e+01
2.570000e-06	3.178064e-06	6.819458e-10	2.208403e+01	4.876283e+01
2.580000e-06	3.216155e-06	6.916923e-10	2.234872e+01	4.921387e+01
2.590000e-06	3.254070e-06	6.993537e-10	2.261218e+01	4.964395e+01
2.600000e-06	3.291797e-06	7.052841e-10	2.287435e+01	5.005397e+01
2.610000e-06	3.329302e-06	7.099218e-10	2.313497e+01	5.044486e+01
2.620000e-06	3.366634e-06	7.136631e-10	2.339438e+01	5.081760e+01
2.630000e-06	3.403674e-06	7.180152e-10	2.365177e+01	5.117314e+01
2.640000e-06	3.440346e-06	7.238595e-10	2.390660e+01	5.151247e+01
2.650000e-06	3.476777e-06	7.313611e-10	2.415976e+01	5.183654e+01
2.660000e-06	3.513008e-06	7.375114e-10	2.441152e+01	5.214629e+01
2.670000e-06	3.549108e-06	7.416704e-10	2.466237e+01	5.244262e+01
2.680000e-06	3.585082e-06	7.438386e-10	2.491235e+01	5.272639e+01
2.690000e-06	3.620874e-06	7.471486e-10	2.516107e+01	5.299841e+01
2.700000e-06	3.656536e-06	7.527272e-10	2.540888e+01	5.325941e+01
2.710000e-06	3.692061e-06	7.561833e-10	2.565574e+01	5.351006e+01
2.720000e-06	3.727306e-06	7.597697e-10	2.590065e+01	5.375097e+01
2.730000e-06	3.762197e-06	7.634992e-10	2.614311e+01	5.398265e+01
2.740000e-06	3.796710e-06	7.666380e-10	2.638294e+01	5.420554e+01
2.750000e-06	3.830707e-06	7.704290e-10	2.661918e+01	5.442002e+01
2.760000e-06	3.864181e-06	7.750852e-10	2.685178e+01	5.462636e+01
2.770000e-06	3.897220e-06	7.804748e-10	2.708137e+01	5.482477e+01
2.780000e-06	3.929842e-06	7.848034e-10	2.730805e+01	5.501540e+01
2.790000e-06	3.962143e-06	7.897123e-10	2.753251e+01	5.519831e+01
2.800000e-06	3.994199e-06	7.939393e-10	2.775527e+01	5.537355e+01
2.810000e-06	4.026103e-06	7.953987e-10	2.797696e+01	5.554107e+01
2.820000e-06	4.057917e-06	7.965742e-10	2.819804e+01	5.570083e+01
2.830000e-06	4.089577e-06	7.990331e-10	2.841804e+01	5.585274e+01
2.840000e-06	4.121021e-06	8.017191e-10	2.863653e+01	5.599670e+01
2.850000e-06	4.152155e-06	8.051725e-10	2.885289e+01	5.613260e+01
2.860000e-06	4.182904e-06	8.091905e-10	2.906655e+01	5.626034e+01
2.870000e-06	4.213328e-06	8.126767e-10	2.927797e+01	5.637986e+01
2.880000e-06	4.243465e-06	8.143355e-10	2.948739e+01	5.649109e+01
2.890000e-06	4.273341e-06	8.157780e-10	2.969500e+01	5.659402e+01
2.900000e-06	4.302911e-06	8.206218e-10	2.990047e+01	5.668867e+01
