# Temperatura_=_-23.65
# Concentracion g/m^3_=_1620.0
# C_Vs_to_Am_M_A/Vsm_=_65563218390.804596
# pendiente_HvsI_1/m_=_3716.3
# ordenada_HvsI_A/m_=_1297.0
# frecuencia_Hz_=_135109.97570388063

Tiempo_(s)	Campo_(V.s)	Magnetizacion_(V.s)	Campo_(kA/m)	Magnetizacion_(A/m)
0.000000e+00	-5.520115e-06	-9.043258e-10	-3.836802e+01	-5.891474e+01
1.000000e-08	-5.520234e-06	-9.046886e-10	-3.836885e+01	-5.895317e+01
2.000000e-08	-5.520073e-06	-9.044770e-10	-3.836772e+01	-5.898963e+01
3.000000e-08	-5.519474e-06	-9.038126e-10	-3.836356e+01	-5.902304e+01
4.000000e-08	-5.518376e-06	-9.022829e-10	-3.835593e+01	-5.905236e+01
5.000000e-08	-5.516712e-06	-9.003839e-10	-3.834437e+01	-5.907663e+01
6.000000e-08	-5.514312e-06	-9.079472e-10	-3.832768e+01	-5.909497e+01
7.000000e-08	-5.511302e-06	-9.260360e-10	-3.830676e+01	-5.910662e+01
8.000000e-08	-5.507903e-06	-9.129833e-10	-3.828313e+01	-5.911095e+01
9.000000e-08	-5.504092e-06	-8.608211e-10	-3.825665e+01	-5.910748e+01
1.000000e-07	-5.499888e-06	-8.775869e-10	-3.822743e+01	-5.909585e+01
1.100000e-07	-5.495418e-06	-9.480193e-10	-3.819636e+01	-5.907588e+01
1.200000e-07	-5.490669e-06	-9.432467e-10	-3.816335e+01	-5.904754e+01
1.300000e-07	-5.485572e-06	-8.494824e-10	-3.812792e+01	-5.901098e+01
1.400000e-07	-5.480153e-06	-8.355988e-10	-3.809025e+01	-5.896648e+01
1.500000e-07	-5.474417e-06	-9.230123e-10	-3.805039e+01	-5.891448e+01
1.600000e-07	-5.468293e-06	-9.554601e-10	-3.800782e+01	-5.885554e+01
1.700000e-07	-5.461760e-06	-8.875261e-10	-3.796241e+01	-5.879037e+01
1.800000e-07	-5.454870e-06	-8.732920e-10	-3.791453e+01	-5.871978e+01
1.900000e-07	-5.447598e-06	-9.507153e-10	-3.786398e+01	-5.864466e+01
2.000000e-07	-5.440040e-06	-9.392746e-10	-3.781145e+01	-5.856598e+01
2.100000e-07	-5.432263e-06	-8.593119e-10	-3.775739e+01	-5.848475e+01
2.200000e-07	-5.424133e-06	-8.224295e-10	-3.770088e+01	-5.840201e+01
2.300000e-07	-5.415588e-06	-8.762321e-10	-3.764149e+01	-5.831881e+01
2.400000e-07	-5.406534e-06	-8.934386e-10	-3.757856e+01	-5.823619e+01
2.500000e-07	-5.396883e-06	-8.730484e-10	-3.751148e+01	-5.815513e+01
2.600000e-07	-5.386594e-06	-8.499722e-10	-3.743997e+01	-5.807657e+01
2.700000e-07	-5.375673e-06	-8.554936e-10	-3.736406e+01	-5.800138e+01
2.800000e-07	-5.364247e-06	-8.436592e-10	-3.728465e+01	-5.793031e+01
2.900000e-07	-5.352438e-06	-8.364674e-10	-3.720257e+01	-5.786405e+01
3.000000e-07	-5.340254e-06	-8.331301e-10	-3.711788e+01	-5.780313e+01
3.100000e-07	-5.327702e-06	-8.614757e-10	-3.703064e+01	-5.774797e+01
3.200000e-07	-5.314795e-06	-8.923519e-10	-3.694092e+01	-5.769888e+01
3.300000e-07	-5.301463e-06	-8.815229e-10	-3.684826e+01	-5.765602e+01
3.400000e-07	-5.287660e-06	-8.542993e-10	-3.675232e+01	-5.761941e+01
3.500000e-07	-5.273460e-06	-8.594429e-10	-3.665362e+01	-5.758896e+01
3.600000e-07	-5.258919e-06	-8.651766e-10	-3.655255e+01	-5.756446e+01
3.700000e-07	-5.243878e-06	-8.311379e-10	-3.644801e+01	-5.754558e+01
3.800000e-07	-5.228290e-06	-8.482588e-10	-3.633967e+01	-5.753189e+01
3.900000e-07	-5.212249e-06	-8.912352e-10	-3.622817e+01	-5.752288e+01
4.000000e-07	-5.195652e-06	-8.687118e-10	-3.611281e+01	-5.751797e+01
4.100000e-07	-5.178668e-06	-8.339574e-10	-3.599476e+01	-5.751652e+01
4.200000e-07	-5.161444e-06	-8.934992e-10	-3.587504e+01	-5.751785e+01
4.300000e-07	-5.143922e-06	-8.973479e-10	-3.575326e+01	-5.752128e+01
4.400000e-07	-5.126077e-06	-8.244774e-10	-3.562922e+01	-5.752609e+01
4.500000e-07	-5.107773e-06	-8.377377e-10	-3.550200e+01	-5.753162e+01
4.600000e-07	-5.089032e-06	-9.037292e-10	-3.537174e+01	-5.753721e+01
4.700000e-07	-5.069992e-06	-8.424956e-10	-3.523940e+01	-5.754225e+01
4.800000e-07	-5.050669e-06	-8.142032e-10	-3.510509e+01	-5.754620e+01
4.900000e-07	-5.031100e-06	-8.888124e-10	-3.496908e+01	-5.754858e+01
5.000000e-07	-5.011362e-06	-8.886003e-10	-3.483189e+01	-5.754899e+01
5.100000e-07	-4.991403e-06	-8.225074e-10	-3.469316e+01	-5.754713e+01
5.200000e-07	-4.971172e-06	-8.705541e-10	-3.455254e+01	-5.754277e+01
5.300000e-07	-4.950554e-06	-8.913987e-10	-3.440924e+01	-5.753580e+01
5.400000e-07	-4.929461e-06	-8.185714e-10	-3.426263e+01	-5.752618e+01
5.500000e-07	-4.907944e-06	-8.278709e-10	-3.411307e+01	-5.751397e+01
5.600000e-07	-4.886098e-06	-8.906875e-10	-3.396123e+01	-5.749931e+01
5.700000e-07	-4.863921e-06	-8.431512e-10	-3.380709e+01	-5.748243e+01
5.800000e-07	-4.841395e-06	-8.174691e-10	-3.365052e+01	-5.746361e+01
5.900000e-07	-4.818579e-06	-8.769513e-10	-3.349193e+01	-5.744321e+01
6.000000e-07	-4.795434e-06	-8.664394e-10	-3.333106e+01	-5.742163e+01
6.100000e-07	-4.771996e-06	-8.167791e-10	-3.316816e+01	-5.739929e+01
6.200000e-07	-4.748328e-06	-8.469412e-10	-3.300365e+01	-5.737665e+01
6.300000e-07	-4.724430e-06	-8.616034e-10	-3.283754e+01	-5.735416e+01
6.400000e-07	-4.700315e-06	-8.232442e-10	-3.266993e+01	-5.733228e+01
6.500000e-07	-4.675786e-06	-8.388039e-10	-3.249944e+01	-5.731144e+01
6.600000e-07	-4.650741e-06	-8.632802e-10	-3.232536e+01	-5.729204e+01
6.700000e-07	-4.625149e-06	-8.392590e-10	-3.214748e+01	-5.727444e+01
6.800000e-07	-4.599011e-06	-8.358159e-10	-3.196581e+01	-5.725894e+01
6.900000e-07	-4.572414e-06	-8.617962e-10	-3.178094e+01	-5.724578e+01
7.000000e-07	-4.545341e-06	-8.475148e-10	-3.159277e+01	-5.723513e+01
7.100000e-07	-4.517909e-06	-8.345766e-10	-3.140210e+01	-5.722710e+01
7.200000e-07	-4.490277e-06	-8.465785e-10	-3.121004e+01	-5.722171e+01
7.300000e-07	-4.462515e-06	-8.455162e-10	-3.101708e+01	-5.721890e+01
7.400000e-07	-4.434576e-06	-8.366357e-10	-3.082289e+01	-5.721854e+01
7.500000e-07	-4.406346e-06	-8.548787e-10	-3.062667e+01	-5.722044e+01
7.600000e-07	-4.377829e-06	-8.589496e-10	-3.042847e+01	-5.722433e+01
7.700000e-07	-4.349031e-06	-8.496537e-10	-3.022830e+01	-5.722988e+01
7.800000e-07	-4.319867e-06	-8.455340e-10	-3.002559e+01	-5.723670e+01
7.900000e-07	-4.290400e-06	-8.432576e-10	-2.982078e+01	-5.724437e+01
8.000000e-07	-4.260683e-06	-8.298586e-10	-2.961423e+01	-5.725243e+01
8.100000e-07	-4.230646e-06	-8.314356e-10	-2.940546e+01	-5.726039e+01
8.200000e-07	-4.200288e-06	-8.415872e-10	-2.919445e+01	-5.726776e+01
8.300000e-07	-4.169709e-06	-8.424380e-10	-2.898191e+01	-5.727405e+01
8.400000e-07	-4.138844e-06	-8.412331e-10	-2.876738e+01	-5.727877e+01
8.500000e-07	-4.107670e-06	-8.494779e-10	-2.855070e+01	-5.728145e+01
8.600000e-07	-4.076277e-06	-8.441051e-10	-2.833250e+01	-5.728166e+01
8.700000e-07	-4.044690e-06	-8.340371e-10	-2.811295e+01	-5.727901e+01
8.800000e-07	-4.012958e-06	-8.365863e-10	-2.789240e+01	-5.727314e+01
8.900000e-07	-3.981036e-06	-8.393664e-10	-2.767052e+01	-5.726377e+01
9.000000e-07	-3.948823e-06	-8.358025e-10	-2.744662e+01	-5.725066e+01
9.100000e-07	-3.916229e-06	-8.415418e-10	-2.722008e+01	-5.723363e+01
9.200000e-07	-3.883256e-06	-8.476896e-10	-2.699089e+01	-5.721257e+01
9.300000e-07	-3.849841e-06	-8.376532e-10	-2.675864e+01	-5.718744e+01
9.400000e-07	-3.815904e-06	-8.309047e-10	-2.652276e+01	-5.715825e+01
9.500000e-07	-3.781570e-06	-8.329042e-10	-2.628412e+01	-5.712507e+01
9.600000e-07	-3.746800e-06	-8.250836e-10	-2.604244e+01	-5.708804e+01
9.700000e-07	-3.711620e-06	-8.127575e-10	-2.579792e+01	-5.704732e+01
9.800000e-07	-3.676297e-06	-8.168762e-10	-2.555241e+01	-5.700314e+01
9.900000e-07	-3.640827e-06	-8.214254e-10	-2.530587e+01	-5.695576e+01
1.000000e-06	-3.605147e-06	-8.194994e-10	-2.505787e+01	-5.690545e+01
1.010000e-06	-3.569362e-06	-8.214923e-10	-2.480915e+01	-5.685252e+01
1.020000e-06	-3.533498e-06	-8.262630e-10	-2.455987e+01	-5.679728e+01
1.030000e-06	-3.497483e-06	-8.195169e-10	-2.430954e+01	-5.674004e+01
1.040000e-06	-3.461184e-06	-8.140357e-10	-2.405725e+01	-5.668111e+01
1.050000e-06	-3.424602e-06	-8.137064e-10	-2.380298e+01	-5.662078e+01
1.060000e-06	-3.387751e-06	-8.119022e-10	-2.354684e+01	-5.655932e+01
1.070000e-06	-3.350566e-06	-8.084393e-10	-2.328839e+01	-5.649697e+01
1.080000e-06	-3.313139e-06	-8.134321e-10	-2.302825e+01	-5.643393e+01
1.090000e-06	-3.275502e-06	-8.166042e-10	-2.276665e+01	-5.637039e+01
1.100000e-06	-3.237592e-06	-8.135470e-10	-2.250315e+01	-5.630647e+01
1.110000e-06	-3.199462e-06	-8.105879e-10	-2.223813e+01	-5.624225e+01
1.120000e-06	-3.161123e-06	-8.095940e-10	-2.197164e+01	-5.617778e+01
1.130000e-06	-3.122593e-06	-8.023436e-10	-2.170384e+01	-5.611306e+01
1.140000e-06	-3.083938e-06	-7.978800e-10	-2.143516e+01	-5.604805e+01
1.150000e-06	-3.045034e-06	-7.993245e-10	-2.116476e+01	-5.598266e+01
1.160000e-06	-3.005860e-06	-7.987394e-10	-2.089248e+01	-5.591677e+01
1.170000e-06	-2.966505e-06	-7.957309e-10	-2.061894e+01	-5.585023e+01
1.180000e-06	-2.927004e-06	-7.969936e-10	-2.034438e+01	-5.578287e+01
1.190000e-06	-2.887362e-06	-7.986281e-10	-2.006885e+01	-5.571447e+01
1.200000e-06	-2.847622e-06	-7.967669e-10	-1.979263e+01	-5.564482e+01
1.210000e-06	-2.807786e-06	-7.958353e-10	-1.951575e+01	-5.557368e+01
1.220000e-06	-2.767815e-06	-7.960889e-10	-1.923793e+01	-5.550081e+01
1.230000e-06	-2.727700e-06	-7.937877e-10	-1.895910e+01	-5.542597e+01
1.240000e-06	-2.687414e-06	-7.912811e-10	-1.867909e+01	-5.534892e+01
1.250000e-06	-2.646794e-06	-7.933798e-10	-1.839676e+01	-5.526941e+01
1.260000e-06	-2.605817e-06	-7.937266e-10	-1.811195e+01	-5.518723e+01
1.270000e-06	-2.564626e-06	-7.910101e-10	-1.782564e+01	-5.510216e+01
1.280000e-06	-2.523161e-06	-7.891107e-10	-1.753744e+01	-5.501400e+01
1.290000e-06	-2.481402e-06	-7.894855e-10	-1.724719e+01	-5.492256e+01
1.300000e-06	-2.439320e-06	-7.866387e-10	-1.695470e+01	-5.482768e+01
1.310000e-06	-2.396872e-06	-7.843129e-10	-1.665966e+01	-5.472919e+01
1.320000e-06	-2.354173e-06	-7.827070e-10	-1.636288e+01	-5.462696e+01
1.330000e-06	-2.311268e-06	-7.825768e-10	-1.606466e+01	-5.452085e+01
1.340000e-06	-2.268158e-06	-7.829791e-10	-1.576502e+01	-5.441073e+01
1.350000e-06	-2.224873e-06	-7.836767e-10	-1.546416e+01	-5.429649e+01
1.360000e-06	-2.181457e-06	-7.805160e-10	-1.516240e+01	-5.417800e+01
1.370000e-06	-2.137979e-06	-7.756750e-10	-1.486020e+01	-5.405514e+01
1.380000e-06	-2.094405e-06	-7.728499e-10	-1.455733e+01	-5.392779e+01
1.390000e-06	-2.050714e-06	-7.727048e-10	-1.425366e+01	-5.379579e+01
1.400000e-06	-2.006945e-06	-7.722582e-10	-1.394944e+01	-5.365899e+01
1.410000e-06	-1.963097e-06	-7.728395e-10	-1.364467e+01	-5.351722e+01
1.420000e-06	-1.919160e-06	-7.744749e-10	-1.333928e+01	-5.337027e+01
1.430000e-06	-1.875165e-06	-7.747788e-10	-1.303349e+01	-5.321791e+01
1.440000e-06	-1.831088e-06	-7.728038e-10	-1.272713e+01	-5.305990e+01
1.450000e-06	-1.786822e-06	-7.682916e-10	-1.241945e+01	-5.289593e+01
1.460000e-06	-1.742392e-06	-7.615725e-10	-1.211064e+01	-5.272570e+01
1.470000e-06	-1.697880e-06	-7.544489e-10	-1.180126e+01	-5.254886e+01
1.480000e-06	-1.653218e-06	-7.508804e-10	-1.149083e+01	-5.236501e+01
1.490000e-06	-1.608309e-06	-7.499041e-10	-1.117868e+01	-5.217374e+01
1.500000e-06	-1.563232e-06	-7.497127e-10	-1.086538e+01	-5.197460e+01
1.510000e-06	-1.518127e-06	-7.488254e-10	-1.055186e+01	-5.176710e+01
1.520000e-06	-1.472972e-06	-7.462125e-10	-1.023801e+01	-5.155076e+01
1.530000e-06	-1.427763e-06	-7.414720e-10	-9.923783e+00	-5.132501e+01
1.540000e-06	-1.382476e-06	-7.350625e-10	-9.609016e+00	-5.108932e+01
1.550000e-06	-1.337050e-06	-7.297066e-10	-9.293280e+00	-5.084309e+01
1.560000e-06	-1.291525e-06	-7.256580e-10	-8.976848e+00	-5.058573e+01
1.570000e-06	-1.245857e-06	-7.197417e-10	-8.659434e+00	-5.031661e+01
1.580000e-06	-1.200044e-06	-7.152351e-10	-8.341007e+00	-5.003510e+01
1.590000e-06	-1.154203e-06	-7.135604e-10	-8.022381e+00	-4.974056e+01
1.600000e-06	-1.108319e-06	-7.112659e-10	-7.703463e+00	-4.943231e+01
1.610000e-06	-1.062366e-06	-7.061457e-10	-7.384066e+00	-4.910969e+01
1.620000e-06	-1.016356e-06	-7.015090e-10	-7.064264e+00	-4.877202e+01
1.630000e-06	-9.702664e-07	-6.964552e-10	-6.743917e+00	-4.841858e+01
1.640000e-06	-9.241428e-07	-6.900863e-10	-6.423331e+00	-4.804868e+01
1.650000e-06	-8.779756e-07	-6.825976e-10	-6.102442e+00	-4.766159e+01
1.660000e-06	-8.317294e-07	-6.745286e-10	-5.781004e+00	-4.725657e+01
1.670000e-06	-7.854888e-07	-6.645029e-10	-5.459605e+00	-4.683287e+01
1.680000e-06	-7.391943e-07	-6.545221e-10	-5.137831e+00	-4.638971e+01
1.690000e-06	-6.927923e-07	-6.480937e-10	-4.815310e+00	-4.592632e+01
1.700000e-06	-6.463162e-07	-6.436820e-10	-4.492274e+00	-4.544188e+01
1.710000e-06	-5.998374e-07	-6.399393e-10	-4.169220e+00	-4.493556e+01
1.720000e-06	-5.533592e-07	-6.356752e-10	-3.846169e+00	-4.440652e+01
1.730000e-06	-5.068215e-07	-6.274775e-10	-3.522705e+00	-4.385389e+01
1.740000e-06	-4.602508e-07	-6.146734e-10	-3.199011e+00	-4.327678e+01
1.750000e-06	-4.135854e-07	-6.003925e-10	-2.874660e+00	-4.267430e+01
1.760000e-06	-3.668966e-07	-5.871814e-10	-2.550145e+00	-4.204553e+01
1.770000e-06	-3.202092e-07	-5.764526e-10	-2.225640e+00	-4.138956e+01
1.780000e-06	-2.734104e-07	-5.690593e-10	-1.900362e+00	-4.070545e+01
1.790000e-06	-2.265620e-07	-5.632851e-10	-1.574738e+00	-3.999231e+01
1.800000e-06	-1.796504e-07	-5.567998e-10	-1.248675e+00	-3.924922e+01
1.810000e-06	-1.327183e-07	-5.470327e-10	-9.224693e-01	-3.847532e+01
1.820000e-06	-8.591749e-08	-5.338224e-10	-5.971766e-01	-3.766977e+01
1.830000e-06	-3.912854e-08	-5.199534e-10	-2.719662e-01	-3.683179e+01
1.840000e-06	7.735031e-09	-5.067483e-10	5.376297e-02	-3.596065e+01
1.850000e-06	5.454442e-08	-4.929950e-10	3.791155e-01	-3.505569e+01
1.860000e-06	1.013590e-07	-4.768014e-10	7.045039e-01	-3.411636e+01
1.870000e-06	1.482190e-07	-4.607471e-10	1.030208e+00	-3.314222e+01
1.880000e-06	1.950498e-07	-4.464631e-10	1.355710e+00	-3.213292e+01
1.890000e-06	2.419009e-07	-4.346261e-10	1.681352e+00	-3.108828e+01
1.900000e-06	2.887552e-07	-4.217644e-10	2.007017e+00	-3.000824e+01
1.910000e-06	3.355123e-07	-4.083341e-10	2.332006e+00	-2.889292e+01
1.920000e-06	3.821669e-07	-3.957860e-10	2.656283e+00	-2.774260e+01
1.930000e-06	4.288379e-07	-3.801947e-10	2.980674e+00	-2.655777e+01
1.940000e-06	4.754980e-07	-3.599800e-10	3.304989e+00	-2.533907e+01
1.950000e-06	5.221252e-07	-3.403981e-10	3.629074e+00	-2.408738e+01
1.960000e-06	5.686833e-07	-3.243169e-10	3.952681e+00	-2.280374e+01
1.970000e-06	6.151939e-07	-3.102401e-10	4.275956e+00	-2.148943e+01
1.980000e-06	6.617306e-07	-2.956565e-10	4.599413e+00	-2.014591e+01
1.990000e-06	7.082104e-07	-2.786868e-10	4.922475e+00	-1.877482e+01
2.000000e-06	7.545589e-07	-2.574870e-10	5.244624e+00	-1.737803e+01
2.010000e-06	8.007778e-07	-2.334560e-10	5.565872e+00	-1.595754e+01
2.020000e-06	8.469343e-07	-2.113490e-10	5.886687e+00	-1.451554e+01
2.030000e-06	8.930347e-07	-1.909497e-10	6.207112e+00	-1.305437e+01
2.040000e-06	9.390369e-07	-1.727585e-10	6.526854e+00	-1.157649e+01
2.050000e-06	9.849978e-07	-1.560641e-10	6.846309e+00	-1.008447e+01
2.060000e-06	1.030971e-06	-1.393097e-10	7.165850e+00	-8.580953e+00
2.070000e-06	1.076941e-06	-1.199184e-10	7.485367e+00	-7.068672e+00
2.080000e-06	1.122814e-06	-9.601722e-11	7.804209e+00	-5.550375e+00
2.090000e-06	1.168521e-06	-7.076978e-11	8.121900e+00	-4.028828e+00
2.100000e-06	1.214147e-06	-4.803866e-11	8.439026e+00	-2.506778e+00
2.110000e-06	1.259717e-06	-2.850797e-11	8.755770e+00	-9.869326e-01
2.120000e-06	1.305205e-06	-1.205649e-11	9.071933e+00	5.280714e-01
2.130000e-06	1.350623e-06	2.273892e-12	9.387615e+00	2.035687e+00
2.140000e-06	1.395934e-06	1.883403e-11	9.702557e+00	3.533484e+00
2.150000e-06	1.441102e-06	4.095610e-11	1.001650e+01	5.019168e+00
2.160000e-06	1.486179e-06	6.667457e-11	1.032981e+01	6.490598e+00
2.170000e-06	1.531185e-06	9.261576e-11	1.064263e+01	7.945806e+00
2.180000e-06	1.576112e-06	1.156014e-10	1.095489e+01	9.383006e+00
2.190000e-06	1.620929e-06	1.358586e-10	1.126640e+01	1.080061e+01
2.200000e-06	1.665552e-06	1.523655e-10	1.157656e+01	1.219721e+01
2.210000e-06	1.709998e-06	1.654674e-10	1.188548e+01	1.357164e+01
2.220000e-06	1.754381e-06	1.790508e-10	1.219397e+01	1.492290e+01
2.230000e-06	1.798655e-06	1.951544e-10	1.250170e+01	1.625020e+01
2.240000e-06	1.842785e-06	2.134027e-10	1.280843e+01	1.755295e+01
2.250000e-06	1.886805e-06	2.328256e-10	1.311440e+01	1.883073e+01
2.260000e-06	1.930709e-06	2.533234e-10	1.341955e+01	2.008329e+01
2.270000e-06	1.974562e-06	2.731002e-10	1.372435e+01	2.131055e+01
2.280000e-06	2.018339e-06	2.916379e-10	1.402863e+01	2.251253e+01
2.290000e-06	2.062018e-06	3.087203e-10	1.433223e+01	2.368939e+01
2.300000e-06	2.105688e-06	3.231501e-10	1.463576e+01	2.484139e+01
2.310000e-06	2.149324e-06	3.366404e-10	1.493905e+01	2.596885e+01
2.320000e-06	2.192863e-06	3.513623e-10	1.524168e+01	2.707214e+01
2.330000e-06	2.236278e-06	3.667005e-10	1.554343e+01	2.815168e+01
2.340000e-06	2.279512e-06	3.828990e-10	1.584394e+01	2.920788e+01
2.350000e-06	2.322581e-06	4.001665e-10	1.614329e+01	3.024115e+01
2.360000e-06	2.365525e-06	4.166258e-10	1.644178e+01	3.125188e+01
2.370000e-06	2.408239e-06	4.305101e-10	1.673867e+01	3.224040e+01
2.380000e-06	2.450552e-06	4.420302e-10	1.703277e+01	3.320701e+01
2.390000e-06	2.492465e-06	4.511814e-10	1.732409e+01	3.415191e+01
2.400000e-06	2.534027e-06	4.614585e-10	1.761296e+01	3.507525e+01
2.410000e-06	2.575236e-06	4.750950e-10	1.789939e+01	3.597711e+01
2.420000e-06	2.616141e-06	4.891842e-10	1.818370e+01	3.685747e+01
2.430000e-06	2.656798e-06	5.026777e-10	1.846629e+01	3.771622e+01
2.440000e-06	2.697281e-06	5.153304e-10	1.874767e+01	3.855322e+01
2.450000e-06	2.737550e-06	5.274561e-10	1.902757e+01	3.936821e+01
2.460000e-06	2.777626e-06	5.394380e-10	1.930612e+01	4.016092e+01
2.470000e-06	2.817549e-06	5.504148e-10	1.958361e+01	4.093100e+01
2.480000e-06	2.857331e-06	5.622960e-10	1.986011e+01	4.167808e+01
2.490000e-06	2.896995e-06	5.758032e-10	2.013580e+01	4.240177e+01
2.500000e-06	2.936528e-06	5.880594e-10	2.041058e+01	4.310171e+01
2.510000e-06	2.975934e-06	5.976489e-10	2.068448e+01	4.377751e+01
2.520000e-06	3.015190e-06	6.057290e-10	2.095733e+01	4.442886e+01
2.530000e-06	3.054262e-06	6.130281e-10	2.122890e+01	4.505547e+01
2.540000e-06	3.093121e-06	6.190990e-10	2.149900e+01	4.565715e+01
2.550000e-06	3.131737e-06	6.255007e-10	2.176740e+01	4.623378e+01
2.560000e-06	3.170098e-06	6.329183e-10	2.203403e+01	4.678533e+01
2.570000e-06	3.208184e-06	6.407160e-10	2.229875e+01	4.731190e+01
2.580000e-06	3.246039e-06	6.498365e-10	2.256186e+01	4.781371e+01
2.590000e-06	3.283700e-06	6.587364e-10	2.282363e+01	4.829109e+01
2.600000e-06	3.321160e-06	6.634399e-10	2.308400e+01	4.874452e+01
2.610000e-06	3.358415e-06	6.655659e-10	2.334294e+01	4.917459e+01
2.620000e-06	3.395410e-06	6.690110e-10	2.360008e+01	4.958203e+01
2.630000e-06	3.432114e-06	6.736412e-10	2.385519e+01	4.996770e+01
2.640000e-06	3.468541e-06	6.782197e-10	2.410838e+01	5.033257e+01
2.650000e-06	3.504796e-06	6.839330e-10	2.436037e+01	5.067772e+01
2.660000e-06	3.540857e-06	6.906511e-10	2.461102e+01	5.100429e+01
2.670000e-06	3.576674e-06	6.963738e-10	2.485997e+01	5.131354e+01
2.680000e-06	3.612341e-06	7.006667e-10	2.510788e+01	5.160676e+01
2.690000e-06	3.647901e-06	7.035671e-10	2.535504e+01	5.188527e+01
2.700000e-06	3.683379e-06	7.051843e-10	2.560163e+01	5.215043e+01
2.710000e-06	3.718689e-06	7.072582e-10	2.584706e+01	5.240357e+01
2.720000e-06	3.753697e-06	7.107909e-10	2.609038e+01	5.264603e+01
2.730000e-06	3.788342e-06	7.147791e-10	2.633118e+01	5.287906e+01
2.740000e-06	3.822599e-06	7.211988e-10	2.656929e+01	5.310389e+01
2.750000e-06	3.856500e-06	7.297180e-10	2.680492e+01	5.332162e+01
2.760000e-06	3.889937e-06	7.368637e-10	2.703733e+01	5.353329e+01
2.770000e-06	3.922798e-06	7.425050e-10	2.726573e+01	5.373982e+01
2.780000e-06	3.955171e-06	7.468610e-10	2.749075e+01	5.394197e+01
2.790000e-06	3.987232e-06	7.507524e-10	2.771359e+01	5.414042e+01
2.800000e-06	4.019087e-06	7.542222e-10	2.793500e+01	5.433567e+01
2.810000e-06	4.050805e-06	7.562798e-10	2.815546e+01	5.452808e+01
2.820000e-06	4.082422e-06	7.581911e-10	2.837521e+01	5.471790e+01
2.830000e-06	4.113877e-06	7.610325e-10	2.859384e+01	5.490521e+01
2.840000e-06	4.145045e-06	7.657629e-10	2.881048e+01	5.508998e+01
2.850000e-06	4.175887e-06	7.710116e-10	2.902485e+01	5.527204e+01
2.860000e-06	4.206429e-06	7.763153e-10	2.923714e+01	5.545114e+01
2.870000e-06	4.236644e-06	7.816254e-10	2.944715e+01	5.562692e+01
2.880000e-06	4.266523e-06	7.853938e-10	2.965482e+01	5.579894e+01
2.890000e-06	4.296079e-06	7.883151e-10	2.986025e+01	5.596672e+01
2.900000e-06	4.325386e-06	7.914102e-10	3.006395e+01	5.612974e+01
