# Temperatura_=_10.6
# Concentracion g/m^3_=_1620.0
# C_Vs_to_Am_M_A/Vsm_=_65563218390.804596
# pendiente_HvsI_1/m_=_3716.3
# ordenada_HvsI_A/m_=_1297.0
# frecuencia_Hz_=_135105.44087923138

Tiempo_(s)	Campo_(V.s)	Magnetizacion_(V.s)	Campo_(kA/m)	Magnetizacion_(A/m)
0.000000e+00	-5.522325e-06	-1.419448e-09	-3.836229e+01	-9.463969e+01
1.000000e-08	-5.522622e-06	-1.418987e-09	-3.836436e+01	-9.461570e+01
2.000000e-08	-5.522705e-06	-1.415933e-09	-3.836494e+01	-9.459018e+01
3.000000e-08	-5.522482e-06	-1.412953e-09	-3.836339e+01	-9.456324e+01
4.000000e-08	-5.521826e-06	-1.411271e-09	-3.835883e+01	-9.453502e+01
5.000000e-08	-5.520702e-06	-1.409535e-09	-3.835103e+01	-9.450566e+01
6.000000e-08	-5.519089e-06	-1.406997e-09	-3.833982e+01	-9.447529e+01
7.000000e-08	-5.516806e-06	-1.414312e-09	-3.832396e+01	-9.444403e+01
8.000000e-08	-5.513884e-06	-1.417400e-09	-3.830366e+01	-9.441200e+01
9.000000e-08	-5.510422e-06	-1.378937e-09	-3.827961e+01	-9.437929e+01
1.000000e-07	-5.506496e-06	-1.374219e-09	-3.825234e+01	-9.434594e+01
1.100000e-07	-5.502258e-06	-1.464307e-09	-3.822290e+01	-9.431197e+01
1.200000e-07	-5.497728e-06	-1.471825e-09	-3.819143e+01	-9.427736e+01
1.300000e-07	-5.492943e-06	-1.346866e-09	-3.815819e+01	-9.424203e+01
1.400000e-07	-5.487990e-06	-1.315772e-09	-3.812378e+01	-9.420585e+01
1.500000e-07	-5.482656e-06	-1.426662e-09	-3.808673e+01	-9.416864e+01
1.600000e-07	-5.476824e-06	-1.495944e-09	-3.804621e+01	-9.413017e+01
1.700000e-07	-5.470640e-06	-1.356748e-09	-3.800325e+01	-9.409013e+01
1.800000e-07	-5.464105e-06	-1.308043e-09	-3.795786e+01	-9.404819e+01
1.900000e-07	-5.457144e-06	-1.433586e-09	-3.790950e+01	-9.400395e+01
2.000000e-07	-5.449800e-06	-1.517901e-09	-3.785848e+01	-9.395695e+01
2.100000e-07	-5.442162e-06	-1.412756e-09	-3.780542e+01	-9.390674e+01
2.200000e-07	-5.434295e-06	-1.341135e-09	-3.775077e+01	-9.385278e+01
2.300000e-07	-5.426158e-06	-1.408235e-09	-3.769425e+01	-9.379456e+01
2.400000e-07	-5.417671e-06	-1.466784e-09	-3.763529e+01	-9.373152e+01
2.500000e-07	-5.408707e-06	-1.419325e-09	-3.757302e+01	-9.366311e+01
2.600000e-07	-5.399054e-06	-1.379159e-09	-3.750597e+01	-9.358881e+01
2.700000e-07	-5.388640e-06	-1.417202e-09	-3.743362e+01	-9.350808e+01
2.800000e-07	-5.377663e-06	-1.431962e-09	-3.735737e+01	-9.342046e+01
2.900000e-07	-5.366330e-06	-1.394010e-09	-3.727864e+01	-9.332550e+01
3.000000e-07	-5.354611e-06	-1.365615e-09	-3.719722e+01	-9.322281e+01
3.100000e-07	-5.342543e-06	-1.405334e-09	-3.711339e+01	-9.311209e+01
3.200000e-07	-5.330082e-06	-1.426043e-09	-3.702683e+01	-9.299308e+01
3.300000e-07	-5.317201e-06	-1.413515e-09	-3.693735e+01	-9.286562e+01
3.400000e-07	-5.303899e-06	-1.377843e-09	-3.684494e+01	-9.272964e+01
3.500000e-07	-5.290173e-06	-1.413136e-09	-3.674959e+01	-9.258515e+01
3.600000e-07	-5.276035e-06	-1.431965e-09	-3.665138e+01	-9.243228e+01
3.700000e-07	-5.261461e-06	-1.386745e-09	-3.655013e+01	-9.227122e+01
3.800000e-07	-5.246350e-06	-1.347053e-09	-3.644516e+01	-9.210229e+01
3.900000e-07	-5.230766e-06	-1.412445e-09	-3.633690e+01	-9.192588e+01
4.000000e-07	-5.214742e-06	-1.404216e-09	-3.622559e+01	-9.174246e+01
4.100000e-07	-5.198147e-06	-1.336271e-09	-3.611031e+01	-9.155261e+01
4.200000e-07	-5.181206e-06	-1.380109e-09	-3.599263e+01	-9.135695e+01
4.300000e-07	-5.164053e-06	-1.442689e-09	-3.587346e+01	-9.115617e+01
4.400000e-07	-5.146577e-06	-1.340190e-09	-3.575206e+01	-9.095101e+01
4.500000e-07	-5.128717e-06	-1.310647e-09	-3.562799e+01	-9.074223e+01
4.600000e-07	-5.110437e-06	-1.420627e-09	-3.550101e+01	-9.053062e+01
4.700000e-07	-5.091693e-06	-1.382290e-09	-3.537080e+01	-9.031699e+01
4.800000e-07	-5.072517e-06	-1.274059e-09	-3.523759e+01	-9.010211e+01
4.900000e-07	-5.053096e-06	-1.359981e-09	-3.510267e+01	-8.988674e+01
5.000000e-07	-5.033501e-06	-1.408755e-09	-3.496655e+01	-8.967160e+01
5.100000e-07	-5.013719e-06	-1.297810e-09	-3.482913e+01	-8.945736e+01
5.200000e-07	-4.993706e-06	-1.325075e-09	-3.469010e+01	-8.924463e+01
5.300000e-07	-4.973392e-06	-1.407153e-09	-3.454899e+01	-8.903391e+01
5.400000e-07	-4.952673e-06	-1.307859e-09	-3.440506e+01	-8.882565e+01
5.500000e-07	-4.931553e-06	-1.269043e-09	-3.425834e+01	-8.862018e+01
5.600000e-07	-4.910131e-06	-1.383327e-09	-3.410953e+01	-8.841773e+01
5.700000e-07	-4.888346e-06	-1.336475e-09	-3.395819e+01	-8.821845e+01
5.800000e-07	-4.866183e-06	-1.243459e-09	-3.380424e+01	-8.802235e+01
5.900000e-07	-4.843782e-06	-1.326633e-09	-3.364862e+01	-8.782934e+01
6.000000e-07	-4.820996e-06	-1.357071e-09	-3.349033e+01	-8.763922e+01
6.100000e-07	-4.797744e-06	-1.259505e-09	-3.332880e+01	-8.745172e+01
6.200000e-07	-4.774224e-06	-1.292071e-09	-3.316541e+01	-8.726643e+01
6.300000e-07	-4.750522e-06	-1.345136e-09	-3.300076e+01	-8.708288e+01
6.400000e-07	-4.726592e-06	-1.279431e-09	-3.283453e+01	-8.690053e+01
6.500000e-07	-4.702383e-06	-1.265600e-09	-3.266635e+01	-8.671877e+01
6.600000e-07	-4.677828e-06	-1.323067e-09	-3.249578e+01	-8.653694e+01
6.700000e-07	-4.652756e-06	-1.286476e-09	-3.232160e+01	-8.635434e+01
6.800000e-07	-4.627122e-06	-1.260696e-09	-3.214353e+01	-8.617027e+01
6.900000e-07	-4.600921e-06	-1.303537e-09	-3.196152e+01	-8.598399e+01
7.000000e-07	-4.574227e-06	-1.295352e-09	-3.177608e+01	-8.579480e+01
7.100000e-07	-4.547137e-06	-1.256545e-09	-3.158790e+01	-8.560201e+01
7.200000e-07	-4.519726e-06	-1.279346e-09	-3.139748e+01	-8.540498e+01
7.300000e-07	-4.492098e-06	-1.280316e-09	-3.120555e+01	-8.520311e+01
7.400000e-07	-4.464299e-06	-1.247960e-09	-3.101244e+01	-8.499586e+01
7.500000e-07	-4.436374e-06	-1.255096e-09	-3.081845e+01	-8.478278e+01
7.600000e-07	-4.408227e-06	-1.269445e-09	-3.062292e+01	-8.456346e+01
7.700000e-07	-4.379710e-06	-1.246313e-09	-3.042482e+01	-8.433763e+01
7.800000e-07	-4.350822e-06	-1.239507e-09	-3.022414e+01	-8.410508e+01
7.900000e-07	-4.321651e-06	-1.247668e-09	-3.002150e+01	-8.386569e+01
8.000000e-07	-4.292212e-06	-1.232564e-09	-2.981699e+01	-8.361943e+01
8.100000e-07	-4.262454e-06	-1.227015e-09	-2.961027e+01	-8.336639e+01
8.200000e-07	-4.232438e-06	-1.238662e-09	-2.940176e+01	-8.310671e+01
8.300000e-07	-4.202085e-06	-1.229534e-09	-2.919090e+01	-8.284062e+01
8.400000e-07	-4.171326e-06	-1.213389e-09	-2.897722e+01	-8.256842e+01
8.500000e-07	-4.140287e-06	-1.223806e-09	-2.876160e+01	-8.229049e+01
8.600000e-07	-4.109026e-06	-1.222152e-09	-2.854444e+01	-8.200723e+01
8.700000e-07	-4.077574e-06	-1.203456e-09	-2.832595e+01	-8.171910e+01
8.800000e-07	-4.045951e-06	-1.200382e-09	-2.810627e+01	-8.142657e+01
8.900000e-07	-4.014194e-06	-1.202426e-09	-2.788566e+01	-8.113013e+01
9.000000e-07	-3.982239e-06	-1.182546e-09	-2.766368e+01	-8.083028e+01
9.100000e-07	-3.950024e-06	-1.177018e-09	-2.743989e+01	-8.052749e+01
9.200000e-07	-3.917467e-06	-1.184086e-09	-2.721372e+01	-8.022220e+01
9.300000e-07	-3.884527e-06	-1.174869e-09	-2.698490e+01	-7.991484e+01
9.400000e-07	-3.851177e-06	-1.161883e-09	-2.675323e+01	-7.960577e+01
9.500000e-07	-3.817314e-06	-1.169304e-09	-2.651799e+01	-7.929529e+01
9.600000e-07	-3.783047e-06	-1.163044e-09	-2.627994e+01	-7.898366e+01
9.700000e-07	-3.748378e-06	-1.144183e-09	-2.603910e+01	-7.867104e+01
9.800000e-07	-3.713260e-06	-1.139070e-09	-2.579515e+01	-7.835753e+01
9.900000e-07	-3.677852e-06	-1.137982e-09	-2.554918e+01	-7.804318e+01
1.000000e-06	-3.642278e-06	-1.121955e-09	-2.530205e+01	-7.772792e+01
1.010000e-06	-3.606604e-06	-1.117190e-09	-2.505423e+01	-7.741163e+01
1.020000e-06	-3.570837e-06	-1.123378e-09	-2.480577e+01	-7.709413e+01
1.030000e-06	-3.534935e-06	-1.118981e-09	-2.455637e+01	-7.677516e+01
1.040000e-06	-3.498781e-06	-1.111719e-09	-2.430521e+01	-7.645441e+01
1.050000e-06	-3.462333e-06	-1.113671e-09	-2.405202e+01	-7.613151e+01
1.060000e-06	-3.425534e-06	-1.106019e-09	-2.379638e+01	-7.580608e+01
1.070000e-06	-3.388457e-06	-1.088548e-09	-2.353882e+01	-7.547768e+01
1.080000e-06	-3.351279e-06	-1.081166e-09	-2.328055e+01	-7.514588e+01
1.090000e-06	-3.313845e-06	-1.077311e-09	-2.302050e+01	-7.481022e+01
1.100000e-06	-3.276104e-06	-1.067821e-09	-2.275832e+01	-7.447026e+01
1.110000e-06	-3.238214e-06	-1.063482e-09	-2.249512e+01	-7.412558e+01
1.120000e-06	-3.200108e-06	-1.066603e-09	-2.223040e+01	-7.377579e+01
1.130000e-06	-3.161785e-06	-1.061704e-09	-2.196418e+01	-7.342051e+01
1.140000e-06	-3.123332e-06	-1.052940e-09	-2.169705e+01	-7.305943e+01
1.150000e-06	-3.084676e-06	-1.048316e-09	-2.142852e+01	-7.269230e+01
1.160000e-06	-3.045745e-06	-1.041154e-09	-2.115808e+01	-7.231891e+01
1.170000e-06	-3.006546e-06	-1.028429e-09	-2.088577e+01	-7.193911e+01
1.180000e-06	-2.967231e-06	-1.021869e-09	-2.061266e+01	-7.155285e+01
1.190000e-06	-2.927762e-06	-1.017673e-09	-2.033847e+01	-7.116010e+01
1.200000e-06	-2.888097e-06	-1.012573e-09	-2.006293e+01	-7.076092e+01
1.210000e-06	-2.848338e-06	-1.007151e-09	-1.978674e+01	-7.035543e+01
1.220000e-06	-2.808466e-06	-1.003139e-09	-1.950975e+01	-6.994382e+01
1.230000e-06	-2.768471e-06	-9.947840e-10	-1.923192e+01	-6.952629e+01
1.240000e-06	-2.728305e-06	-9.895261e-10	-1.895290e+01	-6.910313e+01
1.250000e-06	-2.687873e-06	-9.867220e-10	-1.867202e+01	-6.867463e+01
1.260000e-06	-2.647169e-06	-9.827556e-10	-1.838927e+01	-6.824112e+01
1.270000e-06	-2.606192e-06	-9.747646e-10	-1.810460e+01	-6.780296e+01
1.280000e-06	-2.564949e-06	-9.670295e-10	-1.781810e+01	-6.736048e+01
1.290000e-06	-2.523466e-06	-9.582790e-10	-1.752993e+01	-6.691401e+01
1.300000e-06	-2.481762e-06	-9.469342e-10	-1.724022e+01	-6.646389e+01
1.310000e-06	-2.439812e-06	-9.394605e-10	-1.694880e+01	-6.601039e+01
1.320000e-06	-2.397480e-06	-9.368571e-10	-1.665473e+01	-6.555375e+01
1.330000e-06	-2.354772e-06	-9.332065e-10	-1.635805e+01	-6.509419e+01
1.340000e-06	-2.311768e-06	-9.273530e-10	-1.605931e+01	-6.463183e+01
1.350000e-06	-2.268563e-06	-9.195633e-10	-1.575918e+01	-6.416674e+01
1.360000e-06	-2.225277e-06	-9.081695e-10	-1.545848e+01	-6.369892e+01
1.370000e-06	-2.181875e-06	-8.957648e-10	-1.515697e+01	-6.322830e+01
1.380000e-06	-2.138340e-06	-8.867982e-10	-1.485454e+01	-6.275471e+01
1.390000e-06	-2.094719e-06	-8.807466e-10	-1.455152e+01	-6.227791e+01
1.400000e-06	-2.050985e-06	-8.771012e-10	-1.424771e+01	-6.179760e+01
1.410000e-06	-2.007163e-06	-8.742933e-10	-1.394329e+01	-6.131336e+01
1.420000e-06	-1.963279e-06	-8.687681e-10	-1.363844e+01	-6.082473e+01
1.430000e-06	-1.919283e-06	-8.600607e-10	-1.333281e+01	-6.033116e+01
1.440000e-06	-1.875241e-06	-8.488472e-10	-1.302686e+01	-5.983205e+01
1.450000e-06	-1.831184e-06	-8.388383e-10	-1.272081e+01	-5.932673e+01
1.460000e-06	-1.786983e-06	-8.280582e-10	-1.241375e+01	-5.881448e+01
1.470000e-06	-1.742517e-06	-8.180222e-10	-1.210485e+01	-5.829454e+01
1.480000e-06	-1.697928e-06	-8.093534e-10	-1.179511e+01	-5.776612e+01
1.490000e-06	-1.653277e-06	-8.026731e-10	-1.148493e+01	-5.722840e+01
1.500000e-06	-1.608416e-06	-7.940589e-10	-1.117329e+01	-5.668054e+01
1.510000e-06	-1.563391e-06	-7.842612e-10	-1.086051e+01	-5.612169e+01
1.520000e-06	-1.518314e-06	-7.761169e-10	-1.054737e+01	-5.555102e+01
1.530000e-06	-1.473072e-06	-7.692388e-10	-1.023309e+01	-5.496767e+01
1.540000e-06	-1.427673e-06	-7.594591e-10	-9.917713e+00	-5.437081e+01
1.550000e-06	-1.382273e-06	-7.476051e-10	-9.602329e+00	-5.375962e+01
1.560000e-06	-1.336824e-06	-7.369474e-10	-9.286601e+00	-5.313331e+01
1.570000e-06	-1.291275e-06	-7.260292e-10	-8.970182e+00	-5.249109e+01
1.580000e-06	-1.245607e-06	-7.141526e-10	-8.652938e+00	-5.183220e+01
1.590000e-06	-1.199860e-06	-7.050156e-10	-8.335149e+00	-5.115592e+01
1.600000e-06	-1.154078e-06	-6.989744e-10	-8.017110e+00	-5.046151e+01
1.610000e-06	-1.108181e-06	-6.927715e-10	-7.698272e+00	-4.974828e+01
1.620000e-06	-1.062134e-06	-6.841774e-10	-7.378398e+00	-4.901554e+01
1.630000e-06	-1.016031e-06	-6.744314e-10	-7.058127e+00	-4.826263e+01
1.640000e-06	-9.699036e-07	-6.645486e-10	-6.737693e+00	-4.748887e+01
1.650000e-06	-9.237852e-07	-6.533091e-10	-6.417319e+00	-4.669361e+01
1.660000e-06	-8.775646e-07	-6.401296e-10	-6.096235e+00	-4.587616e+01
1.670000e-06	-8.311927e-07	-6.253738e-10	-5.774101e+00	-4.503586e+01
1.680000e-06	-7.847528e-07	-6.086116e-10	-5.451494e+00	-4.417203e+01
1.690000e-06	-7.382794e-07	-5.910581e-10	-5.128654e+00	-4.328395e+01
1.700000e-06	-6.918061e-07	-5.771573e-10	-4.805815e+00	-4.237093e+01
1.710000e-06	-6.453517e-07	-5.643015e-10	-4.483107e+00	-4.143221e+01
1.720000e-06	-5.988921e-07	-5.495886e-10	-4.160363e+00	-4.046707e+01
1.730000e-06	-5.523703e-07	-5.354109e-10	-3.837187e+00	-3.947472e+01
1.740000e-06	-5.057563e-07	-5.207673e-10	-3.513371e+00	-3.845439e+01
1.750000e-06	-4.589827e-07	-5.030674e-10	-3.188445e+00	-3.740530e+01
1.760000e-06	-4.121192e-07	-4.836146e-10	-2.862895e+00	-3.632666e+01
1.770000e-06	-3.652550e-07	-4.646978e-10	-2.537341e+00	-3.521770e+01
1.780000e-06	-3.183544e-07	-4.467035e-10	-2.211533e+00	-3.407766e+01
1.790000e-06	-2.714068e-07	-4.307738e-10	-1.885399e+00	-3.290580e+01
1.800000e-06	-2.244527e-07	-4.181010e-10	-1.559221e+00	-3.170145e+01
1.810000e-06	-1.775916e-07	-4.044896e-10	-1.233687e+00	-3.046396e+01
1.820000e-06	-1.307455e-07	-3.884361e-10	-9.082586e-01	-2.919277e+01
1.830000e-06	-8.376125e-08	-3.709122e-10	-5.818698e-01	-2.788742e+01
1.840000e-06	-3.678505e-08	-3.523980e-10	-2.555371e-01	-2.654753e+01
1.850000e-06	1.010976e-08	-3.330557e-10	7.023011e-02	-2.517284e+01
1.860000e-06	5.696870e-08	-3.133999e-10	3.957482e-01	-2.376323e+01
1.870000e-06	1.038511e-07	-2.916938e-10	7.214289e-01	-2.231873e+01
1.880000e-06	1.507105e-07	-2.688026e-10	1.046950e+00	-2.083952e+01
1.890000e-06	1.975140e-07	-2.486874e-10	1.372084e+00	-1.932596e+01
1.900000e-06	2.443360e-07	-2.297788e-10	1.697345e+00	-1.777860e+01
1.910000e-06	2.911884e-07	-2.091791e-10	2.022817e+00	-1.619818e+01
1.920000e-06	3.380402e-07	-1.877456e-10	2.348286e+00	-1.458564e+01
1.930000e-06	3.848105e-07	-1.654476e-10	2.673189e+00	-1.294210e+01
1.940000e-06	4.315181e-07	-1.407384e-10	2.997655e+00	-1.126893e+01
1.950000e-06	4.781794e-07	-1.146900e-10	3.321800e+00	-9.567677e+00
1.960000e-06	5.247759e-07	-9.005076e-11	3.645495e+00	-7.840080e+00
1.970000e-06	5.713589e-07	-6.856523e-11	3.969096e+00	-6.088084e+00
1.980000e-06	6.179381e-07	-4.666995e-11	4.292671e+00	-4.313812e+00
1.990000e-06	6.644153e-07	-2.360970e-11	4.615537e+00	-2.519557e+00
2.000000e-06	7.107699e-07	4.810011e-13	4.937552e+00	-7.077628e-01
2.010000e-06	7.571244e-07	2.875056e-11	5.259566e+00	1.118986e+00
2.020000e-06	8.034612e-07	5.960089e-11	5.581456e+00	2.957993e+00
2.030000e-06	8.496862e-07	8.672105e-11	5.902571e+00	4.806462e+00
2.040000e-06	8.958765e-07	1.106976e-10	6.223444e+00	6.661531e+00
2.050000e-06	9.420365e-07	1.333006e-10	6.544107e+00	8.520286e+00
2.060000e-06	9.881000e-07	1.566743e-10	6.864099e+00	1.037980e+01
2.070000e-06	1.034090e-06	1.831851e-10	7.183582e+00	1.223713e+01
2.080000e-06	1.080056e-06	2.101022e-10	7.502894e+00	1.408939e+01
2.090000e-06	1.125967e-06	2.387596e-10	7.821832e+00	1.593372e+01
2.100000e-06	1.171769e-06	2.652798e-10	8.140003e+00	1.776737e+01
2.110000e-06	1.217459e-06	2.894112e-10	8.457404e+00	1.958766e+01
2.120000e-06	1.263080e-06	3.130633e-10	8.774319e+00	2.139205e+01
2.130000e-06	1.308655e-06	3.374142e-10	9.090916e+00	2.317815e+01
2.140000e-06	1.354150e-06	3.623253e-10	9.406964e+00	2.494370e+01
2.150000e-06	1.399524e-06	3.841920e-10	9.722167e+00	2.668666e+01
2.160000e-06	1.444787e-06	4.072284e-10	1.003660e+01	2.840514e+01
2.170000e-06	1.489931e-06	4.326805e-10	1.035020e+01	3.009745e+01
2.180000e-06	1.534974e-06	4.585628e-10	1.066310e+01	3.176212e+01
2.190000e-06	1.579913e-06	4.845560e-10	1.097529e+01	3.339788e+01
2.200000e-06	1.624711e-06	5.105941e-10	1.128649e+01	3.500366e+01
2.210000e-06	1.669390e-06	5.330325e-10	1.159686e+01	3.657860e+01
2.220000e-06	1.713936e-06	5.497089e-10	1.190631e+01	3.812203e+01
2.230000e-06	1.758398e-06	5.661725e-10	1.221518e+01	3.963349e+01
2.240000e-06	1.802673e-06	5.824511e-10	1.252275e+01	4.111270e+01
2.250000e-06	1.846756e-06	5.991049e-10	1.282898e+01	4.255954e+01
2.260000e-06	1.890794e-06	6.182534e-10	1.313491e+01	4.397406e+01
2.270000e-06	1.934779e-06	6.421202e-10	1.344046e+01	4.535643e+01
2.280000e-06	1.978717e-06	6.683276e-10	1.374568e+01	4.670699e+01
2.290000e-06	2.022585e-06	6.902651e-10	1.405042e+01	4.802615e+01
2.300000e-06	2.066360e-06	7.090424e-10	1.435452e+01	4.931443e+01
2.310000e-06	2.110069e-06	7.230054e-10	1.465815e+01	5.057242e+01
2.320000e-06	2.153697e-06	7.346218e-10	1.496123e+01	5.180078e+01
2.330000e-06	2.197183e-06	7.479291e-10	1.526332e+01	5.300020e+01
2.340000e-06	2.240513e-06	7.640545e-10	1.556432e+01	5.417141e+01
2.350000e-06	2.283699e-06	7.834126e-10	1.586432e+01	5.531514e+01
2.360000e-06	2.326714e-06	8.024641e-10	1.616314e+01	5.643211e+01
2.370000e-06	2.369441e-06	8.195873e-10	1.645995e+01	5.752306e+01
2.380000e-06	2.411900e-06	8.329091e-10	1.675491e+01	5.858867e+01
2.390000e-06	2.454096e-06	8.443628e-10	1.704803e+01	5.962961e+01
2.400000e-06	2.495937e-06	8.569428e-10	1.733869e+01	6.064650e+01
2.410000e-06	2.537511e-06	8.706915e-10	1.762749e+01	6.163994e+01
2.420000e-06	2.578761e-06	8.854706e-10	1.791405e+01	6.261044e+01
2.430000e-06	2.619607e-06	9.003212e-10	1.819779e+01	6.355850e+01
2.440000e-06	2.660285e-06	9.158384e-10	1.848038e+01	6.448456e+01
2.450000e-06	2.700809e-06	9.304119e-10	1.876189e+01	6.538900e+01
2.460000e-06	2.741045e-06	9.426000e-10	1.904139e+01	6.627218e+01
2.470000e-06	2.781149e-06	9.551949e-10	1.931999e+01	6.713439e+01
2.480000e-06	2.821144e-06	9.686547e-10	1.959783e+01	6.797590e+01
2.490000e-06	2.860978e-06	9.818782e-10	1.987454e+01	6.879696e+01
2.500000e-06	2.900673e-06	9.952669e-10	2.015029e+01	6.959777e+01
2.510000e-06	2.940240e-06	1.007153e-09	2.042516e+01	7.037853e+01
2.520000e-06	2.979630e-06	1.016362e-09	2.069879e+01	7.113942e+01
2.530000e-06	3.018892e-06	1.024669e-09	2.097153e+01	7.188062e+01
2.540000e-06	3.058000e-06	1.033278e-09	2.124321e+01	7.260229e+01
2.550000e-06	3.096783e-06	1.041141e-09	2.151263e+01	7.330463e+01
2.560000e-06	3.135369e-06	1.048126e-09	2.178068e+01	7.398780e+01
2.570000e-06	3.173769e-06	1.056988e-09	2.204743e+01	7.465202e+01
2.580000e-06	3.211875e-06	1.066659e-09	2.231214e+01	7.529751e+01
2.590000e-06	3.249749e-06	1.075940e-09	2.257525e+01	7.592448e+01
2.600000e-06	3.287443e-06	1.085421e-09	2.283710e+01	7.653321e+01
2.610000e-06	3.324957e-06	1.094066e-09	2.309769e+01	7.712398e+01
2.620000e-06	3.362277e-06	1.100917e-09	2.335695e+01	7.769707e+01
2.630000e-06	3.399395e-06	1.107276e-09	2.361480e+01	7.825282e+01
2.640000e-06	3.436209e-06	1.113958e-09	2.387054e+01	7.879156e+01
2.650000e-06	3.472697e-06	1.119129e-09	2.412401e+01	7.931365e+01
2.660000e-06	3.508959e-06	1.125026e-09	2.437592e+01	7.981947e+01
2.670000e-06	3.544994e-06	1.130724e-09	2.462624e+01	8.030940e+01
2.680000e-06	3.580830e-06	1.136393e-09	2.487519e+01	8.078385e+01
2.690000e-06	3.616573e-06	1.143362e-09	2.512349e+01	8.124322e+01
2.700000e-06	3.652245e-06	1.150012e-09	2.537129e+01	8.168792e+01
2.710000e-06	3.687746e-06	1.155768e-09	2.561791e+01	8.211837e+01
2.720000e-06	3.723001e-06	1.161814e-09	2.586281e+01	8.253497e+01
2.730000e-06	3.757996e-06	1.168983e-09	2.610592e+01	8.293814e+01
2.740000e-06	3.792645e-06	1.175241e-09	2.634661e+01	8.332829e+01
2.750000e-06	3.826850e-06	1.180075e-09	2.658423e+01	8.370582e+01
2.760000e-06	3.860561e-06	1.185550e-09	2.681841e+01	8.407111e+01
2.770000e-06	3.893718e-06	1.193369e-09	2.704875e+01	8.442457e+01
2.780000e-06	3.926442e-06	1.201871e-09	2.727607e+01	8.476656e+01
2.790000e-06	3.958873e-06	1.210062e-09	2.750136e+01	8.509748e+01
2.800000e-06	3.991031e-06	1.217133e-09	2.772476e+01	8.541768e+01
2.810000e-06	4.022954e-06	1.222556e-09	2.794652e+01	8.572754e+01
2.820000e-06	4.054698e-06	1.225508e-09	2.816704e+01	8.602742e+01
2.830000e-06	4.086281e-06	1.226903e-09	2.838643e+01	8.631769e+01
2.840000e-06	4.117709e-06	1.228137e-09	2.860476e+01	8.659871e+01
2.850000e-06	4.148912e-06	1.230833e-09	2.882152e+01	8.687087e+01
2.860000e-06	4.179760e-06	1.236991e-09	2.903581e+01	8.713452e+01
2.870000e-06	4.210247e-06	1.244721e-09	2.924760e+01	8.739005e+01
2.880000e-06	4.240437e-06	1.251472e-09	2.945732e+01	8.763786e+01
2.890000e-06	4.270359e-06	1.258271e-09	2.966518e+01	8.787833e+01
2.900000e-06	4.300026e-06	1.264608e-09	2.987127e+01	8.811187e+01
