# Temperatura_=_-18.53
# Concentracion g/m^3_=_1620.0
# C_Vs_to_Am_M_A/Vsm_=_65563218390.804596
# pendiente_HvsI_1/m_=_3716.3
# ordenada_HvsI_A/m_=_1297.0
# frecuencia_Hz_=_135111.57886797516

Tiempo_(s)	Campo_(V.s)	Magnetizacion_(V.s)	Campo_(kA/m)	Magnetizacion_(A/m)
0.000000e+00	-5.533204e-06	-7.873958e-10	-3.836500e+01	-5.298623e+01
1.000000e-08	-5.533438e-06	-7.888633e-10	-3.836662e+01	-5.299953e+01
2.000000e-08	-5.533362e-06	-7.916551e-10	-3.836610e+01	-5.301647e+01
3.000000e-08	-5.532895e-06	-7.931579e-10	-3.836286e+01	-5.303735e+01
4.000000e-08	-5.531985e-06	-7.912234e-10	-3.835655e+01	-5.306241e+01
5.000000e-08	-5.530590e-06	-7.881093e-10	-3.834688e+01	-5.309185e+01
6.000000e-08	-5.528807e-06	-7.955541e-10	-3.833452e+01	-5.312578e+01
7.000000e-08	-5.526565e-06	-8.141854e-10	-3.831897e+01	-5.316427e+01
8.000000e-08	-5.523695e-06	-7.834106e-10	-3.829907e+01	-5.320730e+01
9.000000e-08	-5.520254e-06	-7.000046e-10	-3.827521e+01	-5.325475e+01
1.000000e-07	-5.516335e-06	-7.055152e-10	-3.824804e+01	-5.330645e+01
1.100000e-07	-5.512040e-06	-8.313534e-10	-3.821826e+01	-5.336212e+01
1.200000e-07	-5.507468e-06	-8.735434e-10	-3.818656e+01	-5.342140e+01
1.300000e-07	-5.502615e-06	-7.614980e-10	-3.815291e+01	-5.348386e+01
1.400000e-07	-5.497423e-06	-7.066203e-10	-3.811691e+01	-5.354898e+01
1.500000e-07	-5.491917e-06	-7.969068e-10	-3.807873e+01	-5.361618e+01
1.600000e-07	-5.486013e-06	-8.371759e-10	-3.803780e+01	-5.368482e+01
1.700000e-07	-5.479697e-06	-7.586736e-10	-3.799401e+01	-5.375420e+01
1.800000e-07	-5.472960e-06	-7.068154e-10	-3.794730e+01	-5.382358e+01
1.900000e-07	-5.465781e-06	-8.301488e-10	-3.789752e+01	-5.389221e+01
2.000000e-07	-5.458266e-06	-8.645634e-10	-3.784542e+01	-5.395930e+01
2.100000e-07	-5.450477e-06	-8.313245e-10	-3.779141e+01	-5.402410e+01
2.200000e-07	-5.442495e-06	-7.629822e-10	-3.773606e+01	-5.408583e+01
2.300000e-07	-5.434286e-06	-8.169667e-10	-3.767915e+01	-5.414376e+01
2.400000e-07	-5.425640e-06	-8.351900e-10	-3.761920e+01	-5.419723e+01
2.500000e-07	-5.416459e-06	-8.315351e-10	-3.755554e+01	-5.424559e+01
2.600000e-07	-5.406618e-06	-8.067662e-10	-3.748731e+01	-5.428829e+01
2.700000e-07	-5.396102e-06	-8.220425e-10	-3.741440e+01	-5.432486e+01
2.800000e-07	-5.385077e-06	-8.274910e-10	-3.733795e+01	-5.435490e+01
2.900000e-07	-5.373666e-06	-8.168470e-10	-3.725883e+01	-5.437815e+01
3.000000e-07	-5.361861e-06	-8.020407e-10	-3.717698e+01	-5.439442e+01
3.100000e-07	-5.349609e-06	-7.952037e-10	-3.709203e+01	-5.440365e+01
3.200000e-07	-5.336948e-06	-8.392757e-10	-3.700425e+01	-5.440588e+01
3.300000e-07	-5.323885e-06	-8.262117e-10	-3.691367e+01	-5.440127e+01
3.400000e-07	-5.310430e-06	-8.076539e-10	-3.682038e+01	-5.439009e+01
3.500000e-07	-5.296570e-06	-7.979323e-10	-3.672428e+01	-5.437272e+01
3.600000e-07	-5.282225e-06	-8.357712e-10	-3.662481e+01	-5.434962e+01
3.700000e-07	-5.267362e-06	-7.854554e-10	-3.652176e+01	-5.432138e+01
3.800000e-07	-5.251988e-06	-8.001273e-10	-3.641516e+01	-5.428863e+01
3.900000e-07	-5.236051e-06	-8.367412e-10	-3.630466e+01	-5.425208e+01
4.000000e-07	-5.219623e-06	-8.163637e-10	-3.619076e+01	-5.421250e+01
4.100000e-07	-5.202869e-06	-7.526496e-10	-3.607459e+01	-5.417072e+01
4.200000e-07	-5.185864e-06	-8.363570e-10	-3.595669e+01	-5.412755e+01
4.300000e-07	-5.168493e-06	-8.563360e-10	-3.583624e+01	-5.408384e+01
4.400000e-07	-5.150746e-06	-7.650062e-10	-3.571319e+01	-5.404044e+01
4.500000e-07	-5.132661e-06	-7.641345e-10	-3.558780e+01	-5.399817e+01
4.600000e-07	-5.114205e-06	-8.712839e-10	-3.545983e+01	-5.395780e+01
4.700000e-07	-5.095328e-06	-8.049164e-10	-3.532895e+01	-5.392006e+01
4.800000e-07	-5.076099e-06	-7.459437e-10	-3.519562e+01	-5.388564e+01
4.900000e-07	-5.056623e-06	-8.306847e-10	-3.506059e+01	-5.385513e+01
5.000000e-07	-5.036882e-06	-8.454562e-10	-3.492370e+01	-5.382903e+01
5.100000e-07	-5.016870e-06	-7.501167e-10	-3.478495e+01	-5.380777e+01
5.200000e-07	-4.996575e-06	-8.070570e-10	-3.464423e+01	-5.379167e+01
5.300000e-07	-4.975965e-06	-8.660284e-10	-3.450133e+01	-5.378095e+01
5.400000e-07	-4.955040e-06	-7.787505e-10	-3.435624e+01	-5.377572e+01
5.500000e-07	-4.933783e-06	-7.650326e-10	-3.420886e+01	-5.377600e+01
5.600000e-07	-4.912181e-06	-8.464020e-10	-3.405908e+01	-5.378169e+01
5.700000e-07	-4.890248e-06	-8.018834e-10	-3.390700e+01	-5.379261e+01
5.800000e-07	-4.867928e-06	-7.503766e-10	-3.375225e+01	-5.380848e+01
5.900000e-07	-4.845254e-06	-8.246705e-10	-3.359504e+01	-5.382893e+01
6.000000e-07	-4.822259e-06	-8.270426e-10	-3.343560e+01	-5.385352e+01
6.100000e-07	-4.798914e-06	-7.686689e-10	-3.327373e+01	-5.388176e+01
6.200000e-07	-4.775338e-06	-8.011215e-10	-3.311027e+01	-5.391309e+01
6.300000e-07	-4.751558e-06	-8.352598e-10	-3.294538e+01	-5.394691e+01
6.400000e-07	-4.727492e-06	-7.799360e-10	-3.277852e+01	-5.398259e+01
6.500000e-07	-4.703106e-06	-7.861255e-10	-3.260944e+01	-5.401951e+01
6.600000e-07	-4.678317e-06	-8.165632e-10	-3.243756e+01	-5.405702e+01
6.700000e-07	-4.653035e-06	-7.935249e-10	-3.226227e+01	-5.409448e+01
6.800000e-07	-4.627157e-06	-7.779464e-10	-3.208284e+01	-5.413129e+01
6.900000e-07	-4.600781e-06	-8.197721e-10	-3.189996e+01	-5.416687e+01
7.000000e-07	-4.573957e-06	-8.081099e-10	-3.171397e+01	-5.420068e+01
7.100000e-07	-4.546667e-06	-7.904816e-10	-3.152475e+01	-5.423224e+01
7.200000e-07	-4.519121e-06	-8.012352e-10	-3.133376e+01	-5.426112e+01
7.300000e-07	-4.491402e-06	-8.085433e-10	-3.114157e+01	-5.428695e+01
7.400000e-07	-4.463509e-06	-7.868168e-10	-3.094817e+01	-5.430943e+01
7.500000e-07	-4.435415e-06	-7.976285e-10	-3.075338e+01	-5.432832e+01
7.600000e-07	-4.407069e-06	-8.037164e-10	-3.055684e+01	-5.434347e+01
7.700000e-07	-4.378416e-06	-7.983360e-10	-3.035817e+01	-5.435478e+01
7.800000e-07	-4.349429e-06	-7.995936e-10	-3.015719e+01	-5.436222e+01
7.900000e-07	-4.320160e-06	-8.104577e-10	-2.995425e+01	-5.436582e+01
8.000000e-07	-4.290566e-06	-7.996533e-10	-2.974905e+01	-5.436567e+01
8.100000e-07	-4.260669e-06	-7.995242e-10	-2.954176e+01	-5.436191e+01
8.200000e-07	-4.230432e-06	-8.092647e-10	-2.933211e+01	-5.435473e+01
8.300000e-07	-4.199864e-06	-8.069501e-10	-2.912016e+01	-5.434435e+01
8.400000e-07	-4.169072e-06	-8.028586e-10	-2.890666e+01	-5.433102e+01
8.500000e-07	-4.138010e-06	-8.161186e-10	-2.869129e+01	-5.431502e+01
8.600000e-07	-4.106620e-06	-8.222365e-10	-2.847364e+01	-5.429664e+01
8.700000e-07	-4.074985e-06	-8.132285e-10	-2.825430e+01	-5.427616e+01
8.800000e-07	-4.043218e-06	-8.143886e-10	-2.803404e+01	-5.425390e+01
8.900000e-07	-4.011334e-06	-8.140633e-10	-2.781297e+01	-5.423012e+01
9.000000e-07	-3.979239e-06	-8.040109e-10	-2.759044e+01	-5.420510e+01
9.100000e-07	-3.946809e-06	-8.005413e-10	-2.736558e+01	-5.417911e+01
9.200000e-07	-3.914028e-06	-8.124707e-10	-2.713829e+01	-5.415236e+01
9.300000e-07	-3.880879e-06	-8.095569e-10	-2.690845e+01	-5.412508e+01
9.400000e-07	-3.847265e-06	-8.112618e-10	-2.667539e+01	-5.409742e+01
9.500000e-07	-3.813170e-06	-8.162840e-10	-2.643898e+01	-5.406955e+01
9.600000e-07	-3.778722e-06	-8.147300e-10	-2.620013e+01	-5.404158e+01
9.700000e-07	-3.743849e-06	-7.985556e-10	-2.595834e+01	-5.401360e+01
9.800000e-07	-3.708595e-06	-7.990230e-10	-2.571390e+01	-5.398567e+01
9.900000e-07	-3.673144e-06	-8.030698e-10	-2.546810e+01	-5.395784e+01
1.000000e-06	-3.637499e-06	-8.032185e-10	-2.522095e+01	-5.393012e+01
1.010000e-06	-3.601675e-06	-8.037554e-10	-2.497256e+01	-5.390250e+01
1.020000e-06	-3.565704e-06	-8.143693e-10	-2.472315e+01	-5.387497e+01
1.030000e-06	-3.529597e-06	-8.143257e-10	-2.447280e+01	-5.384749e+01
1.040000e-06	-3.493292e-06	-8.102699e-10	-2.422108e+01	-5.382002e+01
1.050000e-06	-3.456714e-06	-8.086502e-10	-2.396746e+01	-5.379252e+01
1.060000e-06	-3.419843e-06	-8.063704e-10	-2.371181e+01	-5.376493e+01
1.070000e-06	-3.382694e-06	-7.988261e-10	-2.345423e+01	-5.373722e+01
1.080000e-06	-3.345270e-06	-8.012520e-10	-2.319475e+01	-5.370932e+01
1.090000e-06	-3.307622e-06	-8.060552e-10	-2.293372e+01	-5.368120e+01
1.100000e-06	-3.269819e-06	-8.052554e-10	-2.267161e+01	-5.365282e+01
1.110000e-06	-3.231793e-06	-8.021619e-10	-2.240795e+01	-5.362415e+01
1.120000e-06	-3.193508e-06	-8.023954e-10	-2.214249e+01	-5.359516e+01
1.130000e-06	-3.155045e-06	-7.973352e-10	-2.187581e+01	-5.356581e+01
1.140000e-06	-3.116357e-06	-7.922143e-10	-2.160756e+01	-5.353607e+01
1.150000e-06	-3.077341e-06	-7.944744e-10	-2.133704e+01	-5.350592e+01
1.160000e-06	-3.038112e-06	-7.959606e-10	-2.106504e+01	-5.347532e+01
1.170000e-06	-2.998768e-06	-7.940180e-10	-2.079225e+01	-5.344422e+01
1.180000e-06	-2.959293e-06	-7.922315e-10	-2.051855e+01	-5.341257e+01
1.190000e-06	-2.919652e-06	-7.927753e-10	-2.024369e+01	-5.338027e+01
1.200000e-06	-2.879881e-06	-7.857632e-10	-1.996794e+01	-5.334725e+01
1.210000e-06	-2.839985e-06	-7.794891e-10	-1.969131e+01	-5.331337e+01
1.220000e-06	-2.799955e-06	-7.778834e-10	-1.941376e+01	-5.327848e+01
1.230000e-06	-2.759825e-06	-7.796663e-10	-1.913552e+01	-5.324240e+01
1.240000e-06	-2.719589e-06	-7.811411e-10	-1.885653e+01	-5.320493e+01
1.250000e-06	-2.679230e-06	-7.879238e-10	-1.857670e+01	-5.316580e+01
1.260000e-06	-2.638646e-06	-7.906645e-10	-1.829531e+01	-5.312475e+01
1.270000e-06	-2.597663e-06	-7.866680e-10	-1.801115e+01	-5.308145e+01
1.280000e-06	-2.556248e-06	-7.778788e-10	-1.772399e+01	-5.303555e+01
1.290000e-06	-2.514505e-06	-7.739182e-10	-1.743456e+01	-5.298667e+01
1.300000e-06	-2.472438e-06	-7.695803e-10	-1.714289e+01	-5.293440e+01
1.310000e-06	-2.430054e-06	-7.694159e-10	-1.684901e+01	-5.287831e+01
1.320000e-06	-2.387449e-06	-7.741595e-10	-1.655360e+01	-5.281795e+01
1.330000e-06	-2.344711e-06	-7.799053e-10	-1.625728e+01	-5.275285e+01
1.340000e-06	-2.301722e-06	-7.795988e-10	-1.595921e+01	-5.268254e+01
1.350000e-06	-2.258395e-06	-7.782348e-10	-1.565880e+01	-5.260655e+01
1.360000e-06	-2.214877e-06	-7.733856e-10	-1.535706e+01	-5.252440e+01
1.370000e-06	-2.171260e-06	-7.657984e-10	-1.505464e+01	-5.243566e+01
1.380000e-06	-2.127521e-06	-7.605572e-10	-1.475137e+01	-5.233987e+01
1.390000e-06	-2.083624e-06	-7.603250e-10	-1.444701e+01	-5.223664e+01
1.400000e-06	-2.039663e-06	-7.622015e-10	-1.414220e+01	-5.212559e+01
1.410000e-06	-1.995718e-06	-7.645925e-10	-1.383750e+01	-5.200638e+01
1.420000e-06	-1.951750e-06	-7.667696e-10	-1.353265e+01	-5.187872e+01
1.430000e-06	-1.907711e-06	-7.639536e-10	-1.322730e+01	-5.174235e+01
1.440000e-06	-1.863612e-06	-7.571195e-10	-1.292153e+01	-5.159708e+01
1.450000e-06	-1.819436e-06	-7.500433e-10	-1.261524e+01	-5.144274e+01
1.460000e-06	-1.775087e-06	-7.459489e-10	-1.230774e+01	-5.127922e+01
1.470000e-06	-1.730541e-06	-7.425103e-10	-1.199887e+01	-5.110646e+01
1.480000e-06	-1.685820e-06	-7.414968e-10	-1.168880e+01	-5.092443e+01
1.490000e-06	-1.640933e-06	-7.415074e-10	-1.137757e+01	-5.073314e+01
1.500000e-06	-1.595931e-06	-7.422254e-10	-1.106554e+01	-5.053262e+01
1.510000e-06	-1.550812e-06	-7.414832e-10	-1.075270e+01	-5.032294e+01
1.520000e-06	-1.505566e-06	-7.404550e-10	-1.043899e+01	-5.010415e+01
1.530000e-06	-1.460210e-06	-7.355991e-10	-1.012451e+01	-4.987633e+01
1.540000e-06	-1.414711e-06	-7.282649e-10	-9.809034e+00	-4.963954e+01
1.550000e-06	-1.369139e-06	-7.220771e-10	-9.493054e+00	-4.939380e+01
1.560000e-06	-1.323578e-06	-7.170245e-10	-9.177153e+00	-4.913913e+01
1.570000e-06	-1.277913e-06	-7.114769e-10	-8.860532e+00	-4.887547e+01
1.580000e-06	-1.232169e-06	-7.071795e-10	-8.543359e+00	-4.860273e+01
1.590000e-06	-1.186346e-06	-7.065974e-10	-8.225645e+00	-4.832073e+01
1.600000e-06	-1.140359e-06	-7.071443e-10	-7.906792e+00	-4.802922e+01
1.610000e-06	-1.094251e-06	-7.029361e-10	-7.587096e+00	-4.772787e+01
1.620000e-06	-1.048074e-06	-6.972939e-10	-7.266923e+00	-4.741624e+01
1.630000e-06	-1.001926e-06	-6.920154e-10	-6.946954e+00	-4.709380e+01
1.640000e-06	-9.558065e-07	-6.885121e-10	-6.627176e+00	-4.675990e+01
1.650000e-06	-9.095868e-07	-6.847143e-10	-6.306708e+00	-4.641379e+01
1.660000e-06	-8.632834e-07	-6.813581e-10	-5.985659e+00	-4.605461e+01
1.670000e-06	-8.169250e-07	-6.763570e-10	-5.664228e+00	-4.568139e+01
1.680000e-06	-7.704428e-07	-6.684378e-10	-5.341940e+00	-4.529307e+01
1.690000e-06	-7.238767e-07	-6.587619e-10	-5.019069e+00	-4.488848e+01
1.700000e-06	-6.773140e-07	-6.491076e-10	-4.696222e+00	-4.446636e+01
1.710000e-06	-6.307347e-07	-6.396737e-10	-4.373260e+00	-4.402539e+01
1.720000e-06	-5.840656e-07	-6.335632e-10	-4.049675e+00	-4.356416e+01
1.730000e-06	-5.373184e-07	-6.285853e-10	-3.725549e+00	-4.308125e+01
1.740000e-06	-4.906107e-07	-6.217296e-10	-3.401696e+00	-4.257516e+01
1.750000e-06	-4.439359e-07	-6.134007e-10	-3.078072e+00	-4.204442e+01
1.760000e-06	-3.971728e-07	-6.017952e-10	-2.753836e+00	-4.148753e+01
1.770000e-06	-3.503268e-07	-5.900749e-10	-2.429025e+00	-4.090303e+01
1.780000e-06	-3.034250e-07	-5.781802e-10	-2.103826e+00	-4.028950e+01
1.790000e-06	-2.564742e-07	-5.669492e-10	-1.778289e+00	-3.964559e+01
1.800000e-06	-2.095597e-07	-5.577387e-10	-1.453002e+00	-3.897001e+01
1.810000e-06	-1.626995e-07	-5.493746e-10	-1.128093e+00	-3.826159e+01
1.820000e-06	-1.158201e-07	-5.383004e-10	-8.030498e-01	-3.751928e+01
1.830000e-06	-6.895589e-08	-5.261290e-10	-4.781123e-01	-3.674215e+01
1.840000e-06	-2.211617e-08	-5.137409e-10	-1.533446e-01	-3.592945e+01
1.850000e-06	2.475745e-08	-4.998032e-10	1.716581e-01	-3.508055e+01
1.860000e-06	7.168800e-08	-4.839476e-10	4.970556e-01	-3.419503e+01
1.870000e-06	1.186569e-07	-4.675365e-10	8.227193e-01	-3.327264e+01
1.880000e-06	1.655908e-07	-4.528218e-10	1.148140e+00	-3.231334e+01
1.890000e-06	2.126059e-07	-4.401557e-10	1.474123e+00	-3.131725e+01
1.900000e-06	2.596497e-07	-4.262442e-10	1.800306e+00	-3.028470e+01
1.910000e-06	3.065311e-07	-4.114894e-10	2.125363e+00	-2.921624e+01
1.920000e-06	3.533438e-07	-3.960282e-10	2.449943e+00	-2.811259e+01
1.930000e-06	4.000875e-07	-3.790732e-10	2.774046e+00	-2.697464e+01
1.940000e-06	4.468355e-07	-3.600813e-10	3.098177e+00	-2.580350e+01
1.950000e-06	4.936674e-07	-3.408211e-10	3.422890e+00	-2.460042e+01
1.960000e-06	5.404428e-07	-3.238844e-10	3.747212e+00	-2.336682e+01
1.970000e-06	5.870655e-07	-3.098002e-10	4.070475e+00	-2.210425e+01
1.980000e-06	6.336075e-07	-2.943764e-10	4.393179e+00	-2.081441e+01
1.990000e-06	6.801550e-07	-2.760020e-10	4.715920e+00	-1.949911e+01
2.000000e-06	7.267264e-07	-2.543053e-10	5.038827e+00	-1.816025e+01
2.010000e-06	7.732408e-07	-2.303399e-10	5.361340e+00	-1.679982e+01
2.020000e-06	8.195483e-07	-2.077977e-10	5.682417e+00	-1.541989e+01
2.030000e-06	8.658034e-07	-1.882408e-10	6.003131e+00	-1.402255e+01
2.040000e-06	9.121080e-07	-1.709656e-10	6.324188e+00	-1.260996e+01
2.050000e-06	9.583115e-07	-1.531194e-10	6.644545e+00	-1.118428e+01
2.060000e-06	1.004431e-06	-1.334281e-10	6.964319e+00	-9.747676e+00
2.070000e-06	1.050481e-06	-1.134553e-10	7.283614e+00	-8.302313e+00
2.080000e-06	1.096440e-06	-9.380964e-11	7.602274e+00	-6.850335e+00
2.090000e-06	1.142345e-06	-7.287689e-11	7.920561e+00	-5.393859e+00
2.100000e-06	1.188161e-06	-5.108357e-11	8.238228e+00	-3.934959e+00
2.110000e-06	1.233875e-06	-2.922538e-11	8.555194e+00	-2.475668e+00
2.120000e-06	1.279555e-06	-8.171393e-12	8.871919e+00	-1.017961e+00
2.130000e-06	1.325242e-06	1.095257e-11	9.188690e+00	4.362394e-01
2.140000e-06	1.370869e-06	2.829804e-11	9.505055e+00	1.885075e+00
2.150000e-06	1.416340e-06	4.764238e-11	9.820330e+00	3.326751e+00
2.160000e-06	1.461652e-06	6.871198e-11	1.013450e+01	4.759537e+00
2.170000e-06	1.506894e-06	8.974054e-11	1.044819e+01	6.181768e+00
2.180000e-06	1.552022e-06	1.102778e-10	1.076110e+01	7.591846e+00
2.190000e-06	1.596998e-06	1.307026e-10	1.107294e+01	8.988238e+00
2.200000e-06	1.641837e-06	1.505997e-10	1.138384e+01	1.036947e+01
2.210000e-06	1.686531e-06	1.685627e-10	1.169372e+01	1.173415e+01
2.220000e-06	1.731049e-06	1.835424e-10	1.200239e+01	1.308091e+01
2.230000e-06	1.775380e-06	1.981970e-10	1.230977e+01	1.440849e+01
2.240000e-06	1.819598e-06	2.138529e-10	1.261636e+01	1.571566e+01
2.250000e-06	1.863708e-06	2.291871e-10	1.292220e+01	1.700125e+01
2.260000e-06	1.907783e-06	2.474314e-10	1.322779e+01	1.826416e+01
2.270000e-06	1.951809e-06	2.688241e-10	1.353306e+01	1.950335e+01
2.280000e-06	1.995731e-06	2.888659e-10	1.383759e+01	2.071785e+01
2.290000e-06	2.039595e-06	3.062984e-10	1.414173e+01	2.190674e+01
2.300000e-06	2.083425e-06	3.217593e-10	1.444563e+01	2.306918e+01
2.310000e-06	2.127236e-06	3.352164e-10	1.474939e+01	2.420439e+01
2.320000e-06	2.170975e-06	3.486080e-10	1.505266e+01	2.531167e+01
2.330000e-06	2.214595e-06	3.625629e-10	1.535511e+01	2.639042e+01
2.340000e-06	2.258054e-06	3.764408e-10	1.565644e+01	2.744008e+01
2.350000e-06	2.301376e-06	3.903156e-10	1.595681e+01	2.846023e+01
2.360000e-06	2.344528e-06	4.043470e-10	1.625601e+01	2.945049e+01
2.370000e-06	2.387404e-06	4.179366e-10	1.655329e+01	3.041063e+01
2.380000e-06	2.429980e-06	4.321077e-10	1.684850e+01	3.134047e+01
2.390000e-06	2.472212e-06	4.455985e-10	1.714132e+01	3.223996e+01
2.400000e-06	2.514100e-06	4.572494e-10	1.743176e+01	3.310916e+01
2.410000e-06	2.555638e-06	4.687171e-10	1.771976e+01	3.394823e+01
2.420000e-06	2.596791e-06	4.802300e-10	1.800510e+01	3.475742e+01
2.430000e-06	2.637576e-06	4.922326e-10	1.828789e+01	3.553711e+01
2.440000e-06	2.678063e-06	5.040276e-10	1.856861e+01	3.628777e+01
2.450000e-06	2.718377e-06	5.142000e-10	1.884813e+01	3.700996e+01
2.460000e-06	2.758642e-06	5.235567e-10	1.912731e+01	3.770436e+01
2.470000e-06	2.798768e-06	5.338081e-10	1.940553e+01	3.837172e+01
2.480000e-06	2.838709e-06	5.450826e-10	1.968246e+01	3.901285e+01
2.490000e-06	2.878559e-06	5.559572e-10	1.995876e+01	3.962867e+01
2.500000e-06	2.918273e-06	5.664155e-10	2.023413e+01	4.022013e+01
2.510000e-06	2.957876e-06	5.760880e-10	2.050872e+01	4.078824e+01
2.520000e-06	2.997382e-06	5.835670e-10	2.078264e+01	4.133404e+01
2.530000e-06	3.036706e-06	5.910753e-10	2.105529e+01	4.185860e+01
2.540000e-06	3.075820e-06	5.977931e-10	2.132649e+01	4.236299e+01
2.550000e-06	3.114722e-06	6.041696e-10	2.159623e+01	4.284829e+01
2.560000e-06	3.153383e-06	6.121516e-10	2.186428e+01	4.331556e+01
2.570000e-06	3.191789e-06	6.198033e-10	2.213057e+01	4.376582e+01
2.580000e-06	3.229986e-06	6.276317e-10	2.239542e+01	4.420007e+01
2.590000e-06	3.267953e-06	6.332776e-10	2.265867e+01	4.461925e+01
2.600000e-06	3.305647e-06	6.386724e-10	2.292002e+01	4.502422e+01
2.610000e-06	3.343153e-06	6.433344e-10	2.318007e+01	4.541580e+01
2.620000e-06	3.380468e-06	6.490886e-10	2.343880e+01	4.579471e+01
2.630000e-06	3.417492e-06	6.557671e-10	2.369551e+01	4.616160e+01
2.640000e-06	3.454253e-06	6.622566e-10	2.395040e+01	4.651703e+01
2.650000e-06	3.490790e-06	6.684453e-10	2.420373e+01	4.686146e+01
2.660000e-06	3.527099e-06	6.730166e-10	2.445548e+01	4.719529e+01
2.670000e-06	3.563203e-06	6.768877e-10	2.470581e+01	4.751880e+01
2.680000e-06	3.599129e-06	6.792996e-10	2.495491e+01	4.783221e+01
2.690000e-06	3.634917e-06	6.829394e-10	2.520305e+01	4.813564e+01
2.700000e-06	3.670585e-06	6.884256e-10	2.545035e+01	4.842915e+01
2.710000e-06	3.706078e-06	6.930530e-10	2.569645e+01	4.871275e+01
2.720000e-06	3.741355e-06	6.973919e-10	2.594105e+01	4.898638e+01
2.730000e-06	3.776295e-06	7.021956e-10	2.618330e+01	4.924993e+01
2.740000e-06	3.810750e-06	7.068821e-10	2.642220e+01	4.950329e+01
2.750000e-06	3.844772e-06	7.106954e-10	2.665810e+01	4.974628e+01
2.760000e-06	3.878375e-06	7.118593e-10	2.689109e+01	4.997877e+01
2.770000e-06	3.911516e-06	7.155498e-10	2.712087e+01	5.020058e+01
2.780000e-06	3.944267e-06	7.201947e-10	2.734796e+01	5.041158e+01
2.790000e-06	3.976682e-06	7.255649e-10	2.757271e+01	5.061166e+01
2.800000e-06	4.008774e-06	7.301835e-10	2.779522e+01	5.080074e+01
2.810000e-06	4.040645e-06	7.315753e-10	2.801620e+01	5.097878e+01
2.820000e-06	4.072383e-06	7.335559e-10	2.823626e+01	5.114581e+01
2.830000e-06	4.103975e-06	7.366239e-10	2.845531e+01	5.130191e+01
2.840000e-06	4.135353e-06	7.384715e-10	2.867287e+01	5.144722e+01
2.850000e-06	4.166468e-06	7.385961e-10	2.888861e+01	5.158195e+01
2.860000e-06	4.197342e-06	7.391895e-10	2.910267e+01	5.170638e+01
2.870000e-06	4.227920e-06	7.415215e-10	2.931469e+01	5.182085e+01
2.880000e-06	4.258151e-06	7.440478e-10	2.952430e+01	5.192578e+01
2.890000e-06	4.288092e-06	7.469590e-10	2.973190e+01	5.202164e+01
2.900000e-06	4.317757e-06	7.497870e-10	2.993759e+01	5.210895e+01
