# Temperatura_=_-6.89
# Concentracion g/m^3_=_1620.0
# C_Vs_to_Am_M_A/Vsm_=_65563218390.804596
# pendiente_HvsI_1/m_=_3716.3
# ordenada_HvsI_A/m_=_1297.0
# frecuencia_Hz_=_135108.627226515

Tiempo_(s)	Campo_(V.s)	Magnetizacion_(V.s)	Campo_(kA/m)	Magnetizacion_(A/m)
0.000000e+00	-5.540234e-06	-1.052121e-09	-3.836983e+01	-7.275320e+01
1.000000e-08	-5.540445e-06	-1.049716e-09	-3.837129e+01	-7.271253e+01
2.000000e-08	-5.540429e-06	-1.046513e-09	-3.837118e+01	-7.267207e+01
3.000000e-08	-5.540105e-06	-1.044566e-09	-3.836893e+01	-7.263205e+01
4.000000e-08	-5.539417e-06	-1.043181e-09	-3.836417e+01	-7.259270e+01
5.000000e-08	-5.538322e-06	-1.040199e-09	-3.835659e+01	-7.255422e+01
6.000000e-08	-5.536674e-06	-1.035124e-09	-3.834517e+01	-7.251679e+01
7.000000e-08	-5.534338e-06	-1.033563e-09	-3.832899e+01	-7.248056e+01
8.000000e-08	-5.531377e-06	-1.040944e-09	-3.830849e+01	-7.244561e+01
9.000000e-08	-5.527861e-06	-1.054275e-09	-3.828414e+01	-7.241199e+01
1.000000e-07	-5.523808e-06	-1.062340e-09	-3.825607e+01	-7.237971e+01
1.100000e-07	-5.519413e-06	-1.067630e-09	-3.822563e+01	-7.234868e+01
1.200000e-07	-5.514910e-06	-1.051006e-09	-3.819444e+01	-7.231878e+01
1.300000e-07	-5.510294e-06	-1.050659e-09	-3.816248e+01	-7.228982e+01
1.400000e-07	-5.505344e-06	-1.032703e-09	-3.812820e+01	-7.226153e+01
1.500000e-07	-5.499915e-06	-1.053430e-09	-3.809060e+01	-7.223359e+01
1.600000e-07	-5.494024e-06	-1.051695e-09	-3.804979e+01	-7.220561e+01
1.700000e-07	-5.487756e-06	-1.053169e-09	-3.800639e+01	-7.217717e+01
1.800000e-07	-5.481076e-06	-1.057515e-09	-3.796012e+01	-7.214776e+01
1.900000e-07	-5.473981e-06	-1.071774e-09	-3.791099e+01	-7.211687e+01
2.000000e-07	-5.466589e-06	-1.092599e-09	-3.785979e+01	-7.208393e+01
2.100000e-07	-5.458945e-06	-1.067981e-09	-3.780685e+01	-7.204836e+01
2.200000e-07	-5.451027e-06	-1.078148e-09	-3.775201e+01	-7.200956e+01
2.300000e-07	-5.442864e-06	-1.079582e-09	-3.769548e+01	-7.196694e+01
2.400000e-07	-5.434451e-06	-1.097398e-09	-3.763721e+01	-7.191993e+01
2.500000e-07	-5.425491e-06	-1.078734e-09	-3.757515e+01	-7.186796e+01
2.600000e-07	-5.415704e-06	-1.099121e-09	-3.750738e+01	-7.181052e+01
2.700000e-07	-5.405192e-06	-1.089357e-09	-3.743457e+01	-7.174715e+01
2.800000e-07	-5.394210e-06	-1.086961e-09	-3.735852e+01	-7.167743e+01
2.900000e-07	-5.382770e-06	-1.064995e-09	-3.727929e+01	-7.160103e+01
3.000000e-07	-5.370894e-06	-1.071673e-09	-3.719703e+01	-7.151770e+01
3.100000e-07	-5.358679e-06	-1.060770e-09	-3.711244e+01	-7.142727e+01
3.200000e-07	-5.346016e-06	-1.064350e-09	-3.702474e+01	-7.132966e+01
3.300000e-07	-5.332839e-06	-1.076987e-09	-3.693348e+01	-7.122489e+01
3.400000e-07	-5.319329e-06	-1.082633e-09	-3.683992e+01	-7.111308e+01
3.500000e-07	-5.305505e-06	-1.072467e-09	-3.674417e+01	-7.099444e+01
3.600000e-07	-5.291313e-06	-1.069976e-09	-3.664589e+01	-7.086931e+01
3.700000e-07	-5.276787e-06	-1.074013e-09	-3.654528e+01	-7.073808e+01
3.800000e-07	-5.261805e-06	-1.055593e-09	-3.644152e+01	-7.060125e+01
3.900000e-07	-5.246209e-06	-1.052655e-09	-3.633351e+01	-7.045939e+01
4.000000e-07	-5.230045e-06	-1.059677e-09	-3.622156e+01	-7.031315e+01
4.100000e-07	-5.213403e-06	-1.059454e-09	-3.610631e+01	-7.016322e+01
4.200000e-07	-5.196427e-06	-1.044438e-09	-3.598873e+01	-7.001035e+01
4.300000e-07	-5.179223e-06	-1.060623e-09	-3.586958e+01	-6.985533e+01
4.400000e-07	-5.161723e-06	-1.059256e-09	-3.574838e+01	-6.969893e+01
4.500000e-07	-5.143870e-06	-1.051149e-09	-3.562475e+01	-6.954197e+01
4.600000e-07	-5.125604e-06	-1.044961e-09	-3.549824e+01	-6.938523e+01
4.700000e-07	-5.106867e-06	-1.058402e-09	-3.536847e+01	-6.922946e+01
4.800000e-07	-5.087648e-06	-1.034933e-09	-3.523537e+01	-6.907539e+01
4.900000e-07	-5.068046e-06	-1.033296e-09	-3.509961e+01	-6.892367e+01
5.000000e-07	-5.048249e-06	-1.043238e-09	-3.496251e+01	-6.877491e+01
5.100000e-07	-5.028313e-06	-1.049870e-09	-3.482443e+01	-6.862963e+01
5.200000e-07	-5.008139e-06	-1.026920e-09	-3.468472e+01	-6.848825e+01
5.300000e-07	-4.987638e-06	-1.035718e-09	-3.454273e+01	-6.835112e+01
5.400000e-07	-4.966735e-06	-1.037829e-09	-3.439796e+01	-6.821847e+01
5.500000e-07	-4.945453e-06	-1.029617e-09	-3.425057e+01	-6.809045e+01
5.600000e-07	-4.923785e-06	-1.021877e-09	-3.410051e+01	-6.796710e+01
5.700000e-07	-4.901752e-06	-1.034250e-09	-3.394791e+01	-6.784833e+01
5.800000e-07	-4.879450e-06	-1.025397e-09	-3.379346e+01	-6.773399e+01
5.900000e-07	-4.856838e-06	-1.020563e-09	-3.363685e+01	-6.762382e+01
6.000000e-07	-4.833902e-06	-1.027092e-09	-3.347801e+01	-6.751746e+01
6.100000e-07	-4.810647e-06	-1.026929e-09	-3.331695e+01	-6.741448e+01
6.200000e-07	-4.787062e-06	-1.010717e-09	-3.315361e+01	-6.731441e+01
6.300000e-07	-4.763224e-06	-1.009930e-09	-3.298851e+01	-6.721667e+01
6.400000e-07	-4.739166e-06	-1.012298e-09	-3.282190e+01	-6.712068e+01
6.500000e-07	-4.714894e-06	-1.002246e-09	-3.265380e+01	-6.702582e+01
6.600000e-07	-4.690268e-06	-1.002169e-09	-3.248324e+01	-6.693144e+01
6.700000e-07	-4.665187e-06	-1.011059e-09	-3.230954e+01	-6.683690e+01
6.800000e-07	-4.639589e-06	-1.010776e-09	-3.213226e+01	-6.674156e+01
6.900000e-07	-4.613400e-06	-1.003616e-09	-3.195088e+01	-6.664482e+01
7.000000e-07	-4.586655e-06	-1.011790e-09	-3.176566e+01	-6.654610e+01
7.100000e-07	-4.559402e-06	-1.008136e-09	-3.157691e+01	-6.644488e+01
7.200000e-07	-4.531797e-06	-9.975073e-10	-3.138573e+01	-6.634068e+01
7.300000e-07	-4.504036e-06	-9.918411e-10	-3.119346e+01	-6.623310e+01
7.400000e-07	-4.476168e-06	-9.972436e-10	-3.100046e+01	-6.612180e+01
7.500000e-07	-4.448119e-06	-9.923498e-10	-3.080621e+01	-6.600653e+01
7.600000e-07	-4.419832e-06	-9.974459e-10	-3.061029e+01	-6.588710e+01
7.700000e-07	-4.391229e-06	-9.989122e-10	-3.041220e+01	-6.576342e+01
7.800000e-07	-4.362271e-06	-9.950971e-10	-3.021164e+01	-6.563545e+01
7.900000e-07	-4.332958e-06	-9.848591e-10	-3.000863e+01	-6.550325e+01
8.000000e-07	-4.303289e-06	-9.854373e-10	-2.980315e+01	-6.536693e+01
8.100000e-07	-4.273424e-06	-9.759521e-10	-2.959632e+01	-6.522668e+01
8.200000e-07	-4.243361e-06	-9.690876e-10	-2.938812e+01	-6.508273e+01
8.300000e-07	-4.212948e-06	-9.677002e-10	-2.917748e+01	-6.493537e+01
8.400000e-07	-4.182200e-06	-9.716061e-10	-2.896454e+01	-6.478491e+01
8.500000e-07	-4.151216e-06	-9.671579e-10	-2.874995e+01	-6.463170e+01
8.600000e-07	-4.120021e-06	-9.687257e-10	-2.853390e+01	-6.447610e+01
8.700000e-07	-4.088531e-06	-9.679998e-10	-2.831581e+01	-6.431846e+01
8.800000e-07	-4.056758e-06	-9.621496e-10	-2.809577e+01	-6.415914e+01
8.900000e-07	-4.024763e-06	-9.554004e-10	-2.787418e+01	-6.399849e+01
9.000000e-07	-3.992623e-06	-9.547015e-10	-2.765159e+01	-6.383679e+01
9.100000e-07	-3.960325e-06	-9.496943e-10	-2.742790e+01	-6.367433e+01
9.200000e-07	-3.927721e-06	-9.433557e-10	-2.720210e+01	-6.351134e+01
9.300000e-07	-3.894672e-06	-9.424616e-10	-2.697321e+01	-6.334798e+01
9.400000e-07	-3.861150e-06	-9.404891e-10	-2.674105e+01	-6.318437e+01
9.500000e-07	-3.827177e-06	-9.372171e-10	-2.650576e+01	-6.302059e+01
9.600000e-07	-3.792728e-06	-9.362360e-10	-2.626718e+01	-6.285663e+01
9.700000e-07	-3.757825e-06	-9.341115e-10	-2.602546e+01	-6.269243e+01
9.800000e-07	-3.722586e-06	-9.248826e-10	-2.578140e+01	-6.252789e+01
9.900000e-07	-3.687046e-06	-9.183366e-10	-2.553526e+01	-6.236282e+01
1.000000e-06	-3.651307e-06	-9.137381e-10	-2.528775e+01	-6.219701e+01
1.010000e-06	-3.615469e-06	-9.107454e-10	-2.503955e+01	-6.203019e+01
1.020000e-06	-3.579502e-06	-9.069801e-10	-2.479045e+01	-6.186206e+01
1.030000e-06	-3.543365e-06	-9.098327e-10	-2.454018e+01	-6.169230e+01
1.040000e-06	-3.507031e-06	-9.094636e-10	-2.428853e+01	-6.152055e+01
1.050000e-06	-3.470524e-06	-9.088088e-10	-2.403570e+01	-6.134645e+01
1.060000e-06	-3.433760e-06	-9.061053e-10	-2.378109e+01	-6.116963e+01
1.070000e-06	-3.396689e-06	-9.035293e-10	-2.352434e+01	-6.098975e+01
1.080000e-06	-3.359385e-06	-8.955733e-10	-2.326599e+01	-6.080645e+01
1.090000e-06	-3.321842e-06	-8.915299e-10	-2.300598e+01	-6.061942e+01
1.100000e-06	-3.284056e-06	-8.875276e-10	-2.274429e+01	-6.042838e+01
1.110000e-06	-3.246062e-06	-8.816932e-10	-2.248115e+01	-6.023307e+01
1.120000e-06	-3.207867e-06	-8.742985e-10	-2.221662e+01	-6.003328e+01
1.130000e-06	-3.169482e-06	-8.710650e-10	-2.195078e+01	-5.982886e+01
1.140000e-06	-3.130853e-06	-8.668610e-10	-2.168325e+01	-5.961969e+01
1.150000e-06	-3.091988e-06	-8.627885e-10	-2.141409e+01	-5.940571e+01
1.160000e-06	-3.052822e-06	-8.594873e-10	-2.114284e+01	-5.918690e+01
1.170000e-06	-3.013384e-06	-8.569913e-10	-2.086970e+01	-5.896329e+01
1.180000e-06	-2.973813e-06	-8.505722e-10	-2.059564e+01	-5.873495e+01
1.190000e-06	-2.934185e-06	-8.451914e-10	-2.032119e+01	-5.850199e+01
1.200000e-06	-2.894445e-06	-8.417241e-10	-2.004597e+01	-5.826455e+01
1.210000e-06	-2.854518e-06	-8.365409e-10	-1.976944e+01	-5.802280e+01
1.220000e-06	-2.814442e-06	-8.308207e-10	-1.949190e+01	-5.777692e+01
1.230000e-06	-2.774231e-06	-8.271979e-10	-1.921340e+01	-5.752711e+01
1.240000e-06	-2.733832e-06	-8.245001e-10	-1.893361e+01	-5.727355e+01
1.250000e-06	-2.693298e-06	-8.222577e-10	-1.865289e+01	-5.701644e+01
1.260000e-06	-2.652656e-06	-8.227214e-10	-1.837142e+01	-5.675593e+01
1.270000e-06	-2.611763e-06	-8.206873e-10	-1.808821e+01	-5.649217e+01
1.280000e-06	-2.570506e-06	-8.173422e-10	-1.780247e+01	-5.622527e+01
1.290000e-06	-2.528846e-06	-8.113295e-10	-1.751395e+01	-5.595530e+01
1.300000e-06	-2.486836e-06	-8.045920e-10	-1.722301e+01	-5.568228e+01
1.310000e-06	-2.444579e-06	-7.956425e-10	-1.693034e+01	-5.540618e+01
1.320000e-06	-2.402114e-06	-7.899489e-10	-1.663625e+01	-5.512695e+01
1.330000e-06	-2.359383e-06	-7.886647e-10	-1.634030e+01	-5.484443e+01
1.340000e-06	-2.316292e-06	-7.883653e-10	-1.604187e+01	-5.455845e+01
1.350000e-06	-2.272941e-06	-7.852838e-10	-1.574164e+01	-5.426877e+01
1.360000e-06	-2.229420e-06	-7.806701e-10	-1.544023e+01	-5.397510e+01
1.370000e-06	-2.185739e-06	-7.737701e-10	-1.513770e+01	-5.367711e+01
1.380000e-06	-2.141988e-06	-7.662778e-10	-1.483470e+01	-5.337440e+01
1.390000e-06	-2.098112e-06	-7.585885e-10	-1.453083e+01	-5.306657e+01
1.400000e-06	-2.054141e-06	-7.530836e-10	-1.422630e+01	-5.275318e+01
1.410000e-06	-2.010134e-06	-7.484382e-10	-1.392152e+01	-5.243375e+01
1.420000e-06	-1.966085e-06	-7.446358e-10	-1.361646e+01	-5.210780e+01
1.430000e-06	-1.921949e-06	-7.402897e-10	-1.331079e+01	-5.177484e+01
1.440000e-06	-1.877713e-06	-7.370226e-10	-1.300442e+01	-5.143440e+01
1.450000e-06	-1.833376e-06	-7.326617e-10	-1.269736e+01	-5.108598e+01
1.460000e-06	-1.788848e-06	-7.255269e-10	-1.238897e+01	-5.072913e+01
1.470000e-06	-1.744275e-06	-7.169533e-10	-1.208027e+01	-5.036341e+01
1.480000e-06	-1.699691e-06	-7.083497e-10	-1.177150e+01	-4.998841e+01
1.490000e-06	-1.654887e-06	-7.010602e-10	-1.146120e+01	-4.960374e+01
1.500000e-06	-1.609856e-06	-6.943918e-10	-1.114933e+01	-4.920905e+01
1.510000e-06	-1.564666e-06	-6.867832e-10	-1.083636e+01	-4.880404e+01
1.520000e-06	-1.519399e-06	-6.796249e-10	-1.052285e+01	-4.838841e+01
1.530000e-06	-1.474022e-06	-6.750720e-10	-1.020859e+01	-4.796192e+01
1.540000e-06	-1.428483e-06	-6.693943e-10	-9.893202e+00	-4.752434e+01
1.550000e-06	-1.382902e-06	-6.620855e-10	-9.577525e+00	-4.707548e+01
1.560000e-06	-1.337307e-06	-6.536233e-10	-9.261743e+00	-4.661514e+01
1.570000e-06	-1.291602e-06	-6.434754e-10	-8.945206e+00	-4.614316e+01
1.580000e-06	-1.245805e-06	-6.338220e-10	-8.628035e+00	-4.565933e+01
1.590000e-06	-1.199939e-06	-6.249281e-10	-8.310378e+00	-4.516349e+01
1.600000e-06	-1.153953e-06	-6.179938e-10	-7.991895e+00	-4.465539e+01
1.610000e-06	-1.107860e-06	-6.108963e-10	-7.672675e+00	-4.413481e+01
1.620000e-06	-1.061744e-06	-6.032584e-10	-7.353285e+00	-4.360143e+01
1.630000e-06	-1.015588e-06	-5.987879e-10	-7.033629e+00	-4.305492e+01
1.640000e-06	-9.692551e-07	-5.935151e-10	-6.712741e+00	-4.249487e+01
1.650000e-06	-9.228408e-07	-5.870865e-10	-6.391291e+00	-4.192077e+01
1.660000e-06	-8.764871e-07	-5.752203e-10	-6.070260e+00	-4.133208e+01
1.670000e-06	-8.301072e-07	-5.614795e-10	-5.749048e+00	-4.072813e+01
1.680000e-06	-7.835543e-07	-5.496298e-10	-5.426638e+00	-4.010818e+01
1.690000e-06	-7.368535e-07	-5.405427e-10	-5.103204e+00	-3.947140e+01
1.700000e-06	-6.902084e-07	-5.313129e-10	-4.780155e+00	-3.881685e+01
1.710000e-06	-6.436049e-07	-5.218736e-10	-4.457395e+00	-3.814353e+01
1.720000e-06	-5.968752e-07	-5.119629e-10	-4.133760e+00	-3.745032e+01
1.730000e-06	-5.500943e-07	-5.006784e-10	-3.809771e+00	-3.673606e+01
1.740000e-06	-5.033348e-07	-4.885567e-10	-3.485930e+00	-3.599949e+01
1.750000e-06	-4.564715e-07	-4.756999e-10	-3.161371e+00	-3.523932e+01
1.760000e-06	-4.095210e-07	-4.627418e-10	-2.836207e+00	-3.445421e+01
1.770000e-06	-3.625623e-07	-4.488374e-10	-2.510986e+00	-3.364279e+01
1.780000e-06	-3.155842e-07	-4.379028e-10	-2.185632e+00	-3.280370e+01
1.790000e-06	-2.685876e-07	-4.300501e-10	-1.860149e+00	-3.193559e+01
1.800000e-06	-2.215703e-07	-4.210869e-10	-1.534523e+00	-3.103714e+01
1.810000e-06	-1.745640e-07	-4.084771e-10	-1.208972e+00	-3.010709e+01
1.820000e-06	-1.276360e-07	-3.907667e-10	-8.839645e-01	-2.914428e+01
1.830000e-06	-8.071138e-08	-3.714823e-10	-5.589804e-01	-2.814762e+01
1.840000e-06	-3.372629e-08	-3.562947e-10	-2.335771e-01	-2.711616e+01
1.850000e-06	1.328655e-08	-3.428092e-10	9.201826e-02	-2.604911e+01
1.860000e-06	6.026662e-08	-3.288882e-10	4.173867e-01	-2.494582e+01
1.870000e-06	1.072313e-07	-3.127833e-10	7.426487e-01	-2.380583e+01
1.880000e-06	1.542236e-07	-2.954707e-10	1.068102e+00	-2.262888e+01
1.890000e-06	2.011592e-07	-2.773350e-10	1.393162e+00	-2.141493e+01
1.900000e-06	2.480746e-07	-2.591178e-10	1.718083e+00	-2.016415e+01
1.910000e-06	2.950124e-07	-2.408475e-10	2.043158e+00	-1.887695e+01
1.920000e-06	3.419288e-07	-2.230702e-10	2.368086e+00	-1.755397e+01
1.930000e-06	3.887746e-07	-2.053398e-10	2.692525e+00	-1.619610e+01
1.940000e-06	4.355662e-07	-1.875673e-10	3.016587e+00	-1.480444e+01
1.950000e-06	4.823726e-07	-1.711169e-10	3.340753e+00	-1.338035e+01
1.960000e-06	5.291071e-07	-1.549683e-10	3.664421e+00	-1.192541e+01
1.970000e-06	5.758195e-07	-1.379476e-10	3.987935e+00	-1.044139e+01
1.980000e-06	6.225250e-07	-1.192732e-10	4.311403e+00	-8.930278e+00
1.990000e-06	6.691668e-07	-9.803543e-11	4.634428e+00	-7.394249e+00
2.000000e-06	7.157229e-07	-7.442144e-11	4.956860e+00	-5.835630e+00
2.010000e-06	7.621908e-07	-4.835780e-11	5.278682e+00	-4.256894e+00
2.020000e-06	8.086501e-07	-2.239145e-11	5.600444e+00	-2.660637e+00
2.030000e-06	8.551061e-07	4.168155e-14	5.922182e+00	-1.049549e+00
2.040000e-06	9.015221e-07	1.991673e-11	6.243644e+00	5.736085e-01
2.050000e-06	9.478424e-07	4.027782e-11	6.564443e+00	2.206027e+00
2.060000e-06	9.940987e-07	6.240226e-11	6.884799e+00	3.844878e+00
2.070000e-06	1.040335e-06	8.418860e-11	7.205018e+00	5.487335e+00
2.080000e-06	1.086524e-06	1.075249e-10	7.524904e+00	7.130602e+00
2.090000e-06	1.132579e-06	1.338183e-10	7.843864e+00	8.771935e+00
2.100000e-06	1.178503e-06	1.595197e-10	8.161923e+00	1.040866e+01
2.110000e-06	1.224375e-06	1.810722e-10	8.479615e+00	1.203820e+01
2.120000e-06	1.270155e-06	2.007021e-10	8.796671e+00	1.365808e+01
2.130000e-06	1.315808e-06	2.206520e-10	9.112849e+00	1.526597e+01
2.140000e-06	1.361382e-06	2.394295e-10	9.428482e+00	1.685965e+01
2.150000e-06	1.406889e-06	2.585622e-10	9.743646e+00	1.843708e+01
2.160000e-06	1.452286e-06	2.801175e-10	1.005805e+01	1.999636e+01
2.170000e-06	1.497563e-06	3.023826e-10	1.037163e+01	2.153577e+01
2.180000e-06	1.542745e-06	3.240952e-10	1.068454e+01	2.305372e+01
2.190000e-06	1.587800e-06	3.459528e-10	1.099658e+01	2.454883e+01
2.200000e-06	1.632695e-06	3.675118e-10	1.130751e+01	2.601987e+01
2.210000e-06	1.677489e-06	3.862681e-10	1.161773e+01	2.746574e+01
2.220000e-06	1.722158e-06	4.022290e-10	1.192710e+01	2.888555e+01
2.230000e-06	1.766693e-06	4.177029e-10	1.223553e+01	3.027851e+01
2.240000e-06	1.811132e-06	4.339510e-10	1.254330e+01	3.164400e+01
2.250000e-06	1.855467e-06	4.511629e-10	1.285035e+01	3.298150e+01
2.260000e-06	1.899700e-06	4.706635e-10	1.315669e+01	3.429063e+01
2.270000e-06	1.943790e-06	4.913835e-10	1.346205e+01	3.557110e+01
2.280000e-06	1.987790e-06	5.108348e-10	1.376678e+01	3.682273e+01
2.290000e-06	2.031757e-06	5.260927e-10	1.407128e+01	3.804541e+01
2.300000e-06	2.075665e-06	5.395879e-10	1.437537e+01	3.923912e+01
2.310000e-06	2.119479e-06	5.542348e-10	1.467881e+01	4.040387e+01
2.320000e-06	2.163220e-06	5.697159e-10	1.498175e+01	4.153975e+01
2.330000e-06	2.206887e-06	5.868613e-10	1.528417e+01	4.264688e+01
2.340000e-06	2.250452e-06	6.043548e-10	1.558589e+01	4.372543e+01
2.350000e-06	2.293826e-06	6.204110e-10	1.588628e+01	4.477558e+01
2.360000e-06	2.336932e-06	6.346323e-10	1.618482e+01	4.579754e+01
2.370000e-06	2.379862e-06	6.464626e-10	1.648214e+01	4.679154e+01
2.380000e-06	2.422612e-06	6.545310e-10	1.677821e+01	4.775784e+01
2.390000e-06	2.465020e-06	6.642869e-10	1.707191e+01	4.869668e+01
2.400000e-06	2.506940e-06	6.769216e-10	1.736224e+01	4.960835e+01
2.410000e-06	2.548446e-06	6.908294e-10	1.764969e+01	5.049314e+01
2.420000e-06	2.589729e-06	7.056906e-10	1.793560e+01	5.135135e+01
2.430000e-06	2.630812e-06	7.200094e-10	1.822014e+01	5.218331e+01
2.440000e-06	2.671617e-06	7.337363e-10	1.850274e+01	5.298936e+01
2.450000e-06	2.712161e-06	7.449625e-10	1.878353e+01	5.376985e+01
2.460000e-06	2.752561e-06	7.542997e-10	1.906333e+01	5.452518e+01
2.470000e-06	2.792852e-06	7.636133e-10	1.934237e+01	5.525576e+01
2.480000e-06	2.832968e-06	7.726277e-10	1.962020e+01	5.596202e+01
2.490000e-06	2.872931e-06	7.824516e-10	1.989697e+01	5.664445e+01
2.500000e-06	2.912785e-06	7.933411e-10	2.017299e+01	5.730353e+01
2.510000e-06	2.952492e-06	8.059492e-10	2.044798e+01	5.793980e+01
2.520000e-06	2.992039e-06	8.186825e-10	2.072187e+01	5.855383e+01
2.530000e-06	3.031443e-06	8.295229e-10	2.099477e+01	5.914620e+01
2.540000e-06	3.070669e-06	8.384439e-10	2.126644e+01	5.971754e+01
2.550000e-06	3.109670e-06	8.454857e-10	2.153655e+01	6.026850e+01
2.560000e-06	3.148429e-06	8.499025e-10	2.180498e+01	6.079974e+01
2.570000e-06	3.186922e-06	8.528520e-10	2.207157e+01	6.131194e+01
2.580000e-06	3.225184e-06	8.580165e-10	2.233656e+01	6.180580e+01
2.590000e-06	3.263237e-06	8.662774e-10	2.260010e+01	6.228203e+01
2.600000e-06	3.301071e-06	8.762162e-10	2.286213e+01	6.274132e+01
2.610000e-06	3.338663e-06	8.858023e-10	2.312248e+01	6.318438e+01
2.620000e-06	3.376039e-06	8.938988e-10	2.338133e+01	6.361188e+01
2.630000e-06	3.413199e-06	8.999521e-10	2.363869e+01	6.402450e+01
2.640000e-06	3.450082e-06	9.044871e-10	2.389413e+01	6.442287e+01
2.650000e-06	3.486746e-06	9.087337e-10	2.414805e+01	6.480761e+01
2.660000e-06	3.523187e-06	9.133072e-10	2.440043e+01	6.517929e+01
2.670000e-06	3.559406e-06	9.172984e-10	2.465127e+01	6.553846e+01
2.680000e-06	3.595457e-06	9.198030e-10	2.490095e+01	6.588560e+01
2.690000e-06	3.631390e-06	9.218811e-10	2.514981e+01	6.622116e+01
2.700000e-06	3.667178e-06	9.254813e-10	2.539766e+01	6.654555e+01
2.710000e-06	3.702808e-06	9.297031e-10	2.564442e+01	6.685913e+01
2.720000e-06	3.738229e-06	9.353043e-10	2.588974e+01	6.716220e+01
2.730000e-06	3.773320e-06	9.434777e-10	2.613277e+01	6.745502e+01
2.740000e-06	3.807984e-06	9.508039e-10	2.637284e+01	6.773782e+01
2.750000e-06	3.842186e-06	9.559123e-10	2.660971e+01	6.801078e+01
2.760000e-06	3.875917e-06	9.596202e-10	2.684332e+01	6.827404e+01
2.770000e-06	3.909183e-06	9.623030e-10	2.707371e+01	6.852774e+01
2.780000e-06	3.942022e-06	9.654792e-10	2.730114e+01	6.877196e+01
2.790000e-06	3.974473e-06	9.697552e-10	2.752589e+01	6.900679e+01
2.800000e-06	4.006683e-06	9.751465e-10	2.774896e+01	6.923230e+01
2.810000e-06	4.038708e-06	9.822194e-10	2.797076e+01	6.944857e+01
2.820000e-06	4.070580e-06	9.896525e-10	2.819149e+01	6.965567e+01
2.830000e-06	4.102383e-06	9.947541e-10	2.841175e+01	6.985368e+01
2.840000e-06	4.133974e-06	9.971775e-10	2.863054e+01	7.004272e+01
2.850000e-06	4.165242e-06	9.980902e-10	2.884709e+01	7.022292e+01
2.860000e-06	4.196168e-06	9.997632e-10	2.906127e+01	7.039441e+01
2.870000e-06	4.226672e-06	1.003619e-09	2.927253e+01	7.055740e+01
2.880000e-06	4.256872e-06	1.008640e-09	2.948169e+01	7.071211e+01
2.890000e-06	4.286893e-06	1.013031e-09	2.968961e+01	7.085879e+01
2.900000e-06	4.316692e-06	1.016334e-09	2.989598e+01	7.099774e+01
