# Temperatura_=_14.0
# Concentracion g/m^3_=_1620.0
# C_Vs_to_Am_M_A/Vsm_=_65563218390.804596
# pendiente_HvsI_1/m_=_3716.3
# ordenada_HvsI_A/m_=_1297.0
# frecuencia_Hz_=_135100.45139646265

Tiempo_(s)	Campo_(V.s)	Magnetizacion_(V.s)	Campo_(kA/m)	Magnetizacion_(A/m)
0.000000e+00	-5.534139e-06	-1.477433e-09	-3.836799e+01	-9.974670e+01
1.000000e-08	-5.534248e-06	-1.477445e-09	-3.836875e+01	-9.972136e+01
2.000000e-08	-5.534153e-06	-1.478150e-09	-3.836809e+01	-9.969608e+01
3.000000e-08	-5.533681e-06	-1.477258e-09	-3.836482e+01	-9.967112e+01
4.000000e-08	-5.532647e-06	-1.474040e-09	-3.835765e+01	-9.964672e+01
5.000000e-08	-5.531035e-06	-1.468844e-09	-3.834647e+01	-9.962309e+01
6.000000e-08	-5.528765e-06	-1.467543e-09	-3.833073e+01	-9.960041e+01
7.000000e-08	-5.525912e-06	-1.487402e-09	-3.831096e+01	-9.957880e+01
8.000000e-08	-5.522605e-06	-1.496012e-09	-3.828803e+01	-9.955833e+01
9.000000e-08	-5.518814e-06	-1.444292e-09	-3.826174e+01	-9.953900e+01
1.000000e-07	-5.514638e-06	-1.417402e-09	-3.823279e+01	-9.952074e+01
1.100000e-07	-5.510282e-06	-1.462137e-09	-3.820260e+01	-9.950339e+01
1.200000e-07	-5.505707e-06	-1.499387e-09	-3.817087e+01	-9.948671e+01
1.300000e-07	-5.500758e-06	-1.461285e-09	-3.813656e+01	-9.947037e+01
1.400000e-07	-5.495398e-06	-1.418515e-09	-3.809940e+01	-9.945395e+01
1.500000e-07	-5.489716e-06	-1.458467e-09	-3.806001e+01	-9.943693e+01
1.600000e-07	-5.483668e-06	-1.511834e-09	-3.801808e+01	-9.941874e+01
1.700000e-07	-5.477141e-06	-1.465777e-09	-3.797283e+01	-9.939871e+01
1.800000e-07	-5.470201e-06	-1.449241e-09	-3.792471e+01	-9.937608e+01
1.900000e-07	-5.462912e-06	-1.474463e-09	-3.787418e+01	-9.935009e+01
2.000000e-07	-5.455332e-06	-1.510843e-09	-3.782163e+01	-9.931987e+01
2.100000e-07	-5.447466e-06	-1.480609e-09	-3.776709e+01	-9.928457e+01
2.200000e-07	-5.439260e-06	-1.470157e-09	-3.771020e+01	-9.924330e+01
2.300000e-07	-5.430718e-06	-1.484136e-09	-3.765098e+01	-9.919517e+01
2.400000e-07	-5.421726e-06	-1.508266e-09	-3.758863e+01	-9.913931e+01
2.500000e-07	-5.412041e-06	-1.502460e-09	-3.752149e+01	-9.907490e+01
2.600000e-07	-5.401716e-06	-1.477165e-09	-3.744991e+01	-9.900115e+01
2.700000e-07	-5.390866e-06	-1.466626e-09	-3.737469e+01	-9.891738e+01
2.800000e-07	-5.379498e-06	-1.477077e-09	-3.729587e+01	-9.882295e+01
2.900000e-07	-5.367713e-06	-1.483641e-09	-3.721417e+01	-9.871736e+01
3.000000e-07	-5.355566e-06	-1.456273e-09	-3.712996e+01	-9.860020e+01
3.100000e-07	-5.343011e-06	-1.466230e-09	-3.704291e+01	-9.847122e+01
3.200000e-07	-5.330046e-06	-1.495181e-09	-3.695302e+01	-9.833028e+01
3.300000e-07	-5.316751e-06	-1.499844e-09	-3.686085e+01	-9.817738e+01
3.400000e-07	-5.303064e-06	-1.444184e-09	-3.676596e+01	-9.801270e+01
3.500000e-07	-5.288957e-06	-1.462724e-09	-3.666816e+01	-9.783652e+01
3.600000e-07	-5.274412e-06	-1.476129e-09	-3.656732e+01	-9.764932e+01
3.700000e-07	-5.259488e-06	-1.445133e-09	-3.646385e+01	-9.745167e+01
3.800000e-07	-5.243989e-06	-1.422510e-09	-3.635640e+01	-9.724429e+01
3.900000e-07	-5.227826e-06	-1.475181e-09	-3.624434e+01	-9.702804e+01
4.000000e-07	-5.211272e-06	-1.444991e-09	-3.612957e+01	-9.680385e+01
4.100000e-07	-5.194428e-06	-1.396394e-09	-3.601279e+01	-9.657277e+01
4.200000e-07	-5.177286e-06	-1.442186e-09	-3.589394e+01	-9.633590e+01
4.300000e-07	-5.159802e-06	-1.476321e-09	-3.577272e+01	-9.609441e+01
4.400000e-07	-5.141912e-06	-1.399469e-09	-3.564870e+01	-9.584947e+01
4.500000e-07	-5.123572e-06	-1.399356e-09	-3.552154e+01	-9.560230e+01
4.600000e-07	-5.104858e-06	-1.458235e-09	-3.539180e+01	-9.535406e+01
4.700000e-07	-5.085764e-06	-1.408250e-09	-3.525942e+01	-9.510590e+01
4.800000e-07	-5.066372e-06	-1.368439e-09	-3.512498e+01	-9.485889e+01
4.900000e-07	-5.046784e-06	-1.436396e-09	-3.498918e+01	-9.461405e+01
5.000000e-07	-5.027006e-06	-1.431214e-09	-3.485206e+01	-9.437226e+01
5.100000e-07	-5.007001e-06	-1.368282e-09	-3.471337e+01	-9.413432e+01
5.200000e-07	-4.986607e-06	-1.419515e-09	-3.457197e+01	-9.390085e+01
5.300000e-07	-4.965796e-06	-1.447411e-09	-3.442769e+01	-9.367238e+01
5.400000e-07	-4.944610e-06	-1.369741e-09	-3.428081e+01	-9.344924e+01
5.500000e-07	-4.923107e-06	-1.366406e-09	-3.413173e+01	-9.323163e+01
5.600000e-07	-4.901304e-06	-1.423279e-09	-3.398057e+01	-9.301957e+01
5.700000e-07	-4.879189e-06	-1.376044e-09	-3.382725e+01	-9.281292e+01
5.800000e-07	-4.856727e-06	-1.350198e-09	-3.367152e+01	-9.261139e+01
5.900000e-07	-4.833863e-06	-1.400968e-09	-3.351300e+01	-9.241452e+01
6.000000e-07	-4.810707e-06	-1.390663e-09	-3.335247e+01	-9.222175e+01
6.100000e-07	-4.787288e-06	-1.342446e-09	-3.319010e+01	-9.203234e+01
6.200000e-07	-4.763638e-06	-1.370966e-09	-3.302614e+01	-9.184547e+01
6.300000e-07	-4.739743e-06	-1.376531e-09	-3.286047e+01	-9.166024e+01
6.400000e-07	-4.715484e-06	-1.343987e-09	-3.269228e+01	-9.147565e+01
6.500000e-07	-4.690851e-06	-1.351884e-09	-3.252150e+01	-9.129067e+01
6.600000e-07	-4.665795e-06	-1.371960e-09	-3.234780e+01	-9.110422e+01
6.700000e-07	-4.640197e-06	-1.346150e-09	-3.217032e+01	-9.091524e+01
6.800000e-07	-4.614099e-06	-1.343159e-09	-3.198939e+01	-9.072266e+01
6.900000e-07	-4.587447e-06	-1.355804e-09	-3.180461e+01	-9.052548e+01
7.000000e-07	-4.560276e-06	-1.343179e-09	-3.161624e+01	-9.032273e+01
7.100000e-07	-4.532809e-06	-1.325612e-09	-3.142581e+01	-9.011354e+01
7.200000e-07	-4.505165e-06	-1.332760e-09	-3.123415e+01	-8.989713e+01
7.300000e-07	-4.477423e-06	-1.329275e-09	-3.104182e+01	-8.967282e+01
7.400000e-07	-4.449508e-06	-1.320589e-09	-3.084828e+01	-8.944007e+01
7.500000e-07	-4.421270e-06	-1.322333e-09	-3.065251e+01	-8.919845e+01
7.600000e-07	-4.392730e-06	-1.321903e-09	-3.045464e+01	-8.894771e+01
7.700000e-07	-4.363925e-06	-1.309902e-09	-3.025494e+01	-8.868768e+01
7.800000e-07	-4.334744e-06	-1.303731e-09	-3.005263e+01	-8.841837e+01
7.900000e-07	-4.305258e-06	-1.300270e-09	-2.984820e+01	-8.813993e+01
8.000000e-07	-4.275508e-06	-1.288504e-09	-2.964195e+01	-8.785260e+01
8.100000e-07	-4.245454e-06	-1.282454e-09	-2.943359e+01	-8.755678e+01
8.200000e-07	-4.215109e-06	-1.285833e-09	-2.922320e+01	-8.725295e+01
8.300000e-07	-4.184472e-06	-1.281872e-09	-2.901080e+01	-8.694169e+01
8.400000e-07	-4.153564e-06	-1.271529e-09	-2.879652e+01	-8.662365e+01
8.500000e-07	-4.122398e-06	-1.272447e-09	-2.858044e+01	-8.629953e+01
8.600000e-07	-4.091008e-06	-1.265247e-09	-2.836282e+01	-8.597009e+01
8.700000e-07	-4.059401e-06	-1.250534e-09	-2.814368e+01	-8.563607e+01
8.800000e-07	-4.027612e-06	-1.244132e-09	-2.792330e+01	-8.529823e+01
8.900000e-07	-3.995636e-06	-1.241540e-09	-2.770160e+01	-8.495730e+01
9.000000e-07	-3.963426e-06	-1.227394e-09	-2.747829e+01	-8.461397e+01
9.100000e-07	-3.930895e-06	-1.224757e-09	-2.725276e+01	-8.426886e+01
9.200000e-07	-3.897968e-06	-1.226496e-09	-2.702448e+01	-8.392252e+01
9.300000e-07	-3.864595e-06	-1.218430e-09	-2.679310e+01	-8.357542e+01
9.400000e-07	-3.830681e-06	-1.208253e-09	-2.655798e+01	-8.322791e+01
9.500000e-07	-3.796277e-06	-1.208442e-09	-2.631946e+01	-8.288024e+01
9.600000e-07	-3.761541e-06	-1.198123e-09	-2.607864e+01	-8.253255e+01
9.700000e-07	-3.726484e-06	-1.184642e-09	-2.583558e+01	-8.218486e+01
9.800000e-07	-3.691143e-06	-1.181934e-09	-2.559057e+01	-8.183706e+01
9.900000e-07	-3.655598e-06	-1.180868e-09	-2.534413e+01	-8.148896e+01
1.000000e-06	-3.619917e-06	-1.170701e-09	-2.509676e+01	-8.114021e+01
1.010000e-06	-3.584143e-06	-1.167478e-09	-2.484874e+01	-8.079041e+01
1.020000e-06	-3.548223e-06	-1.166960e-09	-2.459971e+01	-8.043905e+01
1.030000e-06	-3.512100e-06	-1.159755e-09	-2.434927e+01	-8.008555e+01
1.040000e-06	-3.475696e-06	-1.151918e-09	-2.409688e+01	-7.972926e+01
1.050000e-06	-3.438996e-06	-1.149642e-09	-2.384244e+01	-7.936951e+01
1.060000e-06	-3.402020e-06	-1.141301e-09	-2.358608e+01	-7.900558e+01
1.070000e-06	-3.364792e-06	-1.129975e-09	-2.332798e+01	-7.863677e+01
1.080000e-06	-3.327309e-06	-1.126226e-09	-2.306812e+01	-7.826237e+01
1.090000e-06	-3.289606e-06	-1.122159e-09	-2.280672e+01	-7.788169e+01
1.100000e-06	-3.251745e-06	-1.111193e-09	-2.254424e+01	-7.749412e+01
1.110000e-06	-3.213624e-06	-1.104814e-09	-2.227995e+01	-7.709907e+01
1.120000e-06	-3.175275e-06	-1.105097e-09	-2.201407e+01	-7.669605e+01
1.130000e-06	-3.136713e-06	-1.097298e-09	-2.174673e+01	-7.628465e+01
1.140000e-06	-3.097894e-06	-1.089119e-09	-2.147759e+01	-7.586455e+01
1.150000e-06	-3.058842e-06	-1.085526e-09	-2.120685e+01	-7.543552e+01
1.160000e-06	-3.019581e-06	-1.077566e-09	-2.093465e+01	-7.499747e+01
1.170000e-06	-2.980176e-06	-1.064643e-09	-2.066146e+01	-7.455038e+01
1.180000e-06	-2.940687e-06	-1.058599e-09	-2.038768e+01	-7.409435e+01
1.190000e-06	-2.901096e-06	-1.052436e-09	-2.011320e+01	-7.362958e+01
1.200000e-06	-2.861331e-06	-1.041679e-09	-1.983751e+01	-7.315636e+01
1.210000e-06	-2.821409e-06	-1.032532e-09	-1.956073e+01	-7.267509e+01
1.220000e-06	-2.781279e-06	-1.028000e-09	-1.928251e+01	-7.218620e+01
1.230000e-06	-2.740936e-06	-1.020395e-09	-1.900281e+01	-7.169021e+01
1.240000e-06	-2.700291e-06	-1.013358e-09	-1.872103e+01	-7.118769e+01
1.250000e-06	-2.659333e-06	-1.008553e-09	-1.843706e+01	-7.067920e+01
1.260000e-06	-2.618201e-06	-1.002031e-09	-1.815190e+01	-7.016537e+01
1.270000e-06	-2.576912e-06	-9.915939e-10	-1.786564e+01	-6.964677e+01
1.280000e-06	-2.535385e-06	-9.836641e-10	-1.757773e+01	-6.912399e+01
1.290000e-06	-2.493531e-06	-9.754396e-10	-1.728756e+01	-6.859754e+01
1.300000e-06	-2.451303e-06	-9.639969e-10	-1.699480e+01	-6.806793e+01
1.310000e-06	-2.408808e-06	-9.541935e-10	-1.670018e+01	-6.753554e+01
1.320000e-06	-2.366104e-06	-9.484760e-10	-1.640412e+01	-6.700072e+01
1.330000e-06	-2.323136e-06	-9.409837e-10	-1.610622e+01	-6.646369e+01
1.340000e-06	-2.279926e-06	-9.349288e-10	-1.580665e+01	-6.592458e+01
1.350000e-06	-2.236554e-06	-9.292969e-10	-1.550595e+01	-6.538343e+01
1.360000e-06	-2.193043e-06	-9.187921e-10	-1.520429e+01	-6.484015e+01
1.370000e-06	-2.149415e-06	-9.057326e-10	-1.490182e+01	-6.429452e+01
1.380000e-06	-2.105733e-06	-8.929200e-10	-1.459897e+01	-6.374625e+01
1.390000e-06	-2.061971e-06	-8.820601e-10	-1.429557e+01	-6.319489e+01
1.400000e-06	-2.018140e-06	-8.731367e-10	-1.399169e+01	-6.263993e+01
1.410000e-06	-1.974259e-06	-8.655994e-10	-1.368747e+01	-6.208074e+01
1.420000e-06	-1.930277e-06	-8.597227e-10	-1.338255e+01	-6.151661e+01
1.430000e-06	-1.886137e-06	-8.535711e-10	-1.307652e+01	-6.094675e+01
1.440000e-06	-1.841870e-06	-8.449157e-10	-1.276962e+01	-6.037030e+01
1.450000e-06	-1.797536e-06	-8.331250e-10	-1.246226e+01	-5.978638e+01
1.460000e-06	-1.753115e-06	-8.179025e-10	-1.215429e+01	-5.919404e+01
1.470000e-06	-1.708497e-06	-8.031215e-10	-1.184495e+01	-5.859233e+01
1.480000e-06	-1.663641e-06	-7.929954e-10	-1.153397e+01	-5.798027e+01
1.490000e-06	-1.618659e-06	-7.847094e-10	-1.122211e+01	-5.735691e+01
1.500000e-06	-1.573578e-06	-7.765327e-10	-1.090956e+01	-5.672130e+01
1.510000e-06	-1.528417e-06	-7.702218e-10	-1.059646e+01	-5.607252e+01
1.520000e-06	-1.483221e-06	-7.620427e-10	-1.028312e+01	-5.540969e+01
1.530000e-06	-1.437889e-06	-7.516825e-10	-9.968832e+00	-5.473197e+01
1.540000e-06	-1.392452e-06	-7.375664e-10	-9.653821e+00	-5.403858e+01
1.550000e-06	-1.346959e-06	-7.229544e-10	-9.338420e+00	-5.332878e+01
1.560000e-06	-1.301334e-06	-7.080928e-10	-9.022102e+00	-5.260188e+01
1.570000e-06	-1.255665e-06	-6.954216e-10	-8.705481e+00	-5.185727e+01
1.580000e-06	-1.209972e-06	-6.847979e-10	-8.388697e+00	-5.109435e+01
1.590000e-06	-1.164209e-06	-6.785146e-10	-8.071420e+00	-5.031262e+01
1.600000e-06	-1.118320e-06	-6.715874e-10	-7.753272e+00	-4.951157e+01
1.610000e-06	-1.072295e-06	-6.594611e-10	-7.434181e+00	-4.869074e+01
1.620000e-06	-1.026173e-06	-6.453312e-10	-7.114419e+00	-4.784971e+01
1.630000e-06	-9.799372e-07	-6.302297e-10	-6.793871e+00	-4.698804e+01
1.640000e-06	-9.336494e-07	-6.165143e-10	-6.472959e+00	-4.610533e+01
1.650000e-06	-8.873601e-07	-6.042148e-10	-6.152037e+00	-4.520116e+01
1.660000e-06	-8.410456e-07	-5.904749e-10	-5.830940e+00	-4.427507e+01
1.670000e-06	-7.945766e-07	-5.751409e-10	-5.508772e+00	-4.332660e+01
1.680000e-06	-7.479512e-07	-5.596475e-10	-5.185520e+00	-4.235526e+01
1.690000e-06	-7.013426e-07	-5.433960e-10	-4.862384e+00	-4.136051e+01
1.700000e-06	-6.547179e-07	-5.265906e-10	-4.539137e+00	-4.034175e+01
1.710000e-06	-6.079422e-07	-5.098950e-10	-4.214842e+00	-3.929837e+01
1.720000e-06	-5.611736e-07	-4.945133e-10	-3.890597e+00	-3.822967e+01
1.730000e-06	-5.144515e-07	-4.790411e-10	-3.566674e+00	-3.713493e+01
1.740000e-06	-4.676337e-07	-4.625628e-10	-3.242088e+00	-3.601338e+01
1.750000e-06	-4.208466e-07	-4.442591e-10	-2.917715e+00	-3.486422e+01
1.760000e-06	-3.740539e-07	-4.247086e-10	-2.593302e+00	-3.368661e+01
1.770000e-06	-3.271134e-07	-4.063819e-10	-2.267866e+00	-3.247971e+01
1.780000e-06	-2.801445e-07	-3.901355e-10	-1.942232e+00	-3.124267e+01
1.790000e-06	-2.332345e-07	-3.747625e-10	-1.617007e+00	-2.997468e+01
1.800000e-06	-1.862996e-07	-3.575991e-10	-1.291609e+00	-2.867493e+01
1.810000e-06	-1.392302e-07	-3.373982e-10	-9.652784e-01	-2.734268e+01
1.820000e-06	-9.213331e-08	-3.176835e-10	-6.387570e-01	-2.597727e+01
1.830000e-06	-4.512867e-08	-2.984092e-10	-3.128755e-01	-2.457813e+01
1.840000e-06	1.852277e-09	-2.801777e-10	1.284177e-02	-2.314480e+01
1.850000e-06	4.879391e-08	-2.613759e-10	3.382865e-01	-2.167697e+01
1.860000e-06	9.573208e-08	-2.403496e-10	6.637072e-01	-2.017448e+01
1.870000e-06	1.427199e-07	-2.196209e-10	9.894720e-01	-1.863732e+01
1.880000e-06	1.896571e-07	-1.990246e-10	1.314886e+00	-1.706572e+01
1.890000e-06	2.365458e-07	-1.782985e-10	1.639964e+00	-1.546009e+01
1.900000e-06	2.834125e-07	-1.561848e-10	1.964889e+00	-1.382104e+01
1.910000e-06	3.302944e-07	-1.331483e-10	2.289919e+00	-1.214944e+01
1.920000e-06	3.771626e-07	-1.106940e-10	2.614855e+00	-1.044638e+01
1.930000e-06	4.239666e-07	-8.772116e-11	2.939345e+00	-8.713173e+00
1.940000e-06	4.707306e-07	-6.448227e-11	3.263559e+00	-6.951386e+00
1.950000e-06	5.174828e-07	-4.120276e-11	3.587691e+00	-5.162802e+00
1.960000e-06	5.642538e-07	-2.131949e-11	3.911952e+00	-3.349429e+00
1.970000e-06	6.109532e-07	-3.332815e-13	4.235717e+00	-1.513483e+00
1.980000e-06	6.575782e-07	2.414292e-11	4.558967e+00	3.426304e-01
1.990000e-06	7.041637e-07	5.374242e-11	4.881942e+00	2.216327e+00
2.000000e-06	7.506243e-07	8.519572e-11	5.204052e+00	4.104874e+00
2.010000e-06	7.969940e-07	1.167268e-10	5.525532e+00	6.005408e+00
2.020000e-06	8.434190e-07	1.451752e-10	5.847395e+00	7.914964e+00
2.030000e-06	8.898265e-07	1.676859e-10	6.169136e+00	9.830505e+00
2.040000e-06	9.360334e-07	1.875226e-10	6.489487e+00	1.174895e+01
2.050000e-06	9.821545e-07	2.098823e-10	6.809243e+00	1.366719e+01
2.060000e-06	1.028243e-06	2.355332e-10	7.128775e+00	1.558215e+01
2.070000e-06	1.074254e-06	2.623180e-10	7.447768e+00	1.749079e+01
2.080000e-06	1.120169e-06	2.936262e-10	7.766091e+00	1.939014e+01
2.090000e-06	1.165999e-06	3.260765e-10	8.083829e+00	2.127734e+01
2.100000e-06	1.211815e-06	3.552515e-10	8.401470e+00	2.314964e+01
2.110000e-06	1.257571e-06	3.795669e-10	8.718698e+00	2.500445e+01
2.120000e-06	1.303264e-06	3.993550e-10	9.035487e+00	2.683935e+01
2.130000e-06	1.348852e-06	4.157992e-10	9.351547e+00	2.865209e+01
2.140000e-06	1.394294e-06	4.353446e-10	9.666594e+00	3.044064e+01
2.150000e-06	1.439617e-06	4.603638e-10	9.980815e+00	3.220316e+01
2.160000e-06	1.484868e-06	4.881014e-10	1.029454e+01	3.393805e+01
2.170000e-06	1.530046e-06	5.156898e-10	1.060776e+01	3.564391e+01
2.180000e-06	1.575106e-06	5.417532e-10	1.092015e+01	3.731958e+01
2.190000e-06	1.620034e-06	5.634356e-10	1.123164e+01	3.896409e+01
2.200000e-06	1.664830e-06	5.800293e-10	1.154221e+01	4.057671e+01
2.210000e-06	1.709456e-06	5.951390e-10	1.185160e+01	4.215691e+01
2.220000e-06	1.753953e-06	6.133260e-10	1.216010e+01	4.370432e+01
2.230000e-06	1.798338e-06	6.336614e-10	1.246781e+01	4.521878e+01
2.240000e-06	1.842566e-06	6.557350e-10	1.277445e+01	4.670026e+01
2.250000e-06	1.886657e-06	6.774631e-10	1.308013e+01	4.814890e+01
2.260000e-06	1.930664e-06	6.988303e-10	1.338523e+01	4.956495e+01
2.270000e-06	1.974622e-06	7.190573e-10	1.368998e+01	5.094875e+01
2.280000e-06	2.018481e-06	7.388124e-10	1.399406e+01	5.230073e+01
2.290000e-06	2.062244e-06	7.580468e-10	1.429746e+01	5.362140e+01
2.300000e-06	2.105950e-06	7.751768e-10	1.460048e+01	5.491131e+01
2.310000e-06	2.149588e-06	7.908039e-10	1.490302e+01	5.617101e+01
2.320000e-06	2.193173e-06	8.069571e-10	1.520519e+01	5.740111e+01
2.330000e-06	2.236756e-06	8.236179e-10	1.550735e+01	5.860217e+01
2.340000e-06	2.280184e-06	8.396271e-10	1.580843e+01	5.977478e+01
2.350000e-06	2.323397e-06	8.556004e-10	1.610803e+01	6.091946e+01
2.360000e-06	2.366482e-06	8.705444e-10	1.640674e+01	6.203673e+01
2.370000e-06	2.409334e-06	8.837428e-10	1.670383e+01	6.312707e+01
2.380000e-06	2.451835e-06	8.974157e-10	1.699849e+01	6.419089e+01
2.390000e-06	2.493979e-06	9.114604e-10	1.729067e+01	6.522858e+01
2.400000e-06	2.535756e-06	9.257330e-10	1.758031e+01	6.624049e+01
2.410000e-06	2.577176e-06	9.417398e-10	1.786747e+01	6.722690e+01
2.420000e-06	2.618358e-06	9.568859e-10	1.815299e+01	6.818810e+01
2.430000e-06	2.659256e-06	9.702060e-10	1.843653e+01	6.912431e+01
2.440000e-06	2.699857e-06	9.813749e-10	1.871801e+01	7.003574e+01
2.450000e-06	2.740228e-06	9.914360e-10	1.899791e+01	7.092260e+01
2.460000e-06	2.780349e-06	1.000780e-09	1.927606e+01	7.178508e+01
2.470000e-06	2.820350e-06	1.011284e-09	1.955339e+01	7.262338e+01
2.480000e-06	2.860226e-06	1.023850e-09	1.982985e+01	7.343771e+01
2.490000e-06	2.899894e-06	1.037176e-09	2.010486e+01	7.422830e+01
2.500000e-06	2.939464e-06	1.050407e-09	2.037920e+01	7.499542e+01
2.510000e-06	2.978991e-06	1.062638e-09	2.065324e+01	7.573935e+01
2.520000e-06	3.018367e-06	1.071149e-09	2.092623e+01	7.646045e+01
2.530000e-06	3.057479e-06	1.078670e-09	2.119739e+01	7.715911e+01
2.540000e-06	3.096445e-06	1.086403e-09	2.146754e+01	7.783576e+01
2.550000e-06	3.135299e-06	1.094269e-09	2.173692e+01	7.849090e+01
2.560000e-06	3.173880e-06	1.102584e-09	2.200440e+01	7.912508e+01
2.570000e-06	3.212190e-06	1.111213e-09	2.227000e+01	7.973889e+01
2.580000e-06	3.250290e-06	1.120729e-09	2.253415e+01	8.033299e+01
2.590000e-06	3.288129e-06	1.129659e-09	2.279648e+01	8.090805e+01
2.600000e-06	3.325695e-06	1.138441e-09	2.305693e+01	8.146482e+01
2.610000e-06	3.363066e-06	1.146911e-09	2.331602e+01	8.200405e+01
2.620000e-06	3.400229e-06	1.152943e-09	2.357367e+01	8.252653e+01
2.630000e-06	3.437124e-06	1.158550e-09	2.382946e+01	8.303306e+01
2.640000e-06	3.473768e-06	1.164304e-09	2.408352e+01	8.352444e+01
2.650000e-06	3.510149e-06	1.170619e-09	2.433574e+01	8.400149e+01
2.660000e-06	3.546238e-06	1.178580e-09	2.458595e+01	8.446499e+01
2.670000e-06	3.582118e-06	1.185386e-09	2.483470e+01	8.491571e+01
2.680000e-06	3.617909e-06	1.190843e-09	2.508284e+01	8.535440e+01
2.690000e-06	3.653645e-06	1.197775e-09	2.533059e+01	8.578175e+01
2.700000e-06	3.689260e-06	1.205746e-09	2.557751e+01	8.619843e+01
2.710000e-06	3.724667e-06	1.212517e-09	2.582299e+01	8.660505e+01
2.720000e-06	3.759721e-06	1.220617e-09	2.606602e+01	8.700216e+01
2.730000e-06	3.794436e-06	1.227873e-09	2.630669e+01	8.739026e+01
2.740000e-06	3.828868e-06	1.235276e-09	2.654541e+01	8.776980e+01
2.750000e-06	3.862812e-06	1.243032e-09	2.678074e+01	8.814115e+01
2.760000e-06	3.896215e-06	1.246850e-09	2.701232e+01	8.850463e+01
2.770000e-06	3.929148e-06	1.248975e-09	2.724065e+01	8.886053e+01
2.780000e-06	3.961625e-06	1.253404e-09	2.746581e+01	8.920905e+01
2.790000e-06	3.993793e-06	1.262109e-09	2.768883e+01	8.955036e+01
2.800000e-06	4.025797e-06	1.270307e-09	2.791071e+01	8.988461e+01
2.810000e-06	4.057719e-06	1.276155e-09	2.813202e+01	9.021188e+01
2.820000e-06	4.089494e-06	1.281969e-09	2.835232e+01	9.053225e+01
2.830000e-06	4.121046e-06	1.286198e-09	2.857107e+01	9.084577e+01
2.840000e-06	4.152292e-06	1.286853e-09	2.878770e+01	9.115248e+01
2.850000e-06	4.183229e-06	1.288703e-09	2.900218e+01	9.145242e+01
2.860000e-06	4.213918e-06	1.295785e-09	2.921495e+01	9.174562e+01
2.870000e-06	4.244247e-06	1.306098e-09	2.942522e+01	9.203215e+01
2.880000e-06	4.274198e-06	1.316349e-09	2.963287e+01	9.231205e+01
2.890000e-06	4.303883e-06	1.325439e-09	2.983867e+01	9.258542e+01
2.900000e-06	4.333338e-06	1.332357e-09	3.004288e+01	9.285237e+01
