# Temperatura_=_14.27
# Concentracion g/m^3_=_1620.0
# C_Vs_to_Am_M_A/Vsm_=_65563218390.804596
# pendiente_HvsI_1/m_=_3716.3
# ordenada_HvsI_A/m_=_1297.0
# frecuencia_Hz_=_135100.93980140935

Tiempo_(s)	Campo_(V.s)	Magnetizacion_(V.s)	Campo_(kA/m)	Magnetizacion_(A/m)
0.000000e+00	-5.521937e-06	-1.510660e-09	-3.837921e+01	-1.004524e+02
1.000000e-08	-5.522124e-06	-1.509911e-09	-3.838050e+01	-1.004112e+02
2.000000e-08	-5.522055e-06	-1.510777e-09	-3.838002e+01	-1.003691e+02
3.000000e-08	-5.521544e-06	-1.512282e-09	-3.837647e+01	-1.003265e+02
4.000000e-08	-5.520524e-06	-1.510618e-09	-3.836938e+01	-1.002833e+02
5.000000e-08	-5.518845e-06	-1.503996e-09	-3.835772e+01	-1.002396e+02
6.000000e-08	-5.516519e-06	-1.499601e-09	-3.834154e+01	-1.001956e+02
7.000000e-08	-5.513738e-06	-1.523831e-09	-3.832221e+01	-1.001512e+02
8.000000e-08	-5.510472e-06	-1.543726e-09	-3.829952e+01	-1.001065e+02
9.000000e-08	-5.506660e-06	-1.500287e-09	-3.827302e+01	-1.000614e+02
1.000000e-07	-5.502431e-06	-1.431538e-09	-3.824363e+01	-1.000159e+02
1.100000e-07	-5.498019e-06	-1.458602e-09	-3.821297e+01	-9.996978e+01
1.200000e-07	-5.493454e-06	-1.505400e-09	-3.818124e+01	-9.992296e+01
1.300000e-07	-5.488521e-06	-1.547268e-09	-3.814695e+01	-9.987522e+01
1.400000e-07	-5.483122e-06	-1.473804e-09	-3.810943e+01	-9.982631e+01
1.500000e-07	-5.477440e-06	-1.465092e-09	-3.806993e+01	-9.977597e+01
1.600000e-07	-5.471398e-06	-1.505622e-09	-3.802794e+01	-9.972386e+01
1.700000e-07	-5.464872e-06	-1.547156e-09	-3.798258e+01	-9.966964e+01
1.800000e-07	-5.457895e-06	-1.527800e-09	-3.793409e+01	-9.961294e+01
1.900000e-07	-5.450654e-06	-1.476206e-09	-3.788376e+01	-9.955334e+01
2.000000e-07	-5.443159e-06	-1.481087e-09	-3.783167e+01	-9.949043e+01
2.100000e-07	-5.435344e-06	-1.505265e-09	-3.777736e+01	-9.942376e+01
2.200000e-07	-5.427264e-06	-1.523420e-09	-3.772120e+01	-9.935290e+01
2.300000e-07	-5.418890e-06	-1.487413e-09	-3.766300e+01	-9.927741e+01
2.400000e-07	-5.409980e-06	-1.493205e-09	-3.760106e+01	-9.919686e+01
2.500000e-07	-5.400229e-06	-1.515199e-09	-3.753329e+01	-9.911084e+01
2.600000e-07	-5.389777e-06	-1.521773e-09	-3.746065e+01	-9.901895e+01
2.700000e-07	-5.378875e-06	-1.457071e-09	-3.738488e+01	-9.892084e+01
2.800000e-07	-5.367536e-06	-1.451716e-09	-3.730607e+01	-9.881619e+01
2.900000e-07	-5.355808e-06	-1.479014e-09	-3.722455e+01	-9.870472e+01
3.000000e-07	-5.343766e-06	-1.485146e-09	-3.714086e+01	-9.858620e+01
3.100000e-07	-5.331338e-06	-1.439981e-09	-3.705448e+01	-9.846047e+01
3.200000e-07	-5.318461e-06	-1.479606e-09	-3.696498e+01	-9.832740e+01
3.300000e-07	-5.305248e-06	-1.507088e-09	-3.687315e+01	-9.818696e+01
3.400000e-07	-5.291732e-06	-1.476099e-09	-3.677920e+01	-9.803915e+01
3.500000e-07	-5.277730e-06	-1.436566e-09	-3.668189e+01	-9.788404e+01
3.600000e-07	-5.263167e-06	-1.459891e-09	-3.658067e+01	-9.772179e+01
3.700000e-07	-5.248156e-06	-1.449646e-09	-3.647634e+01	-9.755260e+01
3.800000e-07	-5.232661e-06	-1.440422e-09	-3.636864e+01	-9.737673e+01
3.900000e-07	-5.216518e-06	-1.466388e-09	-3.625644e+01	-9.719450e+01
4.000000e-07	-5.200002e-06	-1.455943e-09	-3.614165e+01	-9.700629e+01
4.100000e-07	-5.183307e-06	-1.414145e-09	-3.602562e+01	-9.681250e+01
4.200000e-07	-5.166210e-06	-1.435715e-09	-3.590679e+01	-9.661360e+01
4.300000e-07	-5.148744e-06	-1.469900e-09	-3.578539e+01	-9.641008e+01
4.400000e-07	-5.131037e-06	-1.426275e-09	-3.566232e+01	-9.620243e+01
4.500000e-07	-5.112946e-06	-1.415837e-09	-3.553659e+01	-9.599119e+01
4.600000e-07	-5.094360e-06	-1.442187e-09	-3.540741e+01	-9.577688e+01
4.700000e-07	-5.075394e-06	-1.419890e-09	-3.527559e+01	-9.556003e+01
4.800000e-07	-5.056141e-06	-1.392432e-09	-3.514177e+01	-9.534115e+01
4.900000e-07	-5.036599e-06	-1.432645e-09	-3.500595e+01	-9.512073e+01
5.000000e-07	-5.016857e-06	-1.424090e-09	-3.486874e+01	-9.489924e+01
5.100000e-07	-4.996817e-06	-1.391668e-09	-3.472945e+01	-9.467710e+01
5.200000e-07	-4.976406e-06	-1.414914e-09	-3.458759e+01	-9.445468e+01
5.300000e-07	-4.955669e-06	-1.442571e-09	-3.444346e+01	-9.423233e+01
5.400000e-07	-4.934609e-06	-1.398044e-09	-3.429709e+01	-9.401033e+01
5.500000e-07	-4.913237e-06	-1.386422e-09	-3.414855e+01	-9.378888e+01
5.600000e-07	-4.891525e-06	-1.395314e-09	-3.399764e+01	-9.356815e+01
5.700000e-07	-4.869454e-06	-1.381467e-09	-3.384424e+01	-9.334823e+01
5.800000e-07	-4.847039e-06	-1.374403e-09	-3.368845e+01	-9.312916e+01
5.900000e-07	-4.824263e-06	-1.400470e-09	-3.353015e+01	-9.291090e+01
6.000000e-07	-4.801161e-06	-1.383356e-09	-3.336958e+01	-9.269336e+01
6.100000e-07	-4.777822e-06	-1.367970e-09	-3.320737e+01	-9.247640e+01
6.200000e-07	-4.754242e-06	-1.379155e-09	-3.304348e+01	-9.225982e+01
6.300000e-07	-4.730414e-06	-1.376845e-09	-3.287787e+01	-9.204337e+01
6.400000e-07	-4.706267e-06	-1.358333e-09	-3.271004e+01	-9.182676e+01
6.500000e-07	-4.681719e-06	-1.368212e-09	-3.253942e+01	-9.160967e+01
6.600000e-07	-4.656793e-06	-1.368866e-09	-3.236618e+01	-9.139174e+01
6.700000e-07	-4.631418e-06	-1.347266e-09	-3.218982e+01	-9.117262e+01
6.800000e-07	-4.605400e-06	-1.344819e-09	-3.200898e+01	-9.095192e+01
6.900000e-07	-4.578721e-06	-1.356696e-09	-3.182355e+01	-9.072925e+01
7.000000e-07	-4.551652e-06	-1.346744e-09	-3.163541e+01	-9.050424e+01
7.100000e-07	-4.524344e-06	-1.335308e-09	-3.144562e+01	-9.027651e+01
7.200000e-07	-4.496802e-06	-1.341513e-09	-3.125419e+01	-9.004571e+01
7.300000e-07	-4.469076e-06	-1.339315e-09	-3.106148e+01	-8.981152e+01
7.400000e-07	-4.441110e-06	-1.331241e-09	-3.086711e+01	-8.957364e+01
7.500000e-07	-4.412877e-06	-1.330225e-09	-3.067089e+01	-8.933181e+01
7.600000e-07	-4.384431e-06	-1.324824e-09	-3.047317e+01	-8.908580e+01
7.700000e-07	-4.355700e-06	-1.304973e-09	-3.027349e+01	-8.883543e+01
7.800000e-07	-4.326594e-06	-1.304109e-09	-3.007119e+01	-8.858056e+01
7.900000e-07	-4.297228e-06	-1.306791e-09	-2.986709e+01	-8.832109e+01
8.000000e-07	-4.267598e-06	-1.298516e-09	-2.966115e+01	-8.805696e+01
8.100000e-07	-4.237677e-06	-1.291447e-09	-2.945319e+01	-8.778818e+01
8.200000e-07	-4.207493e-06	-1.303441e-09	-2.924340e+01	-8.751475e+01
8.300000e-07	-4.176946e-06	-1.300630e-09	-2.903109e+01	-8.723674e+01
8.400000e-07	-4.146015e-06	-1.286689e-09	-2.881611e+01	-8.695424e+01
8.500000e-07	-4.114850e-06	-1.280387e-09	-2.859950e+01	-8.666737e+01
8.600000e-07	-4.083546e-06	-1.279396e-09	-2.838193e+01	-8.637627e+01
8.700000e-07	-4.052069e-06	-1.267112e-09	-2.816316e+01	-8.608109e+01
8.800000e-07	-4.020387e-06	-1.266864e-09	-2.794295e+01	-8.578199e+01
8.900000e-07	-3.988476e-06	-1.268331e-09	-2.772116e+01	-8.547914e+01
9.000000e-07	-3.956276e-06	-1.258584e-09	-2.749736e+01	-8.517269e+01
9.100000e-07	-3.923791e-06	-1.245584e-09	-2.727159e+01	-8.486281e+01
9.200000e-07	-3.891012e-06	-1.243678e-09	-2.704376e+01	-8.454962e+01
9.300000e-07	-3.857741e-06	-1.240030e-09	-2.681252e+01	-8.423324e+01
9.400000e-07	-3.823992e-06	-1.235090e-09	-2.657795e+01	-8.391377e+01
9.500000e-07	-3.789809e-06	-1.234719e-09	-2.634037e+01	-8.359126e+01
9.600000e-07	-3.755165e-06	-1.230314e-09	-2.609958e+01	-8.326574e+01
9.700000e-07	-3.720143e-06	-1.214561e-09	-2.585616e+01	-8.293721e+01
9.800000e-07	-3.684894e-06	-1.202602e-09	-2.561118e+01	-8.260564e+01
9.900000e-07	-3.649490e-06	-1.196156e-09	-2.536511e+01	-8.227094e+01
1.000000e-06	-3.613886e-06	-1.188697e-09	-2.511765e+01	-8.193300e+01
1.010000e-06	-3.578122e-06	-1.188097e-09	-2.486907e+01	-8.159168e+01
1.020000e-06	-3.542213e-06	-1.195079e-09	-2.461949e+01	-8.124681e+01
1.030000e-06	-3.506157e-06	-1.195980e-09	-2.436889e+01	-8.089817e+01
1.040000e-06	-3.469895e-06	-1.187382e-09	-2.411686e+01	-8.054553e+01
1.050000e-06	-3.433277e-06	-1.178253e-09	-2.386235e+01	-8.018865e+01
1.060000e-06	-3.396374e-06	-1.163376e-09	-2.360587e+01	-7.982725e+01
1.070000e-06	-3.359256e-06	-1.148891e-09	-2.334789e+01	-7.946105e+01
1.080000e-06	-3.321835e-06	-1.142825e-09	-2.308780e+01	-7.908977e+01
1.090000e-06	-3.284145e-06	-1.143699e-09	-2.282584e+01	-7.871312e+01
1.100000e-06	-3.246288e-06	-1.138826e-09	-2.256273e+01	-7.833082e+01
1.110000e-06	-3.208235e-06	-1.135475e-09	-2.229824e+01	-7.794259e+01
1.120000e-06	-3.170025e-06	-1.134739e-09	-2.203267e+01	-7.754818e+01
1.130000e-06	-3.131630e-06	-1.130281e-09	-2.176582e+01	-7.714735e+01
1.140000e-06	-3.092929e-06	-1.119205e-09	-2.149683e+01	-7.673988e+01
1.150000e-06	-3.053992e-06	-1.111499e-09	-2.122621e+01	-7.632560e+01
1.160000e-06	-3.014884e-06	-1.103737e-09	-2.095440e+01	-7.590433e+01
1.170000e-06	-2.975542e-06	-1.093595e-09	-2.068095e+01	-7.547596e+01
1.180000e-06	-2.935971e-06	-1.085350e-09	-2.040592e+01	-7.504038e+01
1.190000e-06	-2.896295e-06	-1.083110e-09	-2.013016e+01	-7.459754e+01
1.200000e-06	-2.856545e-06	-1.076440e-09	-1.985389e+01	-7.414741e+01
1.210000e-06	-2.816691e-06	-1.070337e-09	-1.957689e+01	-7.368999e+01
1.220000e-06	-2.776662e-06	-1.067241e-09	-1.929868e+01	-7.322531e+01
1.230000e-06	-2.736468e-06	-1.063126e-09	-1.901932e+01	-7.275344e+01
1.240000e-06	-2.696117e-06	-1.055777e-09	-1.873886e+01	-7.227445e+01
1.250000e-06	-2.655559e-06	-1.049880e-09	-1.845697e+01	-7.178846e+01
1.260000e-06	-2.614753e-06	-1.043882e-09	-1.817335e+01	-7.129557e+01
1.270000e-06	-2.573670e-06	-1.032746e-09	-1.788782e+01	-7.079592e+01
1.280000e-06	-2.532263e-06	-1.022278e-09	-1.760002e+01	-7.028965e+01
1.290000e-06	-2.490498e-06	-1.015283e-09	-1.730975e+01	-6.977690e+01
1.300000e-06	-2.448439e-06	-1.007441e-09	-1.701742e+01	-6.925780e+01
1.310000e-06	-2.406145e-06	-9.996369e-10	-1.672347e+01	-6.873248e+01
1.320000e-06	-2.363503e-06	-9.953331e-10	-1.642709e+01	-6.820106e+01
1.330000e-06	-2.320556e-06	-9.894853e-10	-1.612860e+01	-6.766363e+01
1.340000e-06	-2.277510e-06	-9.808924e-10	-1.582941e+01	-6.712028e+01
1.350000e-06	-2.234343e-06	-9.720909e-10	-1.552939e+01	-6.657105e+01
1.360000e-06	-2.190929e-06	-9.618116e-10	-1.522764e+01	-6.601597e+01
1.370000e-06	-2.147310e-06	-9.499270e-10	-1.492448e+01	-6.545502e+01
1.380000e-06	-2.103622e-06	-9.388943e-10	-1.462084e+01	-6.488818e+01
1.390000e-06	-2.059902e-06	-9.294895e-10	-1.431697e+01	-6.431536e+01
1.400000e-06	-2.016098e-06	-9.231048e-10	-1.401252e+01	-6.373645e+01
1.410000e-06	-1.972215e-06	-9.161762e-10	-1.370752e+01	-6.315130e+01
1.420000e-06	-1.928315e-06	-9.093068e-10	-1.340239e+01	-6.255971e+01
1.430000e-06	-1.884320e-06	-9.003589e-10	-1.309662e+01	-6.196147e+01
1.440000e-06	-1.840193e-06	-8.910476e-10	-1.278992e+01	-6.135631e+01
1.450000e-06	-1.795929e-06	-8.783429e-10	-1.248228e+01	-6.074392e+01
1.460000e-06	-1.751620e-06	-8.631090e-10	-1.217431e+01	-6.012396e+01
1.470000e-06	-1.707218e-06	-8.475380e-10	-1.186570e+01	-5.949607e+01
1.480000e-06	-1.662598e-06	-8.359574e-10	-1.155558e+01	-5.885982e+01
1.490000e-06	-1.617809e-06	-8.256040e-10	-1.124428e+01	-5.821477e+01
1.500000e-06	-1.572913e-06	-8.162217e-10	-1.093224e+01	-5.756045e+01
1.510000e-06	-1.527909e-06	-8.080858e-10	-1.061945e+01	-5.689635e+01
1.520000e-06	-1.482805e-06	-7.986026e-10	-1.030596e+01	-5.622191e+01
1.530000e-06	-1.437569e-06	-7.870254e-10	-9.991557e+00	-5.553657e+01
1.540000e-06	-1.392147e-06	-7.744159e-10	-9.675860e+00	-5.483973e+01
1.550000e-06	-1.346677e-06	-7.626050e-10	-9.359833e+00	-5.413074e+01
1.560000e-06	-1.301246e-06	-7.501010e-10	-9.044068e+00	-5.340894e+01
1.570000e-06	-1.255721e-06	-7.351556e-10	-8.727659e+00	-5.267362e+01
1.580000e-06	-1.210055e-06	-7.201159e-10	-8.410261e+00	-5.192407e+01
1.590000e-06	-1.164357e-06	-7.090348e-10	-8.092647e+00	-5.115952e+01
1.600000e-06	-1.118558e-06	-6.991306e-10	-7.774328e+00	-5.037917e+01
1.610000e-06	-1.072577e-06	-6.891047e-10	-7.454746e+00	-4.958220e+01
1.620000e-06	-1.026578e-06	-6.792690e-10	-7.135041e+00	-4.876775e+01
1.630000e-06	-9.806118e-07	-6.677775e-10	-6.815561e+00	-4.793495e+01
1.640000e-06	-9.345408e-07	-6.545343e-10	-6.495353e+00	-4.708286e+01
1.650000e-06	-8.883739e-07	-6.398700e-10	-6.174479e+00	-4.621055e+01
1.660000e-06	-8.420450e-07	-6.241424e-10	-5.852478e+00	-4.531704e+01
1.670000e-06	-7.955906e-07	-6.073808e-10	-5.529605e+00	-4.440135e+01
1.680000e-06	-7.492182e-07	-5.888348e-10	-5.207303e+00	-4.346245e+01
1.690000e-06	-7.027873e-07	-5.711556e-10	-4.884593e+00	-4.249933e+01
1.700000e-06	-6.561959e-07	-5.545769e-10	-4.560768e+00	-4.151095e+01
1.710000e-06	-6.096127e-07	-5.405821e-10	-4.237000e+00	-4.049626e+01
1.720000e-06	-5.630616e-07	-5.280124e-10	-3.913456e+00	-3.945423e+01
1.730000e-06	-5.164391e-07	-5.145824e-10	-3.589414e+00	-3.838385e+01
1.740000e-06	-4.698082e-07	-4.974629e-10	-3.265315e+00	-3.728411e+01
1.750000e-06	-4.231547e-07	-4.769395e-10	-2.941058e+00	-3.615405e+01
1.760000e-06	-3.764993e-07	-4.550737e-10	-2.616789e+00	-3.499276e+01
1.770000e-06	-3.298911e-07	-4.342303e-10	-2.292847e+00	-3.379935e+01
1.780000e-06	-2.831287e-07	-4.157749e-10	-1.967833e+00	-3.257304e+01
1.790000e-06	-2.362516e-07	-4.007624e-10	-1.642023e+00	-3.131310e+01
1.800000e-06	-1.893849e-07	-3.858447e-10	-1.316285e+00	-3.001891e+01
1.810000e-06	-1.425914e-07	-3.688243e-10	-9.910555e-01	-2.868995e+01
1.820000e-06	-9.578334e-08	-3.505540e-10	-6.657244e-01	-2.732581e+01
1.830000e-06	-4.888641e-08	-3.310159e-10	-3.397759e-01	-2.592623e+01
1.840000e-06	-2.044275e-09	-3.115361e-10	-1.420836e-02	-2.449106e+01
1.850000e-06	4.466424e-08	-2.906310e-10	3.104306e-01	-2.302034e+01
1.860000e-06	9.137457e-08	-2.685587e-10	6.350821e-01	-2.151424e+01
1.870000e-06	1.382332e-07	-2.445627e-10	9.607641e-01	-1.997311e+01
1.880000e-06	1.851386e-07	-2.203902e-10	1.286772e+00	-1.839749e+01
1.890000e-06	2.319983e-07	-1.999172e-10	1.612461e+00	-1.678808e+01
1.900000e-06	2.788215e-07	-1.798406e-10	1.937897e+00	-1.514580e+01
1.910000e-06	3.256437e-07	-1.600175e-10	2.263326e+00	-1.347171e+01
1.920000e-06	3.724336e-07	-1.410274e-10	2.588531e+00	-1.176711e+01
1.930000e-06	4.191317e-07	-1.178898e-10	2.913097e+00	-1.003346e+01
1.940000e-06	4.658621e-07	-9.179980e-11	3.237888e+00	-8.272385e+00
1.950000e-06	5.125921e-07	-6.569947e-11	3.562677e+00	-6.485717e+00
1.960000e-06	5.591442e-07	-4.248009e-11	3.886228e+00	-4.675436e+00
1.970000e-06	6.056678e-07	-1.912418e-11	4.209582e+00	-2.843683e+00
1.980000e-06	6.521881e-07	4.197596e-12	4.532913e+00	-9.927395e-01
1.990000e-06	6.985930e-07	2.858681e-11	4.855442e+00	8.749814e-01
2.000000e-06	7.449766e-07	5.765353e-11	5.177822e+00	2.756956e+00
2.010000e-06	7.913659e-07	8.902483e-11	5.500242e+00	4.650564e+00
2.020000e-06	8.376944e-07	1.178799e-10	5.822240e+00	6.553108e+00
2.030000e-06	8.839483e-07	1.428851e-10	6.143719e+00	8.461837e+00
2.040000e-06	9.300881e-07	1.655527e-10	6.464405e+00	1.037396e+01
2.050000e-06	9.761385e-07	1.904619e-10	6.784470e+00	1.228667e+01
2.060000e-06	1.022068e-06	2.171679e-10	7.103693e+00	1.419716e+01
2.070000e-06	1.067924e-06	2.443653e-10	7.422405e+00	1.610267e+01
2.080000e-06	1.113724e-06	2.744103e-10	7.740734e+00	1.800046e+01
2.090000e-06	1.159411e-06	3.046002e-10	8.058270e+00	1.988788e+01
2.100000e-06	1.205080e-06	3.313288e-10	8.375689e+00	2.176234e+01
2.110000e-06	1.250731e-06	3.550883e-10	8.692975e+00	2.362139e+01
2.120000e-06	1.296285e-06	3.770406e-10	9.009592e+00	2.546265e+01
2.130000e-06	1.341694e-06	3.962000e-10	9.325194e+00	2.728393e+01
2.140000e-06	1.387001e-06	4.165111e-10	9.640094e+00	2.908315e+01
2.150000e-06	1.432236e-06	4.401805e-10	9.954493e+00	3.085841e+01
2.160000e-06	1.477374e-06	4.668637e-10	1.026822e+01	3.260795e+01
2.170000e-06	1.522481e-06	4.934293e-10	1.058172e+01	3.433021e+01
2.180000e-06	1.567530e-06	5.191897e-10	1.089483e+01	3.602382e+01
2.190000e-06	1.612412e-06	5.446615e-10	1.120677e+01	3.768756e+01
2.200000e-06	1.657119e-06	5.672510e-10	1.151750e+01	3.932041e+01
2.210000e-06	1.701588e-06	5.843580e-10	1.182657e+01	4.092154e+01
2.220000e-06	1.745967e-06	6.002905e-10	1.213502e+01	4.249027e+01
2.230000e-06	1.790328e-06	6.180299e-10	1.244334e+01	4.402613e+01
2.240000e-06	1.834572e-06	6.367482e-10	1.275086e+01	4.552879e+01
2.250000e-06	1.878707e-06	6.576989e-10	1.305760e+01	4.699808e+01
2.260000e-06	1.922698e-06	6.833986e-10	1.336336e+01	4.843397e+01
2.270000e-06	1.966545e-06	7.089021e-10	1.366810e+01	4.983657e+01
2.280000e-06	2.010290e-06	7.317388e-10	1.397215e+01	5.120613e+01
2.290000e-06	2.053981e-06	7.530124e-10	1.427582e+01	5.254299e+01
2.300000e-06	2.097653e-06	7.702061e-10	1.457935e+01	5.384758e+01
2.310000e-06	2.141287e-06	7.837886e-10	1.488262e+01	5.512043e+01
2.320000e-06	2.184870e-06	7.976795e-10	1.518554e+01	5.636212e+01
2.330000e-06	2.228373e-06	8.134410e-10	1.548789e+01	5.757330e+01
2.340000e-06	2.271752e-06	8.308302e-10	1.578939e+01	5.875467e+01
2.350000e-06	2.314969e-06	8.490048e-10	1.608976e+01	5.990693e+01
2.360000e-06	2.357943e-06	8.668088e-10	1.638845e+01	6.103081e+01
2.370000e-06	2.400556e-06	8.817683e-10	1.668462e+01	6.212707e+01
2.380000e-06	2.442856e-06	8.958955e-10	1.697862e+01	6.319644e+01
2.390000e-06	2.484887e-06	9.099184e-10	1.727075e+01	6.423963e+01
2.400000e-06	2.526466e-06	9.226457e-10	1.755973e+01	6.525736e+01
2.410000e-06	2.567650e-06	9.362241e-10	1.784598e+01	6.625031e+01
2.420000e-06	2.608552e-06	9.493980e-10	1.813026e+01	6.721912e+01
2.430000e-06	2.649201e-06	9.614127e-10	1.841278e+01	6.816440e+01
2.440000e-06	2.689637e-06	9.717958e-10	1.869382e+01	6.908672e+01
2.450000e-06	2.729798e-06	9.829161e-10	1.897296e+01	6.998663e+01
2.460000e-06	2.769765e-06	9.955204e-10	1.925074e+01	7.086460e+01
2.470000e-06	2.809684e-06	1.008927e-09	1.952819e+01	7.172110e+01
2.480000e-06	2.849530e-06	1.022338e-09	1.980513e+01	7.255654e+01
2.490000e-06	2.889257e-06	1.035246e-09	2.008124e+01	7.337129e+01
2.500000e-06	2.928857e-06	1.045748e-09	2.035648e+01	7.416570e+01
2.510000e-06	2.968278e-06	1.053652e-09	2.063047e+01	7.494009e+01
2.520000e-06	3.007503e-06	1.060186e-09	2.090310e+01	7.569473e+01
2.530000e-06	3.046563e-06	1.067870e-09	2.117458e+01	7.642990e+01
2.540000e-06	3.085460e-06	1.076279e-09	2.144492e+01	7.714584e+01
2.550000e-06	3.124135e-06	1.084818e-09	2.171373e+01	7.784278e+01
2.560000e-06	3.162469e-06	1.094302e-09	2.198016e+01	7.852096e+01
2.570000e-06	3.200516e-06	1.104280e-09	2.224460e+01	7.918059e+01
2.580000e-06	3.238478e-06	1.112979e-09	2.250845e+01	7.982189e+01
2.590000e-06	3.276296e-06	1.120277e-09	2.277129e+01	8.044509e+01
2.600000e-06	3.313855e-06	1.127994e-09	2.303233e+01	8.105042e+01
2.610000e-06	3.351170e-06	1.135134e-09	2.329169e+01	8.163812e+01
2.620000e-06	3.388320e-06	1.141294e-09	2.354989e+01	8.220844e+01
2.630000e-06	3.425230e-06	1.149166e-09	2.380643e+01	8.276166e+01
2.640000e-06	3.461743e-06	1.156868e-09	2.406020e+01	8.329806e+01
2.650000e-06	3.497957e-06	1.163901e-09	2.431190e+01	8.381794e+01
2.660000e-06	3.534019e-06	1.171368e-09	2.456254e+01	8.432164e+01
2.670000e-06	3.569938e-06	1.177616e-09	2.481220e+01	8.480948e+01
2.680000e-06	3.605711e-06	1.182716e-09	2.506083e+01	8.528185e+01
2.690000e-06	3.641393e-06	1.188976e-09	2.530883e+01	8.573911e+01
2.700000e-06	3.676932e-06	1.196815e-09	2.555584e+01	8.618167e+01
2.710000e-06	3.712301e-06	1.203834e-09	2.580166e+01	8.660995e+01
2.720000e-06	3.747482e-06	1.211462e-09	2.604618e+01	8.702439e+01
2.730000e-06	3.782357e-06	1.218380e-09	2.628857e+01	8.742543e+01
2.740000e-06	3.816750e-06	1.221934e-09	2.652762e+01	8.781355e+01
2.750000e-06	3.850608e-06	1.224047e-09	2.676294e+01	8.818921e+01
2.760000e-06	3.883939e-06	1.227801e-09	2.699460e+01	8.855291e+01
2.770000e-06	3.916737e-06	1.232487e-09	2.722256e+01	8.890514e+01
2.780000e-06	3.949147e-06	1.239772e-09	2.744782e+01	8.924641e+01
2.790000e-06	3.981324e-06	1.250282e-09	2.767146e+01	8.957721e+01
2.800000e-06	4.013331e-06	1.261052e-09	2.789391e+01	8.989805e+01
2.810000e-06	4.045170e-06	1.267649e-09	2.811521e+01	9.020946e+01
2.820000e-06	4.076869e-06	1.271476e-09	2.833552e+01	9.051192e+01
2.830000e-06	4.108391e-06	1.274827e-09	2.855461e+01	9.080595e+01
2.840000e-06	4.139674e-06	1.278395e-09	2.877204e+01	9.109205e+01
2.850000e-06	4.170646e-06	1.283402e-09	2.898730e+01	9.137069e+01
2.860000e-06	4.201223e-06	1.291078e-09	2.919982e+01	9.164237e+01
2.870000e-06	4.231417e-06	1.298654e-09	2.940968e+01	9.190756e+01
2.880000e-06	4.261319e-06	1.304462e-09	2.961751e+01	9.216671e+01
2.890000e-06	4.290994e-06	1.310183e-09	2.982376e+01	9.242026e+01
2.900000e-06	4.320339e-06	1.315392e-09	3.002772e+01	9.266865e+01
