# Temperatura_=_-10.61
# Concentracion g/m^3_=_1620.0
# C_Vs_to_Am_M_A/Vsm_=_65563218390.804596
# pendiente_HvsI_1/m_=_3716.3
# ordenada_HvsI_A/m_=_1297.0
# frecuencia_Hz_=_135108.9310908421

Tiempo_(s)	Campo_(V.s)	Magnetizacion_(V.s)	Campo_(kA/m)	Magnetizacion_(A/m)
0.000000e+00	-5.527959e-06	-9.665884e-10	-3.835845e+01	-6.383126e+01
1.000000e-08	-5.528299e-06	-9.648103e-10	-3.836081e+01	-6.383055e+01
2.000000e-08	-5.528357e-06	-9.640805e-10	-3.836122e+01	-6.382873e+01
3.000000e-08	-5.528150e-06	-9.642810e-10	-3.835978e+01	-6.382516e+01
4.000000e-08	-5.527559e-06	-9.654434e-10	-3.835568e+01	-6.381919e+01
5.000000e-08	-5.526357e-06	-9.715815e-10	-3.834734e+01	-6.381017e+01
6.000000e-08	-5.524518e-06	-9.818030e-10	-3.833458e+01	-6.379745e+01
7.000000e-08	-5.522095e-06	-9.752645e-10	-3.831776e+01	-6.378037e+01
8.000000e-08	-5.519075e-06	-9.316158e-10	-3.829681e+01	-6.375834e+01
9.000000e-08	-5.515577e-06	-8.863638e-10	-3.827254e+01	-6.373076e+01
1.000000e-07	-5.511727e-06	-9.045029e-10	-3.824582e+01	-6.369712e+01
1.100000e-07	-5.507544e-06	-1.028029e-09	-3.821680e+01	-6.365692e+01
1.200000e-07	-5.503025e-06	-1.053779e-09	-3.818544e+01	-6.360975e+01
1.300000e-07	-5.498256e-06	-9.132665e-10	-3.815235e+01	-6.355527e+01
1.400000e-07	-5.493241e-06	-8.696836e-10	-3.811755e+01	-6.349320e+01
1.500000e-07	-5.487802e-06	-9.759637e-10	-3.807981e+01	-6.342336e+01
1.600000e-07	-5.481925e-06	-1.052764e-09	-3.803902e+01	-6.334565e+01
1.700000e-07	-5.475701e-06	-9.224808e-10	-3.799584e+01	-6.326006e+01
1.800000e-07	-5.469156e-06	-8.395816e-10	-3.795042e+01	-6.316667e+01
1.900000e-07	-5.462233e-06	-9.718496e-10	-3.790238e+01	-6.306566e+01
2.000000e-07	-5.454872e-06	-1.063231e-09	-3.785130e+01	-6.295730e+01
2.100000e-07	-5.447265e-06	-9.743384e-10	-3.779852e+01	-6.284195e+01
2.200000e-07	-5.439463e-06	-8.613707e-10	-3.774438e+01	-6.272006e+01
2.300000e-07	-5.431302e-06	-9.089204e-10	-3.768775e+01	-6.259214e+01
2.400000e-07	-5.422689e-06	-9.730647e-10	-3.762799e+01	-6.245879e+01
2.500000e-07	-5.413642e-06	-9.527046e-10	-3.756521e+01	-6.232069e+01
2.600000e-07	-5.403998e-06	-9.065383e-10	-3.749829e+01	-6.217856e+01
2.700000e-07	-5.393569e-06	-9.237527e-10	-3.742592e+01	-6.203316e+01
2.800000e-07	-5.382543e-06	-9.268641e-10	-3.734941e+01	-6.188530e+01
2.900000e-07	-5.371129e-06	-8.947220e-10	-3.727021e+01	-6.173583e+01
3.000000e-07	-5.359348e-06	-8.738595e-10	-3.718847e+01	-6.158560e+01
3.100000e-07	-5.347186e-06	-9.028483e-10	-3.710407e+01	-6.143546e+01
3.200000e-07	-5.334610e-06	-9.334753e-10	-3.701681e+01	-6.128626e+01
3.300000e-07	-5.321615e-06	-9.252411e-10	-3.692664e+01	-6.113882e+01
3.400000e-07	-5.308242e-06	-9.011943e-10	-3.683384e+01	-6.099396e+01
3.500000e-07	-5.294452e-06	-9.090528e-10	-3.673815e+01	-6.085242e+01
3.600000e-07	-5.280311e-06	-9.302214e-10	-3.664003e+01	-6.071492e+01
3.700000e-07	-5.265793e-06	-8.904035e-10	-3.653929e+01	-6.058210e+01
3.800000e-07	-5.250691e-06	-8.672474e-10	-3.643450e+01	-6.045454e+01
3.900000e-07	-5.235126e-06	-9.171654e-10	-3.632649e+01	-6.033275e+01
4.000000e-07	-5.219099e-06	-9.261203e-10	-3.621528e+01	-6.021715e+01
4.100000e-07	-5.202462e-06	-8.620691e-10	-3.609983e+01	-6.010807e+01
4.200000e-07	-5.185437e-06	-8.983765e-10	-3.598170e+01	-6.000577e+01
4.300000e-07	-5.168205e-06	-9.578548e-10	-3.586213e+01	-5.991042e+01
4.400000e-07	-5.150688e-06	-8.817156e-10	-3.574058e+01	-5.982207e+01
4.500000e-07	-5.132797e-06	-8.385116e-10	-3.561643e+01	-5.974072e+01
4.600000e-07	-5.114542e-06	-9.456101e-10	-3.548976e+01	-5.966625e+01
4.700000e-07	-5.095884e-06	-9.339808e-10	-3.536029e+01	-5.959849e+01
4.800000e-07	-5.076816e-06	-8.221549e-10	-3.522798e+01	-5.953716e+01
4.900000e-07	-5.057426e-06	-8.733702e-10	-3.509343e+01	-5.948193e+01
5.000000e-07	-5.037770e-06	-9.511596e-10	-3.495704e+01	-5.943240e+01
5.100000e-07	-5.017929e-06	-8.657857e-10	-3.481936e+01	-5.938811e+01
5.200000e-07	-4.997888e-06	-8.580483e-10	-3.468030e+01	-5.934856e+01
5.300000e-07	-4.977535e-06	-9.432195e-10	-3.453907e+01	-5.931320e+01
5.400000e-07	-4.956765e-06	-8.884226e-10	-3.439495e+01	-5.928146e+01
5.500000e-07	-4.935574e-06	-8.313472e-10	-3.424790e+01	-5.925274e+01
5.600000e-07	-4.914013e-06	-9.252529e-10	-3.409829e+01	-5.922644e+01
5.700000e-07	-4.892178e-06	-9.243552e-10	-3.394678e+01	-5.920194e+01
5.800000e-07	-4.870105e-06	-8.305334e-10	-3.379362e+01	-5.917866e+01
5.900000e-07	-4.847643e-06	-8.766258e-10	-3.363775e+01	-5.915599e+01
6.000000e-07	-4.824720e-06	-9.304143e-10	-3.347869e+01	-5.913339e+01
6.100000e-07	-4.801457e-06	-8.576768e-10	-3.331727e+01	-5.911032e+01
6.200000e-07	-4.777996e-06	-8.525742e-10	-3.315447e+01	-5.908629e+01
6.300000e-07	-4.754297e-06	-9.157499e-10	-3.299002e+01	-5.906084e+01
6.400000e-07	-4.730332e-06	-8.819617e-10	-3.282373e+01	-5.903359e+01
6.500000e-07	-4.706086e-06	-8.521646e-10	-3.265549e+01	-5.900417e+01
6.600000e-07	-4.681492e-06	-8.976718e-10	-3.248483e+01	-5.897228e+01
6.700000e-07	-4.656416e-06	-8.920180e-10	-3.231083e+01	-5.893769e+01
6.800000e-07	-4.630681e-06	-8.539520e-10	-3.213225e+01	-5.890019e+01
6.900000e-07	-4.604398e-06	-8.787660e-10	-3.194987e+01	-5.885965e+01
7.000000e-07	-4.577617e-06	-8.946487e-10	-3.176404e+01	-5.881598e+01
7.100000e-07	-4.550390e-06	-8.711653e-10	-3.157511e+01	-5.876915e+01
7.200000e-07	-4.522957e-06	-8.757105e-10	-3.138476e+01	-5.871917e+01
7.300000e-07	-4.495362e-06	-8.909005e-10	-3.119328e+01	-5.866608e+01
7.400000e-07	-4.467550e-06	-8.742437e-10	-3.100029e+01	-5.860998e+01
7.500000e-07	-4.439522e-06	-8.721080e-10	-3.080580e+01	-5.855099e+01
7.600000e-07	-4.411223e-06	-8.846130e-10	-3.060943e+01	-5.848926e+01
7.700000e-07	-4.382587e-06	-8.788620e-10	-3.041073e+01	-5.842496e+01
7.800000e-07	-4.353606e-06	-8.667670e-10	-3.020963e+01	-5.835828e+01
7.900000e-07	-4.324288e-06	-8.715649e-10	-3.000619e+01	-5.828942e+01
8.000000e-07	-4.294713e-06	-8.677159e-10	-2.980097e+01	-5.821857e+01
8.100000e-07	-4.264905e-06	-8.608211e-10	-2.959413e+01	-5.814595e+01
8.200000e-07	-4.234811e-06	-8.660245e-10	-2.938531e+01	-5.807176e+01
8.300000e-07	-4.204435e-06	-8.682404e-10	-2.917453e+01	-5.799618e+01
8.400000e-07	-4.173777e-06	-8.619501e-10	-2.896180e+01	-5.791940e+01
8.500000e-07	-4.142688e-06	-8.691707e-10	-2.874607e+01	-5.784157e+01
8.600000e-07	-4.111296e-06	-8.764979e-10	-2.852824e+01	-5.776285e+01
8.700000e-07	-4.079832e-06	-8.683826e-10	-2.830991e+01	-5.768335e+01
8.800000e-07	-4.048200e-06	-8.609555e-10	-2.809042e+01	-5.760317e+01
8.900000e-07	-4.016342e-06	-8.622482e-10	-2.786936e+01	-5.752240e+01
9.000000e-07	-3.984328e-06	-8.533535e-10	-2.764721e+01	-5.744108e+01
9.100000e-07	-3.952129e-06	-8.475655e-10	-2.742379e+01	-5.735924e+01
9.200000e-07	-3.919555e-06	-8.565586e-10	-2.719775e+01	-5.727690e+01
9.300000e-07	-3.886522e-06	-8.568566e-10	-2.696854e+01	-5.719404e+01
9.400000e-07	-3.853067e-06	-8.501405e-10	-2.673640e+01	-5.711061e+01
9.500000e-07	-3.819184e-06	-8.550205e-10	-2.650128e+01	-5.702658e+01
9.600000e-07	-3.784815e-06	-8.561323e-10	-2.626280e+01	-5.694186e+01
9.700000e-07	-3.749969e-06	-8.396019e-10	-2.602100e+01	-5.685638e+01
9.800000e-07	-3.714791e-06	-8.317910e-10	-2.577690e+01	-5.677004e+01
9.900000e-07	-3.679445e-06	-8.342620e-10	-2.553164e+01	-5.668273e+01
1.000000e-06	-3.643932e-06	-8.296100e-10	-2.528521e+01	-5.659433e+01
1.010000e-06	-3.608221e-06	-8.257516e-10	-2.503741e+01	-5.650475e+01
1.020000e-06	-3.572349e-06	-8.344359e-10	-2.478850e+01	-5.641384e+01
1.030000e-06	-3.536360e-06	-8.380137e-10	-2.453877e+01	-5.632149e+01
1.040000e-06	-3.500169e-06	-8.342753e-10	-2.428764e+01	-5.622758e+01
1.050000e-06	-3.463709e-06	-8.349578e-10	-2.403464e+01	-5.613198e+01
1.060000e-06	-3.426989e-06	-8.350146e-10	-2.377985e+01	-5.603458e+01
1.070000e-06	-3.389964e-06	-8.256743e-10	-2.352293e+01	-5.593526e+01
1.080000e-06	-3.352723e-06	-8.214715e-10	-2.326451e+01	-5.583391e+01
1.090000e-06	-3.315250e-06	-8.234684e-10	-2.300449e+01	-5.573042e+01
1.100000e-06	-3.277486e-06	-8.211656e-10	-2.274244e+01	-5.562469e+01
1.110000e-06	-3.239496e-06	-8.163563e-10	-2.247883e+01	-5.551661e+01
1.120000e-06	-3.201315e-06	-8.194050e-10	-2.221389e+01	-5.540608e+01
1.130000e-06	-3.162939e-06	-8.200781e-10	-2.194761e+01	-5.529301e+01
1.140000e-06	-3.124330e-06	-8.143950e-10	-2.167970e+01	-5.517729e+01
1.150000e-06	-3.085466e-06	-8.133133e-10	-2.141002e+01	-5.505882e+01
1.160000e-06	-3.046452e-06	-8.144413e-10	-2.113930e+01	-5.493750e+01
1.170000e-06	-3.007346e-06	-8.082533e-10	-2.086794e+01	-5.481322e+01
1.180000e-06	-2.968015e-06	-8.008036e-10	-2.059503e+01	-5.468589e+01
1.190000e-06	-2.928435e-06	-7.985608e-10	-2.032038e+01	-5.455539e+01
1.200000e-06	-2.888742e-06	-7.951882e-10	-2.004495e+01	-5.442160e+01
1.210000e-06	-2.848897e-06	-7.899056e-10	-1.976847e+01	-5.428440e+01
1.220000e-06	-2.808905e-06	-7.888230e-10	-1.949097e+01	-5.414366e+01
1.230000e-06	-2.768790e-06	-7.886710e-10	-1.921260e+01	-5.399926e+01
1.240000e-06	-2.728479e-06	-7.873454e-10	-1.893289e+01	-5.385105e+01
1.250000e-06	-2.687982e-06	-7.869509e-10	-1.865188e+01	-5.369890e+01
1.260000e-06	-2.647261e-06	-7.864788e-10	-1.836932e+01	-5.354267e+01
1.270000e-06	-2.606275e-06	-7.824575e-10	-1.808492e+01	-5.338220e+01
1.280000e-06	-2.564989e-06	-7.753112e-10	-1.779844e+01	-5.321735e+01
1.290000e-06	-2.523450e-06	-7.706949e-10	-1.751020e+01	-5.304798e+01
1.300000e-06	-2.481612e-06	-7.654702e-10	-1.721988e+01	-5.287393e+01
1.310000e-06	-2.439349e-06	-7.595033e-10	-1.692662e+01	-5.269508e+01
1.320000e-06	-2.396778e-06	-7.561205e-10	-1.663122e+01	-5.251127e+01
1.330000e-06	-2.354022e-06	-7.558408e-10	-1.633453e+01	-5.232237e+01
1.340000e-06	-2.310976e-06	-7.534310e-10	-1.603584e+01	-5.212826e+01
1.350000e-06	-2.267722e-06	-7.500556e-10	-1.573570e+01	-5.192882e+01
1.360000e-06	-2.224399e-06	-7.468154e-10	-1.543508e+01	-5.172394e+01
1.370000e-06	-2.180924e-06	-7.425442e-10	-1.513341e+01	-5.151350e+01
1.380000e-06	-2.137280e-06	-7.367464e-10	-1.483057e+01	-5.129743e+01
1.390000e-06	-2.093583e-06	-7.313115e-10	-1.452735e+01	-5.107562e+01
1.400000e-06	-2.049880e-06	-7.262397e-10	-1.422409e+01	-5.084799e+01
1.410000e-06	-2.006059e-06	-7.219776e-10	-1.392002e+01	-5.061446e+01
1.420000e-06	-1.962092e-06	-7.185417e-10	-1.361494e+01	-5.037497e+01
1.430000e-06	-1.918058e-06	-7.163595e-10	-1.330939e+01	-5.012942e+01
1.440000e-06	-1.873988e-06	-7.150882e-10	-1.300359e+01	-4.987775e+01
1.450000e-06	-1.829801e-06	-7.138395e-10	-1.269697e+01	-4.961986e+01
1.460000e-06	-1.785427e-06	-7.102109e-10	-1.238906e+01	-4.935566e+01
1.470000e-06	-1.740883e-06	-7.036547e-10	-1.207997e+01	-4.908504e+01
1.480000e-06	-1.696164e-06	-6.948684e-10	-1.176967e+01	-4.880786e+01
1.490000e-06	-1.651276e-06	-6.871978e-10	-1.145819e+01	-4.852398e+01
1.500000e-06	-1.606288e-06	-6.805167e-10	-1.114602e+01	-4.823320e+01
1.510000e-06	-1.561231e-06	-6.758006e-10	-1.083337e+01	-4.793532e+01
1.520000e-06	-1.516017e-06	-6.753732e-10	-1.051963e+01	-4.763007e+01
1.530000e-06	-1.470653e-06	-6.765241e-10	-1.020485e+01	-4.731716e+01
1.540000e-06	-1.425258e-06	-6.756174e-10	-9.889851e+00	-4.699624e+01
1.550000e-06	-1.379773e-06	-6.723930e-10	-9.574232e+00	-4.666690e+01
1.560000e-06	-1.334157e-06	-6.666012e-10	-9.257702e+00	-4.632870e+01
1.570000e-06	-1.288539e-06	-6.568783e-10	-8.941163e+00	-4.598112e+01
1.580000e-06	-1.242856e-06	-6.465236e-10	-8.624164e+00	-4.562358e+01
1.590000e-06	-1.197018e-06	-6.371796e-10	-8.306095e+00	-4.525545e+01
1.600000e-06	-1.151078e-06	-6.320434e-10	-7.987317e+00	-4.487602e+01
1.610000e-06	-1.105061e-06	-6.282074e-10	-7.668005e+00	-4.448452e+01
1.620000e-06	-1.058994e-06	-6.232943e-10	-7.348349e+00	-4.408013e+01
1.630000e-06	-1.012856e-06	-6.168980e-10	-7.028200e+00	-4.366195e+01
1.640000e-06	-9.666897e-07	-6.101305e-10	-6.707850e+00	-4.322903e+01
1.650000e-06	-9.204950e-07	-6.020574e-10	-6.387306e+00	-4.278037e+01
1.660000e-06	-8.741897e-07	-5.928995e-10	-6.065994e+00	-4.231491e+01
1.670000e-06	-8.278134e-07	-5.838793e-10	-5.744190e+00	-4.183155e+01
1.680000e-06	-7.814087e-07	-5.743614e-10	-5.422188e+00	-4.132915e+01
1.690000e-06	-7.349545e-07	-5.628755e-10	-5.099842e+00	-4.080655e+01
1.700000e-06	-6.884429e-07	-5.520801e-10	-4.777099e+00	-4.026257e+01
1.710000e-06	-6.419134e-07	-5.422109e-10	-4.454231e+00	-3.969600e+01
1.720000e-06	-5.954193e-07	-5.333219e-10	-4.131609e+00	-3.910564e+01
1.730000e-06	-5.488412e-07	-5.256036e-10	-3.808404e+00	-3.849029e+01
1.740000e-06	-5.020564e-07	-5.177401e-10	-3.483764e+00	-3.784880e+01
1.750000e-06	-4.552380e-07	-5.074884e-10	-3.158892e+00	-3.718000e+01
1.760000e-06	-4.084479e-07	-4.944523e-10	-2.834216e+00	-3.648281e+01
1.770000e-06	-3.616314e-07	-4.812289e-10	-2.509357e+00	-3.575616e+01
1.780000e-06	-3.148138e-07	-4.688997e-10	-2.184490e+00	-3.499908e+01
1.790000e-06	-2.679404e-07	-4.574166e-10	-1.859236e+00	-3.421066e+01
1.800000e-06	-2.210543e-07	-4.449817e-10	-1.533894e+00	-3.339008e+01
1.810000e-06	-1.741779e-07	-4.311128e-10	-1.208618e+00	-3.253660e+01
1.820000e-06	-1.272952e-07	-4.167038e-10	-8.833005e-01	-3.164960e+01
1.830000e-06	-8.047478e-08	-4.035203e-10	-5.584137e-01	-3.072858e+01
1.840000e-06	-3.364505e-08	-3.918847e-10	-2.334627e-01	-2.977316e+01
1.850000e-06	1.319099e-08	-3.800042e-10	9.153218e-02	-2.878308e+01
1.860000e-06	6.000413e-08	-3.652149e-10	4.163681e-01	-2.775822e+01
1.870000e-06	1.068321e-07	-3.491763e-10	7.413066e-01	-2.669860e+01
1.880000e-06	1.537355e-07	-3.295606e-10	1.066769e+00	-2.560440e+01
1.890000e-06	2.006446e-07	-3.114418e-10	1.392271e+00	-2.447594e+01
1.900000e-06	2.474477e-07	-2.962742e-10	1.717037e+00	-2.331367e+01
1.910000e-06	2.942650e-07	-2.798976e-10	2.041902e+00	-2.211823e+01
1.920000e-06	3.411011e-07	-2.635344e-10	2.366897e+00	-2.089037e+01
1.930000e-06	3.879239e-07	-2.485203e-10	2.691800e+00	-1.963101e+01
1.940000e-06	4.347407e-07	-2.323096e-10	3.016662e+00	-1.834122e+01
1.950000e-06	4.815043e-07	-2.122315e-10	3.341154e+00	-1.702219e+01
1.960000e-06	5.281693e-07	-1.920743e-10	3.664961e+00	-1.567527e+01
1.970000e-06	5.747120e-07	-1.735017e-10	3.987921e+00	-1.430192e+01
1.980000e-06	6.211561e-07	-1.551272e-10	4.310196e+00	-1.290374e+01
1.990000e-06	6.676405e-07	-1.365590e-10	4.632751e+00	-1.148242e+01
2.000000e-06	7.141492e-07	-1.175340e-10	4.955474e+00	-1.003978e+01
2.010000e-06	7.605734e-07	-9.460343e-11	5.277611e+00	-8.577727e+00
2.020000e-06	8.069750e-07	-7.009624e-11	5.599592e+00	-7.098247e+00
2.030000e-06	8.532626e-07	-4.852494e-11	5.920781e+00	-5.603408e+00
2.040000e-06	8.993998e-07	-3.104751e-11	6.240927e+00	-4.095341e+00
2.050000e-06	9.455471e-07	-1.560826e-11	6.561142e+00	-2.576229e+00
2.060000e-06	9.917311e-07	2.105498e-12	6.881613e+00	-1.048294e+00
2.070000e-06	1.037869e-06	2.310970e-11	7.201760e+00	4.862127e-01
2.080000e-06	1.083898e-06	4.637363e-11	7.521159e+00	2.025023e+00
2.090000e-06	1.129847e-06	7.122325e-11	7.839995e+00	3.565863e+00
2.100000e-06	1.175733e-06	9.590948e-11	8.158401e+00	5.106469e+00
2.110000e-06	1.221562e-06	1.184933e-10	8.476405e+00	6.644594e+00
2.120000e-06	1.267299e-06	1.368094e-10	8.793777e+00	8.178021e+00
2.130000e-06	1.312868e-06	1.543835e-10	9.109981e+00	9.704575e+00
2.140000e-06	1.358304e-06	1.730481e-10	9.425255e+00	1.122213e+01
2.150000e-06	1.403679e-06	1.911999e-10	9.740117e+00	1.272863e+01
2.160000e-06	1.448954e-06	2.105104e-10	1.005428e+01	1.422208e+01
2.170000e-06	1.494090e-06	2.314755e-10	1.036748e+01	1.570056e+01
2.180000e-06	1.539121e-06	2.528373e-10	1.067995e+01	1.716226e+01
2.190000e-06	1.584058e-06	2.740566e-10	1.099176e+01	1.860544e+01
2.200000e-06	1.628932e-06	2.963792e-10	1.130314e+01	2.002849e+01
2.210000e-06	1.673739e-06	3.178786e-10	1.161406e+01	2.142988e+01
2.220000e-06	1.718391e-06	3.343103e-10	1.192390e+01	2.280820e+01
2.230000e-06	1.762859e-06	3.473089e-10	1.223247e+01	2.416218e+01
2.240000e-06	1.807210e-06	3.612108e-10	1.254022e+01	2.549063e+01
2.250000e-06	1.851355e-06	3.749130e-10	1.284654e+01	2.679252e+01
2.260000e-06	1.895371e-06	3.907236e-10	1.315196e+01	2.806693e+01
2.270000e-06	1.939361e-06	4.110126e-10	1.345720e+01	2.931305e+01
2.280000e-06	1.983252e-06	4.324923e-10	1.376176e+01	3.053023e+01
2.290000e-06	2.027099e-06	4.529043e-10	1.406602e+01	3.171791e+01
2.300000e-06	2.070878e-06	4.721897e-10	1.436980e+01	3.287567e+01
2.310000e-06	2.114597e-06	4.879509e-10	1.467317e+01	3.400321e+01
2.320000e-06	2.158322e-06	5.003263e-10	1.497658e+01	3.510033e+01
2.330000e-06	2.201975e-06	5.117194e-10	1.527948e+01	3.616697e+01
2.340000e-06	2.245465e-06	5.226096e-10	1.558126e+01	3.720314e+01
2.350000e-06	2.288754e-06	5.356420e-10	1.588164e+01	3.820900e+01
2.360000e-06	2.331893e-06	5.526882e-10	1.618098e+01	3.918475e+01
2.370000e-06	2.374899e-06	5.688933e-10	1.647940e+01	4.013073e+01
2.380000e-06	2.417652e-06	5.819882e-10	1.677606e+01	4.104732e+01
2.390000e-06	2.459978e-06	5.948296e-10	1.706976e+01	4.193501e+01
2.400000e-06	2.501977e-06	6.066795e-10	1.736120e+01	4.279433e+01
2.410000e-06	2.543702e-06	6.173675e-10	1.765073e+01	4.362589e+01
2.420000e-06	2.585063e-06	6.289868e-10	1.793773e+01	4.443034e+01
2.430000e-06	2.626073e-06	6.418162e-10	1.822229e+01	4.520837e+01
2.440000e-06	2.666786e-06	6.540453e-10	1.850480e+01	4.596070e+01
2.450000e-06	2.707263e-06	6.635124e-10	1.878567e+01	4.668811e+01
2.460000e-06	2.747565e-06	6.724369e-10	1.906533e+01	4.739136e+01
2.470000e-06	2.787744e-06	6.815004e-10	1.934413e+01	4.807123e+01
2.480000e-06	2.827752e-06	6.912063e-10	1.962175e+01	4.872852e+01
2.490000e-06	2.867572e-06	7.025804e-10	1.989805e+01	4.936402e+01
2.500000e-06	2.907260e-06	7.146406e-10	2.017345e+01	4.997850e+01
2.510000e-06	2.946863e-06	7.259908e-10	2.044826e+01	5.057273e+01
2.520000e-06	2.986314e-06	7.349878e-10	2.072201e+01	5.114744e+01
2.530000e-06	3.025579e-06	7.433346e-10	2.099447e+01	5.170336e+01
2.540000e-06	3.064591e-06	7.496474e-10	2.126517e+01	5.224116e+01
2.550000e-06	3.103391e-06	7.532060e-10	2.153440e+01	5.276151e+01
2.560000e-06	3.142039e-06	7.569832e-10	2.180258e+01	5.326502e+01
2.570000e-06	3.180521e-06	7.606081e-10	2.206960e+01	5.375226e+01
2.580000e-06	3.218821e-06	7.651804e-10	2.233537e+01	5.422378e+01
2.590000e-06	3.256811e-06	7.728394e-10	2.259898e+01	5.468006e+01
2.600000e-06	3.294510e-06	7.817878e-10	2.286058e+01	5.512158e+01
2.610000e-06	3.332054e-06	7.910058e-10	2.312109e+01	5.554873e+01
2.620000e-06	3.369375e-06	7.990282e-10	2.338006e+01	5.596191e+01
2.630000e-06	3.406392e-06	8.041591e-10	2.363692e+01	5.636145e+01
2.640000e-06	3.443176e-06	8.057586e-10	2.389216e+01	5.674764e+01
2.650000e-06	3.479684e-06	8.049362e-10	2.414549e+01	5.712077e+01
2.660000e-06	3.515973e-06	8.058305e-10	2.439730e+01	5.748107e+01
2.670000e-06	3.552137e-06	8.106510e-10	2.464825e+01	5.782875e+01
2.680000e-06	3.588138e-06	8.176639e-10	2.489806e+01	5.816400e+01
2.690000e-06	3.623973e-06	8.249337e-10	2.514672e+01	5.848701e+01
2.700000e-06	3.659640e-06	8.314564e-10	2.539421e+01	5.879791e+01
2.710000e-06	3.695066e-06	8.367565e-10	2.564003e+01	5.909686e+01
2.720000e-06	3.730225e-06	8.402942e-10	2.588399e+01	5.938398e+01
2.730000e-06	3.765121e-06	8.426365e-10	2.612614e+01	5.965943e+01
2.740000e-06	3.799697e-06	8.437402e-10	2.636606e+01	5.992332e+01
2.750000e-06	3.833838e-06	8.457264e-10	2.660296e+01	6.017580e+01
2.760000e-06	3.867514e-06	8.494341e-10	2.683664e+01	6.041701e+01
2.770000e-06	3.900811e-06	8.526983e-10	2.706769e+01	6.064711e+01
2.780000e-06	3.933705e-06	8.553277e-10	2.729594e+01	6.086627e+01
2.790000e-06	3.966258e-06	8.581187e-10	2.752183e+01	6.107467e+01
2.800000e-06	3.998446e-06	8.611698e-10	2.774518e+01	6.127251e+01
2.810000e-06	4.030312e-06	8.639901e-10	2.796629e+01	6.146002e+01
2.820000e-06	4.062052e-06	8.675828e-10	2.818654e+01	6.163745e+01
2.830000e-06	4.093692e-06	8.722353e-10	2.840609e+01	6.180504e+01
2.840000e-06	4.125108e-06	8.757175e-10	2.862409e+01	6.196310e+01
2.850000e-06	4.156223e-06	8.761672e-10	2.883999e+01	6.211192e+01
2.860000e-06	4.187070e-06	8.760343e-10	2.905404e+01	6.225185e+01
2.870000e-06	4.217645e-06	8.774287e-10	2.926620e+01	6.238322e+01
2.880000e-06	4.247892e-06	8.794298e-10	2.947608e+01	6.250641e+01
2.890000e-06	4.277797e-06	8.821405e-10	2.968359e+01	6.262180e+01
2.900000e-06	4.307400e-06	8.871323e-10	2.988901e+01	6.272980e+01
