# Temperatura_=_-7.15
# Concentracion g/m^3_=_1620.0
# C_Vs_to_Am_M_A/Vsm_=_65563218390.804596
# pendiente_HvsI_1/m_=_3716.3
# ordenada_HvsI_A/m_=_1297.0
# frecuencia_Hz_=_135110.1044437679

Tiempo_(s)	Campo_(V.s)	Magnetizacion_(V.s)	Campo_(kA/m)	Magnetizacion_(A/m)
0.000000e+00	-5.530744e-06	-1.069850e-09	-3.837075e+01	-7.337987e+01
1.000000e-08	-5.530846e-06	-1.065491e-09	-3.837145e+01	-7.332998e+01
2.000000e-08	-5.530713e-06	-1.063290e-09	-3.837053e+01	-7.327963e+01
3.000000e-08	-5.530189e-06	-1.064630e-09	-3.836690e+01	-7.322877e+01
4.000000e-08	-5.529143e-06	-1.065911e-09	-3.835964e+01	-7.317733e+01
5.000000e-08	-5.527641e-06	-1.060830e-09	-3.834922e+01	-7.312525e+01
6.000000e-08	-5.525671e-06	-1.048687e-09	-3.833555e+01	-7.307244e+01
7.000000e-08	-5.523097e-06	-1.035037e-09	-3.831769e+01	-7.301880e+01
8.000000e-08	-5.519894e-06	-1.061609e-09	-3.829547e+01	-7.296423e+01
9.000000e-08	-5.516126e-06	-1.126428e-09	-3.826933e+01	-7.290860e+01
1.000000e-07	-5.511843e-06	-1.107665e-09	-3.823962e+01	-7.285177e+01
1.100000e-07	-5.507288e-06	-1.000554e-09	-3.820802e+01	-7.279359e+01
1.200000e-07	-5.502766e-06	-9.678370e-10	-3.817664e+01	-7.273389e+01
1.300000e-07	-5.498042e-06	-1.051361e-09	-3.814387e+01	-7.267251e+01
1.400000e-07	-5.492771e-06	-1.105791e-09	-3.810730e+01	-7.260924e+01
1.500000e-07	-5.487034e-06	-1.026458e-09	-3.806750e+01	-7.254389e+01
1.600000e-07	-5.481049e-06	-1.005981e-09	-3.802598e+01	-7.247624e+01
1.700000e-07	-5.474594e-06	-1.082677e-09	-3.798119e+01	-7.240610e+01
1.800000e-07	-5.467511e-06	-1.131524e-09	-3.793205e+01	-7.233322e+01
1.900000e-07	-5.460146e-06	-1.074599e-09	-3.788096e+01	-7.225741e+01
2.000000e-07	-5.452572e-06	-1.013168e-09	-3.782841e+01	-7.217843e+01
2.100000e-07	-5.444694e-06	-1.053399e-09	-3.777376e+01	-7.209609e+01
2.200000e-07	-5.436575e-06	-1.097520e-09	-3.771743e+01	-7.201019e+01
2.300000e-07	-5.428321e-06	-1.091309e-09	-3.766016e+01	-7.192054e+01
2.400000e-07	-5.419649e-06	-1.052402e-09	-3.760000e+01	-7.182698e+01
2.500000e-07	-5.410028e-06	-1.083948e-09	-3.753325e+01	-7.172939e+01
2.600000e-07	-5.399566e-06	-1.100308e-09	-3.746067e+01	-7.162764e+01
2.700000e-07	-5.388678e-06	-1.067988e-09	-3.738513e+01	-7.152167e+01
2.800000e-07	-5.377345e-06	-1.032387e-09	-3.730651e+01	-7.141144e+01
2.900000e-07	-5.365548e-06	-1.066406e-09	-3.722466e+01	-7.129696e+01
3.000000e-07	-5.353494e-06	-1.078735e-09	-3.714103e+01	-7.117826e+01
3.100000e-07	-5.341160e-06	-1.046919e-09	-3.705546e+01	-7.105545e+01
3.200000e-07	-5.328298e-06	-1.044173e-09	-3.696623e+01	-7.092867e+01
3.300000e-07	-5.314988e-06	-1.086267e-09	-3.687389e+01	-7.079810e+01
3.400000e-07	-5.301411e-06	-1.082339e-09	-3.677970e+01	-7.066398e+01
3.500000e-07	-5.287408e-06	-1.035016e-09	-3.668255e+01	-7.052660e+01
3.600000e-07	-5.272966e-06	-1.049020e-09	-3.658236e+01	-7.038629e+01
3.700000e-07	-5.258180e-06	-1.083974e-09	-3.647977e+01	-7.024341e+01
3.800000e-07	-5.242874e-06	-1.057665e-09	-3.637359e+01	-7.009838e+01
3.900000e-07	-5.226769e-06	-1.023274e-09	-3.626185e+01	-6.995164e+01
4.000000e-07	-5.210187e-06	-1.064994e-09	-3.614681e+01	-6.980367e+01
4.100000e-07	-5.193462e-06	-1.068303e-09	-3.603078e+01	-6.965495e+01
4.200000e-07	-5.176322e-06	-1.010235e-09	-3.591187e+01	-6.950599e+01
4.300000e-07	-5.158789e-06	-1.019979e-09	-3.579023e+01	-6.935732e+01
4.400000e-07	-5.141077e-06	-1.077736e-09	-3.566734e+01	-6.920944e+01
4.500000e-07	-5.123013e-06	-1.037243e-09	-3.554202e+01	-6.906286e+01
4.600000e-07	-5.104434e-06	-9.964748e-10	-3.541313e+01	-6.891807e+01
4.700000e-07	-5.085499e-06	-1.038207e-09	-3.528176e+01	-6.877553e+01
4.800000e-07	-5.066234e-06	-1.045815e-09	-3.514811e+01	-6.863566e+01
4.900000e-07	-5.046638e-06	-9.980541e-10	-3.501216e+01	-6.849886e+01
5.000000e-07	-5.026822e-06	-1.025614e-09	-3.487468e+01	-6.836546e+01
5.100000e-07	-5.006845e-06	-1.048319e-09	-3.473608e+01	-6.823575e+01
5.200000e-07	-4.986523e-06	-1.000602e-09	-3.459510e+01	-6.810995e+01
5.300000e-07	-4.965759e-06	-1.004599e-09	-3.445104e+01	-6.798822e+01
5.400000e-07	-4.944714e-06	-1.053016e-09	-3.430504e+01	-6.787065e+01
5.500000e-07	-4.923297e-06	-1.008712e-09	-3.415645e+01	-6.775726e+01
5.600000e-07	-4.901502e-06	-9.696844e-10	-3.400524e+01	-6.764801e+01
5.700000e-07	-4.879484e-06	-1.013974e-09	-3.385249e+01	-6.754277e+01
5.800000e-07	-4.857109e-06	-1.020503e-09	-3.369726e+01	-6.744135e+01
5.900000e-07	-4.834327e-06	-9.805129e-10	-3.353920e+01	-6.734350e+01
6.000000e-07	-4.811290e-06	-1.002268e-09	-3.337937e+01	-6.724892e+01
6.100000e-07	-4.787949e-06	-1.017743e-09	-3.321745e+01	-6.715721e+01
6.200000e-07	-4.764270e-06	-9.802098e-10	-3.305317e+01	-6.706798e+01
6.300000e-07	-4.740374e-06	-9.798351e-10	-3.288738e+01	-6.698075e+01
6.400000e-07	-4.716265e-06	-1.001809e-09	-3.272012e+01	-6.689503e+01
6.500000e-07	-4.691812e-06	-9.813261e-10	-3.255047e+01	-6.681030e+01
6.600000e-07	-4.666993e-06	-9.768133e-10	-3.237829e+01	-6.672603e+01
6.700000e-07	-4.641700e-06	-1.004155e-09	-3.220281e+01	-6.664167e+01
6.800000e-07	-4.615734e-06	-9.960908e-10	-3.202266e+01	-6.655670e+01
6.900000e-07	-4.589110e-06	-9.827721e-10	-3.183795e+01	-6.647058e+01
7.000000e-07	-4.561992e-06	-9.945554e-10	-3.164982e+01	-6.638281e+01
7.100000e-07	-4.534568e-06	-9.850047e-10	-3.145956e+01	-6.629293e+01
7.200000e-07	-4.506918e-06	-9.619554e-10	-3.126773e+01	-6.620050e+01
7.300000e-07	-4.479077e-06	-9.732913e-10	-3.107458e+01	-6.610513e+01
7.400000e-07	-4.451116e-06	-9.791630e-10	-3.088059e+01	-6.600648e+01
7.500000e-07	-4.422957e-06	-9.683765e-10	-3.068523e+01	-6.590427e+01
7.600000e-07	-4.394490e-06	-9.730306e-10	-3.048774e+01	-6.579828e+01
7.700000e-07	-4.365740e-06	-9.781217e-10	-3.028827e+01	-6.568834e+01
7.800000e-07	-4.336659e-06	-9.602789e-10	-3.008652e+01	-6.557436e+01
7.900000e-07	-4.307236e-06	-9.589776e-10	-2.988239e+01	-6.545628e+01
8.000000e-07	-4.277544e-06	-9.660291e-10	-2.967640e+01	-6.533413e+01
8.100000e-07	-4.247603e-06	-9.519269e-10	-2.946868e+01	-6.520796e+01
8.200000e-07	-4.217396e-06	-9.432803e-10	-2.925911e+01	-6.507791e+01
8.300000e-07	-4.186863e-06	-9.588548e-10	-2.904727e+01	-6.494414e+01
8.400000e-07	-4.155971e-06	-9.572859e-10	-2.883296e+01	-6.480684e+01
8.500000e-07	-4.124755e-06	-9.475397e-10	-2.861639e+01	-6.466625e+01
8.600000e-07	-4.093369e-06	-9.567915e-10	-2.839864e+01	-6.452261e+01
8.700000e-07	-4.061798e-06	-9.601795e-10	-2.817961e+01	-6.437621e+01
8.800000e-07	-4.029942e-06	-9.451299e-10	-2.795860e+01	-6.422730e+01
8.900000e-07	-3.997923e-06	-9.422152e-10	-2.773647e+01	-6.407616e+01
9.000000e-07	-3.965786e-06	-9.421105e-10	-2.751351e+01	-6.392305e+01
9.100000e-07	-3.933319e-06	-9.266466e-10	-2.728826e+01	-6.376819e+01
9.200000e-07	-3.900396e-06	-9.208069e-10	-2.705985e+01	-6.361180e+01
9.300000e-07	-3.867140e-06	-9.310753e-10	-2.682913e+01	-6.345406e+01
9.400000e-07	-3.833471e-06	-9.299401e-10	-2.659554e+01	-6.329510e+01
9.500000e-07	-3.799278e-06	-9.241573e-10	-2.635833e+01	-6.313501e+01
9.600000e-07	-3.764618e-06	-9.276021e-10	-2.611786e+01	-6.297384e+01
9.700000e-07	-3.729587e-06	-9.207508e-10	-2.587483e+01	-6.281159e+01
9.800000e-07	-3.694302e-06	-9.046073e-10	-2.563003e+01	-6.264821e+01
9.900000e-07	-3.658757e-06	-9.006257e-10	-2.538343e+01	-6.248360e+01
1.000000e-06	-3.622998e-06	-9.028252e-10	-2.513534e+01	-6.231760e+01
1.010000e-06	-3.587091e-06	-8.963046e-10	-2.488623e+01	-6.215002e+01
1.020000e-06	-3.551063e-06	-8.961155e-10	-2.463628e+01	-6.198063e+01
1.030000e-06	-3.514888e-06	-9.012090e-10	-2.438530e+01	-6.180917e+01
1.040000e-06	-3.478543e-06	-8.966596e-10	-2.413316e+01	-6.163534e+01
1.050000e-06	-3.442001e-06	-8.877976e-10	-2.387963e+01	-6.145882e+01
1.060000e-06	-3.405179e-06	-8.872827e-10	-2.362417e+01	-6.127928e+01
1.070000e-06	-3.368073e-06	-8.844633e-10	-2.336674e+01	-6.109639e+01
1.080000e-06	-3.330710e-06	-8.804372e-10	-2.310753e+01	-6.090981e+01
1.090000e-06	-3.293086e-06	-8.840698e-10	-2.284650e+01	-6.071921e+01
1.100000e-06	-3.255149e-06	-8.858495e-10	-2.258331e+01	-6.052430e+01
1.110000e-06	-3.216925e-06	-8.777483e-10	-2.231812e+01	-6.032480e+01
1.120000e-06	-3.178524e-06	-8.727968e-10	-2.205171e+01	-6.012045e+01
1.130000e-06	-3.140038e-06	-8.703889e-10	-2.178470e+01	-5.991104e+01
1.140000e-06	-3.101349e-06	-8.650331e-10	-2.151628e+01	-5.969641e+01
1.150000e-06	-3.062448e-06	-8.608131e-10	-2.124640e+01	-5.947644e+01
1.160000e-06	-3.023359e-06	-8.612108e-10	-2.097521e+01	-5.925106e+01
1.170000e-06	-2.984029e-06	-8.571116e-10	-2.070235e+01	-5.902025e+01
1.180000e-06	-2.944468e-06	-8.520671e-10	-2.042789e+01	-5.878403e+01
1.190000e-06	-2.904736e-06	-8.514735e-10	-2.015224e+01	-5.854251e+01
1.200000e-06	-2.864938e-06	-8.469934e-10	-1.987614e+01	-5.829579e+01
1.210000e-06	-2.825022e-06	-8.381356e-10	-1.959921e+01	-5.804407e+01
1.220000e-06	-2.784958e-06	-8.324304e-10	-1.932126e+01	-5.778754e+01
1.230000e-06	-2.744697e-06	-8.286310e-10	-1.904194e+01	-5.752647e+01
1.240000e-06	-2.704276e-06	-8.236103e-10	-1.876151e+01	-5.726110e+01
1.250000e-06	-2.663694e-06	-8.235587e-10	-1.847996e+01	-5.699175e+01
1.260000e-06	-2.622816e-06	-8.267789e-10	-1.819636e+01	-5.671871e+01
1.270000e-06	-2.581677e-06	-8.265289e-10	-1.791095e+01	-5.644227e+01
1.280000e-06	-2.540281e-06	-8.231499e-10	-1.762375e+01	-5.616275e+01
1.290000e-06	-2.498578e-06	-8.202397e-10	-1.733443e+01	-5.588040e+01
1.300000e-06	-2.456590e-06	-8.146614e-10	-1.704313e+01	-5.559550e+01
1.310000e-06	-2.414241e-06	-8.066281e-10	-1.674933e+01	-5.530825e+01
1.320000e-06	-2.371529e-06	-8.005809e-10	-1.645300e+01	-5.501884e+01
1.330000e-06	-2.328604e-06	-7.964602e-10	-1.615520e+01	-5.472741e+01
1.340000e-06	-2.285561e-06	-7.918993e-10	-1.585658e+01	-5.443403e+01
1.350000e-06	-2.242418e-06	-7.888820e-10	-1.555727e+01	-5.413872e+01
1.360000e-06	-2.199054e-06	-7.857815e-10	-1.525642e+01	-5.384144e+01
1.370000e-06	-2.155461e-06	-7.824881e-10	-1.495398e+01	-5.354209e+01
1.380000e-06	-2.111767e-06	-7.781330e-10	-1.465084e+01	-5.324049e+01
1.390000e-06	-2.067987e-06	-7.729770e-10	-1.434711e+01	-5.293640e+01
1.400000e-06	-2.024110e-06	-7.671864e-10	-1.404271e+01	-5.262951e+01
1.410000e-06	-1.980157e-06	-7.589761e-10	-1.373777e+01	-5.231945e+01
1.420000e-06	-1.936133e-06	-7.516632e-10	-1.343235e+01	-5.200579e+01
1.430000e-06	-1.891999e-06	-7.480556e-10	-1.312616e+01	-5.168804e+01
1.440000e-06	-1.847760e-06	-7.456177e-10	-1.281924e+01	-5.136566e+01
1.450000e-06	-1.803486e-06	-7.408244e-10	-1.251208e+01	-5.103804e+01
1.460000e-06	-1.759113e-06	-7.355027e-10	-1.220423e+01	-5.070458e+01
1.470000e-06	-1.714496e-06	-7.295804e-10	-1.189469e+01	-5.036459e+01
1.480000e-06	-1.669662e-06	-7.229332e-10	-1.158365e+01	-5.001738e+01
1.490000e-06	-1.624717e-06	-7.144454e-10	-1.127183e+01	-4.966225e+01
1.500000e-06	-1.579716e-06	-7.044733e-10	-1.095962e+01	-4.929845e+01
1.510000e-06	-1.534588e-06	-6.973280e-10	-1.064654e+01	-4.892525e+01
1.520000e-06	-1.489286e-06	-6.915727e-10	-1.033225e+01	-4.854191e+01
1.530000e-06	-1.443889e-06	-6.855692e-10	-1.001729e+01	-4.814767e+01
1.540000e-06	-1.398436e-06	-6.775782e-10	-9.701955e+00	-4.774179e+01
1.550000e-06	-1.352933e-06	-6.686808e-10	-9.386267e+00	-4.732355e+01
1.560000e-06	-1.307330e-06	-6.607762e-10	-9.069886e+00	-4.689222e+01
1.570000e-06	-1.261571e-06	-6.552426e-10	-8.752424e+00	-4.644708e+01
1.580000e-06	-1.215712e-06	-6.500796e-10	-8.434265e+00	-4.598744e+01
1.590000e-06	-1.169877e-06	-6.458634e-10	-8.116278e+00	-4.551261e+01
1.600000e-06	-1.124085e-06	-6.414968e-10	-7.798584e+00	-4.502190e+01
1.610000e-06	-1.078201e-06	-6.326393e-10	-7.480256e+00	-4.451464e+01
1.620000e-06	-1.032152e-06	-6.231489e-10	-7.160780e+00	-4.399017e+01
1.630000e-06	-9.859676e-07	-6.150342e-10	-6.840366e+00	-4.344781e+01
1.640000e-06	-9.397210e-07	-6.071349e-10	-6.519520e+00	-4.288691e+01
1.650000e-06	-8.934018e-07	-5.997972e-10	-6.198171e+00	-4.230679e+01
1.660000e-06	-8.470050e-07	-5.916862e-10	-5.876283e+00	-4.170677e+01
1.670000e-06	-8.005853e-07	-5.807365e-10	-5.554236e+00	-4.108616e+01
1.680000e-06	-7.541719e-07	-5.682169e-10	-5.232233e+00	-4.044425e+01
1.690000e-06	-7.077414e-07	-5.564235e-10	-4.910111e+00	-3.978034e+01
1.700000e-06	-6.612889e-07	-5.438884e-10	-4.587837e+00	-3.909367e+01
1.710000e-06	-6.146672e-07	-5.314253e-10	-4.264388e+00	-3.838350e+01
1.720000e-06	-5.678481e-07	-5.221435e-10	-3.939570e+00	-3.764906e+01
1.730000e-06	-5.209806e-07	-5.135809e-10	-3.614417e+00	-3.688957e+01
1.740000e-06	-4.740867e-07	-5.032074e-10	-3.289081e+00	-3.610424e+01
1.750000e-06	-4.271668e-07	-4.892672e-10	-2.963563e+00	-3.529227e+01
1.760000e-06	-3.802806e-07	-4.748225e-10	-2.638280e+00	-3.445287e+01
1.770000e-06	-3.334152e-07	-4.629097e-10	-2.313141e+00	-3.358525e+01
1.780000e-06	-2.865318e-07	-4.507251e-10	-1.987877e+00	-3.268864e+01
1.790000e-06	-2.396003e-07	-4.382320e-10	-1.662279e+00	-3.176231e+01
1.800000e-06	-1.926555e-07	-4.252812e-10	-1.336590e+00	-3.080557e+01
1.810000e-06	-1.458079e-07	-4.099205e-10	-1.011575e+00	-2.981775e+01
1.820000e-06	-9.901124e-08	-3.949725e-10	-6.869121e-01	-2.879829e+01
1.830000e-06	-5.220113e-08	-3.823091e-10	-3.621568e-01	-2.774668e+01
1.840000e-06	-5.291348e-09	-3.691117e-10	-3.670989e-02	-2.666251e+01
1.850000e-06	4.167827e-08	-3.528042e-10	2.891522e-01	-2.554546e+01
1.860000e-06	8.853841e-08	-3.344257e-10	6.142546e-01	-2.439536e+01
1.870000e-06	1.353607e-07	-3.155208e-10	9.390943e-01	-2.321215e+01
1.880000e-06	1.823285e-07	-2.992880e-10	1.264944e+00	-2.199591e+01
1.890000e-06	2.292819e-07	-2.861537e-10	1.590693e+00	-2.074687e+01
1.900000e-06	2.761954e-07	-2.716952e-10	1.916166e+00	-1.946544e+01
1.910000e-06	3.231225e-07	-2.549761e-10	2.241733e+00	-1.815219e+01
1.920000e-06	3.699216e-07	-2.376515e-10	2.566412e+00	-1.680786e+01
1.930000e-06	4.166566e-07	-2.167249e-10	2.890647e+00	-1.543337e+01
1.940000e-06	4.634000e-07	-1.914378e-10	3.214939e+00	-1.402982e+01
1.950000e-06	5.101413e-07	-1.680803e-10	3.539217e+00	-1.259849e+01
1.960000e-06	5.568124e-07	-1.501178e-10	3.863008e+00	-1.114084e+01
1.970000e-06	6.034470e-07	-1.342722e-10	4.186545e+00	-9.658476e+00
1.980000e-06	6.500977e-07	-1.185482e-10	4.510195e+00	-8.153194e+00
1.990000e-06	6.966291e-07	-1.009875e-10	4.833017e+00	-6.626924e+00
2.000000e-06	7.430818e-07	-7.785500e-11	5.155293e+00	-5.081735e+00
2.010000e-06	7.894624e-07	-4.980668e-11	5.477068e+00	-3.519820e+00
2.020000e-06	8.357576e-07	-2.173029e-11	5.798251e+00	-1.943476e+00
2.030000e-06	8.820965e-07	2.453317e-12	6.119737e+00	-3.550921e-01
2.040000e-06	9.283539e-07	2.229335e-11	6.440658e+00	1.242878e+00
2.050000e-06	9.744604e-07	4.067900e-11	6.760532e+00	2.847931e+00
2.060000e-06	1.020507e-06	5.905941e-11	7.079992e+00	4.457534e+00
2.070000e-06	1.066481e-06	7.792915e-11	7.398947e+00	6.069152e+00
2.080000e-06	1.112379e-06	1.006119e-10	7.717370e+00	7.680263e+00
2.090000e-06	1.158206e-06	1.265322e-10	8.035307e+00	9.288381e+00
2.100000e-06	1.203989e-06	1.522582e-10	8.352939e+00	1.089108e+01
2.110000e-06	1.249770e-06	1.762120e-10	8.670551e+00	1.248600e+01
2.120000e-06	1.295454e-06	1.974401e-10	8.987494e+00	1.407089e+01
2.130000e-06	1.341017e-06	2.164982e-10	9.303596e+00	1.564359e+01
2.140000e-06	1.386471e-06	2.349306e-10	9.618947e+00	1.720208e+01
2.150000e-06	1.431857e-06	2.556970e-10	9.933823e+00	1.874448e+01
2.160000e-06	1.477164e-06	2.799819e-10	1.024815e+01	2.026904e+01
2.170000e-06	1.522318e-06	3.037328e-10	1.056142e+01	2.177417e+01
2.180000e-06	1.567326e-06	3.255036e-10	1.087366e+01	2.325846e+01
2.190000e-06	1.612169e-06	3.458384e-10	1.118478e+01	2.472063e+01
2.200000e-06	1.656884e-06	3.644772e-10	1.149500e+01	2.615959e+01
2.210000e-06	1.701505e-06	3.813974e-10	1.180457e+01	2.757441e+01
2.220000e-06	1.745955e-06	3.978749e-10	1.211295e+01	2.896430e+01
2.230000e-06	1.790315e-06	4.158270e-10	1.242070e+01	3.032865e+01
2.240000e-06	1.834591e-06	4.349742e-10	1.272787e+01	3.166697e+01
2.250000e-06	1.878719e-06	4.543602e-10	1.303402e+01	3.297892e+01
2.260000e-06	1.922780e-06	4.748582e-10	1.333971e+01	3.426428e+01
2.270000e-06	1.966779e-06	4.945702e-10	1.364496e+01	3.552293e+01
2.280000e-06	2.010717e-06	5.127741e-10	1.394979e+01	3.675486e+01
2.290000e-06	2.054598e-06	5.297329e-10	1.425422e+01	3.796015e+01
2.300000e-06	2.098391e-06	5.439905e-10	1.455804e+01	3.913893e+01
2.310000e-06	2.142091e-06	5.582979e-10	1.486123e+01	4.029141e+01
2.320000e-06	2.185749e-06	5.750760e-10	1.516411e+01	4.141783e+01
2.330000e-06	2.229284e-06	5.920478e-10	1.546614e+01	4.251846e+01
2.340000e-06	2.272622e-06	6.098292e-10	1.576681e+01	4.359359e+01
2.350000e-06	2.315829e-06	6.272648e-10	1.606657e+01	4.464352e+01
2.360000e-06	2.358891e-06	6.407354e-10	1.636532e+01	4.566854e+01
2.370000e-06	2.401728e-06	6.491562e-10	1.666251e+01	4.666892e+01
2.380000e-06	2.444196e-06	6.570910e-10	1.695714e+01	4.764494e+01
2.390000e-06	2.486300e-06	6.682581e-10	1.724925e+01	4.859683e+01
2.400000e-06	2.528093e-06	6.822025e-10	1.753920e+01	4.952481e+01
2.410000e-06	2.569563e-06	6.993352e-10	1.782691e+01	5.042904e+01
2.420000e-06	2.610725e-06	7.164347e-10	1.811248e+01	5.130968e+01
2.430000e-06	2.651501e-06	7.318505e-10	1.839537e+01	5.216686e+01
2.440000e-06	2.691977e-06	7.449511e-10	1.867618e+01	5.300066e+01
2.450000e-06	2.732311e-06	7.546334e-10	1.895601e+01	5.381116e+01
2.460000e-06	2.772533e-06	7.622280e-10	1.923506e+01	5.459842e+01
2.470000e-06	2.812609e-06	7.707948e-10	1.951309e+01	5.536247e+01
2.480000e-06	2.852569e-06	7.810625e-10	1.979032e+01	5.610334e+01
2.490000e-06	2.892426e-06	7.920106e-10	2.006684e+01	5.682109e+01
2.500000e-06	2.932148e-06	8.030451e-10	2.034242e+01	5.751575e+01
2.510000e-06	2.971739e-06	8.135431e-10	2.061709e+01	5.818739e+01
2.520000e-06	3.011130e-06	8.220288e-10	2.089037e+01	5.883611e+01
2.530000e-06	3.050266e-06	8.299208e-10	2.116189e+01	5.946201e+01
2.540000e-06	3.089189e-06	8.382846e-10	2.143192e+01	6.006525e+01
2.550000e-06	3.127809e-06	8.458166e-10	2.169986e+01	6.064604e+01
2.560000e-06	3.166195e-06	8.535098e-10	2.196617e+01	6.120463e+01
2.570000e-06	3.204398e-06	8.609222e-10	2.223121e+01	6.174130e+01
2.580000e-06	3.242338e-06	8.664390e-10	2.249443e+01	6.225641e+01
2.590000e-06	3.280097e-06	8.722463e-10	2.275639e+01	6.275038e+01
2.600000e-06	3.317682e-06	8.793076e-10	2.301715e+01	6.322366e+01
2.610000e-06	3.355103e-06	8.856772e-10	2.327676e+01	6.367676e+01
2.620000e-06	3.392298e-06	8.931009e-10	2.353481e+01	6.411027e+01
2.630000e-06	3.429196e-06	9.018825e-10	2.379080e+01	6.452480e+01
2.640000e-06	3.465785e-06	9.089105e-10	2.404464e+01	6.492101e+01
2.650000e-06	3.502101e-06	9.146227e-10	2.429659e+01	6.529961e+01
2.660000e-06	3.538309e-06	9.197583e-10	2.454779e+01	6.566132e+01
2.670000e-06	3.574392e-06	9.220862e-10	2.479813e+01	6.600692e+01
2.680000e-06	3.610274e-06	9.229116e-10	2.504706e+01	6.633717e+01
2.690000e-06	3.646029e-06	9.242561e-10	2.529512e+01	6.665288e+01
2.700000e-06	3.681724e-06	9.267683e-10	2.554277e+01	6.695483e+01
2.710000e-06	3.717233e-06	9.309932e-10	2.578912e+01	6.724382e+01
2.720000e-06	3.752350e-06	9.386822e-10	2.603275e+01	6.752063e+01
2.730000e-06	3.787107e-06	9.471943e-10	2.627388e+01	6.778601e+01
2.740000e-06	3.821514e-06	9.530159e-10	2.651259e+01	6.804070e+01
2.750000e-06	3.855412e-06	9.588787e-10	2.674776e+01	6.828540e+01
2.760000e-06	3.888790e-06	9.637639e-10	2.697933e+01	6.852079e+01
2.770000e-06	3.921729e-06	9.649550e-10	2.720785e+01	6.874747e+01
2.780000e-06	3.954291e-06	9.664231e-10	2.743376e+01	6.896605e+01
2.790000e-06	3.986559e-06	9.687732e-10	2.765763e+01	6.917704e+01
2.800000e-06	4.018603e-06	9.713109e-10	2.787994e+01	6.938094e+01
2.810000e-06	4.050528e-06	9.758471e-10	2.810142e+01	6.957818e+01
2.820000e-06	4.082305e-06	9.828649e-10	2.832188e+01	6.976916e+01
2.830000e-06	4.113852e-06	9.894100e-10	2.854075e+01	6.995421e+01
2.840000e-06	4.145155e-06	9.951726e-10	2.875792e+01	7.013364e+01
2.850000e-06	4.176155e-06	1.001592e-09	2.897299e+01	7.030770e+01
2.860000e-06	4.206805e-06	1.005672e-09	2.918563e+01	7.047662e+01
2.870000e-06	4.237072e-06	1.006835e-09	2.939561e+01	7.064058e+01
2.880000e-06	4.267082e-06	1.007869e-09	2.960382e+01	7.079973e+01
2.890000e-06	4.296931e-06	1.010901e-09	2.981090e+01	7.095422e+01
2.900000e-06	4.326547e-06	1.015196e-09	3.001637e+01	7.110416e+01
