# Temperatura_=_14.0
# Concentracion g/m^3_=_1620.0
# C_Vs_to_Am_M_A/Vsm_=_65563218390.804596
# pendiente_HvsI_1/m_=_3716.3
# ordenada_HvsI_A/m_=_1297.0
# frecuencia_Hz_=_135100.9028578061

Tiempo_(s)	Campo_(V.s)	Magnetizacion_(V.s)	Campo_(kA/m)	Magnetizacion_(A/m)
0.000000e+00	-5.522774e-06	-1.492103e-09	-3.837413e+01	-9.968777e+01
1.000000e-08	-5.523070e-06	-1.491669e-09	-3.837619e+01	-9.966732e+01
2.000000e-08	-5.523128e-06	-1.491976e-09	-3.837660e+01	-9.964632e+01
3.000000e-08	-5.522960e-06	-1.490653e-09	-3.837543e+01	-9.962483e+01
4.000000e-08	-5.522394e-06	-1.488023e-09	-3.837149e+01	-9.960289e+01
5.000000e-08	-5.521331e-06	-1.483014e-09	-3.836411e+01	-9.958052e+01
6.000000e-08	-5.519643e-06	-1.474091e-09	-3.835238e+01	-9.955773e+01
7.000000e-08	-5.517242e-06	-1.470541e-09	-3.833569e+01	-9.953448e+01
8.000000e-08	-5.514309e-06	-1.487948e-09	-3.831532e+01	-9.951072e+01
9.000000e-08	-5.510907e-06	-1.507102e-09	-3.829168e+01	-9.948634e+01
1.000000e-07	-5.507040e-06	-1.475464e-09	-3.826481e+01	-9.946119e+01
1.100000e-07	-5.502842e-06	-1.457101e-09	-3.823564e+01	-9.943509e+01
1.200000e-07	-5.498444e-06	-1.465587e-09	-3.820508e+01	-9.940779e+01
1.300000e-07	-5.493788e-06	-1.492111e-09	-3.817273e+01	-9.937900e+01
1.400000e-07	-5.488712e-06	-1.477824e-09	-3.813746e+01	-9.934838e+01
1.500000e-07	-5.483181e-06	-1.448743e-09	-3.809903e+01	-9.931555e+01
1.600000e-07	-5.477308e-06	-1.473102e-09	-3.805822e+01	-9.928007e+01
1.700000e-07	-5.471086e-06	-1.512150e-09	-3.801498e+01	-9.924148e+01
1.800000e-07	-5.464388e-06	-1.490409e-09	-3.796845e+01	-9.919927e+01
1.900000e-07	-5.457317e-06	-1.472240e-09	-3.791931e+01	-9.915290e+01
2.000000e-07	-5.449972e-06	-1.476486e-09	-3.786828e+01	-9.910181e+01
2.100000e-07	-5.442329e-06	-1.509882e-09	-3.781518e+01	-9.904544e+01
2.200000e-07	-5.434443e-06	-1.505689e-09	-3.776038e+01	-9.898321e+01
2.300000e-07	-5.426342e-06	-1.500719e-09	-3.770409e+01	-9.891456e+01
2.400000e-07	-5.417842e-06	-1.502921e-09	-3.764503e+01	-9.883894e+01
2.500000e-07	-5.408726e-06	-1.509019e-09	-3.758169e+01	-9.875583e+01
2.600000e-07	-5.398888e-06	-1.499627e-09	-3.751333e+01	-9.866474e+01
2.700000e-07	-5.388387e-06	-1.469636e-09	-3.744037e+01	-9.856523e+01
2.800000e-07	-5.377404e-06	-1.450498e-09	-3.736405e+01	-9.845692e+01
2.900000e-07	-5.366004e-06	-1.459586e-09	-3.728484e+01	-9.833949e+01
3.000000e-07	-5.354222e-06	-1.477700e-09	-3.720298e+01	-9.821270e+01
3.100000e-07	-5.342010e-06	-1.460016e-09	-3.711813e+01	-9.807638e+01
3.200000e-07	-5.329340e-06	-1.467167e-09	-3.703008e+01	-9.793043e+01
3.300000e-07	-5.316316e-06	-1.486033e-09	-3.693960e+01	-9.777487e+01
3.400000e-07	-5.302945e-06	-1.487018e-09	-3.684668e+01	-9.760978e+01
3.500000e-07	-5.289212e-06	-1.435182e-09	-3.675126e+01	-9.743534e+01
3.600000e-07	-5.275080e-06	-1.442655e-09	-3.665307e+01	-9.725181e+01
3.700000e-07	-5.260504e-06	-1.455990e-09	-3.655179e+01	-9.705953e+01
3.800000e-07	-5.245472e-06	-1.442320e-09	-3.644734e+01	-9.685895e+01
3.900000e-07	-5.229851e-06	-1.427457e-09	-3.633880e+01	-9.665054e+01
4.000000e-07	-5.213696e-06	-1.459090e-09	-3.622655e+01	-9.643489e+01
4.100000e-07	-5.197171e-06	-1.442694e-09	-3.611173e+01	-9.621261e+01
4.200000e-07	-5.180333e-06	-1.407320e-09	-3.599474e+01	-9.598436e+01
4.300000e-07	-5.163172e-06	-1.428296e-09	-3.587549e+01	-9.575086e+01
4.400000e-07	-5.145672e-06	-1.447383e-09	-3.575390e+01	-9.551282e+01
4.500000e-07	-5.127790e-06	-1.402007e-09	-3.562965e+01	-9.527098e+01
4.600000e-07	-5.109359e-06	-1.396225e-09	-3.550158e+01	-9.502609e+01
4.700000e-07	-5.090491e-06	-1.425952e-09	-3.537048e+01	-9.477887e+01
4.800000e-07	-5.071330e-06	-1.398770e-09	-3.523735e+01	-9.453002e+01
4.900000e-07	-5.051872e-06	-1.372265e-09	-3.510215e+01	-9.428022e+01
5.000000e-07	-5.032216e-06	-1.408267e-09	-3.496557e+01	-9.403009e+01
5.100000e-07	-5.012357e-06	-1.406259e-09	-3.482758e+01	-9.378020e+01
5.200000e-07	-4.992227e-06	-1.366436e-09	-3.468771e+01	-9.353106e+01
5.300000e-07	-4.971759e-06	-1.391214e-09	-3.454549e+01	-9.328311e+01
5.400000e-07	-4.950944e-06	-1.412148e-09	-3.440086e+01	-9.303672e+01
5.500000e-07	-4.929734e-06	-1.363092e-09	-3.425349e+01	-9.279218e+01
5.600000e-07	-4.908209e-06	-1.345330e-09	-3.410393e+01	-9.254970e+01
5.700000e-07	-4.886396e-06	-1.378673e-09	-3.395236e+01	-9.230941e+01
5.800000e-07	-4.864236e-06	-1.362581e-09	-3.379839e+01	-9.207136e+01
5.900000e-07	-4.841745e-06	-1.346267e-09	-3.364211e+01	-9.183553e+01
6.000000e-07	-4.818853e-06	-1.372099e-09	-3.348305e+01	-9.160182e+01
6.100000e-07	-4.795619e-06	-1.369977e-09	-3.332161e+01	-9.137006e+01
6.200000e-07	-4.772126e-06	-1.336368e-09	-3.315837e+01	-9.114002e+01
6.300000e-07	-4.748423e-06	-1.343532e-09	-3.299368e+01	-9.091143e+01
6.400000e-07	-4.724535e-06	-1.350734e-09	-3.282769e+01	-9.068395e+01
6.500000e-07	-4.700353e-06	-1.333312e-09	-3.265967e+01	-9.045723e+01
6.600000e-07	-4.675728e-06	-1.332395e-09	-3.248857e+01	-9.023086e+01
6.700000e-07	-4.650574e-06	-1.345045e-09	-3.231379e+01	-9.000444e+01
6.800000e-07	-4.624908e-06	-1.327477e-09	-3.213545e+01	-8.977754e+01
6.900000e-07	-4.598673e-06	-1.317663e-09	-3.195316e+01	-8.954974e+01
7.000000e-07	-4.571946e-06	-1.324366e-09	-3.176745e+01	-8.932061e+01
7.100000e-07	-4.544886e-06	-1.320292e-09	-3.157943e+01	-8.908976e+01
7.200000e-07	-4.517527e-06	-1.306652e-09	-3.138933e+01	-8.885678e+01
7.300000e-07	-4.489932e-06	-1.313477e-09	-3.119759e+01	-8.862134e+01
7.400000e-07	-4.462137e-06	-1.314487e-09	-3.100446e+01	-8.838309e+01
7.500000e-07	-4.434121e-06	-1.301963e-09	-3.080980e+01	-8.814174e+01
7.600000e-07	-4.405930e-06	-1.294824e-09	-3.061392e+01	-8.789703e+01
7.700000e-07	-4.377483e-06	-1.292409e-09	-3.041626e+01	-8.764875e+01
7.800000e-07	-4.348666e-06	-1.279810e-09	-3.021602e+01	-8.739670e+01
7.900000e-07	-4.319492e-06	-1.275241e-09	-3.001332e+01	-8.714075e+01
8.000000e-07	-4.290006e-06	-1.278746e-09	-2.980843e+01	-8.688078e+01
8.100000e-07	-4.260258e-06	-1.272224e-09	-2.960174e+01	-8.661672e+01
8.200000e-07	-4.230215e-06	-1.263261e-09	-2.939299e+01	-8.634851e+01
8.300000e-07	-4.199834e-06	-1.264045e-09	-2.918189e+01	-8.607614e+01
8.400000e-07	-4.169079e-06	-1.258064e-09	-2.896820e+01	-8.579958e+01
8.500000e-07	-4.138156e-06	-1.244292e-09	-2.875333e+01	-8.551886e+01
8.600000e-07	-4.107056e-06	-1.242417e-09	-2.853724e+01	-8.523398e+01
8.700000e-07	-4.075625e-06	-1.239563e-09	-2.831885e+01	-8.494498e+01
8.800000e-07	-4.043983e-06	-1.229736e-09	-2.809899e+01	-8.465187e+01
8.900000e-07	-4.012200e-06	-1.224613e-09	-2.787815e+01	-8.435468e+01
9.000000e-07	-3.980237e-06	-1.224994e-09	-2.765606e+01	-8.405340e+01
9.100000e-07	-3.947999e-06	-1.216082e-09	-2.743205e+01	-8.374804e+01
9.200000e-07	-3.915480e-06	-1.211638e-09	-2.720610e+01	-8.343857e+01
9.300000e-07	-3.882603e-06	-1.211519e-09	-2.697766e+01	-8.312496e+01
9.400000e-07	-3.849205e-06	-1.203219e-09	-2.674560e+01	-8.280717e+01
9.500000e-07	-3.815311e-06	-1.190121e-09	-2.651009e+01	-8.248511e+01
9.600000e-07	-3.781022e-06	-1.187269e-09	-2.627184e+01	-8.215870e+01
9.700000e-07	-3.746288e-06	-1.180210e-09	-2.603050e+01	-8.182783e+01
9.800000e-07	-3.711139e-06	-1.171073e-09	-2.578627e+01	-8.149240e+01
9.900000e-07	-3.675718e-06	-1.168968e-09	-2.554015e+01	-8.115226e+01
1.000000e-06	-3.640160e-06	-1.168751e-09	-2.529308e+01	-8.080729e+01
1.010000e-06	-3.604485e-06	-1.157018e-09	-2.504520e+01	-8.045734e+01
1.020000e-06	-3.568646e-06	-1.147832e-09	-2.479618e+01	-8.010229e+01
1.030000e-06	-3.532656e-06	-1.146067e-09	-2.454611e+01	-7.974198e+01
1.040000e-06	-3.496492e-06	-1.141727e-09	-2.429483e+01	-7.937632e+01
1.050000e-06	-3.460085e-06	-1.134121e-09	-2.404186e+01	-7.900517e+01
1.060000e-06	-3.423457e-06	-1.130096e-09	-2.378736e+01	-7.862846e+01
1.070000e-06	-3.386553e-06	-1.123329e-09	-2.353094e+01	-7.824610e+01
1.080000e-06	-3.349337e-06	-1.113920e-09	-2.327235e+01	-7.785806e+01
1.090000e-06	-3.311875e-06	-1.110130e-09	-2.301205e+01	-7.746430e+01
1.100000e-06	-3.274119e-06	-1.106922e-09	-2.274971e+01	-7.706484e+01
1.110000e-06	-3.236063e-06	-1.097644e-09	-2.248528e+01	-7.665971e+01
1.120000e-06	-3.197820e-06	-1.091770e-09	-2.221955e+01	-7.624896e+01
1.130000e-06	-3.159356e-06	-1.089742e-09	-2.195229e+01	-7.583269e+01
1.140000e-06	-3.120701e-06	-1.082068e-09	-2.168371e+01	-7.541101e+01
1.150000e-06	-3.081923e-06	-1.073747e-09	-2.141426e+01	-7.498404e+01
1.160000e-06	-3.042985e-06	-1.067907e-09	-2.114371e+01	-7.455194e+01
1.170000e-06	-3.003846e-06	-1.060812e-09	-2.087175e+01	-7.411488e+01
1.180000e-06	-2.964469e-06	-1.050106e-09	-2.059815e+01	-7.367301e+01
1.190000e-06	-2.924963e-06	-1.045058e-09	-2.032365e+01	-7.322653e+01
1.200000e-06	-2.885309e-06	-1.040476e-09	-2.004812e+01	-7.277559e+01
1.210000e-06	-2.845470e-06	-1.032057e-09	-1.977131e+01	-7.232037e+01
1.220000e-06	-2.805564e-06	-1.025966e-09	-1.949403e+01	-7.186102e+01
1.230000e-06	-2.765592e-06	-1.022972e-09	-1.921629e+01	-7.139767e+01
1.240000e-06	-2.725445e-06	-1.016563e-09	-1.893733e+01	-7.093041e+01
1.250000e-06	-2.685076e-06	-1.011404e-09	-1.865683e+01	-7.045934e+01
1.260000e-06	-2.644480e-06	-1.009531e-09	-1.837475e+01	-6.998448e+01
1.270000e-06	-2.603672e-06	-1.004020e-09	-1.809121e+01	-6.950585e+01
1.280000e-06	-2.562508e-06	-9.926872e-10	-1.780519e+01	-6.902340e+01
1.290000e-06	-2.521034e-06	-9.841607e-10	-1.751701e+01	-6.853706e+01
1.300000e-06	-2.479366e-06	-9.761844e-10	-1.722749e+01	-6.804670e+01
1.310000e-06	-2.437322e-06	-9.661138e-10	-1.693535e+01	-6.755216e+01
1.320000e-06	-2.394964e-06	-9.585237e-10	-1.664104e+01	-6.705323e+01
1.330000e-06	-2.352378e-06	-9.542262e-10	-1.634513e+01	-6.654968e+01
1.340000e-06	-2.309488e-06	-9.471808e-10	-1.604711e+01	-6.604120e+01
1.350000e-06	-2.266359e-06	-9.393122e-10	-1.574744e+01	-6.552750e+01
1.360000e-06	-2.223007e-06	-9.311728e-10	-1.544622e+01	-6.500821e+01
1.370000e-06	-2.179500e-06	-9.209220e-10	-1.514391e+01	-6.448298e+01
1.380000e-06	-2.135900e-06	-9.094183e-10	-1.484097e+01	-6.395142e+01
1.390000e-06	-2.092203e-06	-8.987794e-10	-1.453735e+01	-6.341312e+01
1.400000e-06	-2.048397e-06	-8.904407e-10	-1.423297e+01	-6.286768e+01
1.410000e-06	-2.004491e-06	-8.833213e-10	-1.392789e+01	-6.231468e+01
1.420000e-06	-1.960558e-06	-8.767586e-10	-1.362263e+01	-6.175370e+01
1.430000e-06	-1.916599e-06	-8.701634e-10	-1.331719e+01	-6.118436e+01
1.440000e-06	-1.872573e-06	-8.616923e-10	-1.301128e+01	-6.060625e+01
1.450000e-06	-1.828429e-06	-8.505704e-10	-1.270456e+01	-6.001898e+01
1.460000e-06	-1.784107e-06	-8.379422e-10	-1.239659e+01	-5.942219e+01
1.470000e-06	-1.739699e-06	-8.238118e-10	-1.208803e+01	-5.881552e+01
1.480000e-06	-1.695175e-06	-8.118884e-10	-1.177866e+01	-5.819863e+01
1.490000e-06	-1.650500e-06	-8.042387e-10	-1.146824e+01	-5.757119e+01
1.500000e-06	-1.605723e-06	-7.964491e-10	-1.115712e+01	-5.693287e+01
1.510000e-06	-1.560850e-06	-7.865983e-10	-1.084532e+01	-5.628337e+01
1.520000e-06	-1.515861e-06	-7.767218e-10	-1.053272e+01	-5.562236e+01
1.530000e-06	-1.470710e-06	-7.673919e-10	-1.021900e+01	-5.494953e+01
1.540000e-06	-1.425356e-06	-7.568868e-10	-9.903862e+00	-5.426452e+01
1.550000e-06	-1.379847e-06	-7.421341e-10	-9.587650e+00	-5.356700e+01
1.560000e-06	-1.334302e-06	-7.287350e-10	-9.271192e+00	-5.285656e+01
1.570000e-06	-1.288680e-06	-7.167905e-10	-8.954195e+00	-5.213280e+01
1.580000e-06	-1.242958e-06	-7.050185e-10	-8.636499e+00	-5.139523e+01
1.590000e-06	-1.197192e-06	-6.944333e-10	-8.318504e+00	-5.064335e+01
1.600000e-06	-1.151427e-06	-6.855444e-10	-8.000509e+00	-4.987656e+01
1.610000e-06	-1.105655e-06	-6.729345e-10	-7.682473e+00	-4.909422e+01
1.620000e-06	-1.059701e-06	-6.571921e-10	-7.363170e+00	-4.829561e+01
1.630000e-06	-1.013593e-06	-6.433007e-10	-7.042791e+00	-4.747994e+01
1.640000e-06	-9.674872e-07	-6.307955e-10	-6.722434e+00	-4.664633e+01
1.650000e-06	-9.213376e-07	-6.192823e-10	-6.401771e+00	-4.579384e+01
1.660000e-06	-8.750724e-07	-6.067854e-10	-6.080304e+00	-4.492144e+01
1.670000e-06	-8.287214e-07	-5.920015e-10	-5.758241e+00	-4.402803e+01
1.680000e-06	-7.823591e-07	-5.759591e-10	-5.436100e+00	-4.311244e+01
1.690000e-06	-7.359464e-07	-5.606702e-10	-5.113609e+00	-4.217344e+01
1.700000e-06	-6.894992e-07	-5.452111e-10	-4.790877e+00	-4.120976e+01
1.710000e-06	-6.430239e-07	-5.287732e-10	-4.467951e+00	-4.022009e+01
1.720000e-06	-5.964894e-07	-5.137818e-10	-4.144614e+00	-3.920308e+01
1.730000e-06	-5.498818e-07	-4.999977e-10	-3.820768e+00	-3.815738e+01
1.740000e-06	-5.031996e-07	-4.850327e-10	-3.496404e+00	-3.708166e+01
1.750000e-06	-4.564264e-07	-4.680337e-10	-3.171408e+00	-3.597461e+01
1.760000e-06	-4.097002e-07	-4.484954e-10	-2.846738e+00	-3.483497e+01
1.770000e-06	-3.629701e-07	-4.283132e-10	-2.522041e+00	-3.366154e+01
1.780000e-06	-3.161921e-07	-4.104050e-10	-2.197012e+00	-3.245321e+01
1.790000e-06	-2.694170e-07	-3.945451e-10	-1.872002e+00	-3.120900e+01
1.800000e-06	-2.225795e-07	-3.787572e-10	-1.546559e+00	-2.992803e+01
1.810000e-06	-1.757394e-07	-3.609115e-10	-1.221098e+00	-2.860959e+01
1.820000e-06	-1.288568e-07	-3.418015e-10	-8.953416e-01	-2.725313e+01
1.830000e-06	-8.198189e-08	-3.238794e-10	-5.696384e-01	-2.585829e+01
1.840000e-06	-3.513673e-08	-3.061267e-10	-2.441421e-01	-2.442490e+01
1.850000e-06	1.172507e-08	-2.865428e-10	8.146981e-02	-2.295302e+01
1.860000e-06	5.861847e-08	-2.642801e-10	4.073013e-01	-2.144292e+01
1.870000e-06	1.054930e-07	-2.411545e-10	7.330014e-01	-1.989510e+01
1.880000e-06	1.523985e-07	-2.187326e-10	1.058917e+00	-1.831030e+01
1.890000e-06	1.992912e-07	-1.976101e-10	1.384744e+00	-1.668951e+01
1.900000e-06	2.460272e-07	-1.765244e-10	1.709482e+00	-1.503392e+01
1.910000e-06	2.927623e-07	-1.539742e-10	2.034213e+00	-1.334499e+01
1.920000e-06	3.395076e-07	-1.308127e-10	2.359015e+00	-1.162438e+01
1.930000e-06	3.861635e-07	-1.081497e-10	2.683197e+00	-9.873964e+00
1.940000e-06	4.328211e-07	-8.466773e-11	3.007390e+00	-8.095823e+00
1.950000e-06	4.794733e-07	-5.927322e-11	3.331546e+00	-6.292212e+00
1.960000e-06	5.260196e-07	-3.226908e-11	3.654965e+00	-4.465553e+00
1.970000e-06	5.725530e-07	-7.615843e-12	3.978295e+00	-2.618408e+00
1.980000e-06	6.191131e-07	1.618375e-11	4.301811e+00	-7.534573e-01
1.990000e-06	6.656063e-07	3.941812e-11	4.624862e+00	1.126521e+00
2.000000e-06	7.119948e-07	6.537507e-11	4.947185e+00	3.018681e+00
2.010000e-06	7.582913e-07	9.458950e-11	5.268869e+00	4.920132e+00
2.020000e-06	8.045645e-07	1.244971e-10	5.590391e+00	6.827963e+00
2.030000e-06	8.507872e-07	1.524545e-10	5.911562e+00	8.739273e+00
2.040000e-06	8.968798e-07	1.777323e-10	6.231830e+00	1.065119e+01
2.050000e-06	9.429414e-07	2.023005e-10	6.551881e+00	1.256090e+01
2.060000e-06	9.889889e-07	2.285062e-10	6.871836e+00	1.446566e+01
2.070000e-06	1.034980e-06	2.558606e-10	7.191396e+00	1.636284e+01
2.080000e-06	1.080951e-06	2.824364e-10	7.510820e+00	1.824991e+01
2.090000e-06	1.126849e-06	3.114821e-10	7.829738e+00	2.012449e+01
2.100000e-06	1.172633e-06	3.395335e-10	8.147854e+00	2.198431e+01
2.110000e-06	1.218338e-06	3.650364e-10	8.465431e+00	2.382731e+01
2.120000e-06	1.263980e-06	3.885022e-10	8.782565e+00	2.565156e+01
2.130000e-06	1.309484e-06	4.099878e-10	9.098744e+00	2.745529e+01
2.140000e-06	1.354869e-06	4.317492e-10	9.414094e+00	2.923694e+01
2.150000e-06	1.400181e-06	4.574576e-10	9.728937e+00	3.099510e+01
2.160000e-06	1.445421e-06	4.865992e-10	1.004329e+01	3.272853e+01
2.170000e-06	1.490628e-06	5.147235e-10	1.035740e+01	3.443615e+01
2.180000e-06	1.535714e-06	5.390107e-10	1.067067e+01	3.611705e+01
2.190000e-06	1.580661e-06	5.602083e-10	1.098298e+01	3.777047e+01
2.200000e-06	1.625408e-06	5.804120e-10	1.129390e+01	3.939577e+01
2.210000e-06	1.669991e-06	6.001502e-10	1.160367e+01	4.099247e+01
2.220000e-06	1.714451e-06	6.196219e-10	1.191259e+01	4.256016e+01
2.230000e-06	1.758745e-06	6.406463e-10	1.222037e+01	4.409858e+01
2.240000e-06	1.802931e-06	6.607966e-10	1.252738e+01	4.560752e+01
2.250000e-06	1.847034e-06	6.800147e-10	1.283383e+01	4.708685e+01
2.260000e-06	1.891079e-06	6.984713e-10	1.313987e+01	4.853652e+01
2.270000e-06	1.935065e-06	7.201519e-10	1.344550e+01	4.995652e+01
2.280000e-06	1.979006e-06	7.406965e-10	1.375082e+01	5.134688e+01
2.290000e-06	2.022855e-06	7.609899e-10	1.405549e+01	5.270764e+01
2.300000e-06	2.066611e-06	7.818016e-10	1.435952e+01	5.403889e+01
2.310000e-06	2.110340e-06	7.993511e-10	1.466337e+01	5.534072e+01
2.320000e-06	2.154020e-06	8.150184e-10	1.496687e+01	5.661321e+01
2.330000e-06	2.197597e-06	8.307890e-10	1.526966e+01	5.785647e+01
2.340000e-06	2.241032e-06	8.469644e-10	1.557146e+01	5.907060e+01
2.350000e-06	2.284359e-06	8.635831e-10	1.587252e+01	6.025570e+01
2.360000e-06	2.327536e-06	8.787422e-10	1.617252e+01	6.141187e+01
2.370000e-06	2.370465e-06	8.925021e-10	1.647081e+01	6.253920e+01
2.380000e-06	2.413130e-06	9.068146e-10	1.676726e+01	6.363782e+01
2.390000e-06	2.455335e-06	9.208329e-10	1.706051e+01	6.470784e+01
2.400000e-06	2.497210e-06	9.360470e-10	1.735148e+01	6.574939e+01
2.410000e-06	2.538907e-06	9.497776e-10	1.764120e+01	6.676263e+01
2.420000e-06	2.580296e-06	9.627946e-10	1.792879e+01	6.774774e+01
2.430000e-06	2.621245e-06	9.739568e-10	1.821332e+01	6.870495e+01
2.440000e-06	2.661762e-06	9.853427e-10	1.849484e+01	6.963450e+01
2.450000e-06	2.702036e-06	9.968359e-10	1.877468e+01	7.053669e+01
2.460000e-06	2.742128e-06	1.008556e-09	1.905325e+01	7.141186e+01
2.470000e-06	2.782120e-06	1.021201e-09	1.933112e+01	7.226042e+01
2.480000e-06	2.822040e-06	1.035692e-09	1.960851e+01	7.308282e+01
2.490000e-06	2.861866e-06	1.048978e-09	1.988523e+01	7.387956e+01
2.500000e-06	2.901591e-06	1.061577e-09	2.016125e+01	7.465121e+01
2.510000e-06	2.941170e-06	1.071247e-09	2.043626e+01	7.539840e+01
2.520000e-06	2.980579e-06	1.076890e-09	2.071009e+01	7.612179e+01
2.530000e-06	3.019832e-06	1.082375e-09	2.098283e+01	7.682212e+01
2.540000e-06	3.058833e-06	1.088335e-09	2.125383e+01	7.750014e+01
2.550000e-06	3.097496e-06	1.097675e-09	2.152247e+01	7.815667e+01
2.560000e-06	3.135956e-06	1.107649e-09	2.178970e+01	7.879254e+01
2.570000e-06	3.174214e-06	1.119327e-09	2.205553e+01	7.940863e+01
2.580000e-06	3.212253e-06	1.130701e-09	2.231984e+01	8.000580e+01
2.590000e-06	3.250107e-06	1.140088e-09	2.258286e+01	8.058495e+01
2.600000e-06	3.287830e-06	1.147412e-09	2.284498e+01	8.114695e+01
2.610000e-06	3.325348e-06	1.150957e-09	2.310566e+01	8.169267e+01
2.620000e-06	3.362543e-06	1.156599e-09	2.336411e+01	8.222295e+01
2.630000e-06	3.399464e-06	1.164209e-09	2.362065e+01	8.273862e+01
2.640000e-06	3.436120e-06	1.173413e-09	2.387535e+01	8.324043e+01
2.650000e-06	3.472583e-06	1.181718e-09	2.412870e+01	8.372914e+01
2.660000e-06	3.508836e-06	1.188428e-09	2.438060e+01	8.420540e+01
2.670000e-06	3.544845e-06	1.196268e-09	2.463081e+01	8.466984e+01
2.680000e-06	3.580691e-06	1.200804e-09	2.487987e+01	8.512302e+01
2.690000e-06	3.616419e-06	1.203951e-09	2.512812e+01	8.556543e+01
2.700000e-06	3.652041e-06	1.210384e-09	2.537564e+01	8.599748e+01
2.710000e-06	3.687525e-06	1.218095e-09	2.562219e+01	8.641956e+01
2.720000e-06	3.722788e-06	1.226808e-09	2.586721e+01	8.683195e+01
2.730000e-06	3.757779e-06	1.234838e-09	2.611034e+01	8.723490e+01
2.740000e-06	3.792429e-06	1.242532e-09	2.635110e+01	8.762860e+01
2.750000e-06	3.826653e-06	1.250203e-09	2.658890e+01	8.801319e+01
2.760000e-06	3.860377e-06	1.255655e-09	2.682323e+01	8.838875e+01
2.770000e-06	3.893586e-06	1.261581e-09	2.705397e+01	8.875537e+01
2.780000e-06	3.926242e-06	1.267036e-09	2.728088e+01	8.911306e+01
2.790000e-06	3.958520e-06	1.274159e-09	2.750516e+01	8.946186e+01
2.800000e-06	3.990606e-06	1.280457e-09	2.772810e+01	8.980178e+01
2.810000e-06	4.022573e-06	1.285831e-09	2.795022e+01	9.013283e+01
2.820000e-06	4.054461e-06	1.290553e-09	2.817179e+01	9.045504e+01
2.830000e-06	4.086121e-06	1.295212e-09	2.839178e+01	9.076845e+01
2.840000e-06	4.117548e-06	1.300913e-09	2.861014e+01	9.107312e+01
2.850000e-06	4.148779e-06	1.304754e-09	2.882714e+01	9.136915e+01
2.860000e-06	4.179641e-06	1.309961e-09	2.904158e+01	9.165668e+01
2.870000e-06	4.210128e-06	1.316533e-09	2.925341e+01	9.193587e+01
2.880000e-06	4.240309e-06	1.323530e-09	2.946313e+01	9.220695e+01
2.890000e-06	4.270151e-06	1.331341e-09	2.967048e+01	9.247017e+01
2.900000e-06	4.299717e-06	1.338245e-09	2.987591e+01	9.272583e+01
