# Temperatura_=_12.7
# Concentracion g/m^3_=_1620.0
# C_Vs_to_Am_M_A/Vsm_=_65563218390.804596
# pendiente_HvsI_1/m_=_3716.3
# ordenada_HvsI_A/m_=_1297.0
# frecuencia_Hz_=_135102.48249195458

Tiempo_(s)	Campo_(V.s)	Magnetizacion_(V.s)	Campo_(kA/m)	Magnetizacion_(A/m)
0.000000e+00	-5.538191e-06	-1.484473e-09	-3.837501e+01	-9.921132e+01
1.000000e-08	-5.538451e-06	-1.482174e-09	-3.837681e+01	-9.917242e+01
2.000000e-08	-5.538387e-06	-1.477304e-09	-3.837637e+01	-9.913019e+01
3.000000e-08	-5.537934e-06	-1.472349e-09	-3.837323e+01	-9.908467e+01
4.000000e-08	-5.537072e-06	-1.466995e-09	-3.836725e+01	-9.903592e+01
5.000000e-08	-5.535687e-06	-1.462286e-09	-3.835766e+01	-9.898400e+01
6.000000e-08	-5.533701e-06	-1.460506e-09	-3.834390e+01	-9.892899e+01
7.000000e-08	-5.531127e-06	-1.468420e-09	-3.832606e+01	-9.887100e+01
8.000000e-08	-5.527999e-06	-1.470629e-09	-3.830439e+01	-9.881011e+01
9.000000e-08	-5.524332e-06	-1.454494e-09	-3.827898e+01	-9.874644e+01
1.000000e-07	-5.520236e-06	-1.459068e-09	-3.825060e+01	-9.868009e+01
1.100000e-07	-5.515852e-06	-1.507014e-09	-3.822022e+01	-9.861118e+01
1.200000e-07	-5.511243e-06	-1.470867e-09	-3.818828e+01	-9.853979e+01
1.300000e-07	-5.506381e-06	-1.426162e-09	-3.815460e+01	-9.846602e+01
1.400000e-07	-5.501208e-06	-1.410075e-09	-3.811874e+01	-9.838995e+01
1.500000e-07	-5.495655e-06	-1.475734e-09	-3.808027e+01	-9.831163e+01
1.600000e-07	-5.489687e-06	-1.481063e-09	-3.803891e+01	-9.823111e+01
1.700000e-07	-5.483392e-06	-1.442127e-09	-3.799530e+01	-9.814840e+01
1.800000e-07	-5.476724e-06	-1.450239e-09	-3.794909e+01	-9.806350e+01
1.900000e-07	-5.469561e-06	-1.499131e-09	-3.789946e+01	-9.797639e+01
2.000000e-07	-5.462069e-06	-1.496266e-09	-3.784754e+01	-9.788701e+01
2.100000e-07	-5.454428e-06	-1.447411e-09	-3.779460e+01	-9.779528e+01
2.200000e-07	-5.446490e-06	-1.451143e-09	-3.773960e+01	-9.770111e+01
2.300000e-07	-5.438129e-06	-1.484197e-09	-3.768166e+01	-9.760438e+01
2.400000e-07	-5.429286e-06	-1.500672e-09	-3.762039e+01	-9.750495e+01
2.500000e-07	-5.419922e-06	-1.477322e-09	-3.755551e+01	-9.740267e+01
2.600000e-07	-5.409943e-06	-1.479115e-09	-3.748636e+01	-9.729738e+01
2.700000e-07	-5.399289e-06	-1.465613e-09	-3.741253e+01	-9.718890e+01
2.800000e-07	-5.388050e-06	-1.462742e-09	-3.733466e+01	-9.707707e+01
2.900000e-07	-5.376398e-06	-1.451510e-09	-3.725392e+01	-9.696172e+01
3.000000e-07	-5.364441e-06	-1.459577e-09	-3.717107e+01	-9.684267e+01
3.100000e-07	-5.352093e-06	-1.453257e-09	-3.708551e+01	-9.671980e+01
3.200000e-07	-5.339359e-06	-1.480553e-09	-3.699727e+01	-9.659296e+01
3.300000e-07	-5.326233e-06	-1.479354e-09	-3.690632e+01	-9.646205e+01
3.400000e-07	-5.312673e-06	-1.468774e-09	-3.681236e+01	-9.632698e+01
3.500000e-07	-5.298684e-06	-1.455879e-09	-3.671543e+01	-9.618770e+01
3.600000e-07	-5.284233e-06	-1.469789e-09	-3.661529e+01	-9.604420e+01
3.700000e-07	-5.269277e-06	-1.447556e-09	-3.651166e+01	-9.589647e+01
3.800000e-07	-5.253829e-06	-1.449031e-09	-3.640462e+01	-9.574458e+01
3.900000e-07	-5.238007e-06	-1.469116e-09	-3.629499e+01	-9.558860e+01
4.000000e-07	-5.221865e-06	-1.454133e-09	-3.618313e+01	-9.542866e+01
4.100000e-07	-5.205327e-06	-1.424707e-09	-3.606854e+01	-9.526490e+01
4.200000e-07	-5.188375e-06	-1.457010e-09	-3.595108e+01	-9.509751e+01
4.300000e-07	-5.171067e-06	-1.470913e-09	-3.583115e+01	-9.492670e+01
4.400000e-07	-5.153419e-06	-1.415629e-09	-3.570886e+01	-9.475270e+01
4.500000e-07	-5.135337e-06	-1.421274e-09	-3.558357e+01	-9.457577e+01
4.600000e-07	-5.116785e-06	-1.464563e-09	-3.545502e+01	-9.439616e+01
4.700000e-07	-5.097816e-06	-1.425640e-09	-3.532358e+01	-9.421414e+01
4.800000e-07	-5.078515e-06	-1.382932e-09	-3.518984e+01	-9.402999e+01
4.900000e-07	-5.059015e-06	-1.439747e-09	-3.505472e+01	-9.384397e+01
5.000000e-07	-5.039338e-06	-1.439769e-09	-3.491838e+01	-9.365632e+01
5.100000e-07	-5.019423e-06	-1.387869e-09	-3.478038e+01	-9.346726e+01
5.200000e-07	-4.999127e-06	-1.409083e-09	-3.463975e+01	-9.327702e+01
5.300000e-07	-4.978413e-06	-1.441958e-09	-3.449622e+01	-9.308574e+01
5.400000e-07	-4.957356e-06	-1.380649e-09	-3.435031e+01	-9.289356e+01
5.500000e-07	-4.935936e-06	-1.372046e-09	-3.420189e+01	-9.270058e+01
5.600000e-07	-4.914191e-06	-1.408309e-09	-3.405121e+01	-9.250683e+01
5.700000e-07	-4.892121e-06	-1.380612e-09	-3.389829e+01	-9.231231e+01
5.800000e-07	-4.869641e-06	-1.351616e-09	-3.374252e+01	-9.211698e+01
5.900000e-07	-4.846867e-06	-1.402193e-09	-3.358471e+01	-9.192072e+01
6.000000e-07	-4.823762e-06	-1.398141e-09	-3.342462e+01	-9.172338e+01
6.100000e-07	-4.800361e-06	-1.356018e-09	-3.326247e+01	-9.152478e+01
6.200000e-07	-4.776786e-06	-1.369042e-09	-3.309911e+01	-9.132466e+01
6.300000e-07	-4.752959e-06	-1.384037e-09	-3.293401e+01	-9.112276e+01
6.400000e-07	-4.728852e-06	-1.344237e-09	-3.276697e+01	-9.091875e+01
6.500000e-07	-4.704408e-06	-1.345767e-09	-3.259759e+01	-9.071232e+01
6.600000e-07	-4.679527e-06	-1.371790e-09	-3.242519e+01	-9.050308e+01
6.700000e-07	-4.654140e-06	-1.355529e-09	-3.224928e+01	-9.029069e+01
6.800000e-07	-4.628114e-06	-1.343538e-09	-3.206894e+01	-9.007476e+01
6.900000e-07	-4.601515e-06	-1.362091e-09	-3.188463e+01	-8.985492e+01
7.000000e-07	-4.574482e-06	-1.348967e-09	-3.169731e+01	-8.963083e+01
7.100000e-07	-4.547071e-06	-1.319965e-09	-3.150738e+01	-8.940214e+01
7.200000e-07	-4.519502e-06	-1.323856e-09	-3.131635e+01	-8.916856e+01
7.300000e-07	-4.491812e-06	-1.327429e-09	-3.112448e+01	-8.892981e+01
7.400000e-07	-4.463979e-06	-1.315789e-09	-3.093162e+01	-8.868567e+01
7.500000e-07	-4.435945e-06	-1.319870e-09	-3.073737e+01	-8.843597e+01
7.600000e-07	-4.407568e-06	-1.328303e-09	-3.054074e+01	-8.818059e+01
7.700000e-07	-4.378835e-06	-1.312523e-09	-3.034165e+01	-8.791946e+01
7.800000e-07	-4.349734e-06	-1.303630e-09	-3.014000e+01	-8.765258e+01
7.900000e-07	-4.320308e-06	-1.303314e-09	-2.993611e+01	-8.738000e+01
8.000000e-07	-4.290666e-06	-1.296222e-09	-2.973071e+01	-8.710186e+01
8.100000e-07	-4.260757e-06	-1.287094e-09	-2.952347e+01	-8.681832e+01
8.200000e-07	-4.230502e-06	-1.294015e-09	-2.931382e+01	-8.652961e+01
8.300000e-07	-4.199886e-06	-1.292179e-09	-2.910168e+01	-8.623602e+01
8.400000e-07	-4.169006e-06	-1.284436e-09	-2.888771e+01	-8.593789e+01
8.500000e-07	-4.137865e-06	-1.281522e-09	-2.867193e+01	-8.563557e+01
8.600000e-07	-4.106490e-06	-1.279877e-09	-2.845452e+01	-8.532946e+01
8.700000e-07	-4.074934e-06	-1.264424e-09	-2.823587e+01	-8.501999e+01
8.800000e-07	-4.043218e-06	-1.258682e-09	-2.801610e+01	-8.470759e+01
8.900000e-07	-4.011347e-06	-1.256528e-09	-2.779527e+01	-8.439269e+01
9.000000e-07	-3.979159e-06	-1.249653e-09	-2.757223e+01	-8.407572e+01
9.100000e-07	-3.946592e-06	-1.243221e-09	-2.734656e+01	-8.375710e+01
9.200000e-07	-3.913712e-06	-1.245480e-09	-2.711874e+01	-8.343722e+01
9.300000e-07	-3.880374e-06	-1.240349e-09	-2.688773e+01	-8.311641e+01
9.400000e-07	-3.846612e-06	-1.231261e-09	-2.665379e+01	-8.279501e+01
9.500000e-07	-3.812498e-06	-1.226609e-09	-2.641741e+01	-8.247324e+01
9.600000e-07	-3.777918e-06	-1.219307e-09	-2.617779e+01	-8.215133e+01
9.700000e-07	-3.742955e-06	-1.204640e-09	-2.593554e+01	-8.182939e+01
9.800000e-07	-3.707734e-06	-1.198694e-09	-2.569148e+01	-8.150751e+01
9.900000e-07	-3.672267e-06	-1.198936e-09	-2.544573e+01	-8.118566e+01
1.000000e-06	-3.636625e-06	-1.193134e-09	-2.519875e+01	-8.086378e+01
1.010000e-06	-3.600915e-06	-1.189047e-09	-2.495131e+01	-8.054172e+01
1.020000e-06	-3.565073e-06	-1.190653e-09	-2.470296e+01	-8.021926e+01
1.030000e-06	-3.529008e-06	-1.186959e-09	-2.445306e+01	-7.989611e+01
1.040000e-06	-3.492681e-06	-1.176503e-09	-2.420134e+01	-7.957193e+01
1.050000e-06	-3.456079e-06	-1.171112e-09	-2.394772e+01	-7.924631e+01
1.060000e-06	-3.419168e-06	-1.164719e-09	-2.369196e+01	-7.891880e+01
1.070000e-06	-3.382014e-06	-1.156521e-09	-2.343451e+01	-7.858889e+01
1.080000e-06	-3.344698e-06	-1.154503e-09	-2.317594e+01	-7.825606e+01
1.090000e-06	-3.307095e-06	-1.157679e-09	-2.291539e+01	-7.791974e+01
1.100000e-06	-3.269230e-06	-1.150407e-09	-2.265301e+01	-7.757937e+01
1.110000e-06	-3.231157e-06	-1.141647e-09	-2.238920e+01	-7.723437e+01
1.120000e-06	-3.192867e-06	-1.135544e-09	-2.212388e+01	-7.688416e+01
1.130000e-06	-3.154330e-06	-1.126547e-09	-2.185686e+01	-7.652819e+01
1.140000e-06	-3.115501e-06	-1.114601e-09	-2.158780e+01	-7.616593e+01
1.150000e-06	-3.076484e-06	-1.109347e-09	-2.131745e+01	-7.579686e+01
1.160000e-06	-3.037323e-06	-1.104138e-09	-2.104610e+01	-7.542054e+01
1.170000e-06	-2.998031e-06	-1.095726e-09	-2.077384e+01	-7.503654e+01
1.180000e-06	-2.958599e-06	-1.088371e-09	-2.050061e+01	-7.464449e+01
1.190000e-06	-2.918999e-06	-1.085787e-09	-2.022621e+01	-7.424410e+01
1.200000e-06	-2.879245e-06	-1.076863e-09	-1.995075e+01	-7.383511e+01
1.210000e-06	-2.839341e-06	-1.065904e-09	-1.967425e+01	-7.341734e+01
1.220000e-06	-2.799293e-06	-1.058210e-09	-1.939675e+01	-7.299066e+01
1.230000e-06	-2.759077e-06	-1.052090e-09	-1.911809e+01	-7.255502e+01
1.240000e-06	-2.718634e-06	-1.044424e-09	-1.883785e+01	-7.211040e+01
1.250000e-06	-2.677994e-06	-1.040943e-09	-1.855625e+01	-7.165686e+01
1.260000e-06	-2.637128e-06	-1.039798e-09	-1.827308e+01	-7.119451e+01
1.270000e-06	-2.595969e-06	-1.032912e-09	-1.798788e+01	-7.072348e+01
1.280000e-06	-2.554403e-06	-1.023626e-09	-1.769987e+01	-7.024398e+01
1.290000e-06	-2.512457e-06	-1.015450e-09	-1.740922e+01	-6.975620e+01
1.300000e-06	-2.470343e-06	-1.004545e-09	-1.711740e+01	-6.926041e+01
1.310000e-06	-2.428040e-06	-9.920826e-10	-1.682427e+01	-6.875684e+01
1.320000e-06	-2.385483e-06	-9.836242e-10	-1.652939e+01	-6.824578e+01
1.330000e-06	-2.342568e-06	-9.775551e-10	-1.623203e+01	-6.772747e+01
1.340000e-06	-2.299356e-06	-9.702453e-10	-1.593260e+01	-6.720218e+01
1.350000e-06	-2.256035e-06	-9.635218e-10	-1.563243e+01	-6.667013e+01
1.360000e-06	-2.212619e-06	-9.555220e-10	-1.533159e+01	-6.613154e+01
1.370000e-06	-2.169074e-06	-9.420937e-10	-1.502986e+01	-6.558658e+01
1.380000e-06	-2.125377e-06	-9.288588e-10	-1.472708e+01	-6.503539e+01
1.390000e-06	-2.081584e-06	-9.183428e-10	-1.442363e+01	-6.447807e+01
1.400000e-06	-2.037780e-06	-9.110036e-10	-1.412010e+01	-6.391466e+01
1.410000e-06	-1.993913e-06	-9.039554e-10	-1.381614e+01	-6.334515e+01
1.420000e-06	-1.949890e-06	-8.982896e-10	-1.351110e+01	-6.276949e+01
1.430000e-06	-1.905791e-06	-8.900791e-10	-1.320553e+01	-6.218754e+01
1.440000e-06	-1.861627e-06	-8.799807e-10	-1.289951e+01	-6.159914e+01
1.450000e-06	-1.817324e-06	-8.692451e-10	-1.259253e+01	-6.100404e+01
1.460000e-06	-1.772905e-06	-8.585849e-10	-1.228474e+01	-6.040195e+01
1.470000e-06	-1.728353e-06	-8.459394e-10	-1.197603e+01	-5.979252e+01
1.480000e-06	-1.683555e-06	-8.339801e-10	-1.166562e+01	-5.917534e+01
1.490000e-06	-1.638601e-06	-8.231567e-10	-1.135413e+01	-5.854997e+01
1.500000e-06	-1.593607e-06	-8.137620e-10	-1.104235e+01	-5.791588e+01
1.510000e-06	-1.548463e-06	-8.063031e-10	-1.072955e+01	-5.727253e+01
1.520000e-06	-1.503240e-06	-8.007204e-10	-1.041619e+01	-5.661931e+01
1.530000e-06	-1.457919e-06	-7.945034e-10	-1.010215e+01	-5.595560e+01
1.540000e-06	-1.412460e-06	-7.855985e-10	-9.787159e+00	-5.528073e+01
1.550000e-06	-1.366934e-06	-7.751404e-10	-9.471705e+00	-5.459397e+01
1.560000e-06	-1.321316e-06	-7.638122e-10	-9.155608e+00	-5.389460e+01
1.570000e-06	-1.275639e-06	-7.514127e-10	-8.839107e+00	-5.318184e+01
1.580000e-06	-1.229927e-06	-7.396757e-10	-8.522358e+00	-5.245492e+01
1.590000e-06	-1.184138e-06	-7.288618e-10	-8.205078e+00	-5.171300e+01
1.600000e-06	-1.138197e-06	-7.193388e-10	-7.886750e+00	-5.095526e+01
1.610000e-06	-1.092167e-06	-7.096831e-10	-7.567797e+00	-5.018084e+01
1.620000e-06	-1.046035e-06	-6.982084e-10	-7.248140e+00	-4.938885e+01
1.630000e-06	-9.998023e-07	-6.861625e-10	-6.927789e+00	-4.857840e+01
1.640000e-06	-9.534966e-07	-6.752912e-10	-6.606930e+00	-4.774858e+01
1.650000e-06	-9.071261e-07	-6.644990e-10	-6.285622e+00	-4.689847e+01
1.660000e-06	-8.608289e-07	-6.501949e-10	-5.964821e+00	-4.602711e+01
1.670000e-06	-8.145061e-07	-6.335084e-10	-5.643843e+00	-4.513355e+01
1.680000e-06	-7.680229e-07	-6.172060e-10	-5.321753e+00	-4.421684e+01
1.690000e-06	-7.214737e-07	-6.017134e-10	-4.999206e+00	-4.327598e+01
1.700000e-06	-6.748217e-07	-5.849988e-10	-4.675947e+00	-4.231002e+01
1.710000e-06	-6.280529e-07	-5.694643e-10	-4.351878e+00	-4.131796e+01
1.720000e-06	-5.813383e-07	-5.547661e-10	-4.028186e+00	-4.029883e+01
1.730000e-06	-5.345585e-07	-5.406544e-10	-3.704041e+00	-3.925166e+01
1.740000e-06	-4.876078e-07	-5.244384e-10	-3.378712e+00	-3.817552e+01
1.750000e-06	-4.406841e-07	-5.051903e-10	-3.053570e+00	-3.706946e+01
1.760000e-06	-3.938500e-07	-4.845642e-10	-2.729049e+00	-3.593259e+01
1.770000e-06	-3.470136e-07	-4.657543e-10	-2.404513e+00	-3.476407e+01
1.780000e-06	-3.000951e-07	-4.498330e-10	-2.079407e+00	-3.356308e+01
1.790000e-06	-2.530110e-07	-4.346418e-10	-1.753153e+00	-3.232890e+01
1.800000e-06	-2.058900e-07	-4.178552e-10	-1.426644e+00	-3.106085e+01
1.810000e-06	-1.588816e-07	-3.978618e-10	-1.100916e+00	-2.975835e+01
1.820000e-06	-1.119635e-07	-3.761809e-10	-7.758133e-01	-2.842093e+01
1.830000e-06	-6.504319e-08	-3.559606e-10	-4.506946e-01	-2.704821e+01
1.840000e-06	-1.811141e-08	-3.368401e-10	-1.254969e-01	-2.563994e+01
1.850000e-06	2.883607e-08	-3.169858e-10	1.998097e-01	-2.419602e+01
1.860000e-06	7.584474e-08	-2.956316e-10	5.255403e-01	-2.271647e+01
1.870000e-06	1.229110e-07	-2.726930e-10	8.516701e-01	-2.120149e+01
1.880000e-06	1.699563e-07	-2.487859e-10	1.177654e+00	-1.965143e+01
1.890000e-06	2.169452e-07	-2.266355e-10	1.503248e+00	-1.806684e+01
1.900000e-06	2.638442e-07	-2.060891e-10	1.828218e+00	-1.644842e+01
1.910000e-06	3.107479e-07	-1.843199e-10	2.153222e+00	-1.479709e+01
1.920000e-06	3.577669e-07	-1.623201e-10	2.479024e+00	-1.311394e+01
1.930000e-06	4.047329e-07	-1.389432e-10	2.804459e+00	-1.140026e+01
1.940000e-06	4.515293e-07	-1.124464e-10	3.128718e+00	-9.657520e+00
1.950000e-06	4.982661e-07	-8.449405e-11	3.452565e+00	-7.887403e+00
1.960000e-06	5.449851e-07	-5.858807e-11	3.776289e+00	-6.091757e+00
1.970000e-06	5.915957e-07	-3.512091e-11	4.099261e+00	-4.272608e+00
1.980000e-06	6.382172e-07	-1.320138e-11	4.422309e+00	-2.432151e+00
1.990000e-06	6.848535e-07	9.160355e-12	4.745459e+00	-5.727330e-01
2.000000e-06	7.314251e-07	3.474647e-11	5.068161e+00	1.303160e+00
2.010000e-06	7.779844e-07	6.281209e-11	5.390778e+00	3.192919e+00
2.020000e-06	8.244460e-07	9.159905e-11	5.712718e+00	5.093830e+00
2.030000e-06	8.707669e-07	1.211786e-10	6.033683e+00	7.003093e+00
2.040000e-06	9.170774e-07	1.482393e-10	6.354575e+00	8.917845e+00
2.050000e-06	9.633631e-07	1.718642e-10	6.675296e+00	1.083518e+01
2.060000e-06	1.009526e-06	1.948995e-10	6.995166e+00	1.275216e+01
2.070000e-06	1.055607e-06	2.176223e-10	7.314467e+00	1.466588e+01
2.080000e-06	1.101620e-06	2.420154e-10	7.633303e+00	1.657342e+01
2.090000e-06	1.147565e-06	2.701171e-10	7.951659e+00	1.847193e+01
2.100000e-06	1.193473e-06	2.998969e-10	8.269766e+00	2.035864e+01
2.110000e-06	1.239240e-06	3.286196e-10	8.586892e+00	2.223085e+01
2.120000e-06	1.284833e-06	3.538113e-10	8.902812e+00	2.408598e+01
2.130000e-06	1.330387e-06	3.758976e-10	9.218461e+00	2.592158e+01
2.140000e-06	1.375982e-06	3.956771e-10	9.534398e+00	2.773533e+01
2.150000e-06	1.421524e-06	4.163640e-10	9.849968e+00	2.952510e+01
2.160000e-06	1.466895e-06	4.401128e-10	1.016435e+01	3.128889e+01
2.170000e-06	1.512110e-06	4.655700e-10	1.047765e+01	3.302493e+01
2.180000e-06	1.557187e-06	4.921869e-10	1.079000e+01	3.473161e+01
2.190000e-06	1.602117e-06	5.180908e-10	1.110132e+01	3.640751e+01
2.200000e-06	1.646963e-06	5.414149e-10	1.141207e+01	3.805142e+01
2.210000e-06	1.691749e-06	5.603457e-10	1.172240e+01	3.966233e+01
2.220000e-06	1.736394e-06	5.765644e-10	1.203175e+01	4.123941e+01
2.230000e-06	1.780884e-06	5.947897e-10	1.234003e+01	4.278204e+01
2.240000e-06	1.825243e-06	6.143482e-10	1.264740e+01	4.428978e+01
2.250000e-06	1.869460e-06	6.339052e-10	1.295379e+01	4.576234e+01
2.260000e-06	1.913563e-06	6.556725e-10	1.325938e+01	4.719963e+01
2.270000e-06	1.957569e-06	6.793376e-10	1.356431e+01	4.860171e+01
2.280000e-06	2.001506e-06	7.016657e-10	1.386876e+01	4.996875e+01
2.290000e-06	2.045385e-06	7.197535e-10	1.417280e+01	5.130107e+01
2.300000e-06	2.089131e-06	7.351862e-10	1.447592e+01	5.259912e+01
2.310000e-06	2.132808e-06	7.492691e-10	1.477857e+01	5.386342e+01
2.320000e-06	2.176476e-06	7.640326e-10	1.508115e+01	5.509457e+01
2.330000e-06	2.220012e-06	7.795478e-10	1.538282e+01	5.629327e+01
2.340000e-06	2.263420e-06	7.951932e-10	1.568359e+01	5.746024e+01
2.350000e-06	2.306776e-06	8.124276e-10	1.598402e+01	5.859627e+01
2.360000e-06	2.349958e-06	8.301938e-10	1.628323e+01	5.970215e+01
2.370000e-06	2.392828e-06	8.457674e-10	1.658028e+01	6.077872e+01
2.380000e-06	2.435453e-06	8.594051e-10	1.687564e+01	6.182679e+01
2.390000e-06	2.477811e-06	8.729153e-10	1.716915e+01	6.284719e+01
2.400000e-06	2.519802e-06	8.860870e-10	1.746011e+01	6.384072e+01
2.410000e-06	2.561485e-06	8.997920e-10	1.774894e+01	6.480819e+01
2.420000e-06	2.602842e-06	9.155927e-10	1.803551e+01	6.575037e+01
2.430000e-06	2.643875e-06	9.319706e-10	1.831983e+01	6.666799e+01
2.440000e-06	2.684685e-06	9.465269e-10	1.860261e+01	6.756178e+01
2.450000e-06	2.725257e-06	9.585569e-10	1.888374e+01	6.843242e+01
2.460000e-06	2.765574e-06	9.689489e-10	1.916310e+01	6.928057e+01
2.470000e-06	2.805698e-06	9.801801e-10	1.944113e+01	7.010685e+01
2.480000e-06	2.845668e-06	9.932345e-10	1.971809e+01	7.091186e+01
2.490000e-06	2.885493e-06	1.006150e-09	1.999404e+01	7.169617e+01
2.500000e-06	2.925179e-06	1.017695e-09	2.026903e+01	7.246034e+01
2.510000e-06	2.964771e-06	1.029133e-09	2.054337e+01	7.320490e+01
2.520000e-06	3.004264e-06	1.040119e-09	2.081702e+01	7.393038e+01
2.530000e-06	3.043574e-06	1.050767e-09	2.108941e+01	7.463726e+01
2.540000e-06	3.082650e-06	1.060742e-09	2.136017e+01	7.532607e+01
2.550000e-06	3.121464e-06	1.068006e-09	2.162912e+01	7.599727e+01
2.560000e-06	3.160005e-06	1.073879e-09	2.189618e+01	7.665138e+01
2.570000e-06	3.198298e-06	1.082185e-09	2.216152e+01	7.728886e+01
2.580000e-06	3.236404e-06	1.093410e-09	2.242556e+01	7.791021e+01
2.590000e-06	3.274394e-06	1.105894e-09	2.268880e+01	7.851593e+01
2.600000e-06	3.312224e-06	1.117366e-09	2.295093e+01	7.910649e+01
2.610000e-06	3.349829e-06	1.126020e-09	2.321150e+01	7.968239e+01
2.620000e-06	3.387157e-06	1.131992e-09	2.347015e+01	8.024411e+01
2.630000e-06	3.424194e-06	1.136547e-09	2.372678e+01	8.079214e+01
2.640000e-06	3.460974e-06	1.141273e-09	2.398164e+01	8.132696e+01
2.650000e-06	3.497394e-06	1.146932e-09	2.423400e+01	8.184904e+01
2.660000e-06	3.533549e-06	1.155074e-09	2.448452e+01	8.235883e+01
2.670000e-06	3.569597e-06	1.165048e-09	2.473431e+01	8.285679e+01
2.680000e-06	3.605489e-06	1.175313e-09	2.498301e+01	8.334334e+01
2.690000e-06	3.641261e-06	1.184204e-09	2.523088e+01	8.381887e+01
2.700000e-06	3.676915e-06	1.190755e-09	2.547793e+01	8.428376e+01
2.710000e-06	3.712359e-06	1.194440e-09	2.572353e+01	8.473837e+01
2.720000e-06	3.747552e-06	1.198602e-09	2.596739e+01	8.518301e+01
2.730000e-06	3.782500e-06	1.204571e-09	2.620955e+01	8.561796e+01
2.740000e-06	3.817007e-06	1.211156e-09	2.644865e+01	8.604346e+01
2.750000e-06	3.851052e-06	1.219889e-09	2.668455e+01	8.645973e+01
2.760000e-06	3.884739e-06	1.229497e-09	2.691798e+01	8.686695e+01
2.770000e-06	3.918020e-06	1.237571e-09	2.714859e+01	8.726524e+01
2.780000e-06	3.950879e-06	1.244649e-09	2.737627e+01	8.765472e+01
2.790000e-06	3.983327e-06	1.250320e-09	2.760111e+01	8.803545e+01
2.800000e-06	4.015458e-06	1.254773e-09	2.782375e+01	8.840749e+01
2.810000e-06	4.047338e-06	1.258363e-09	2.804465e+01	8.877084e+01
2.820000e-06	4.078990e-06	1.263107e-09	2.826397e+01	8.912551e+01
2.830000e-06	4.110496e-06	1.271842e-09	2.848228e+01	8.947147e+01
2.840000e-06	4.141850e-06	1.282615e-09	2.869954e+01	8.980870e+01
2.850000e-06	4.172906e-06	1.291966e-09	2.891473e+01	9.013715e+01
2.860000e-06	4.203635e-06	1.298560e-09	2.912766e+01	9.045680e+01
2.870000e-06	4.234022e-06	1.303269e-09	2.933821e+01	9.076760e+01
2.880000e-06	4.264121e-06	1.305616e-09	2.954677e+01	9.106955e+01
2.890000e-06	4.294028e-06	1.309236e-09	2.975401e+01	9.136264e+01
2.900000e-06	4.323650e-06	1.315450e-09	2.995926e+01	9.164688e+01
