# Temperatura_=_-9.2
# Concentracion g/m^3_=_1620.0
# C_Vs_to_Am_M_A/Vsm_=_65563218390.804596
# pendiente_HvsI_1/m_=_3716.3
# ordenada_HvsI_A/m_=_1297.0
# frecuencia_Hz_=_135110.50917443642

Tiempo_(s)	Campo_(V.s)	Magnetizacion_(V.s)	Campo_(kA/m)	Magnetizacion_(A/m)
0.000000e+00	-5.522638e-06	-9.425984e-10	-3.836424e+01	-6.481167e+01
1.000000e-08	-5.522804e-06	-9.412133e-10	-3.836539e+01	-6.481076e+01
2.000000e-08	-5.522776e-06	-9.392052e-10	-3.836520e+01	-6.481111e+01
3.000000e-08	-5.522461e-06	-9.365476e-10	-3.836301e+01	-6.481240e+01
4.000000e-08	-5.521723e-06	-9.338116e-10	-3.835788e+01	-6.481425e+01
5.000000e-08	-5.520450e-06	-9.293668e-10	-3.834904e+01	-6.481628e+01
6.000000e-08	-5.518507e-06	-9.168244e-10	-3.833554e+01	-6.481803e+01
7.000000e-08	-5.515960e-06	-8.914202e-10	-3.831785e+01	-6.481906e+01
8.000000e-08	-5.512919e-06	-8.866733e-10	-3.829672e+01	-6.481886e+01
9.000000e-08	-5.509386e-06	-9.667435e-10	-3.827218e+01	-6.481691e+01
1.000000e-07	-5.505358e-06	-1.052036e-09	-3.824420e+01	-6.481269e+01
1.100000e-07	-5.501003e-06	-9.672493e-10	-3.821395e+01	-6.480563e+01
1.200000e-07	-5.496524e-06	-8.179942e-10	-3.818283e+01	-6.479517e+01
1.300000e-07	-5.491832e-06	-8.489549e-10	-3.815024e+01	-6.478077e+01
1.400000e-07	-5.486726e-06	-9.845776e-10	-3.811477e+01	-6.476185e+01
1.500000e-07	-5.481074e-06	-9.712439e-10	-3.807550e+01	-6.473789e+01
1.600000e-07	-5.475051e-06	-8.282542e-10	-3.803367e+01	-6.470835e+01
1.700000e-07	-5.468737e-06	-8.632610e-10	-3.798980e+01	-6.467274e+01
1.800000e-07	-5.461880e-06	-1.019483e-09	-3.794216e+01	-6.463062e+01
1.900000e-07	-5.454530e-06	-1.032732e-09	-3.789111e+01	-6.458158e+01
2.000000e-07	-5.446996e-06	-8.940387e-10	-3.783877e+01	-6.452524e+01
2.100000e-07	-5.439283e-06	-8.617424e-10	-3.778520e+01	-6.446133e+01
2.200000e-07	-5.431278e-06	-9.536288e-10	-3.772958e+01	-6.438960e+01
2.300000e-07	-5.423045e-06	-9.850376e-10	-3.767239e+01	-6.430991e+01
2.400000e-07	-5.414569e-06	-9.196365e-10	-3.761351e+01	-6.422217e+01
2.500000e-07	-5.405392e-06	-9.106321e-10	-3.754976e+01	-6.412638e+01
2.600000e-07	-5.395355e-06	-9.621667e-10	-3.748004e+01	-6.402261e+01
2.700000e-07	-5.384803e-06	-9.489801e-10	-3.740674e+01	-6.391105e+01
2.800000e-07	-5.373755e-06	-8.806262e-10	-3.732999e+01	-6.379194e+01
2.900000e-07	-5.362156e-06	-8.801629e-10	-3.724941e+01	-6.366561e+01
3.000000e-07	-5.350172e-06	-9.431512e-10	-3.716616e+01	-6.353248e+01
3.100000e-07	-5.337878e-06	-9.329413e-10	-3.708076e+01	-6.339304e+01
3.200000e-07	-5.325120e-06	-8.885852e-10	-3.699213e+01	-6.324784e+01
3.300000e-07	-5.311892e-06	-8.962718e-10	-3.690025e+01	-6.309750e+01
3.400000e-07	-5.298438e-06	-9.431581e-10	-3.680678e+01	-6.294271e+01
3.500000e-07	-5.284662e-06	-9.128214e-10	-3.671109e+01	-6.278417e+01
3.600000e-07	-5.270349e-06	-8.699822e-10	-3.661165e+01	-6.262266e+01
3.700000e-07	-5.255636e-06	-8.982214e-10	-3.650945e+01	-6.245895e+01
3.800000e-07	-5.240454e-06	-9.376642e-10	-3.640398e+01	-6.229383e+01
3.900000e-07	-5.224548e-06	-8.848520e-10	-3.629349e+01	-6.212811e+01
4.000000e-07	-5.207979e-06	-8.677451e-10	-3.617839e+01	-6.196257e+01
4.100000e-07	-5.191109e-06	-9.282936e-10	-3.606120e+01	-6.179799e+01
4.200000e-07	-5.174073e-06	-9.152380e-10	-3.594285e+01	-6.163510e+01
4.300000e-07	-5.156675e-06	-8.404342e-10	-3.582200e+01	-6.147460e+01
4.400000e-07	-5.139014e-06	-8.898937e-10	-3.569931e+01	-6.131713e+01
4.500000e-07	-5.121017e-06	-9.508517e-10	-3.557429e+01	-6.116329e+01
4.600000e-07	-5.102579e-06	-8.715680e-10	-3.544620e+01	-6.101359e+01
4.700000e-07	-5.083750e-06	-8.320252e-10	-3.531540e+01	-6.086848e+01
4.800000e-07	-5.064546e-06	-9.101714e-10	-3.518200e+01	-6.072834e+01
4.900000e-07	-5.045066e-06	-9.006118e-10	-3.504668e+01	-6.059344e+01
5.000000e-07	-5.025318e-06	-8.436323e-10	-3.490949e+01	-6.046401e+01
5.100000e-07	-5.005352e-06	-8.960734e-10	-3.477080e+01	-6.034017e+01
5.200000e-07	-4.985152e-06	-9.091255e-10	-3.463047e+01	-6.022197e+01
5.300000e-07	-4.964550e-06	-8.368656e-10	-3.448736e+01	-6.010937e+01
5.400000e-07	-4.943594e-06	-8.672528e-10	-3.434178e+01	-6.000228e+01
5.500000e-07	-4.922367e-06	-9.212008e-10	-3.419432e+01	-5.990052e+01
5.600000e-07	-4.900726e-06	-8.419839e-10	-3.404399e+01	-5.980387e+01
5.700000e-07	-4.878692e-06	-8.115053e-10	-3.389092e+01	-5.971205e+01
5.800000e-07	-4.856333e-06	-8.869460e-10	-3.373560e+01	-5.962472e+01
5.900000e-07	-4.833620e-06	-8.761519e-10	-3.357782e+01	-5.954153e+01
6.000000e-07	-4.810556e-06	-8.247511e-10	-3.341760e+01	-5.946209e+01
6.100000e-07	-4.787201e-06	-8.703237e-10	-3.325536e+01	-5.938599e+01
6.200000e-07	-4.763627e-06	-8.809948e-10	-3.309160e+01	-5.931284e+01
6.300000e-07	-4.739840e-06	-8.284530e-10	-3.292635e+01	-5.924222e+01
6.400000e-07	-4.715854e-06	-8.410911e-10	-3.275974e+01	-5.917373e+01
6.500000e-07	-4.691568e-06	-8.715310e-10	-3.259102e+01	-5.910699e+01
6.600000e-07	-4.666836e-06	-8.413693e-10	-3.241922e+01	-5.904165e+01
6.700000e-07	-4.641698e-06	-8.456851e-10	-3.224459e+01	-5.897739e+01
6.800000e-07	-4.616116e-06	-8.780229e-10	-3.206688e+01	-5.891392e+01
6.900000e-07	-4.589899e-06	-8.630773e-10	-3.188476e+01	-5.885098e+01
7.000000e-07	-4.563021e-06	-8.478363e-10	-3.169804e+01	-5.878836e+01
7.100000e-07	-4.535695e-06	-8.654289e-10	-3.150822e+01	-5.872590e+01
7.200000e-07	-4.508123e-06	-8.520249e-10	-3.131668e+01	-5.866345e+01
7.300000e-07	-4.480355e-06	-8.331348e-10	-3.112379e+01	-5.860092e+01
7.400000e-07	-4.452418e-06	-8.490725e-10	-3.092971e+01	-5.853826e+01
7.500000e-07	-4.424324e-06	-8.570757e-10	-3.073455e+01	-5.847542e+01
7.600000e-07	-4.396020e-06	-8.462470e-10	-3.053793e+01	-5.841241e+01
7.700000e-07	-4.367415e-06	-8.511864e-10	-3.033922e+01	-5.834923e+01
7.800000e-07	-4.338413e-06	-8.511505e-10	-3.013775e+01	-5.828590e+01
7.900000e-07	-4.309099e-06	-8.374759e-10	-2.993412e+01	-5.822246e+01
8.000000e-07	-4.279534e-06	-8.414074e-10	-2.972874e+01	-5.815892e+01
8.100000e-07	-4.249658e-06	-8.461001e-10	-2.952120e+01	-5.809531e+01
8.200000e-07	-4.219457e-06	-8.340597e-10	-2.931140e+01	-5.803163e+01
8.300000e-07	-4.188951e-06	-8.354216e-10	-2.909949e+01	-5.796785e+01
8.400000e-07	-4.158221e-06	-8.488754e-10	-2.888601e+01	-5.790393e+01
8.500000e-07	-4.127238e-06	-8.411703e-10	-2.867078e+01	-5.783979e+01
8.600000e-07	-4.095967e-06	-8.326717e-10	-2.845355e+01	-5.777533e+01
8.700000e-07	-4.064485e-06	-8.403221e-10	-2.823485e+01	-5.771038e+01
8.800000e-07	-4.032836e-06	-8.381955e-10	-2.801499e+01	-5.764476e+01
8.900000e-07	-4.001021e-06	-8.261143e-10	-2.779398e+01	-5.757825e+01
9.000000e-07	-3.969005e-06	-8.312202e-10	-2.757158e+01	-5.751059e+01
9.100000e-07	-3.936710e-06	-8.335577e-10	-2.734723e+01	-5.744147e+01
9.200000e-07	-3.904080e-06	-8.233567e-10	-2.712056e+01	-5.737059e+01
9.300000e-07	-3.871138e-06	-8.255928e-10	-2.689172e+01	-5.729758e+01
9.400000e-07	-3.837813e-06	-8.349262e-10	-2.666022e+01	-5.722209e+01
9.500000e-07	-3.803839e-06	-8.262449e-10	-2.642422e+01	-5.714373e+01
9.600000e-07	-3.769352e-06	-8.177892e-10	-2.618465e+01	-5.706213e+01
9.700000e-07	-3.734552e-06	-8.191292e-10	-2.594290e+01	-5.697691e+01
9.800000e-07	-3.699353e-06	-8.136116e-10	-2.569838e+01	-5.688772e+01
9.900000e-07	-3.663869e-06	-8.046158e-10	-2.545188e+01	-5.679422e+01
1.000000e-06	-3.628207e-06	-8.104826e-10	-2.520415e+01	-5.669610e+01
1.010000e-06	-3.592420e-06	-8.153002e-10	-2.495555e+01	-5.659309e+01
1.020000e-06	-3.556554e-06	-8.109310e-10	-2.470640e+01	-5.648497e+01
1.030000e-06	-3.520539e-06	-8.119881e-10	-2.445621e+01	-5.637158e+01
1.040000e-06	-3.484294e-06	-8.160988e-10	-2.420442e+01	-5.625280e+01
1.050000e-06	-3.447759e-06	-8.098951e-10	-2.395063e+01	-5.612859e+01
1.060000e-06	-3.410946e-06	-8.036006e-10	-2.369490e+01	-5.599895e+01
1.070000e-06	-3.373971e-06	-8.051430e-10	-2.343804e+01	-5.586398e+01
1.080000e-06	-3.336816e-06	-8.038694e-10	-2.317993e+01	-5.572381e+01
1.090000e-06	-3.299379e-06	-8.021164e-10	-2.291987e+01	-5.557866e+01
1.100000e-06	-3.261654e-06	-8.050738e-10	-2.265780e+01	-5.542880e+01
1.110000e-06	-3.223697e-06	-8.039262e-10	-2.239413e+01	-5.527455e+01
1.120000e-06	-3.185549e-06	-7.981312e-10	-2.212913e+01	-5.511629e+01
1.130000e-06	-3.147163e-06	-7.954994e-10	-2.186247e+01	-5.495442e+01
1.140000e-06	-3.108452e-06	-7.920236e-10	-2.159355e+01	-5.478940e+01
1.150000e-06	-3.069558e-06	-7.851320e-10	-2.132337e+01	-5.462167e+01
1.160000e-06	-3.030529e-06	-7.815031e-10	-2.105224e+01	-5.445173e+01
1.170000e-06	-2.991257e-06	-7.827630e-10	-2.077944e+01	-5.428005e+01
1.180000e-06	-2.951812e-06	-7.821496e-10	-2.050542e+01	-5.410707e+01
1.190000e-06	-2.912226e-06	-7.820630e-10	-2.023043e+01	-5.393325e+01
1.200000e-06	-2.872510e-06	-7.820315e-10	-1.995453e+01	-5.375898e+01
1.210000e-06	-2.832642e-06	-7.770442e-10	-1.967758e+01	-5.358461e+01
1.220000e-06	-2.792645e-06	-7.703673e-10	-1.939973e+01	-5.341045e+01
1.230000e-06	-2.752545e-06	-7.686971e-10	-1.912117e+01	-5.323673e+01
1.240000e-06	-2.712259e-06	-7.659283e-10	-1.884131e+01	-5.306361e+01
1.250000e-06	-2.671722e-06	-7.636116e-10	-1.855972e+01	-5.289117e+01
1.260000e-06	-2.630975e-06	-7.646994e-10	-1.827666e+01	-5.271941e+01
1.270000e-06	-2.589996e-06	-7.662984e-10	-1.799198e+01	-5.254825e+01
1.280000e-06	-2.548705e-06	-7.641287e-10	-1.770514e+01	-5.237751e+01
1.290000e-06	-2.507098e-06	-7.604791e-10	-1.741612e+01	-5.220694e+01
1.300000e-06	-2.465232e-06	-7.561999e-10	-1.712529e+01	-5.203620e+01
1.310000e-06	-2.423105e-06	-7.489582e-10	-1.683264e+01	-5.186486e+01
1.320000e-06	-2.380697e-06	-7.431283e-10	-1.653804e+01	-5.169244e+01
1.330000e-06	-2.337957e-06	-7.403013e-10	-1.624114e+01	-5.151838e+01
1.340000e-06	-2.294923e-06	-7.378547e-10	-1.594220e+01	-5.134206e+01
1.350000e-06	-2.251648e-06	-7.365843e-10	-1.564158e+01	-5.116284e+01
1.360000e-06	-2.208185e-06	-7.364383e-10	-1.533965e+01	-5.098003e+01
1.370000e-06	-2.164671e-06	-7.342783e-10	-1.503737e+01	-5.079290e+01
1.380000e-06	-2.121047e-06	-7.292975e-10	-1.473433e+01	-5.060074e+01
1.390000e-06	-2.077249e-06	-7.237117e-10	-1.443007e+01	-5.040283e+01
1.400000e-06	-2.033381e-06	-7.200436e-10	-1.412534e+01	-5.019844e+01
1.410000e-06	-1.989488e-06	-7.164049e-10	-1.382042e+01	-4.998690e+01
1.420000e-06	-1.945517e-06	-7.135446e-10	-1.351497e+01	-4.976755e+01
1.430000e-06	-1.901461e-06	-7.123791e-10	-1.320893e+01	-4.953977e+01
1.440000e-06	-1.857309e-06	-7.116581e-10	-1.290221e+01	-4.930301e+01
1.450000e-06	-1.813039e-06	-7.074821e-10	-1.259468e+01	-4.905675e+01
1.460000e-06	-1.768651e-06	-7.016736e-10	-1.228633e+01	-4.880054e+01
1.470000e-06	-1.724086e-06	-6.959249e-10	-1.197675e+01	-4.853399e+01
1.480000e-06	-1.679382e-06	-6.887622e-10	-1.166620e+01	-4.825678e+01
1.490000e-06	-1.634617e-06	-6.809110e-10	-1.135523e+01	-4.796862e+01
1.500000e-06	-1.589773e-06	-6.728219e-10	-1.104371e+01	-4.766932e+01
1.510000e-06	-1.544820e-06	-6.678724e-10	-1.073144e+01	-4.735869e+01
1.520000e-06	-1.499713e-06	-6.665015e-10	-1.041809e+01	-4.703661e+01
1.530000e-06	-1.454405e-06	-6.653335e-10	-1.010335e+01	-4.670299e+01
1.540000e-06	-1.408966e-06	-6.607362e-10	-9.787699e+00	-4.635775e+01
1.550000e-06	-1.363433e-06	-6.517341e-10	-9.471392e+00	-4.600082e+01
1.560000e-06	-1.317801e-06	-6.421342e-10	-9.154400e+00	-4.563214e+01
1.570000e-06	-1.272140e-06	-6.328733e-10	-8.837207e+00	-4.525162e+01
1.580000e-06	-1.226381e-06	-6.251720e-10	-8.519329e+00	-4.485913e+01
1.590000e-06	-1.180542e-06	-6.202064e-10	-8.200895e+00	-4.445452e+01
1.600000e-06	-1.134693e-06	-6.171763e-10	-7.882396e+00	-4.403758e+01
1.610000e-06	-1.088761e-06	-6.128408e-10	-7.563318e+00	-4.360800e+01
1.620000e-06	-1.042730e-06	-6.082278e-10	-7.243559e+00	-4.316543e+01
1.630000e-06	-9.966095e-07	-6.025432e-10	-6.923170e+00	-4.270940e+01
1.640000e-06	-9.503635e-07	-5.935451e-10	-6.601912e+00	-4.223937e+01
1.650000e-06	-9.040355e-07	-5.813139e-10	-6.280085e+00	-4.175467e+01
1.660000e-06	-8.576615e-07	-5.681966e-10	-5.957937e+00	-4.125455e+01
1.670000e-06	-8.113029e-07	-5.559638e-10	-5.635896e+00	-4.073815e+01
1.680000e-06	-7.649547e-07	-5.456682e-10	-5.313928e+00	-4.020449e+01
1.690000e-06	-7.185523e-07	-5.380128e-10	-4.991584e+00	-3.965251e+01
1.700000e-06	-6.721227e-07	-5.317807e-10	-4.669050e+00	-3.908104e+01
1.710000e-06	-6.256338e-07	-5.261704e-10	-4.346104e+00	-3.848884e+01
1.720000e-06	-5.790738e-07	-5.191015e-10	-4.022665e+00	-3.787461e+01
1.730000e-06	-5.324576e-07	-5.098959e-10	-3.698835e+00	-3.723696e+01
1.740000e-06	-4.857825e-07	-4.973930e-10	-3.374597e+00	-3.657450e+01
1.750000e-06	-4.390524e-07	-4.828198e-10	-3.049975e+00	-3.588579e+01
1.760000e-06	-3.923601e-07	-4.691972e-10	-2.725617e+00	-3.516940e+01
1.770000e-06	-3.456774e-07	-4.596577e-10	-2.401325e+00	-3.442392e+01
1.780000e-06	-2.988299e-07	-4.526034e-10	-2.075888e+00	-3.364798e+01
1.790000e-06	-2.519290e-07	-4.442836e-10	-1.750081e+00	-3.284028e+01
1.800000e-06	-2.051526e-07	-4.342683e-10	-1.425138e+00	-3.199958e+01
1.810000e-06	-1.583496e-07	-4.225812e-10	-1.100011e+00	-3.112478e+01
1.820000e-06	-1.114595e-07	-4.091770e-10	-7.742781e-01	-3.021490e+01
1.830000e-06	-6.456607e-08	-3.942650e-10	-4.485226e-01	-2.926908e+01
1.840000e-06	-1.768377e-08	-3.779529e-10	-1.228443e-01	-2.828665e+01
1.850000e-06	2.919778e-08	-3.610614e-10	2.028289e-01	-2.726713e+01
1.860000e-06	7.614064e-08	-3.446656e-10	5.289280e-01	-2.621020e+01
1.870000e-06	1.230528e-07	-3.293622e-10	8.548134e-01	-2.511579e+01
1.880000e-06	1.698273e-07	-3.147512e-10	1.179743e+00	-2.398400e+01
1.890000e-06	2.165988e-07	-3.009084e-10	1.504652e+00	-2.281518e+01
1.900000e-06	2.633901e-07	-2.865230e-10	1.829698e+00	-2.160990e+01
1.910000e-06	3.101943e-07	-2.701317e-10	2.154834e+00	-2.036894e+01
1.920000e-06	3.570186e-07	-2.513671e-10	2.480110e+00	-1.909331e+01
1.930000e-06	4.038066e-07	-2.308138e-10	2.805132e+00	-1.778423e+01
1.940000e-06	4.505638e-07	-2.107713e-10	3.129942e+00	-1.644313e+01
1.950000e-06	4.972283e-07	-1.904173e-10	3.454107e+00	-1.507162e+01
1.960000e-06	5.438453e-07	-1.719206e-10	3.777943e+00	-1.367149e+01
1.970000e-06	5.904324e-07	-1.569522e-10	4.101571e+00	-1.224472e+01
1.980000e-06	6.369988e-07	-1.420728e-10	4.425054e+00	-1.079340e+01
1.990000e-06	6.835476e-07	-1.247988e-10	4.748416e+00	-9.319755e+00
2.000000e-06	7.299589e-07	-1.017876e-10	5.070823e+00	-7.826131e+00
2.010000e-06	7.762896e-07	-7.561720e-11	5.392669e+00	-6.314943e+00
2.020000e-06	8.226410e-07	-5.061909e-11	5.714659e+00	-4.788669e+00
2.030000e-06	8.689018e-07	-2.848619e-11	6.036020e+00	-3.249833e+00
2.040000e-06	9.151145e-07	-9.618145e-12	6.357047e+00	-1.700973e+00
2.050000e-06	9.612785e-07	8.175400e-12	6.677736e+00	-1.446279e-01
2.060000e-06	1.007258e-06	2.754567e-11	6.997143e+00	1.416685e+00
2.070000e-06	1.053119e-06	4.900071e-11	7.315729e+00	2.980489e+00
2.080000e-06	1.098945e-06	7.216923e-11	7.634066e+00	4.544363e+00
2.090000e-06	1.144713e-06	9.688210e-11	7.952001e+00	6.105958e+00
2.100000e-06	1.190406e-06	1.224968e-10	8.269424e+00	7.663012e+00
2.110000e-06	1.236031e-06	1.465774e-10	8.586369e+00	9.213358e+00
2.120000e-06	1.281571e-06	1.670338e-10	8.902721e+00	1.075493e+01
2.130000e-06	1.327036e-06	1.843453e-10	9.218552e+00	1.228579e+01
2.140000e-06	1.372416e-06	2.011840e-10	9.533793e+00	1.380410e+01
2.150000e-06	1.417709e-06	2.205436e-10	9.848431e+00	1.530815e+01
2.160000e-06	1.462898e-06	2.428263e-10	1.016235e+01	1.679635e+01
2.170000e-06	1.508064e-06	2.670500e-10	1.047610e+01	1.826723e+01
2.180000e-06	1.553158e-06	2.900143e-10	1.078936e+01	1.971946e+01
2.190000e-06	1.598074e-06	3.101038e-10	1.110138e+01	2.115179e+01
2.200000e-06	1.642806e-06	3.291718e-10	1.141212e+01	2.256312e+01
2.210000e-06	1.687332e-06	3.464978e-10	1.172143e+01	2.395241e+01
2.220000e-06	1.731765e-06	3.607504e-10	1.203009e+01	2.531875e+01
2.230000e-06	1.776150e-06	3.761444e-10	1.233843e+01	2.666132e+01
2.240000e-06	1.820430e-06	3.938941e-10	1.264602e+01	2.797938e+01
2.250000e-06	1.864593e-06	4.115716e-10	1.295281e+01	2.927227e+01
2.260000e-06	1.908669e-06	4.303383e-10	1.325900e+01	3.053940e+01
2.270000e-06	1.952643e-06	4.520713e-10	1.356447e+01	3.178024e+01
2.280000e-06	1.996532e-06	4.718425e-10	1.386936e+01	3.299433e+01
2.290000e-06	2.040354e-06	4.868375e-10	1.417378e+01	3.418125e+01
2.300000e-06	2.084125e-06	5.009998e-10	1.447784e+01	3.534066e+01
2.310000e-06	2.127865e-06	5.128963e-10	1.478169e+01	3.647223e+01
2.320000e-06	2.171566e-06	5.257953e-10	1.508527e+01	3.757571e+01
2.330000e-06	2.215172e-06	5.403081e-10	1.538819e+01	3.865086e+01
2.340000e-06	2.258572e-06	5.555942e-10	1.568968e+01	3.969752e+01
2.350000e-06	2.301693e-06	5.712346e-10	1.598922e+01	4.071554e+01
2.360000e-06	2.344581e-06	5.861409e-10	1.628715e+01	4.170483e+01
2.370000e-06	2.387211e-06	5.980541e-10	1.658329e+01	4.266535e+01
2.380000e-06	2.429503e-06	6.076644e-10	1.687708e+01	4.359709e+01
2.390000e-06	2.471480e-06	6.186028e-10	1.716869e+01	4.450013e+01
2.400000e-06	2.513142e-06	6.302554e-10	1.745810e+01	4.537455e+01
2.410000e-06	2.554383e-06	6.413526e-10	1.774459e+01	4.622053e+01
2.420000e-06	2.595308e-06	6.540613e-10	1.802888e+01	4.703827e+01
2.430000e-06	2.636050e-06	6.680945e-10	1.831191e+01	4.782807e+01
2.440000e-06	2.676577e-06	6.791802e-10	1.859344e+01	4.859024e+01
2.450000e-06	2.716922e-06	6.870091e-10	1.887370e+01	4.932521e+01
2.460000e-06	2.757115e-06	6.939803e-10	1.915292e+01	5.003341e+01
2.470000e-06	2.797200e-06	7.017259e-10	1.943137e+01	5.071538e+01
2.480000e-06	2.837186e-06	7.106480e-10	1.970915e+01	5.137168e+01
2.490000e-06	2.877051e-06	7.228406e-10	1.998608e+01	5.200295e+01
2.500000e-06	2.916763e-06	7.347214e-10	2.026195e+01	5.260987e+01
2.510000e-06	2.956318e-06	7.430747e-10	2.053672e+01	5.319315e+01
2.520000e-06	2.995725e-06	7.493554e-10	2.081047e+01	5.375358e+01
2.530000e-06	3.034907e-06	7.563332e-10	2.108266e+01	5.429193e+01
2.540000e-06	3.073878e-06	7.626795e-10	2.135338e+01	5.480903e+01
2.550000e-06	3.112624e-06	7.682077e-10	2.162254e+01	5.530573e+01
2.560000e-06	3.151005e-06	7.741449e-10	2.188916e+01	5.578287e+01
2.570000e-06	3.189154e-06	7.788878e-10	2.215417e+01	5.624129e+01
2.580000e-06	3.227238e-06	7.829854e-10	2.241873e+01	5.668185e+01
2.590000e-06	3.265152e-06	7.897420e-10	2.268211e+01	5.710535e+01
2.600000e-06	3.302855e-06	7.968159e-10	2.294402e+01	5.751259e+01
2.610000e-06	3.340317e-06	8.017168e-10	2.320426e+01	5.790435e+01
2.620000e-06	3.377556e-06	8.056653e-10	2.346294e+01	5.828134e+01
2.630000e-06	3.414588e-06	8.103358e-10	2.372020e+01	5.864423e+01
2.640000e-06	3.451272e-06	8.155343e-10	2.397503e+01	5.899366e+01
2.650000e-06	3.487646e-06	8.201420e-10	2.422771e+01	5.933019e+01
2.660000e-06	3.523785e-06	8.264465e-10	2.447876e+01	5.965434e+01
2.670000e-06	3.559754e-06	8.302136e-10	2.472863e+01	5.996655e+01
2.680000e-06	3.595666e-06	8.308163e-10	2.497810e+01	6.026722e+01
2.690000e-06	3.631520e-06	8.336552e-10	2.522716e+01	6.055668e+01
2.700000e-06	3.667205e-06	8.378705e-10	2.547506e+01	6.083519e+01
2.710000e-06	3.702640e-06	8.425453e-10	2.572122e+01	6.110299e+01
2.720000e-06	3.737825e-06	8.471341e-10	2.596563e+01	6.136024e+01
2.730000e-06	3.772725e-06	8.530241e-10	2.620808e+01	6.160708e+01
2.740000e-06	3.807179e-06	8.581959e-10	2.644742e+01	6.184360e+01
2.750000e-06	3.841098e-06	8.625021e-10	2.668305e+01	6.206987e+01
2.760000e-06	3.874513e-06	8.653338e-10	2.691517e+01	6.228594e+01
2.770000e-06	3.907409e-06	8.686206e-10	2.714369e+01	6.249184e+01
2.780000e-06	3.939858e-06	8.733419e-10	2.736910e+01	6.268761e+01
2.790000e-06	3.972054e-06	8.784542e-10	2.759276e+01	6.287329e+01
2.800000e-06	4.004115e-06	8.832300e-10	2.781548e+01	6.304892e+01
2.810000e-06	4.036046e-06	8.854339e-10	2.803729e+01	6.321460e+01
2.820000e-06	4.067882e-06	8.877857e-10	2.825845e+01	6.337042e+01
2.830000e-06	4.099571e-06	8.904729e-10	2.847859e+01	6.351652e+01
2.840000e-06	4.130925e-06	8.924734e-10	2.869639e+01	6.365309e+01
2.850000e-06	4.161918e-06	8.948989e-10	2.891169e+01	6.378035e+01
2.860000e-06	4.192568e-06	8.990795e-10	2.912461e+01	6.389859e+01
2.870000e-06	4.222879e-06	9.041128e-10	2.933517e+01	6.400811e+01
2.880000e-06	4.252898e-06	9.068794e-10	2.954371e+01	6.410930e+01
2.890000e-06	4.282676e-06	9.089900e-10	2.975057e+01	6.420259e+01
2.900000e-06	4.312214e-06	9.121520e-10	2.995575e+01	6.428843e+01
