# Temperatura_=_-2.77
# Concentracion g/m^3_=_1620.0
# C_Vs_to_Am_M_A/Vsm_=_65563218390.804596
# pendiente_HvsI_1/m_=_3716.3
# ordenada_HvsI_A/m_=_1297.0
# frecuencia_Hz_=_135107.47804685935

Tiempo_(s)	Campo_(V.s)	Magnetizacion_(V.s)	Campo_(kA/m)	Magnetizacion_(A/m)
0.000000e+00	-5.539298e-06	-1.139006e-09	-3.836347e+01	-7.779184e+01
1.000000e-08	-5.539448e-06	-1.138642e-09	-3.836450e+01	-7.771345e+01
2.000000e-08	-5.539349e-06	-1.139612e-09	-3.836382e+01	-7.763630e+01
3.000000e-08	-5.538908e-06	-1.140041e-09	-3.836076e+01	-7.756111e+01
4.000000e-08	-5.537956e-06	-1.140285e-09	-3.835417e+01	-7.748859e+01
5.000000e-08	-5.536346e-06	-1.139764e-09	-3.834302e+01	-7.741942e+01
6.000000e-08	-5.534100e-06	-1.140021e-09	-3.832747e+01	-7.735424e+01
7.000000e-08	-5.531414e-06	-1.162765e-09	-3.830886e+01	-7.729363e+01
8.000000e-08	-5.528278e-06	-1.172734e-09	-3.828715e+01	-7.723808e+01
9.000000e-08	-5.524641e-06	-1.114325e-09	-3.826196e+01	-7.718802e+01
1.000000e-07	-5.520594e-06	-1.060016e-09	-3.823393e+01	-7.714377e+01
1.100000e-07	-5.516277e-06	-1.155553e-09	-3.820403e+01	-7.710553e+01
1.200000e-07	-5.511619e-06	-1.171801e-09	-3.817177e+01	-7.707340e+01
1.300000e-07	-5.506638e-06	-1.152065e-09	-3.813727e+01	-7.704736e+01
1.400000e-07	-5.501387e-06	-1.051608e-09	-3.810091e+01	-7.702725e+01
1.500000e-07	-5.495833e-06	-1.149966e-09	-3.806244e+01	-7.701278e+01
1.600000e-07	-5.489878e-06	-1.202451e-09	-3.802120e+01	-7.700356e+01
1.700000e-07	-5.483490e-06	-1.145421e-09	-3.797695e+01	-7.699905e+01
1.800000e-07	-5.476680e-06	-1.088292e-09	-3.792979e+01	-7.699862e+01
1.900000e-07	-5.469463e-06	-1.143796e-09	-3.787981e+01	-7.700151e+01
2.000000e-07	-5.461927e-06	-1.208792e-09	-3.782762e+01	-7.700688e+01
2.100000e-07	-5.454161e-06	-1.140720e-09	-3.777383e+01	-7.701382e+01
2.200000e-07	-5.446214e-06	-1.105810e-09	-3.771879e+01	-7.702134e+01
2.300000e-07	-5.437986e-06	-1.124896e-09	-3.766181e+01	-7.702840e+01
2.400000e-07	-5.429265e-06	-1.198564e-09	-3.760141e+01	-7.703394e+01
2.500000e-07	-5.419860e-06	-1.164315e-09	-3.753627e+01	-7.703689e+01
2.600000e-07	-5.409725e-06	-1.159511e-09	-3.746608e+01	-7.703620e+01
2.700000e-07	-5.398955e-06	-1.126868e-09	-3.739150e+01	-7.703083e+01
2.800000e-07	-5.387726e-06	-1.160188e-09	-3.731372e+01	-7.701981e+01
2.900000e-07	-5.376125e-06	-1.129562e-09	-3.723338e+01	-7.700221e+01
3.000000e-07	-5.364124e-06	-1.134071e-09	-3.715027e+01	-7.697722e+01
3.100000e-07	-5.351647e-06	-1.124663e-09	-3.706385e+01	-7.694410e+01
3.200000e-07	-5.338849e-06	-1.190952e-09	-3.697521e+01	-7.690226e+01
3.300000e-07	-5.325743e-06	-1.174945e-09	-3.688445e+01	-7.685120e+01
3.400000e-07	-5.312232e-06	-1.143911e-09	-3.679088e+01	-7.679058e+01
3.500000e-07	-5.298282e-06	-1.132468e-09	-3.669426e+01	-7.672020e+01
3.600000e-07	-5.283933e-06	-1.175166e-09	-3.659488e+01	-7.663999e+01
3.700000e-07	-5.269069e-06	-1.117551e-09	-3.649194e+01	-7.655004e+01
3.800000e-07	-5.253597e-06	-1.102380e-09	-3.638479e+01	-7.645059e+01
3.900000e-07	-5.237589e-06	-1.163126e-09	-3.627392e+01	-7.634199e+01
4.000000e-07	-5.221236e-06	-1.159951e-09	-3.616067e+01	-7.622475e+01
4.100000e-07	-5.204583e-06	-1.090016e-09	-3.604533e+01	-7.609948e+01
4.200000e-07	-5.187576e-06	-1.129107e-09	-3.592755e+01	-7.596689e+01
4.300000e-07	-5.170251e-06	-1.185632e-09	-3.580756e+01	-7.582781e+01
4.400000e-07	-5.152480e-06	-1.092448e-09	-3.568448e+01	-7.568310e+01
4.500000e-07	-5.134260e-06	-1.085520e-09	-3.555830e+01	-7.553370e+01
4.600000e-07	-5.115683e-06	-1.169107e-09	-3.542964e+01	-7.538058e+01
4.700000e-07	-5.096757e-06	-1.146346e-09	-3.529856e+01	-7.522472e+01
4.800000e-07	-5.077475e-06	-1.063790e-09	-3.516502e+01	-7.506709e+01
4.900000e-07	-5.057983e-06	-1.143374e-09	-3.503003e+01	-7.490863e+01
5.000000e-07	-5.038293e-06	-1.147309e-09	-3.489366e+01	-7.475024e+01
5.100000e-07	-5.018341e-06	-1.077724e-09	-3.475548e+01	-7.459275e+01
5.200000e-07	-4.998047e-06	-1.104418e-09	-3.461493e+01	-7.443691e+01
5.300000e-07	-4.977373e-06	-1.173496e-09	-3.447174e+01	-7.428338e+01
5.400000e-07	-4.956333e-06	-1.083994e-09	-3.432603e+01	-7.413270e+01
5.500000e-07	-4.934985e-06	-1.080611e-09	-3.417818e+01	-7.398530e+01
5.600000e-07	-4.913251e-06	-1.148403e-09	-3.402766e+01	-7.384149e+01
5.700000e-07	-4.891090e-06	-1.119151e-09	-3.387418e+01	-7.370143e+01
5.800000e-07	-4.868690e-06	-1.053888e-09	-3.371904e+01	-7.356518e+01
5.900000e-07	-4.845973e-06	-1.118704e-09	-3.356171e+01	-7.343265e+01
6.000000e-07	-4.822843e-06	-1.115313e-09	-3.340152e+01	-7.330364e+01
6.100000e-07	-4.799477e-06	-1.062888e-09	-3.323969e+01	-7.317782e+01
6.200000e-07	-4.775918e-06	-1.084552e-09	-3.307653e+01	-7.305478e+01
6.300000e-07	-4.752192e-06	-1.120159e-09	-3.291221e+01	-7.293398e+01
6.400000e-07	-4.728121e-06	-1.080287e-09	-3.274550e+01	-7.281484e+01
6.500000e-07	-4.703554e-06	-1.086848e-09	-3.257536e+01	-7.269669e+01
6.600000e-07	-4.678547e-06	-1.115107e-09	-3.240217e+01	-7.257883e+01
6.700000e-07	-4.652975e-06	-1.090005e-09	-3.222506e+01	-7.246053e+01
6.800000e-07	-4.626782e-06	-1.072207e-09	-3.204366e+01	-7.234103e+01
6.900000e-07	-4.600085e-06	-1.092831e-09	-3.185876e+01	-7.221962e+01
7.000000e-07	-4.573008e-06	-1.083900e-09	-3.167124e+01	-7.209559e+01
7.100000e-07	-4.545627e-06	-1.062949e-09	-3.148161e+01	-7.196827e+01
7.200000e-07	-4.518032e-06	-1.079548e-09	-3.129049e+01	-7.183707e+01
7.300000e-07	-4.490315e-06	-1.084274e-09	-3.109853e+01	-7.170146e+01
7.400000e-07	-4.462391e-06	-1.074515e-09	-3.090514e+01	-7.156099e+01
7.500000e-07	-4.434145e-06	-1.074464e-09	-3.070952e+01	-7.141533e+01
7.600000e-07	-4.405583e-06	-1.079558e-09	-3.051171e+01	-7.126422e+01
7.700000e-07	-4.376712e-06	-1.055749e-09	-3.031175e+01	-7.110753e+01
7.800000e-07	-4.347587e-06	-1.051485e-09	-3.011004e+01	-7.094523e+01
7.900000e-07	-4.318225e-06	-1.049557e-09	-2.990669e+01	-7.077740e+01
8.000000e-07	-4.288593e-06	-1.045166e-09	-2.970147e+01	-7.060422e+01
8.100000e-07	-4.258731e-06	-1.038706e-09	-2.949465e+01	-7.042597e+01
8.200000e-07	-4.228540e-06	-1.057928e-09	-2.928556e+01	-7.024302e+01
8.300000e-07	-4.197939e-06	-1.054835e-09	-2.907363e+01	-7.005580e+01
8.400000e-07	-4.167048e-06	-1.047769e-09	-2.885968e+01	-6.986484e+01
8.500000e-07	-4.135920e-06	-1.043459e-09	-2.864411e+01	-6.967069e+01
8.600000e-07	-4.104559e-06	-1.041125e-09	-2.842690e+01	-6.947394e+01
8.700000e-07	-4.072988e-06	-1.020139e-09	-2.820825e+01	-6.927520e+01
8.800000e-07	-4.041248e-06	-1.020841e-09	-2.798843e+01	-6.907507e+01
8.900000e-07	-4.009346e-06	-1.024755e-09	-2.776749e+01	-6.887417e+01
9.000000e-07	-3.977199e-06	-1.022580e-09	-2.754485e+01	-6.867304e+01
9.100000e-07	-3.944767e-06	-1.017779e-09	-2.732024e+01	-6.847219e+01
9.200000e-07	-3.911960e-06	-1.024406e-09	-2.709302e+01	-6.827208e+01
9.300000e-07	-3.878624e-06	-1.013523e-09	-2.686215e+01	-6.807308e+01
9.400000e-07	-3.844770e-06	-1.002554e-09	-2.662769e+01	-6.787547e+01
9.500000e-07	-3.810428e-06	-1.005859e-09	-2.638984e+01	-6.767945e+01
9.600000e-07	-3.775717e-06	-1.004339e-09	-2.614945e+01	-6.748510e+01
9.700000e-07	-3.740700e-06	-9.884875e-10	-2.590693e+01	-6.729241e+01
9.800000e-07	-3.705407e-06	-9.834203e-10	-2.566250e+01	-6.710124e+01
9.900000e-07	-3.669922e-06	-9.840281e-10	-2.541674e+01	-6.691138e+01
1.000000e-06	-3.634254e-06	-9.730024e-10	-2.516972e+01	-6.672249e+01
1.010000e-06	-3.598465e-06	-9.699863e-10	-2.492186e+01	-6.653414e+01
1.020000e-06	-3.562531e-06	-9.755278e-10	-2.467299e+01	-6.634583e+01
1.030000e-06	-3.526338e-06	-9.744512e-10	-2.442232e+01	-6.615696e+01
1.040000e-06	-3.489900e-06	-9.659017e-10	-2.416996e+01	-6.596688e+01
1.050000e-06	-3.453275e-06	-9.674071e-10	-2.391632e+01	-6.577491e+01
1.060000e-06	-3.416423e-06	-9.611595e-10	-2.366109e+01	-6.558030e+01
1.070000e-06	-3.379339e-06	-9.526838e-10	-2.340426e+01	-6.538233e+01
1.080000e-06	-3.342002e-06	-9.502441e-10	-2.314567e+01	-6.518023e+01
1.090000e-06	-3.304382e-06	-9.552500e-10	-2.288513e+01	-6.497330e+01
1.100000e-06	-3.266536e-06	-9.478701e-10	-2.262302e+01	-6.476083e+01
1.110000e-06	-3.228465e-06	-9.452318e-10	-2.235935e+01	-6.454219e+01
1.120000e-06	-3.190144e-06	-9.442111e-10	-2.209395e+01	-6.431680e+01
1.130000e-06	-3.151574e-06	-9.387837e-10	-2.182683e+01	-6.408416e+01
1.140000e-06	-3.112756e-06	-9.263490e-10	-2.155799e+01	-6.384385e+01
1.150000e-06	-3.073802e-06	-9.248486e-10	-2.128820e+01	-6.359556e+01
1.160000e-06	-3.034723e-06	-9.199295e-10	-2.101755e+01	-6.333908e+01
1.170000e-06	-2.995428e-06	-9.115465e-10	-2.074540e+01	-6.307429e+01
1.180000e-06	-2.955967e-06	-9.048031e-10	-2.047211e+01	-6.280121e+01
1.190000e-06	-2.916328e-06	-9.029448e-10	-2.019759e+01	-6.251993e+01
1.200000e-06	-2.876535e-06	-8.946089e-10	-1.992199e+01	-6.223068e+01
1.210000e-06	-2.836660e-06	-8.900632e-10	-1.964583e+01	-6.193376e+01
1.220000e-06	-2.796581e-06	-8.877767e-10	-1.936825e+01	-6.162957e+01
1.230000e-06	-2.756273e-06	-8.848741e-10	-1.908909e+01	-6.131859e+01
1.240000e-06	-2.715759e-06	-8.826263e-10	-1.880850e+01	-6.100135e+01
1.250000e-06	-2.675014e-06	-8.857167e-10	-1.852632e+01	-6.067846e+01
1.260000e-06	-2.634039e-06	-8.862550e-10	-1.824254e+01	-6.035054e+01
1.270000e-06	-2.592730e-06	-8.786472e-10	-1.795644e+01	-6.001825e+01
1.280000e-06	-2.551079e-06	-8.708563e-10	-1.766798e+01	-5.968223e+01
1.290000e-06	-2.509252e-06	-8.635979e-10	-1.737830e+01	-5.934313e+01
1.300000e-06	-2.467192e-06	-8.548440e-10	-1.708701e+01	-5.900155e+01
1.310000e-06	-2.424800e-06	-8.473591e-10	-1.679342e+01	-5.865807e+01
1.320000e-06	-2.382132e-06	-8.462183e-10	-1.649791e+01	-5.831318e+01
1.330000e-06	-2.339215e-06	-8.438742e-10	-1.620068e+01	-5.796732e+01
1.340000e-06	-2.296137e-06	-8.395776e-10	-1.590233e+01	-5.762082e+01
1.350000e-06	-2.252888e-06	-8.356083e-10	-1.560280e+01	-5.727393e+01
1.360000e-06	-2.209416e-06	-8.316936e-10	-1.530174e+01	-5.692680e+01
1.370000e-06	-2.165814e-06	-8.238924e-10	-1.499976e+01	-5.657946e+01
1.380000e-06	-2.122161e-06	-8.175489e-10	-1.469743e+01	-5.623182e+01
1.390000e-06	-2.078474e-06	-8.099991e-10	-1.439487e+01	-5.588369e+01
1.400000e-06	-2.034676e-06	-8.034874e-10	-1.409154e+01	-5.553474e+01
1.410000e-06	-1.990727e-06	-7.970832e-10	-1.378716e+01	-5.518457e+01
1.420000e-06	-1.946660e-06	-7.945640e-10	-1.348197e+01	-5.483264e+01
1.430000e-06	-1.902472e-06	-7.910384e-10	-1.317593e+01	-5.447831e+01
1.440000e-06	-1.858201e-06	-7.886285e-10	-1.286932e+01	-5.412088e+01
1.450000e-06	-1.813850e-06	-7.837044e-10	-1.256217e+01	-5.375955e+01
1.460000e-06	-1.769321e-06	-7.764635e-10	-1.225377e+01	-5.339344e+01
1.470000e-06	-1.724663e-06	-7.652151e-10	-1.194448e+01	-5.302165e+01
1.480000e-06	-1.679945e-06	-7.554402e-10	-1.163478e+01	-5.264319e+01
1.490000e-06	-1.635099e-06	-7.465262e-10	-1.132419e+01	-5.225709e+01
1.500000e-06	-1.590071e-06	-7.393725e-10	-1.101234e+01	-5.186233e+01
1.510000e-06	-1.544813e-06	-7.346354e-10	-1.069890e+01	-5.145788e+01
1.520000e-06	-1.499375e-06	-7.308530e-10	-1.038421e+01	-5.104275e+01
1.530000e-06	-1.453891e-06	-7.257382e-10	-1.006920e+01	-5.061593e+01
1.540000e-06	-1.408456e-06	-7.191989e-10	-9.754532e+00	-5.017646e+01
1.550000e-06	-1.362946e-06	-7.097819e-10	-9.439343e+00	-4.972340e+01
1.560000e-06	-1.317338e-06	-7.001782e-10	-9.123475e+00	-4.925586e+01
1.570000e-06	-1.271647e-06	-6.906604e-10	-8.807030e+00	-4.877298e+01
1.580000e-06	-1.225772e-06	-6.825916e-10	-8.489321e+00	-4.827395e+01
1.590000e-06	-1.179811e-06	-6.769409e-10	-8.171004e+00	-4.775801e+01
1.600000e-06	-1.133863e-06	-6.718047e-10	-7.852782e+00	-4.722445e+01
1.610000e-06	-1.087861e-06	-6.640277e-10	-7.534191e+00	-4.667259e+01
1.620000e-06	-1.041777e-06	-6.519461e-10	-7.215025e+00	-4.610180e+01
1.630000e-06	-9.955928e-07	-6.397775e-10	-6.895168e+00	-4.551147e+01
1.640000e-06	-9.493028e-07	-6.288602e-10	-6.574578e+00	-4.490104e+01
1.650000e-06	-9.028908e-07	-6.189894e-10	-6.253142e+00	-4.426993e+01
1.660000e-06	-8.563646e-07	-6.076501e-10	-5.930917e+00	-4.361762e+01
1.670000e-06	-8.097832e-07	-5.981029e-10	-5.608308e+00	-4.294356e+01
1.680000e-06	-7.631933e-07	-5.857913e-10	-5.285641e+00	-4.224721e+01
1.690000e-06	-7.166312e-07	-5.716943e-10	-4.963166e+00	-4.152802e+01
1.700000e-06	-6.699627e-07	-5.533615e-10	-4.639954e+00	-4.078542e+01
1.710000e-06	-6.231976e-07	-5.353515e-10	-4.316074e+00	-4.001882e+01
1.720000e-06	-5.764378e-07	-5.215197e-10	-3.992230e+00	-3.922761e+01
1.730000e-06	-5.296698e-07	-5.124648e-10	-3.668329e+00	-3.841115e+01
1.740000e-06	-4.828812e-07	-5.049628e-10	-3.344286e+00	-3.756876e+01
1.750000e-06	-4.360122e-07	-4.949666e-10	-3.019686e+00	-3.669976e+01
1.760000e-06	-3.889612e-07	-4.800590e-10	-2.693825e+00	-3.580342e+01
1.770000e-06	-3.418644e-07	-4.626553e-10	-2.367647e+00	-3.487901e+01
1.780000e-06	-2.949036e-07	-4.442885e-10	-2.042411e+00	-3.392579e+01
1.790000e-06	-2.480256e-07	-4.298866e-10	-1.717748e+00	-3.294301e+01
1.800000e-06	-2.011147e-07	-4.157150e-10	-1.392858e+00	-3.192994e+01
1.810000e-06	-1.541332e-07	-4.005959e-10	-1.067479e+00	-3.088588e+01
1.820000e-06	-1.071517e-07	-3.862744e-10	-7.420995e-01	-2.981014e+01
1.830000e-06	-6.015054e-08	-3.725267e-10	-4.165840e-01	-2.870211e+01
1.840000e-06	-1.310061e-08	-3.585723e-10	-9.073081e-02	-2.756124e+01
1.850000e-06	3.390730e-08	-3.436503e-10	2.348315e-01	-2.638707e+01
1.860000e-06	8.083140e-08	-3.285848e-10	5.598133e-01	-2.517924e+01
1.870000e-06	1.277408e-07	-3.092086e-10	8.846936e-01	-2.393752e+01
1.880000e-06	1.746951e-07	-2.879917e-10	1.209884e+00	-2.266180e+01
1.890000e-06	2.216712e-07	-2.692592e-10	1.535226e+00	-2.135213e+01
1.900000e-06	2.686366e-07	-2.510983e-10	1.860494e+00	-2.000873e+01
1.910000e-06	3.156353e-07	-2.349405e-10	2.185993e+00	-1.863199e+01
1.920000e-06	3.626508e-07	-2.208428e-10	2.511607e+00	-1.722248e+01
1.930000e-06	4.095158e-07	-2.034823e-10	2.836180e+00	-1.578098e+01
1.940000e-06	4.562869e-07	-1.823268e-10	3.160102e+00	-1.430847e+01
1.950000e-06	5.031576e-07	-1.590703e-10	3.484714e+00	-1.280612e+01
1.960000e-06	5.500639e-07	-1.377534e-10	3.809573e+00	-1.127532e+01
1.970000e-06	5.967907e-07	-1.174861e-10	4.133188e+00	-9.717649e+00
1.980000e-06	6.433707e-07	-9.994193e-11	4.455787e+00	-8.134880e+00
1.990000e-06	6.900301e-07	-8.165097e-11	4.778935e+00	-6.528977e+00
2.000000e-06	7.366396e-07	-6.057110e-11	5.101738e+00	-4.902074e+00
2.010000e-06	7.831073e-07	-3.381020e-11	5.423559e+00	-3.256467e+00
2.020000e-06	8.295473e-07	-4.282296e-12	5.745188e+00	-1.594593e+00
2.030000e-06	8.759377e-07	2.348127e-11	6.066474e+00	8.098491e-02
2.040000e-06	9.222557e-07	4.653942e-11	6.387257e+00	1.767601e+00
2.050000e-06	9.684508e-07	6.525304e-11	6.707191e+00	3.462508e+00
2.060000e-06	1.014561e-06	8.370164e-11	7.026539e+00	5.162900e+00
2.070000e-06	1.060617e-06	1.038589e-10	7.345505e+00	6.865939e+00
2.080000e-06	1.106585e-06	1.274399e-10	7.663864e+00	8.568776e+00
2.090000e-06	1.152497e-06	1.555820e-10	7.981838e+00	1.026858e+01
2.100000e-06	1.198354e-06	1.846137e-10	8.299431e+00	1.196256e+01
2.110000e-06	1.244104e-06	2.118124e-10	8.616281e+00	1.364797e+01
2.120000e-06	1.289735e-06	2.348403e-10	8.932308e+00	1.532219e+01
2.130000e-06	1.335336e-06	2.535631e-10	9.248124e+00	1.698267e+01
2.140000e-06	1.380896e-06	2.694923e-10	9.563661e+00	1.862699e+01
2.150000e-06	1.426404e-06	2.867712e-10	9.878830e+00	2.025289e+01
2.160000e-06	1.471788e-06	3.077353e-10	1.019314e+01	2.185825e+01
2.170000e-06	1.517055e-06	3.305994e-10	1.050665e+01	2.344112e+01
2.180000e-06	1.562280e-06	3.548877e-10	1.081987e+01	2.499975e+01
2.190000e-06	1.607333e-06	3.792035e-10	1.113189e+01	2.653254e+01
2.200000e-06	1.652200e-06	4.014416e-10	1.144262e+01	2.803811e+01
2.210000e-06	1.696920e-06	4.201923e-10	1.175234e+01	2.951526e+01
2.220000e-06	1.741504e-06	4.373158e-10	1.206112e+01	3.096298e+01
2.230000e-06	1.785986e-06	4.536225e-10	1.236919e+01	3.238046e+01
2.240000e-06	1.830304e-06	4.685232e-10	1.267612e+01	3.376705e+01
2.250000e-06	1.874479e-06	4.830310e-10	1.298206e+01	3.512229e+01
2.260000e-06	1.918590e-06	5.014092e-10	1.328756e+01	3.644588e+01
2.270000e-06	1.962570e-06	5.224112e-10	1.359215e+01	3.773767e+01
2.280000e-06	2.006409e-06	5.445825e-10	1.389577e+01	3.899768e+01
2.290000e-06	2.050218e-06	5.662041e-10	1.419918e+01	4.022602e+01
2.300000e-06	2.093962e-06	5.851165e-10	1.450214e+01	4.142292e+01
2.310000e-06	2.137623e-06	5.998294e-10	1.480452e+01	4.258875e+01
2.320000e-06	2.181283e-06	6.119989e-10	1.510689e+01	4.372391e+01
2.330000e-06	2.224904e-06	6.233191e-10	1.540900e+01	4.482891e+01
2.340000e-06	2.268371e-06	6.367520e-10	1.571003e+01	4.590430e+01
2.350000e-06	2.311677e-06	6.526722e-10	1.600996e+01	4.695068e+01
2.360000e-06	2.354815e-06	6.691331e-10	1.630872e+01	4.796868e+01
2.370000e-06	2.397697e-06	6.849653e-10	1.660571e+01	4.895896e+01
2.380000e-06	2.440411e-06	7.002065e-10	1.690153e+01	4.992217e+01
2.390000e-06	2.482851e-06	7.132914e-10	1.719546e+01	5.085896e+01
2.400000e-06	2.524887e-06	7.248156e-10	1.748659e+01	5.177000e+01
2.410000e-06	2.566626e-06	7.379966e-10	1.777565e+01	5.265592e+01
2.420000e-06	2.608093e-06	7.521475e-10	1.806285e+01	5.351735e+01
2.430000e-06	2.649190e-06	7.647455e-10	1.834747e+01	5.435486e+01
2.440000e-06	2.689848e-06	7.755100e-10	1.862905e+01	5.516905e+01
2.450000e-06	2.730273e-06	7.850998e-10	1.890903e+01	5.596045e+01
2.460000e-06	2.770638e-06	7.935000e-10	1.918858e+01	5.672957e+01
2.470000e-06	2.810840e-06	8.037923e-10	1.946701e+01	5.747691e+01
2.480000e-06	2.850837e-06	8.164484e-10	1.974402e+01	5.820292e+01
2.490000e-06	2.890671e-06	8.293346e-10	2.001989e+01	5.890805e+01
2.500000e-06	2.930410e-06	8.405996e-10	2.029511e+01	5.959271e+01
2.510000e-06	2.970042e-06	8.493275e-10	2.056960e+01	6.025730e+01
2.520000e-06	3.009518e-06	8.563563e-10	2.084299e+01	6.090220e+01
2.530000e-06	3.048835e-06	8.639649e-10	2.111529e+01	6.152777e+01
2.540000e-06	3.087863e-06	8.717749e-10	2.138559e+01	6.213438e+01
2.550000e-06	3.126612e-06	8.789476e-10	2.165395e+01	6.272238e+01
2.560000e-06	3.165154e-06	8.860503e-10	2.192088e+01	6.329210e+01
2.570000e-06	3.203465e-06	8.935202e-10	2.218621e+01	6.384390e+01
2.580000e-06	3.241552e-06	9.010242e-10	2.244999e+01	6.437811e+01
2.590000e-06	3.279408e-06	9.095215e-10	2.271217e+01	6.489508e+01
2.600000e-06	3.317034e-06	9.180566e-10	2.297275e+01	6.539514e+01
2.610000e-06	3.354466e-06	9.257302e-10	2.323200e+01	6.587865e+01
2.620000e-06	3.391729e-06	9.315968e-10	2.349007e+01	6.634596e+01
2.630000e-06	3.428804e-06	9.358384e-10	2.374684e+01	6.679740e+01
2.640000e-06	3.465682e-06	9.397157e-10	2.400224e+01	6.723335e+01
2.650000e-06	3.502293e-06	9.432999e-10	2.425580e+01	6.765415e+01
2.660000e-06	3.538559e-06	9.474753e-10	2.450696e+01	6.806016e+01
2.670000e-06	3.574588e-06	9.521789e-10	2.475649e+01	6.845174e+01
2.680000e-06	3.610507e-06	9.575691e-10	2.500525e+01	6.882925e+01
2.690000e-06	3.646297e-06	9.648593e-10	2.525312e+01	6.919305e+01
2.700000e-06	3.681962e-06	9.724217e-10	2.550013e+01	6.954349e+01
2.710000e-06	3.717503e-06	9.785885e-10	2.574628e+01	6.988094e+01
2.720000e-06	3.752823e-06	9.857824e-10	2.599089e+01	7.020575e+01
2.730000e-06	3.787866e-06	9.928409e-10	2.623359e+01	7.051827e+01
2.740000e-06	3.822533e-06	9.973110e-10	2.647368e+01	7.081887e+01
2.750000e-06	3.856743e-06	1.001795e-09	2.671061e+01	7.110789e+01
2.760000e-06	3.890425e-06	1.006952e-09	2.694388e+01	7.138570e+01
2.770000e-06	3.923526e-06	1.010463e-09	2.717313e+01	7.165265e+01
2.780000e-06	3.956207e-06	1.014151e-09	2.739947e+01	7.190911e+01
2.790000e-06	3.988562e-06	1.020073e-09	2.762355e+01	7.215544e+01
2.800000e-06	4.020604e-06	1.027596e-09	2.784546e+01	7.239202e+01
2.810000e-06	4.052435e-06	1.031949e-09	2.806591e+01	7.261924e+01
2.820000e-06	4.084119e-06	1.037503e-09	2.828534e+01	7.283748e+01
2.830000e-06	4.115658e-06	1.042148e-09	2.850378e+01	7.304714e+01
2.840000e-06	4.146999e-06	1.043072e-09	2.872084e+01	7.324863e+01
2.850000e-06	4.178098e-06	1.044577e-09	2.893621e+01	7.344237e+01
2.860000e-06	4.208957e-06	1.046863e-09	2.914993e+01	7.362880e+01
2.870000e-06	4.239484e-06	1.051730e-09	2.936135e+01	7.380836e+01
2.880000e-06	4.269595e-06	1.057113e-09	2.956989e+01	7.398149e+01
2.890000e-06	4.299384e-06	1.063834e-09	2.977620e+01	7.414866e+01
2.900000e-06	4.328931e-06	1.070136e-09	2.998083e+01	7.431032e+01
