# Temperatura_=_9.47
# Concentracion g/m^3_=_1620.0
# C_Vs_to_Am_M_A/Vsm_=_65563218390.804596
# pendiente_HvsI_1/m_=_3716.3
# ordenada_HvsI_A/m_=_1297.0
# frecuencia_Hz_=_135104.3580536438

Tiempo_(s)	Campo_(V.s)	Magnetizacion_(V.s)	Campo_(kA/m)	Magnetizacion_(A/m)
0.000000e+00	-5.529928e-06	-1.390051e-09	-3.836613e+01	-9.248505e+01
1.000000e-08	-5.530092e-06	-1.388491e-09	-3.836726e+01	-9.247449e+01
2.000000e-08	-5.530030e-06	-1.385426e-09	-3.836684e+01	-9.246607e+01
3.000000e-08	-5.529641e-06	-1.380073e-09	-3.836414e+01	-9.246006e+01
4.000000e-08	-5.528823e-06	-1.373639e-09	-3.835846e+01	-9.245671e+01
5.000000e-08	-5.527524e-06	-1.369464e-09	-3.834945e+01	-9.245619e+01
6.000000e-08	-5.525646e-06	-1.370049e-09	-3.833642e+01	-9.245865e+01
7.000000e-08	-5.523151e-06	-1.389752e-09	-3.831911e+01	-9.246415e+01
8.000000e-08	-5.520107e-06	-1.385023e-09	-3.829799e+01	-9.247267e+01
9.000000e-08	-5.516563e-06	-1.338697e-09	-3.827340e+01	-9.248414e+01
1.000000e-07	-5.512603e-06	-1.340059e-09	-3.824593e+01	-9.249838e+01
1.100000e-07	-5.508303e-06	-1.427883e-09	-3.821609e+01	-9.251513e+01
1.200000e-07	-5.503778e-06	-1.408731e-09	-3.818470e+01	-9.253405e+01
1.300000e-07	-5.499055e-06	-1.356689e-09	-3.815194e+01	-9.255470e+01
1.400000e-07	-5.493925e-06	-1.303896e-09	-3.811634e+01	-9.257656e+01
1.500000e-07	-5.488399e-06	-1.396467e-09	-3.807800e+01	-9.259902e+01
1.600000e-07	-5.482530e-06	-1.395312e-09	-3.803729e+01	-9.262140e+01
1.700000e-07	-5.476299e-06	-1.351341e-09	-3.799406e+01	-9.264296e+01
1.800000e-07	-5.469685e-06	-1.349676e-09	-3.794817e+01	-9.266287e+01
1.900000e-07	-5.462674e-06	-1.432685e-09	-3.789953e+01	-9.268029e+01
2.000000e-07	-5.455278e-06	-1.451935e-09	-3.784821e+01	-9.269432e+01
2.100000e-07	-5.447623e-06	-1.386307e-09	-3.779510e+01	-9.270405e+01
2.200000e-07	-5.439742e-06	-1.371033e-09	-3.774043e+01	-9.270853e+01
2.300000e-07	-5.431553e-06	-1.407320e-09	-3.768361e+01	-9.270687e+01
2.400000e-07	-5.422928e-06	-1.446240e-09	-3.762377e+01	-9.269816e+01
2.500000e-07	-5.413718e-06	-1.410243e-09	-3.755988e+01	-9.268154e+01
2.600000e-07	-5.403803e-06	-1.418827e-09	-3.749108e+01	-9.265620e+01
2.700000e-07	-5.393178e-06	-1.406498e-09	-3.741737e+01	-9.262142e+01
2.800000e-07	-5.382046e-06	-1.409862e-09	-3.734014e+01	-9.257653e+01
2.900000e-07	-5.370451e-06	-1.368204e-09	-3.725969e+01	-9.252097e+01
3.000000e-07	-5.358476e-06	-1.389483e-09	-3.717661e+01	-9.245429e+01
3.100000e-07	-5.346148e-06	-1.384657e-09	-3.709108e+01	-9.237613e+01
3.200000e-07	-5.333457e-06	-1.420019e-09	-3.700303e+01	-9.228628e+01
3.300000e-07	-5.320374e-06	-1.396205e-09	-3.691226e+01	-9.218465e+01
3.400000e-07	-5.306924e-06	-1.394904e-09	-3.681895e+01	-9.207125e+01
3.500000e-07	-5.293091e-06	-1.386378e-09	-3.672297e+01	-9.194627e+01
3.600000e-07	-5.278827e-06	-1.395923e-09	-3.662401e+01	-9.180997e+01
3.700000e-07	-5.264146e-06	-1.351074e-09	-3.652216e+01	-9.166279e+01
3.800000e-07	-5.249022e-06	-1.371079e-09	-3.641723e+01	-9.150524e+01
3.900000e-07	-5.233322e-06	-1.407329e-09	-3.630830e+01	-9.133795e+01
4.000000e-07	-5.216977e-06	-1.373268e-09	-3.619491e+01	-9.116168e+01
4.100000e-07	-5.200255e-06	-1.335305e-09	-3.607889e+01	-9.097721e+01
4.200000e-07	-5.183318e-06	-1.391861e-09	-3.596138e+01	-9.078545e+01
4.300000e-07	-5.166015e-06	-1.401047e-09	-3.584133e+01	-9.058733e+01
4.400000e-07	-5.148382e-06	-1.321887e-09	-3.571900e+01	-9.038382e+01
4.500000e-07	-5.130483e-06	-1.349248e-09	-3.559482e+01	-9.017592e+01
4.600000e-07	-5.112164e-06	-1.398658e-09	-3.546772e+01	-8.996462e+01
4.700000e-07	-5.093354e-06	-1.335537e-09	-3.533722e+01	-8.975091e+01
4.800000e-07	-5.074165e-06	-1.298884e-09	-3.520408e+01	-8.953572e+01
4.900000e-07	-5.054641e-06	-1.377565e-09	-3.506863e+01	-8.931997e+01
5.000000e-07	-5.034850e-06	-1.356057e-09	-3.493132e+01	-8.910449e+01
5.100000e-07	-5.014875e-06	-1.313691e-09	-3.479274e+01	-8.889003e+01
5.200000e-07	-4.994619e-06	-1.363588e-09	-3.465221e+01	-8.867726e+01
5.300000e-07	-4.974016e-06	-1.383003e-09	-3.450926e+01	-8.846676e+01
5.400000e-07	-4.953124e-06	-1.300407e-09	-3.436432e+01	-8.825898e+01
5.500000e-07	-4.931974e-06	-1.322919e-09	-3.421758e+01	-8.805428e+01
5.600000e-07	-4.910418e-06	-1.351967e-09	-3.406803e+01	-8.785288e+01
5.700000e-07	-4.888447e-06	-1.298152e-09	-3.391559e+01	-8.765490e+01
5.800000e-07	-4.866194e-06	-1.281466e-09	-3.376121e+01	-8.746034e+01
5.900000e-07	-4.843631e-06	-1.346756e-09	-3.360466e+01	-8.726908e+01
6.000000e-07	-4.820616e-06	-1.319885e-09	-3.344499e+01	-8.708090e+01
6.100000e-07	-4.797214e-06	-1.289253e-09	-3.328263e+01	-8.689548e+01
6.200000e-07	-4.773585e-06	-1.316465e-09	-3.311869e+01	-8.671242e+01
6.300000e-07	-4.749758e-06	-1.315395e-09	-3.295338e+01	-8.653123e+01
6.400000e-07	-4.725666e-06	-1.272283e-09	-3.278623e+01	-8.635135e+01
6.500000e-07	-4.701322e-06	-1.291296e-09	-3.261734e+01	-8.617219e+01
6.600000e-07	-4.676661e-06	-1.302527e-09	-3.244624e+01	-8.599311e+01
6.700000e-07	-4.651520e-06	-1.276889e-09	-3.227182e+01	-8.581345e+01
6.800000e-07	-4.625759e-06	-1.277706e-09	-3.209309e+01	-8.563253e+01
6.900000e-07	-4.599339e-06	-1.299098e-09	-3.190979e+01	-8.544971e+01
7.000000e-07	-4.572496e-06	-1.286334e-09	-3.172355e+01	-8.526435e+01
7.100000e-07	-4.545328e-06	-1.275963e-09	-3.153507e+01	-8.507583e+01
7.200000e-07	-4.517848e-06	-1.278381e-09	-3.134441e+01	-8.488359e+01
7.300000e-07	-4.490183e-06	-1.262910e-09	-3.115247e+01	-8.468715e+01
7.400000e-07	-4.462343e-06	-1.251533e-09	-3.095932e+01	-8.448604e+01
7.500000e-07	-4.434259e-06	-1.257289e-09	-3.076448e+01	-8.427992e+01
7.600000e-07	-4.405930e-06	-1.259508e-09	-3.056794e+01	-8.406848e+01
7.700000e-07	-4.377314e-06	-1.248829e-09	-3.036940e+01	-8.385151e+01
7.800000e-07	-4.348276e-06	-1.250171e-09	-3.016794e+01	-8.362887e+01
7.900000e-07	-4.318906e-06	-1.241943e-09	-2.996417e+01	-8.340052e+01
8.000000e-07	-4.289286e-06	-1.231843e-09	-2.975867e+01	-8.316646e+01
8.100000e-07	-4.259406e-06	-1.226805e-09	-2.955136e+01	-8.292680e+01
8.200000e-07	-4.229235e-06	-1.233138e-09	-2.934204e+01	-8.268167e+01
8.300000e-07	-4.198724e-06	-1.225523e-09	-2.913036e+01	-8.243130e+01
8.400000e-07	-4.167946e-06	-1.226716e-09	-2.891682e+01	-8.217594e+01
8.500000e-07	-4.136878e-06	-1.228142e-09	-2.870128e+01	-8.191588e+01
8.600000e-07	-4.105535e-06	-1.223229e-09	-2.848382e+01	-8.165145e+01
8.700000e-07	-4.074009e-06	-1.207340e-09	-2.826510e+01	-8.138299e+01
8.800000e-07	-4.042366e-06	-1.205130e-09	-2.804556e+01	-8.111083e+01
8.900000e-07	-4.010525e-06	-1.195613e-09	-2.782465e+01	-8.083532e+01
9.000000e-07	-3.978414e-06	-1.188302e-09	-2.760187e+01	-8.055678e+01
9.100000e-07	-3.946081e-06	-1.188064e-09	-2.737754e+01	-8.027551e+01
9.200000e-07	-3.913426e-06	-1.194987e-09	-2.715099e+01	-7.999176e+01
9.300000e-07	-3.880350e-06	-1.189047e-09	-2.692151e+01	-7.970576e+01
9.400000e-07	-3.846783e-06	-1.186383e-09	-2.668862e+01	-7.941769e+01
9.500000e-07	-3.812728e-06	-1.183702e-09	-2.645235e+01	-7.912767e+01
9.600000e-07	-3.778263e-06	-1.171942e-09	-2.621324e+01	-7.883576e+01
9.700000e-07	-3.743374e-06	-1.155482e-09	-2.597118e+01	-7.854199e+01
9.800000e-07	-3.708131e-06	-1.148945e-09	-2.572667e+01	-7.824630e+01
9.900000e-07	-3.672652e-06	-1.145507e-09	-2.548052e+01	-7.794860e+01
1.000000e-06	-3.637002e-06	-1.142382e-09	-2.523318e+01	-7.764875e+01
1.010000e-06	-3.601241e-06	-1.145896e-09	-2.498508e+01	-7.734655e+01
1.020000e-06	-3.565308e-06	-1.147773e-09	-2.473578e+01	-7.704177e+01
1.030000e-06	-3.529210e-06	-1.140795e-09	-2.448533e+01	-7.673416e+01
1.040000e-06	-3.492961e-06	-1.130352e-09	-2.423384e+01	-7.642340e+01
1.050000e-06	-3.456486e-06	-1.120913e-09	-2.398078e+01	-7.610921e+01
1.060000e-06	-3.419773e-06	-1.106655e-09	-2.372607e+01	-7.579126e+01
1.070000e-06	-3.382816e-06	-1.097502e-09	-2.346966e+01	-7.546925e+01
1.080000e-06	-3.345563e-06	-1.096037e-09	-2.321120e+01	-7.514285e+01
1.090000e-06	-3.307993e-06	-1.102315e-09	-2.295055e+01	-7.481180e+01
1.100000e-06	-3.270218e-06	-1.104082e-09	-2.268847e+01	-7.447582e+01
1.110000e-06	-3.232272e-06	-1.107053e-09	-2.242521e+01	-7.413467e+01
1.120000e-06	-3.194067e-06	-1.101075e-09	-2.216014e+01	-7.378817e+01
1.130000e-06	-3.155648e-06	-1.087835e-09	-2.189359e+01	-7.343616e+01
1.140000e-06	-3.117016e-06	-1.069757e-09	-2.162557e+01	-7.307853e+01
1.150000e-06	-3.078121e-06	-1.060064e-09	-2.135572e+01	-7.271520e+01
1.160000e-06	-3.038970e-06	-1.053927e-09	-2.108409e+01	-7.234617e+01
1.170000e-06	-2.999607e-06	-1.053738e-09	-2.081099e+01	-7.197145e+01
1.180000e-06	-2.960107e-06	-1.052788e-09	-2.053695e+01	-7.159112e+01
1.190000e-06	-2.920493e-06	-1.050148e-09	-2.026211e+01	-7.120527e+01
1.200000e-06	-2.880754e-06	-1.040696e-09	-1.998640e+01	-7.081405e+01
1.210000e-06	-2.840892e-06	-1.028574e-09	-1.970984e+01	-7.041763e+01
1.220000e-06	-2.800976e-06	-1.014295e-09	-1.943291e+01	-7.001617e+01
1.230000e-06	-2.760918e-06	-1.004401e-09	-1.915499e+01	-6.960988e+01
1.240000e-06	-2.720644e-06	-1.001968e-09	-1.887558e+01	-6.919896e+01
1.250000e-06	-2.680167e-06	-1.005990e-09	-1.859475e+01	-6.878360e+01
1.260000e-06	-2.639414e-06	-1.008970e-09	-1.831201e+01	-6.836397e+01
1.270000e-06	-2.598405e-06	-1.006167e-09	-1.802749e+01	-6.794024e+01
1.280000e-06	-2.557151e-06	-9.981031e-10	-1.774128e+01	-6.751251e+01
1.290000e-06	-2.515582e-06	-9.877978e-10	-1.745288e+01	-6.708087e+01
1.300000e-06	-2.473717e-06	-9.748746e-10	-1.716242e+01	-6.664537e+01
1.310000e-06	-2.431525e-06	-9.625627e-10	-1.686970e+01	-6.620599e+01
1.320000e-06	-2.388887e-06	-9.555868e-10	-1.657388e+01	-6.576267e+01
1.330000e-06	-2.345965e-06	-9.504084e-10	-1.627609e+01	-6.531526e+01
1.340000e-06	-2.302893e-06	-9.454883e-10	-1.597726e+01	-6.486360e+01
1.350000e-06	-2.259649e-06	-9.411618e-10	-1.567724e+01	-6.440742e+01
1.360000e-06	-2.216249e-06	-9.351802e-10	-1.537613e+01	-6.394643e+01
1.370000e-06	-2.172689e-06	-9.220601e-10	-1.507391e+01	-6.348025e+01
1.380000e-06	-2.129022e-06	-9.073591e-10	-1.477096e+01	-6.300846e+01
1.390000e-06	-2.085277e-06	-8.937312e-10	-1.446746e+01	-6.253060e+01
1.400000e-06	-2.041454e-06	-8.844251e-10	-1.416342e+01	-6.204616e+01
1.410000e-06	-1.997513e-06	-8.785842e-10	-1.385856e+01	-6.155458e+01
1.420000e-06	-1.953511e-06	-8.779031e-10	-1.355327e+01	-6.105529e+01
1.430000e-06	-1.909452e-06	-8.762176e-10	-1.324760e+01	-6.054768e+01
1.440000e-06	-1.865278e-06	-8.718327e-10	-1.294113e+01	-6.003115e+01
1.450000e-06	-1.821015e-06	-8.616973e-10	-1.263403e+01	-5.950507e+01
1.460000e-06	-1.776652e-06	-8.471152e-10	-1.232624e+01	-5.896883e+01
1.470000e-06	-1.732149e-06	-8.295468e-10	-1.201749e+01	-5.842181e+01
1.480000e-06	-1.687501e-06	-8.147582e-10	-1.170772e+01	-5.786342e+01
1.490000e-06	-1.642710e-06	-8.025475e-10	-1.139697e+01	-5.729309e+01
1.500000e-06	-1.597676e-06	-7.950880e-10	-1.108453e+01	-5.671027e+01
1.510000e-06	-1.552480e-06	-7.907099e-10	-1.077097e+01	-5.611444e+01
1.520000e-06	-1.507257e-06	-7.875638e-10	-1.045721e+01	-5.550512e+01
1.530000e-06	-1.461930e-06	-7.798381e-10	-1.014274e+01	-5.488183e+01
1.540000e-06	-1.416523e-06	-7.663750e-10	-9.827706e+00	-5.424417e+01
1.550000e-06	-1.371049e-06	-7.474140e-10	-9.512211e+00	-5.359171e+01
1.560000e-06	-1.325428e-06	-7.296353e-10	-9.195698e+00	-5.292409e+01
1.570000e-06	-1.279731e-06	-7.151312e-10	-8.878656e+00	-5.224095e+01
1.580000e-06	-1.233991e-06	-7.037181e-10	-8.561315e+00	-5.154193e+01
1.590000e-06	-1.188167e-06	-6.968730e-10	-8.243391e+00	-5.082670e+01
1.600000e-06	-1.142267e-06	-6.940147e-10	-7.924943e+00	-5.009491e+01
1.610000e-06	-1.096293e-06	-6.891959e-10	-7.605976e+00	-4.934622e+01
1.620000e-06	-1.050245e-06	-6.774566e-10	-7.286501e+00	-4.858023e+01
1.630000e-06	-1.004164e-06	-6.642027e-10	-6.966794e+00	-4.779657e+01
1.640000e-06	-9.580125e-07	-6.495820e-10	-6.646602e+00	-4.699479e+01
1.650000e-06	-9.117523e-07	-6.339964e-10	-6.325653e+00	-4.617440e+01
1.660000e-06	-8.654069e-07	-6.168313e-10	-6.004113e+00	-4.533490e+01
1.670000e-06	-8.189732e-07	-6.010533e-10	-5.681960e+00	-4.447568e+01
1.680000e-06	-7.724667e-07	-5.861337e-10	-5.359303e+00	-4.359612e+01
1.690000e-06	-7.259131e-07	-5.725188e-10	-5.036318e+00	-4.269552e+01
1.700000e-06	-6.793298e-07	-5.584627e-10	-4.713127e+00	-4.177310e+01
1.710000e-06	-6.327159e-07	-5.456067e-10	-4.389724e+00	-4.082804e+01
1.720000e-06	-5.860821e-07	-5.320911e-10	-4.066183e+00	-3.985948e+01
1.730000e-06	-5.394157e-07	-5.176517e-10	-3.742416e+00	-3.886648e+01
1.740000e-06	-4.926621e-07	-5.008783e-10	-3.418044e+00	-3.784807e+01
1.750000e-06	-4.457848e-07	-4.813842e-10	-3.092813e+00	-3.680324e+01
1.760000e-06	-3.988351e-07	-4.609900e-10	-2.767081e+00	-3.573096e+01
1.770000e-06	-3.518867e-07	-4.430614e-10	-2.441357e+00	-3.463022e+01
1.780000e-06	-3.049780e-07	-4.277313e-10	-2.115909e+00	-3.349998e+01
1.790000e-06	-2.581002e-07	-4.141375e-10	-1.790675e+00	-3.233924e+01
1.800000e-06	-2.112114e-07	-4.006371e-10	-1.465365e+00	-3.114705e+01
1.810000e-06	-1.642926e-07	-3.844061e-10	-1.139847e+00	-2.992251e+01
1.820000e-06	-1.173327e-07	-3.647622e-10	-8.140434e-01	-2.866481e+01
1.830000e-06	-7.035385e-08	-3.435350e-10	-4.881085e-01	-2.737325e+01
1.840000e-06	-2.337649e-08	-3.236491e-10	-1.621839e-01	-2.604721e+01
1.850000e-06	2.358085e-08	-3.049801e-10	1.636018e-01	-2.468626e+01
1.860000e-06	7.047479e-08	-2.864369e-10	4.889476e-01	-2.329008e+01
1.870000e-06	1.173875e-07	-2.675217e-10	8.144235e-01	-2.185856e+01
1.880000e-06	1.643133e-07	-2.466283e-10	1.139990e+00	-2.039176e+01
1.890000e-06	2.111492e-07	-2.256759e-10	1.464934e+00	-1.888992e+01
1.900000e-06	2.579111e-07	-2.052245e-10	1.789363e+00	-1.735352e+01
1.910000e-06	3.047107e-07	-1.832194e-10	2.114055e+00	-1.578323e+01
1.920000e-06	3.515421e-07	-1.617985e-10	2.438966e+00	-1.417997e+01
1.930000e-06	3.983437e-07	-1.426041e-10	2.763671e+00	-1.254486e+01
1.940000e-06	4.451052e-07	-1.221357e-10	3.088098e+00	-1.087925e+01
1.950000e-06	4.918117e-07	-9.793525e-11	3.412144e+00	-9.184704e+00
1.960000e-06	5.384657e-07	-7.362184e-11	3.735825e+00	-7.463001e+00
1.970000e-06	5.851245e-07	-5.015787e-11	4.059540e+00	-5.716119e+00
1.980000e-06	6.317291e-07	-2.630156e-11	4.382878e+00	-3.946225e+00
1.990000e-06	6.782228e-07	-9.064716e-13	4.705447e+00	-2.155658e+00
2.000000e-06	7.247331e-07	2.494935e-11	5.028131e+00	-3.469117e-01
2.010000e-06	7.712061e-07	5.281550e-11	5.350556e+00	1.477386e+00
2.020000e-06	8.175195e-07	8.149236e-11	5.671874e+00	3.314494e+00
2.030000e-06	8.637984e-07	1.080329e-10	5.992953e+00	5.161581e+00
2.040000e-06	9.101370e-07	1.306205e-10	6.314446e+00	7.015750e+00
2.050000e-06	9.564183e-07	1.527362e-10	6.635541e+00	8.874062e+00
2.060000e-06	1.002555e-06	1.784685e-10	6.955634e+00	1.073356e+01
2.070000e-06	1.048569e-06	2.060865e-10	7.274873e+00	1.259131e+01
2.080000e-06	1.094495e-06	2.345126e-10	7.593505e+00	1.444440e+01
2.090000e-06	1.140390e-06	2.635438e-10	7.911922e+00	1.628997e+01
2.100000e-06	1.186211e-06	2.903495e-10	8.229822e+00	1.812525e+01
2.110000e-06	1.231937e-06	3.142672e-10	8.547063e+00	1.994757e+01
2.120000e-06	1.277652e-06	3.368148e-10	8.864233e+00	2.175438e+01
2.130000e-06	1.323261e-06	3.590243e-10	9.180665e+00	2.354326e+01
2.140000e-06	1.368715e-06	3.806005e-10	9.496020e+00	2.531196e+01
2.150000e-06	1.414040e-06	4.034914e-10	9.810482e+00	2.705837e+01
2.160000e-06	1.459256e-06	4.293937e-10	1.012419e+01	2.878058e+01
2.170000e-06	1.504321e-06	4.562597e-10	1.043684e+01	3.047683e+01
2.180000e-06	1.549246e-06	4.814244e-10	1.074853e+01	3.214558e+01
2.190000e-06	1.594067e-06	5.049383e-10	1.105949e+01	3.378545e+01
2.200000e-06	1.638797e-06	5.275537e-10	1.136982e+01	3.539526e+01
2.210000e-06	1.683494e-06	5.460980e-10	1.167993e+01	3.697402e+01
2.220000e-06	1.728036e-06	5.617121e-10	1.198895e+01	3.852092e+01
2.230000e-06	1.772449e-06	5.775218e-10	1.229709e+01	4.003530e+01
2.240000e-06	1.816804e-06	5.965861e-10	1.260482e+01	4.151669e+01
2.250000e-06	1.861027e-06	6.163016e-10	1.291163e+01	4.296476e+01
2.260000e-06	1.905154e-06	6.346946e-10	1.321778e+01	4.437934e+01
2.270000e-06	1.949169e-06	6.550422e-10	1.352315e+01	4.576038e+01
2.280000e-06	1.993075e-06	6.754934e-10	1.382777e+01	4.710795e+01
2.290000e-06	2.036934e-06	6.964728e-10	1.413206e+01	4.842223e+01
2.300000e-06	2.080723e-06	7.165340e-10	1.443586e+01	4.970347e+01
2.310000e-06	2.124449e-06	7.343220e-10	1.473923e+01	5.095205e+01
2.320000e-06	2.168117e-06	7.510546e-10	1.504219e+01	5.216837e+01
2.330000e-06	2.211716e-06	7.658611e-10	1.534468e+01	5.335290e+01
2.340000e-06	2.255197e-06	7.789035e-10	1.564635e+01	5.450617e+01
2.350000e-06	2.298510e-06	7.921700e-10	1.594685e+01	5.562873e+01
2.360000e-06	2.341612e-06	8.060948e-10	1.624589e+01	5.672115e+01
2.370000e-06	2.384459e-06	8.203614e-10	1.654316e+01	5.778403e+01
2.380000e-06	2.426972e-06	8.346126e-10	1.683811e+01	5.881798e+01
2.390000e-06	2.469145e-06	8.496630e-10	1.713070e+01	5.982362e+01
2.400000e-06	2.510999e-06	8.651534e-10	1.742108e+01	6.080154e+01
2.410000e-06	2.552512e-06	8.788027e-10	1.770909e+01	6.175237e+01
2.420000e-06	2.593745e-06	8.899291e-10	1.799516e+01	6.267670e+01
2.430000e-06	2.634748e-06	8.991966e-10	1.827964e+01	6.357515e+01
2.440000e-06	2.675490e-06	9.080815e-10	1.856230e+01	6.444829e+01
2.450000e-06	2.715992e-06	9.181480e-10	1.884330e+01	6.529671e+01
2.460000e-06	2.756347e-06	9.305495e-10	1.912328e+01	6.612100e+01
2.470000e-06	2.796524e-06	9.470112e-10	1.940202e+01	6.692172e+01
2.480000e-06	2.836505e-06	9.646268e-10	1.967941e+01	6.769944e+01
2.490000e-06	2.876350e-06	9.791044e-10	1.995585e+01	6.845474e+01
2.500000e-06	2.915998e-06	9.903695e-10	2.023093e+01	6.918817e+01
2.510000e-06	2.955478e-06	9.976656e-10	2.050483e+01	6.990031e+01
2.520000e-06	2.994906e-06	1.001731e-09	2.077838e+01	7.059171e+01
2.530000e-06	3.034172e-06	1.005700e-09	2.105080e+01	7.126296e+01
2.540000e-06	3.073191e-06	1.013133e-09	2.132151e+01	7.191460e+01
2.550000e-06	3.111975e-06	1.022608e-09	2.159060e+01	7.254722e+01
2.560000e-06	3.150536e-06	1.034099e-09	2.185813e+01	7.316139e+01
2.570000e-06	3.188871e-06	1.047130e-09	2.212409e+01	7.375768e+01
2.580000e-06	3.226970e-06	1.057732e-09	2.238842e+01	7.433665e+01
2.590000e-06	3.264887e-06	1.064780e-09	2.265148e+01	7.489888e+01
2.600000e-06	3.302685e-06	1.069150e-09	2.291372e+01	7.544491e+01
2.610000e-06	3.340287e-06	1.072369e-09	2.317460e+01	7.597531e+01
2.620000e-06	3.377618e-06	1.076291e-09	2.343360e+01	7.649061e+01
2.630000e-06	3.414651e-06	1.082264e-09	2.369053e+01	7.699134e+01
2.640000e-06	3.451370e-06	1.090802e-09	2.394528e+01	7.747800e+01
2.650000e-06	3.487825e-06	1.100281e-09	2.419821e+01	7.795108e+01
2.660000e-06	3.524082e-06	1.109675e-09	2.444975e+01	7.841105e+01
2.670000e-06	3.560135e-06	1.118413e-09	2.469989e+01	7.885835e+01
2.680000e-06	3.595997e-06	1.125581e-09	2.494869e+01	7.929339e+01
2.690000e-06	3.631760e-06	1.130234e-09	2.519682e+01	7.971658e+01
2.700000e-06	3.667430e-06	1.134023e-09	2.544429e+01	8.012826e+01
2.710000e-06	3.702901e-06	1.139195e-09	2.569039e+01	8.052877e+01
2.720000e-06	3.738082e-06	1.146372e-09	2.593446e+01	8.091843e+01
2.730000e-06	3.772961e-06	1.155232e-09	2.617645e+01	8.129750e+01
2.740000e-06	3.807494e-06	1.164082e-09	2.641604e+01	8.166626e+01
2.750000e-06	3.841609e-06	1.170561e-09	2.665273e+01	8.202494e+01
2.760000e-06	3.875259e-06	1.174779e-09	2.688619e+01	8.237375e+01
2.770000e-06	3.908383e-06	1.178742e-09	2.711600e+01	8.271289e+01
2.780000e-06	3.941127e-06	1.183807e-09	2.734318e+01	8.304256e+01
2.790000e-06	3.973619e-06	1.189935e-09	2.756860e+01	8.336294e+01
2.800000e-06	4.005837e-06	1.196189e-09	2.779212e+01	8.367419e+01
2.810000e-06	4.037828e-06	1.202220e-09	2.801407e+01	8.397651e+01
2.820000e-06	4.069607e-06	1.207120e-09	2.823456e+01	8.427006e+01
2.830000e-06	4.101224e-06	1.210702e-09	2.845391e+01	8.455504e+01
2.840000e-06	4.132625e-06	1.213773e-09	2.867177e+01	8.483164e+01
2.850000e-06	4.163733e-06	1.217023e-09	2.888759e+01	8.510007e+01
2.860000e-06	4.194604e-06	1.221866e-09	2.910177e+01	8.536055e+01
2.870000e-06	4.225136e-06	1.228824e-09	2.931360e+01	8.561334e+01
2.880000e-06	4.255282e-06	1.235675e-09	2.952275e+01	8.585868e+01
2.890000e-06	4.285177e-06	1.242127e-09	2.973016e+01	8.609685e+01
2.900000e-06	4.314789e-06	1.249218e-09	2.993561e+01	8.632816e+01
