# Temperatura_=_13.21
# Concentracion g/m^3_=_1620.0
# C_Vs_to_Am_M_A/Vsm_=_65563218390.804596
# pendiente_HvsI_1/m_=_3716.3
# ordenada_HvsI_A/m_=_1297.0
# frecuencia_Hz_=_135102.3719538641

Tiempo_(s)	Campo_(V.s)	Magnetizacion_(V.s)	Campo_(kA/m)	Magnetizacion_(A/m)
0.000000e+00	-5.502912e-06	-1.486315e-09	-3.835957e+01	-9.899328e+01
1.000000e-08	-5.503139e-06	-1.485421e-09	-3.836115e+01	-9.895952e+01
2.000000e-08	-5.503181e-06	-1.483627e-09	-3.836144e+01	-9.892463e+01
3.000000e-08	-5.502847e-06	-1.482716e-09	-3.835911e+01	-9.888875e+01
4.000000e-08	-5.502084e-06	-1.478977e-09	-3.835379e+01	-9.885202e+01
5.000000e-08	-5.500896e-06	-1.471817e-09	-3.834551e+01	-9.881456e+01
6.000000e-08	-5.499122e-06	-1.462267e-09	-3.833315e+01	-9.877645e+01
7.000000e-08	-5.496737e-06	-1.456857e-09	-3.831652e+01	-9.873773e+01
8.000000e-08	-5.493738e-06	-1.472656e-09	-3.829561e+01	-9.869843e+01
9.000000e-08	-5.490192e-06	-1.500873e-09	-3.827089e+01	-9.865848e+01
1.000000e-07	-5.486233e-06	-1.482126e-09	-3.824330e+01	-9.861780e+01
1.100000e-07	-5.481927e-06	-1.450188e-09	-3.821328e+01	-9.857626e+01
1.200000e-07	-5.477434e-06	-1.453356e-09	-3.818197e+01	-9.853364e+01
1.300000e-07	-5.472756e-06	-1.467272e-09	-3.814935e+01	-9.848970e+01
1.400000e-07	-5.467667e-06	-1.451943e-09	-3.811388e+01	-9.844413e+01
1.500000e-07	-5.462178e-06	-1.444361e-09	-3.807562e+01	-9.839657e+01
1.600000e-07	-5.456327e-06	-1.474308e-09	-3.803483e+01	-9.834661e+01
1.700000e-07	-5.450057e-06	-1.510853e-09	-3.799113e+01	-9.829379e+01
1.800000e-07	-5.443385e-06	-1.475478e-09	-3.794462e+01	-9.823762e+01
1.900000e-07	-5.436354e-06	-1.461376e-09	-3.789560e+01	-9.817759e+01
2.000000e-07	-5.429015e-06	-1.447674e-09	-3.784444e+01	-9.811313e+01
2.100000e-07	-5.421406e-06	-1.462168e-09	-3.779140e+01	-9.804370e+01
2.200000e-07	-5.413511e-06	-1.461770e-09	-3.773637e+01	-9.796871e+01
2.300000e-07	-5.405337e-06	-1.480637e-09	-3.767939e+01	-9.788763e+01
2.400000e-07	-5.396785e-06	-1.489230e-09	-3.761978e+01	-9.779990e+01
2.500000e-07	-5.387600e-06	-1.492729e-09	-3.755575e+01	-9.770502e+01
2.600000e-07	-5.377689e-06	-1.475248e-09	-3.748666e+01	-9.760250e+01
2.700000e-07	-5.367292e-06	-1.435667e-09	-3.741419e+01	-9.749194e+01
2.800000e-07	-5.356391e-06	-1.420294e-09	-3.733820e+01	-9.737297e+01
2.900000e-07	-5.344953e-06	-1.438323e-09	-3.725847e+01	-9.724530e+01
3.000000e-07	-5.333159e-06	-1.456541e-09	-3.717626e+01	-9.710872e+01
3.100000e-07	-5.320964e-06	-1.433281e-09	-3.709125e+01	-9.696310e+01
3.200000e-07	-5.308321e-06	-1.451908e-09	-3.700312e+01	-9.680840e+01
3.300000e-07	-5.295285e-06	-1.472746e-09	-3.691224e+01	-9.664468e+01
3.400000e-07	-5.281939e-06	-1.460148e-09	-3.681921e+01	-9.647209e+01
3.500000e-07	-5.268163e-06	-1.402308e-09	-3.672318e+01	-9.629088e+01
3.600000e-07	-5.253910e-06	-1.421769e-09	-3.662383e+01	-9.610140e+01
3.700000e-07	-5.239377e-06	-1.437841e-09	-3.652252e+01	-9.590408e+01
3.800000e-07	-5.224416e-06	-1.424639e-09	-3.641823e+01	-9.569944e+01
3.900000e-07	-5.208733e-06	-1.412067e-09	-3.630891e+01	-9.548807e+01
4.000000e-07	-5.192510e-06	-1.443439e-09	-3.619582e+01	-9.527066e+01
4.100000e-07	-5.175957e-06	-1.413925e-09	-3.608043e+01	-9.504792e+01
4.200000e-07	-5.159097e-06	-1.384955e-09	-3.596291e+01	-9.482063e+01
4.300000e-07	-5.141939e-06	-1.416321e-09	-3.584330e+01	-9.458959e+01
4.400000e-07	-5.124499e-06	-1.432907e-09	-3.572173e+01	-9.435564e+01
4.500000e-07	-5.106693e-06	-1.386160e-09	-3.559761e+01	-9.411961e+01
4.600000e-07	-5.088486e-06	-1.394856e-09	-3.547069e+01	-9.388233e+01
4.700000e-07	-5.069870e-06	-1.422185e-09	-3.534093e+01	-9.364459e+01
4.800000e-07	-5.050840e-06	-1.378313e-09	-3.520827e+01	-9.340717e+01
4.900000e-07	-5.031464e-06	-1.355427e-09	-3.507320e+01	-9.317077e+01
5.000000e-07	-5.011838e-06	-1.401743e-09	-3.493640e+01	-9.293605e+01
5.100000e-07	-4.992012e-06	-1.386896e-09	-3.479819e+01	-9.270359e+01
5.200000e-07	-4.971898e-06	-1.343856e-09	-3.465799e+01	-9.247387e+01
5.300000e-07	-4.951434e-06	-1.386271e-09	-3.451534e+01	-9.224728e+01
5.400000e-07	-4.930627e-06	-1.403508e-09	-3.437030e+01	-9.202413e+01
5.500000e-07	-4.909493e-06	-1.338593e-09	-3.422298e+01	-9.180460e+01
5.600000e-07	-4.887960e-06	-1.328018e-09	-3.407287e+01	-9.158877e+01
5.700000e-07	-4.866070e-06	-1.368164e-09	-3.392028e+01	-9.137662e+01
5.800000e-07	-4.843933e-06	-1.335228e-09	-3.376597e+01	-9.116800e+01
5.900000e-07	-4.821443e-06	-1.318365e-09	-3.360920e+01	-9.096269e+01
6.000000e-07	-4.798580e-06	-1.360959e-09	-3.344982e+01	-9.076034e+01
6.100000e-07	-4.775446e-06	-1.356112e-09	-3.328856e+01	-9.056053e+01
6.200000e-07	-4.752016e-06	-1.314090e-09	-3.312524e+01	-9.036276e+01
6.300000e-07	-4.728324e-06	-1.338594e-09	-3.296008e+01	-9.016644e+01
6.400000e-07	-4.704405e-06	-1.348449e-09	-3.279335e+01	-8.997094e+01
6.500000e-07	-4.680197e-06	-1.314767e-09	-3.262460e+01	-8.977559e+01
6.600000e-07	-4.655654e-06	-1.315011e-09	-3.245352e+01	-8.957967e+01
6.700000e-07	-4.630767e-06	-1.340313e-09	-3.228004e+01	-8.938246e+01
6.800000e-07	-4.605303e-06	-1.314665e-09	-3.210253e+01	-8.918323e+01
6.900000e-07	-4.579157e-06	-1.303643e-09	-3.192028e+01	-8.898126e+01
7.000000e-07	-4.552524e-06	-1.321316e-09	-3.173462e+01	-8.877585e+01
7.100000e-07	-4.525490e-06	-1.308425e-09	-3.154618e+01	-8.856636e+01
7.200000e-07	-4.498101e-06	-1.280321e-09	-3.135525e+01	-8.835218e+01
7.300000e-07	-4.470509e-06	-1.297185e-09	-3.116291e+01	-8.813275e+01
7.400000e-07	-4.442761e-06	-1.303151e-09	-3.096949e+01	-8.790761e+01
7.500000e-07	-4.414786e-06	-1.281897e-09	-3.077448e+01	-8.767635e+01
7.600000e-07	-4.386642e-06	-1.279113e-09	-3.057830e+01	-8.743865e+01
7.700000e-07	-4.358288e-06	-1.284318e-09	-3.038065e+01	-8.719426e+01
7.800000e-07	-4.329604e-06	-1.262786e-09	-3.018070e+01	-8.694304e+01
7.900000e-07	-4.300522e-06	-1.253919e-09	-2.997797e+01	-8.668491e+01
8.000000e-07	-4.271069e-06	-1.263096e-09	-2.977266e+01	-8.641990e+01
8.100000e-07	-4.241307e-06	-1.251242e-09	-2.956520e+01	-8.614807e+01
8.200000e-07	-4.211292e-06	-1.240885e-09	-2.935597e+01	-8.586960e+01
8.300000e-07	-4.181025e-06	-1.252608e-09	-2.914499e+01	-8.558471e+01
8.400000e-07	-4.150430e-06	-1.251478e-09	-2.893172e+01	-8.529367e+01
8.500000e-07	-4.119560e-06	-1.235876e-09	-2.871653e+01	-8.499681e+01
8.600000e-07	-4.088490e-06	-1.238115e-09	-2.849994e+01	-8.469447e+01
8.700000e-07	-4.057202e-06	-1.234970e-09	-2.828184e+01	-8.438704e+01
8.800000e-07	-4.025642e-06	-1.217970e-09	-2.806185e+01	-8.407491e+01
8.900000e-07	-3.993908e-06	-1.212503e-09	-2.784064e+01	-8.375845e+01
9.000000e-07	-3.961988e-06	-1.214682e-09	-2.761813e+01	-8.343806e+01
9.100000e-07	-3.929818e-06	-1.201388e-09	-2.739388e+01	-8.311407e+01
9.200000e-07	-3.897353e-06	-1.198583e-09	-2.716757e+01	-8.278681e+01
9.300000e-07	-3.864563e-06	-1.205012e-09	-2.693900e+01	-8.245655e+01
9.400000e-07	-3.831431e-06	-1.199551e-09	-2.670805e+01	-8.212354e+01
9.500000e-07	-3.797808e-06	-1.186556e-09	-2.647367e+01	-8.178795e+01
9.600000e-07	-3.763679e-06	-1.184281e-09	-2.623576e+01	-8.144990e+01
9.700000e-07	-3.729128e-06	-1.171744e-09	-2.599491e+01	-8.110945e+01
9.800000e-07	-3.694194e-06	-1.154541e-09	-2.575140e+01	-8.076661e+01
9.900000e-07	-3.658963e-06	-1.150785e-09	-2.550581e+01	-8.042131e+01
1.000000e-06	-3.623489e-06	-1.152308e-09	-2.525853e+01	-8.007344e+01
1.010000e-06	-3.587843e-06	-1.141993e-09	-2.501005e+01	-7.972283e+01
1.020000e-06	-3.552105e-06	-1.138748e-09	-2.476093e+01	-7.936925e+01
1.030000e-06	-3.516174e-06	-1.140579e-09	-2.451046e+01	-7.901245e+01
1.040000e-06	-3.480041e-06	-1.132625e-09	-2.425858e+01	-7.865214e+01
1.050000e-06	-3.443783e-06	-1.123274e-09	-2.400584e+01	-7.828801e+01
1.060000e-06	-3.407262e-06	-1.120091e-09	-2.375126e+01	-7.791971e+01
1.070000e-06	-3.370481e-06	-1.114002e-09	-2.349486e+01	-7.754692e+01
1.080000e-06	-3.333448e-06	-1.106420e-09	-2.323672e+01	-7.716929e+01
1.090000e-06	-3.296059e-06	-1.106772e-09	-2.297609e+01	-7.678652e+01
1.100000e-06	-3.258418e-06	-1.104591e-09	-2.271370e+01	-7.639831e+01
1.110000e-06	-3.220624e-06	-1.091694e-09	-2.245025e+01	-7.600439e+01
1.120000e-06	-3.182642e-06	-1.083199e-09	-2.218548e+01	-7.560453e+01
1.130000e-06	-3.144343e-06	-1.078236e-09	-2.191851e+01	-7.519857e+01
1.140000e-06	-3.105770e-06	-1.069049e-09	-2.164962e+01	-7.478636e+01
1.150000e-06	-3.066999e-06	-1.063207e-09	-2.137936e+01	-7.436784e+01
1.160000e-06	-3.028099e-06	-1.061251e-09	-2.110820e+01	-7.394299e+01
1.170000e-06	-2.989058e-06	-1.054509e-09	-2.083605e+01	-7.351184e+01
1.180000e-06	-2.949711e-06	-1.042838e-09	-2.056177e+01	-7.307448e+01
1.190000e-06	-2.910152e-06	-1.039472e-09	-2.028602e+01	-7.263107e+01
1.200000e-06	-2.870488e-06	-1.034680e-09	-2.000953e+01	-7.218180e+01
1.210000e-06	-2.830699e-06	-1.023690e-09	-1.973217e+01	-7.172691e+01
1.220000e-06	-2.790705e-06	-1.015841e-09	-1.945338e+01	-7.126668e+01
1.230000e-06	-2.750554e-06	-1.012418e-09	-1.917349e+01	-7.080140e+01
1.240000e-06	-2.710334e-06	-1.006354e-09	-1.889313e+01	-7.033140e+01
1.250000e-06	-2.669985e-06	-1.002120e-09	-1.861187e+01	-6.985702e+01
1.260000e-06	-2.629441e-06	-9.997917e-10	-1.832924e+01	-6.937858e+01
1.270000e-06	-2.588659e-06	-9.930126e-10	-1.804496e+01	-6.889642e+01
1.280000e-06	-2.547656e-06	-9.802605e-10	-1.775914e+01	-6.841082e+01
1.290000e-06	-2.506416e-06	-9.694428e-10	-1.747166e+01	-6.792207e+01
1.300000e-06	-2.464967e-06	-9.572908e-10	-1.718273e+01	-6.743038e+01
1.310000e-06	-2.423209e-06	-9.454190e-10	-1.689164e+01	-6.693594e+01
1.320000e-06	-2.380938e-06	-9.394849e-10	-1.659698e+01	-6.643888e+01
1.330000e-06	-2.338292e-06	-9.382466e-10	-1.629971e+01	-6.593926e+01
1.340000e-06	-2.295502e-06	-9.334818e-10	-1.600143e+01	-6.543706e+01
1.350000e-06	-2.252563e-06	-9.280651e-10	-1.570211e+01	-6.493220e+01
1.360000e-06	-2.209361e-06	-9.201534e-10	-1.540096e+01	-6.442453e+01
1.370000e-06	-2.165899e-06	-9.061239e-10	-1.509799e+01	-6.391381e+01
1.380000e-06	-2.122331e-06	-8.907013e-10	-1.479429e+01	-6.339972e+01
1.390000e-06	-2.078771e-06	-8.786612e-10	-1.449064e+01	-6.288189e+01
1.400000e-06	-2.035124e-06	-8.717924e-10	-1.418639e+01	-6.235986e+01
1.410000e-06	-1.991319e-06	-8.668116e-10	-1.388104e+01	-6.183310e+01
1.420000e-06	-1.947433e-06	-8.645008e-10	-1.357512e+01	-6.130103e+01
1.430000e-06	-1.903440e-06	-8.612569e-10	-1.326845e+01	-6.076300e+01
1.440000e-06	-1.859347e-06	-8.542825e-10	-1.296109e+01	-6.021834e+01
1.450000e-06	-1.815211e-06	-8.422226e-10	-1.265343e+01	-5.966631e+01
1.460000e-06	-1.770977e-06	-8.263794e-10	-1.234508e+01	-5.910617e+01
1.470000e-06	-1.726658e-06	-8.096926e-10	-1.203615e+01	-5.853712e+01
1.480000e-06	-1.682288e-06	-7.960652e-10	-1.172685e+01	-5.795837e+01
1.490000e-06	-1.637740e-06	-7.880540e-10	-1.141631e+01	-5.736912e+01
1.500000e-06	-1.592992e-06	-7.824845e-10	-1.110439e+01	-5.676857e+01
1.510000e-06	-1.548172e-06	-7.770100e-10	-1.079196e+01	-5.615592e+01
1.520000e-06	-1.503283e-06	-7.715657e-10	-1.047905e+01	-5.553039e+01
1.530000e-06	-1.458315e-06	-7.629769e-10	-1.016559e+01	-5.489122e+01
1.540000e-06	-1.413201e-06	-7.513619e-10	-9.851110e+00	-5.423764e+01
1.550000e-06	-1.367968e-06	-7.373827e-10	-9.535800e+00	-5.356895e+01
1.560000e-06	-1.322675e-06	-7.230487e-10	-9.220068e+00	-5.288443e+01
1.570000e-06	-1.277213e-06	-7.079194e-10	-8.903166e+00	-5.218341e+01
1.580000e-06	-1.231644e-06	-6.936315e-10	-8.585517e+00	-5.146523e+01
1.590000e-06	-1.186059e-06	-6.809776e-10	-8.267750e+00	-5.072925e+01
1.600000e-06	-1.140418e-06	-6.707006e-10	-7.949598e+00	-4.997486e+01
1.610000e-06	-1.094597e-06	-6.598047e-10	-7.630190e+00	-4.920143e+01
1.620000e-06	-1.048634e-06	-6.486820e-10	-7.309790e+00	-4.840837e+01
1.630000e-06	-1.002656e-06	-6.384250e-10	-6.989292e+00	-4.759508e+01
1.640000e-06	-9.565917e-07	-6.272894e-10	-6.668186e+00	-4.676094e+01
1.650000e-06	-9.104276e-07	-6.136906e-10	-6.346387e+00	-4.590535e+01
1.660000e-06	-8.642382e-07	-5.979421e-10	-6.024410e+00	-4.502768e+01
1.670000e-06	-8.180520e-07	-5.816423e-10	-5.702457e+00	-4.412728e+01
1.680000e-06	-7.718640e-07	-5.658658e-10	-5.380491e+00	-4.320350e+01
1.690000e-06	-7.256437e-07	-5.505648e-10	-5.058300e+00	-4.225565e+01
1.700000e-06	-6.793434e-07	-5.346989e-10	-4.735550e+00	-4.128302e+01
1.710000e-06	-6.329609e-07	-5.198921e-10	-4.412228e+00	-4.028487e+01
1.720000e-06	-5.864748e-07	-5.071643e-10	-4.088184e+00	-3.926046e+01
1.730000e-06	-5.399574e-07	-4.944848e-10	-3.763922e+00	-3.820900e+01
1.740000e-06	-4.934805e-07	-4.799052e-10	-3.439942e+00	-3.712973e+01
1.750000e-06	-4.469597e-07	-4.623016e-10	-3.115656e+00	-3.602184e+01
1.760000e-06	-4.003562e-07	-4.428704e-10	-2.790793e+00	-3.488456e+01
1.770000e-06	-3.537545e-07	-4.244915e-10	-2.465943e+00	-3.371710e+01
1.780000e-06	-3.072333e-07	-4.059203e-10	-2.141654e+00	-3.251873e+01
1.790000e-06	-2.606425e-07	-3.878864e-10	-1.816880e+00	-3.128874e+01
1.800000e-06	-2.139194e-07	-3.705011e-10	-1.491184e+00	-3.002646e+01
1.810000e-06	-1.672098e-07	-3.538297e-10	-1.165582e+00	-2.873131e+01
1.820000e-06	-1.205856e-07	-3.392321e-10	-8.405752e-01	-2.740277e+01
1.830000e-06	-7.402727e-08	-3.249156e-10	-5.160275e-01	-2.604045e+01
1.840000e-06	-2.741822e-08	-3.082915e-10	-1.911263e-01	-2.464403e+01
1.850000e-06	1.931672e-08	-2.896154e-10	1.346525e-01	-2.321335e+01
1.860000e-06	6.602081e-08	-2.681803e-10	4.602163e-01	-2.174838e+01
1.870000e-06	1.126275e-07	-2.439168e-10	7.851009e-01	-2.024926e+01
1.880000e-06	1.593825e-07	-2.188889e-10	1.111019e+00	-1.871628e+01
1.890000e-06	2.062384e-07	-1.958807e-10	1.437642e+00	-1.714991e+01
1.900000e-06	2.530531e-07	-1.742003e-10	1.763976e+00	-1.555081e+01
1.910000e-06	2.997948e-07	-1.534704e-10	2.089802e+00	-1.391985e+01
1.920000e-06	3.463615e-07	-1.344486e-10	2.414408e+00	-1.225806e+01
1.930000e-06	3.928982e-07	-1.151747e-10	2.738805e+00	-1.056670e+01
1.940000e-06	4.394908e-07	-9.085542e-11	3.063592e+00	-8.847211e+00
1.950000e-06	4.859807e-07	-6.214005e-11	3.387662e+00	-7.101223e+00
1.960000e-06	5.322791e-07	-3.532048e-11	3.710398e+00	-5.330557e+00
1.970000e-06	5.785381e-07	-1.253886e-11	4.032859e+00	-3.537205e+00
1.980000e-06	6.248551e-07	1.165679e-11	4.355725e+00	-1.723324e+00
1.990000e-06	6.711757e-07	3.686726e-11	4.678615e+00	1.087828e-01
2.000000e-06	7.174368e-07	6.297497e-11	5.001091e+00	1.956680e+00
2.010000e-06	7.636409e-07	8.987663e-11	5.323169e+00	3.817819e+00
2.020000e-06	8.098793e-07	1.173225e-10	5.645487e+00	5.689560e+00
2.030000e-06	8.560793e-07	1.428817e-10	5.967536e+00	7.569194e+00
2.040000e-06	9.021875e-07	1.665800e-10	6.288946e+00	9.453963e+00
2.050000e-06	9.481930e-07	1.933278e-10	6.609640e+00	1.134108e+01
2.060000e-06	9.941134e-07	2.215251e-10	6.929741e+00	1.322777e+01
2.070000e-06	1.039979e-06	2.496339e-10	7.249460e+00	1.511126e+01
2.080000e-06	1.085762e-06	2.749104e-10	7.568603e+00	1.698885e+01
2.090000e-06	1.131507e-06	3.009119e-10	7.887482e+00	1.885787e+01
2.100000e-06	1.177161e-06	3.265691e-10	8.205725e+00	2.071578e+01
2.110000e-06	1.222656e-06	3.541477e-10	8.522860e+00	2.256011e+01
2.120000e-06	1.268008e-06	3.816910e-10	8.838999e+00	2.438853e+01
2.130000e-06	1.313316e-06	4.077090e-10	9.154828e+00	2.619885e+01
2.140000e-06	1.358572e-06	4.309658e-10	9.470304e+00	2.798904e+01
2.150000e-06	1.403740e-06	4.513093e-10	9.785158e+00	2.975720e+01
2.160000e-06	1.448808e-06	4.712269e-10	1.009932e+01	3.150163e+01
2.170000e-06	1.493765e-06	4.917986e-10	1.041270e+01	3.322080e+01
2.180000e-06	1.538631e-06	5.139566e-10	1.072545e+01	3.491334e+01
2.190000e-06	1.583407e-06	5.405417e-10	1.103757e+01	3.657808e+01
2.200000e-06	1.628028e-06	5.664183e-10	1.134862e+01	3.821401e+01
2.210000e-06	1.672421e-06	5.899366e-10	1.165807e+01	3.982028e+01
2.220000e-06	1.716699e-06	6.119012e-10	1.196672e+01	4.139622e+01
2.230000e-06	1.760924e-06	6.327443e-10	1.227500e+01	4.294132e+01
2.240000e-06	1.805040e-06	6.512737e-10	1.258253e+01	4.445518e+01
2.250000e-06	1.849088e-06	6.645174e-10	1.288958e+01	4.593756e+01
2.260000e-06	1.893083e-06	6.797645e-10	1.319626e+01	4.738833e+01
2.270000e-06	1.936995e-06	6.988993e-10	1.350236e+01	4.880746e+01
2.280000e-06	1.980812e-06	7.235054e-10	1.380780e+01	5.019502e+01
2.290000e-06	2.024536e-06	7.493766e-10	1.411259e+01	5.155114e+01
2.300000e-06	2.068175e-06	7.733850e-10	1.441679e+01	5.287604e+01
2.310000e-06	2.111732e-06	7.914273e-10	1.472041e+01	5.416996e+01
2.320000e-06	2.155285e-06	8.038936e-10	1.502401e+01	5.543319e+01
2.330000e-06	2.198812e-06	8.116436e-10	1.532742e+01	5.666606e+01
2.340000e-06	2.242150e-06	8.200477e-10	1.562953e+01	5.786890e+01
2.350000e-06	2.285243e-06	8.325652e-10	1.592991e+01	5.904206e+01
2.360000e-06	2.328016e-06	8.515806e-10	1.622808e+01	6.018587e+01
2.370000e-06	2.370540e-06	8.728227e-10	1.652450e+01	6.130067e+01
2.380000e-06	2.412764e-06	8.923771e-10	1.681884e+01	6.238680e+01
2.390000e-06	2.454678e-06	9.106138e-10	1.711101e+01	6.344457e+01
2.400000e-06	2.496404e-06	9.248287e-10	1.740188e+01	6.447429e+01
2.410000e-06	2.537695e-06	9.340433e-10	1.768970e+01	6.547627e+01
2.420000e-06	2.578566e-06	9.423659e-10	1.797461e+01	6.645078e+01
2.430000e-06	2.619252e-06	9.526822e-10	1.825822e+01	6.739812e+01
2.440000e-06	2.659707e-06	9.650353e-10	1.854022e+01	6.831856e+01
2.450000e-06	2.699856e-06	9.779252e-10	1.882009e+01	6.921240e+01
2.460000e-06	2.739822e-06	9.905476e-10	1.909868e+01	7.007994e+01
2.470000e-06	2.779780e-06	1.003301e-09	1.937722e+01	7.092149e+01
2.480000e-06	2.819683e-06	1.014874e-09	1.965538e+01	7.173739e+01
2.490000e-06	2.859476e-06	1.026755e-09	1.993276e+01	7.252801e+01
2.500000e-06	2.899161e-06	1.039784e-09	2.020940e+01	7.329376e+01
2.510000e-06	2.938674e-06	1.051815e-09	2.048484e+01	7.403507e+01
2.520000e-06	2.977874e-06	1.062197e-09	2.075809e+01	7.475243e+01
2.530000e-06	3.016808e-06	1.069919e-09	2.102949e+01	7.544638e+01
2.540000e-06	3.055671e-06	1.075060e-09	2.130040e+01	7.611750e+01
2.550000e-06	3.094301e-06	1.080640e-09	2.156967e+01	7.676642e+01
2.560000e-06	3.132642e-06	1.089584e-09	2.183694e+01	7.739384e+01
2.570000e-06	3.170767e-06	1.101271e-09	2.210271e+01	7.800049e+01
2.580000e-06	3.208658e-06	1.111079e-09	2.236684e+01	7.858714e+01
2.590000e-06	3.246369e-06	1.119701e-09	2.262971e+01	7.915464e+01
2.600000e-06	3.283877e-06	1.126471e-09	2.289117e+01	7.970383e+01
2.610000e-06	3.321138e-06	1.131837e-09	2.315090e+01	8.023562e+01
2.620000e-06	3.358171e-06	1.137762e-09	2.340905e+01	8.075092e+01
2.630000e-06	3.395044e-06	1.145775e-09	2.366609e+01	8.125068e+01
2.640000e-06	3.431676e-06	1.154173e-09	2.392144e+01	8.173583e+01
2.650000e-06	3.468012e-06	1.158747e-09	2.417474e+01	8.220732e+01
2.660000e-06	3.504142e-06	1.161690e-09	2.442659e+01	8.266608e+01
2.670000e-06	3.540097e-06	1.166143e-09	2.467722e+01	8.311303e+01
2.680000e-06	3.575919e-06	1.170919e-09	2.492693e+01	8.354904e+01
2.690000e-06	3.611663e-06	1.179515e-09	2.517610e+01	8.397498e+01
2.700000e-06	3.647281e-06	1.192078e-09	2.542438e+01	8.439165e+01
2.710000e-06	3.682586e-06	1.205821e-09	2.567048e+01	8.479979e+01
2.720000e-06	3.717492e-06	1.213583e-09	2.591380e+01	8.520009e+01
2.730000e-06	3.752116e-06	1.216072e-09	2.615516e+01	8.559319e+01
2.740000e-06	3.786340e-06	1.216243e-09	2.639372e+01	8.597965e+01
2.750000e-06	3.820028e-06	1.217239e-09	2.662856e+01	8.635996e+01
2.760000e-06	3.853366e-06	1.222324e-09	2.686095e+01	8.673452e+01
2.770000e-06	3.886275e-06	1.231512e-09	2.709035e+01	8.710368e+01
2.780000e-06	3.918797e-06	1.239941e-09	2.731705e+01	8.746772e+01
2.790000e-06	3.951095e-06	1.247903e-09	2.754220e+01	8.782683e+01
2.800000e-06	3.983146e-06	1.255587e-09	2.776562e+01	8.818115e+01
2.810000e-06	4.015048e-06	1.260458e-09	2.798800e+01	8.853074e+01
2.820000e-06	4.046824e-06	1.264649e-09	2.820950e+01	8.887562e+01
2.830000e-06	4.078417e-06	1.268785e-09	2.842973e+01	8.921574e+01
2.840000e-06	4.109692e-06	1.274403e-09	2.864774e+01	8.955103e+01
2.850000e-06	4.140570e-06	1.280655e-09	2.886298e+01	8.988137e+01
2.860000e-06	4.171150e-06	1.286880e-09	2.907615e+01	9.020659e+01
2.870000e-06	4.201445e-06	1.293211e-09	2.928733e+01	9.052654e+01
2.880000e-06	4.231500e-06	1.297406e-09	2.949684e+01	9.084102e+01
2.890000e-06	4.261319e-06	1.300858e-09	2.970470e+01	9.114984e+01
2.900000e-06	4.290863e-06	1.307027e-09	2.991065e+01	9.145279e+01
