# Temperatura_=_-8.5
# Concentracion g/m^3_=_1620.0
# C_Vs_to_Am_M_A/Vsm_=_65563218390.804596
# pendiente_HvsI_1/m_=_3716.3
# ordenada_HvsI_A/m_=_1297.0
# frecuencia_Hz_=_135110.77789355273

Tiempo_(s)	Campo_(V.s)	Magnetizacion_(V.s)	Campo_(kA/m)	Magnetizacion_(A/m)
0.000000e+00	-5.514604e-06	-1.016973e-09	-3.836970e+01	-6.870868e+01
1.000000e-08	-5.514660e-06	-1.015005e-09	-3.837009e+01	-6.869155e+01
2.000000e-08	-5.514475e-06	-1.012962e-09	-3.836880e+01	-6.867421e+01
3.000000e-08	-5.513950e-06	-1.011958e-09	-3.836515e+01	-6.865637e+01
4.000000e-08	-5.513013e-06	-1.010514e-09	-3.835863e+01	-6.863774e+01
5.000000e-08	-5.511532e-06	-1.004643e-09	-3.834833e+01	-6.861807e+01
6.000000e-08	-5.509385e-06	-9.919129e-10	-3.833339e+01	-6.859709e+01
7.000000e-08	-5.506704e-06	-9.872317e-10	-3.831473e+01	-6.857455e+01
8.000000e-08	-5.503514e-06	-1.019473e-09	-3.829254e+01	-6.855022e+01
9.000000e-08	-5.499739e-06	-1.034086e-09	-3.826627e+01	-6.852388e+01
1.000000e-07	-5.495504e-06	-9.877656e-10	-3.823680e+01	-6.849534e+01
1.100000e-07	-5.491075e-06	-9.719277e-10	-3.820599e+01	-6.846442e+01
1.200000e-07	-5.486555e-06	-9.782899e-10	-3.817454e+01	-6.843094e+01
1.300000e-07	-5.481757e-06	-9.915257e-10	-3.814116e+01	-6.839476e+01
1.400000e-07	-5.476456e-06	-9.873404e-10	-3.810427e+01	-6.835575e+01
1.500000e-07	-5.470740e-06	-9.664017e-10	-3.806450e+01	-6.831379e+01
1.600000e-07	-5.464740e-06	-1.011961e-09	-3.802276e+01	-6.826880e+01
1.700000e-07	-5.458322e-06	-9.758256e-10	-3.797810e+01	-6.822067e+01
1.800000e-07	-5.451497e-06	-9.968224e-10	-3.793062e+01	-6.816935e+01
1.900000e-07	-5.444279e-06	-1.001960e-09	-3.788039e+01	-6.811478e+01
2.000000e-07	-5.436652e-06	-1.021230e-09	-3.782733e+01	-6.805692e+01
2.100000e-07	-5.428774e-06	-9.865772e-10	-3.777251e+01	-6.799574e+01
2.200000e-07	-5.420723e-06	-9.944252e-10	-3.771649e+01	-6.793121e+01
2.300000e-07	-5.412427e-06	-1.009300e-09	-3.765877e+01	-6.786335e+01
2.400000e-07	-5.403701e-06	-1.018490e-09	-3.759805e+01	-6.779215e+01
2.500000e-07	-5.394205e-06	-1.015292e-09	-3.753199e+01	-6.771763e+01
2.600000e-07	-5.383976e-06	-1.006966e-09	-3.746081e+01	-6.763983e+01
2.700000e-07	-5.373216e-06	-9.994439e-10	-3.738595e+01	-6.755879e+01
2.800000e-07	-5.361920e-06	-9.914930e-10	-3.730735e+01	-6.747457e+01
2.900000e-07	-5.350201e-06	-1.015311e-09	-3.722581e+01	-6.738724e+01
3.000000e-07	-5.338125e-06	-9.936979e-10	-3.714179e+01	-6.729689e+01
3.100000e-07	-5.325657e-06	-9.962553e-10	-3.705504e+01	-6.720362e+01
3.200000e-07	-5.312762e-06	-1.008961e-09	-3.696532e+01	-6.710756e+01
3.300000e-07	-5.299448e-06	-1.044911e-09	-3.687268e+01	-6.700883e+01
3.400000e-07	-5.285720e-06	-9.935572e-10	-3.677716e+01	-6.690759e+01
3.500000e-07	-5.271606e-06	-9.941438e-10	-3.667896e+01	-6.680401e+01
3.600000e-07	-5.257149e-06	-1.020413e-09	-3.657837e+01	-6.669828e+01
3.700000e-07	-5.242275e-06	-1.019164e-09	-3.647488e+01	-6.659058e+01
3.800000e-07	-5.226775e-06	-9.644626e-10	-3.636704e+01	-6.648115e+01
3.900000e-07	-5.210678e-06	-1.004641e-09	-3.625504e+01	-6.637021e+01
4.000000e-07	-5.194192e-06	-1.022577e-09	-3.614033e+01	-6.625801e+01
4.100000e-07	-5.177432e-06	-9.782005e-10	-3.602372e+01	-6.614479e+01
4.200000e-07	-5.160294e-06	-9.748822e-10	-3.590447e+01	-6.603082e+01
4.300000e-07	-5.142850e-06	-1.037152e-09	-3.578310e+01	-6.591638e+01
4.400000e-07	-5.125171e-06	-9.898264e-10	-3.566009e+01	-6.580172e+01
4.500000e-07	-5.107083e-06	-9.490274e-10	-3.553424e+01	-6.568711e+01
4.600000e-07	-5.088530e-06	-1.005345e-09	-3.540515e+01	-6.557284e+01
4.700000e-07	-5.069580e-06	-1.004863e-09	-3.527330e+01	-6.545915e+01
4.800000e-07	-5.050254e-06	-9.374251e-10	-3.513883e+01	-6.534630e+01
4.900000e-07	-5.030622e-06	-9.846142e-10	-3.500223e+01	-6.523453e+01
5.000000e-07	-5.010784e-06	-1.026591e-09	-3.486420e+01	-6.512406e+01
5.100000e-07	-4.990714e-06	-9.514238e-10	-3.472456e+01	-6.501508e+01
5.200000e-07	-4.970316e-06	-9.507879e-10	-3.458264e+01	-6.490777e+01
5.300000e-07	-4.949625e-06	-1.019339e-09	-3.443867e+01	-6.480229e+01
5.400000e-07	-4.928630e-06	-9.718842e-10	-3.429259e+01	-6.469877e+01
5.500000e-07	-4.907181e-06	-9.238369e-10	-3.414335e+01	-6.459728e+01
5.600000e-07	-4.885357e-06	-9.947110e-10	-3.399150e+01	-6.449790e+01
5.700000e-07	-4.863261e-06	-9.889663e-10	-3.383777e+01	-6.440067e+01
5.800000e-07	-4.840803e-06	-9.314235e-10	-3.368151e+01	-6.430557e+01
5.900000e-07	-4.817966e-06	-9.684400e-10	-3.352261e+01	-6.421257e+01
6.000000e-07	-4.794805e-06	-9.970981e-10	-3.336146e+01	-6.412161e+01
6.100000e-07	-4.771341e-06	-9.327491e-10	-3.319820e+01	-6.403260e+01
6.200000e-07	-4.747637e-06	-9.434293e-10	-3.303327e+01	-6.394542e+01
6.300000e-07	-4.723722e-06	-9.817430e-10	-3.286688e+01	-6.385990e+01
6.400000e-07	-4.699556e-06	-9.521126e-10	-3.269873e+01	-6.377589e+01
6.500000e-07	-4.675053e-06	-9.326355e-10	-3.252825e+01	-6.369318e+01
6.600000e-07	-4.650136e-06	-9.731619e-10	-3.235488e+01	-6.361158e+01
6.700000e-07	-4.624827e-06	-9.565632e-10	-3.217878e+01	-6.353085e+01
6.800000e-07	-4.599053e-06	-9.344356e-10	-3.199945e+01	-6.345076e+01
6.900000e-07	-4.572639e-06	-9.563830e-10	-3.181566e+01	-6.337108e+01
7.000000e-07	-4.545708e-06	-9.641798e-10	-3.162829e+01	-6.329156e+01
7.100000e-07	-4.518350e-06	-9.321588e-10	-3.143793e+01	-6.321196e+01
7.200000e-07	-4.490601e-06	-9.410844e-10	-3.124486e+01	-6.313204e+01
7.300000e-07	-4.462664e-06	-9.521070e-10	-3.105047e+01	-6.305158e+01
7.400000e-07	-4.434633e-06	-9.344710e-10	-3.085544e+01	-6.297035e+01
7.500000e-07	-4.406495e-06	-9.276341e-10	-3.065966e+01	-6.288814e+01
7.600000e-07	-4.378100e-06	-9.429924e-10	-3.046209e+01	-6.280476e+01
7.700000e-07	-4.349288e-06	-9.339457e-10	-3.026162e+01	-6.272004e+01
7.800000e-07	-4.320117e-06	-9.237812e-10	-3.005866e+01	-6.263380e+01
7.900000e-07	-4.290691e-06	-9.314474e-10	-2.985392e+01	-6.254590e+01
8.000000e-07	-4.260978e-06	-9.256901e-10	-2.964718e+01	-6.245620e+01
8.100000e-07	-4.230962e-06	-9.093402e-10	-2.943833e+01	-6.236459e+01
8.200000e-07	-4.200623e-06	-9.142161e-10	-2.922724e+01	-6.227096e+01
8.300000e-07	-4.170012e-06	-9.202830e-10	-2.901425e+01	-6.217523e+01
8.400000e-07	-4.139127e-06	-9.082822e-10	-2.879936e+01	-6.207731e+01
8.500000e-07	-4.107965e-06	-9.126904e-10	-2.858254e+01	-6.197714e+01
8.600000e-07	-4.076585e-06	-9.208162e-10	-2.836420e+01	-6.187464e+01
8.700000e-07	-4.044956e-06	-9.110935e-10	-2.814413e+01	-6.176975e+01
8.800000e-07	-4.013136e-06	-9.014329e-10	-2.792273e+01	-6.166243e+01
8.900000e-07	-3.981166e-06	-9.089300e-10	-2.770029e+01	-6.155260e+01
9.000000e-07	-3.948990e-06	-8.999540e-10	-2.747642e+01	-6.144022e+01
9.100000e-07	-3.916515e-06	-8.924251e-10	-2.725046e+01	-6.132521e+01
9.200000e-07	-3.883755e-06	-8.985210e-10	-2.702252e+01	-6.120751e+01
9.300000e-07	-3.850679e-06	-9.026633e-10	-2.679239e+01	-6.108704e+01
9.400000e-07	-3.817148e-06	-8.914769e-10	-2.655908e+01	-6.096373e+01
9.500000e-07	-3.783127e-06	-8.950899e-10	-2.632237e+01	-6.083749e+01
9.600000e-07	-3.748715e-06	-8.953410e-10	-2.608294e+01	-6.070821e+01
9.700000e-07	-3.713900e-06	-8.826026e-10	-2.584070e+01	-6.057581e+01
9.800000e-07	-3.678643e-06	-8.732607e-10	-2.559539e+01	-6.044018e+01
9.900000e-07	-3.643076e-06	-8.790749e-10	-2.534792e+01	-6.030122e+01
1.000000e-06	-3.607336e-06	-8.756345e-10	-2.509925e+01	-6.015882e+01
1.010000e-06	-3.571479e-06	-8.738279e-10	-2.484976e+01	-6.001287e+01
1.020000e-06	-3.535492e-06	-8.811128e-10	-2.459937e+01	-5.986329e+01
1.030000e-06	-3.499363e-06	-8.825228e-10	-2.434799e+01	-5.970997e+01
1.040000e-06	-3.463046e-06	-8.733810e-10	-2.409530e+01	-5.955285e+01
1.050000e-06	-3.426419e-06	-8.713705e-10	-2.384045e+01	-5.939185e+01
1.060000e-06	-3.389512e-06	-8.678278e-10	-2.358366e+01	-5.922692e+01
1.070000e-06	-3.352351e-06	-8.588529e-10	-2.332510e+01	-5.905804e+01
1.080000e-06	-3.314932e-06	-8.585701e-10	-2.306475e+01	-5.888520e+01
1.090000e-06	-3.277329e-06	-8.633065e-10	-2.280312e+01	-5.870840e+01
1.100000e-06	-3.239495e-06	-8.569360e-10	-2.253987e+01	-5.852770e+01
1.110000e-06	-3.201444e-06	-8.490497e-10	-2.227511e+01	-5.834314e+01
1.120000e-06	-3.163191e-06	-8.498521e-10	-2.200896e+01	-5.815483e+01
1.130000e-06	-3.124679e-06	-8.445071e-10	-2.174100e+01	-5.796286e+01
1.140000e-06	-3.085907e-06	-8.388903e-10	-2.147123e+01	-5.776738e+01
1.150000e-06	-3.046947e-06	-8.414520e-10	-2.120015e+01	-5.756855e+01
1.160000e-06	-3.007830e-06	-8.442577e-10	-2.092799e+01	-5.736652e+01
1.170000e-06	-2.968520e-06	-8.381151e-10	-2.065447e+01	-5.716151e+01
1.180000e-06	-2.929026e-06	-8.360745e-10	-2.037968e+01	-5.695369e+01
1.190000e-06	-2.889351e-06	-8.352602e-10	-2.010363e+01	-5.674327e+01
1.200000e-06	-2.849503e-06	-8.305774e-10	-1.982637e+01	-5.653046e+01
1.210000e-06	-2.809523e-06	-8.252781e-10	-1.954819e+01	-5.631545e+01
1.220000e-06	-2.769469e-06	-8.257845e-10	-1.926950e+01	-5.609844e+01
1.230000e-06	-2.729270e-06	-8.230076e-10	-1.898981e+01	-5.587957e+01
1.240000e-06	-2.688894e-06	-8.186944e-10	-1.870888e+01	-5.565901e+01
1.250000e-06	-2.648394e-06	-8.154750e-10	-1.842709e+01	-5.543686e+01
1.260000e-06	-2.607782e-06	-8.144863e-10	-1.814451e+01	-5.521321e+01
1.270000e-06	-2.566968e-06	-8.076370e-10	-1.786054e+01	-5.498810e+01
1.280000e-06	-2.525737e-06	-8.022098e-10	-1.757366e+01	-5.476151e+01
1.290000e-06	-2.484174e-06	-8.000018e-10	-1.728447e+01	-5.453340e+01
1.300000e-06	-2.442383e-06	-7.945165e-10	-1.699370e+01	-5.430366e+01
1.310000e-06	-2.400387e-06	-7.877389e-10	-1.670150e+01	-5.407213e+01
1.320000e-06	-2.358099e-06	-7.850121e-10	-1.640726e+01	-5.383860e+01
1.330000e-06	-2.315453e-06	-7.825862e-10	-1.611054e+01	-5.360279e+01
1.340000e-06	-2.272509e-06	-7.799976e-10	-1.581174e+01	-5.336438e+01
1.350000e-06	-2.229297e-06	-7.791821e-10	-1.551108e+01	-5.312299e+01
1.360000e-06	-2.185865e-06	-7.768152e-10	-1.520889e+01	-5.287820e+01
1.370000e-06	-2.142239e-06	-7.704999e-10	-1.490535e+01	-5.262953e+01
1.380000e-06	-2.098518e-06	-7.643842e-10	-1.460114e+01	-5.237646e+01
1.390000e-06	-2.054740e-06	-7.590498e-10	-1.429654e+01	-5.211844e+01
1.400000e-06	-2.010886e-06	-7.519066e-10	-1.399141e+01	-5.185489e+01
1.410000e-06	-1.966977e-06	-7.452185e-10	-1.368590e+01	-5.158521e+01
1.420000e-06	-1.922997e-06	-7.423031e-10	-1.337989e+01	-5.130877e+01
1.430000e-06	-1.878834e-06	-7.417646e-10	-1.307261e+01	-5.102493e+01
1.440000e-06	-1.834552e-06	-7.387813e-10	-1.276451e+01	-5.073307e+01
1.450000e-06	-1.790294e-06	-7.324311e-10	-1.245657e+01	-5.043255e+01
1.460000e-06	-1.745961e-06	-7.229252e-10	-1.214811e+01	-5.012276e+01
1.470000e-06	-1.701498e-06	-7.133804e-10	-1.183874e+01	-4.980309e+01
1.480000e-06	-1.656884e-06	-7.064636e-10	-1.152833e+01	-4.947296e+01
1.490000e-06	-1.612048e-06	-7.016847e-10	-1.121637e+01	-4.913182e+01
1.500000e-06	-1.567129e-06	-6.954487e-10	-1.090383e+01	-4.877914e+01
1.510000e-06	-1.522136e-06	-6.901473e-10	-1.059077e+01	-4.841443e+01
1.520000e-06	-1.476967e-06	-6.870758e-10	-1.027649e+01	-4.803724e+01
1.530000e-06	-1.431683e-06	-6.834656e-10	-9.961411e+00	-4.764713e+01
1.540000e-06	-1.386347e-06	-6.755055e-10	-9.645975e+00	-4.724372e+01
1.550000e-06	-1.341013e-06	-6.681902e-10	-9.330546e+00	-4.682664e+01
1.560000e-06	-1.295608e-06	-6.594319e-10	-9.014627e+00	-4.639555e+01
1.570000e-06	-1.250060e-06	-6.483200e-10	-8.697712e+00	-4.595014e+01
1.580000e-06	-1.204361e-06	-6.380594e-10	-8.379742e+00	-4.549010e+01
1.590000e-06	-1.158564e-06	-6.324020e-10	-8.061098e+00	-4.501514e+01
1.600000e-06	-1.112707e-06	-6.278493e-10	-7.742032e+00	-4.452497e+01
1.610000e-06	-1.066794e-06	-6.218915e-10	-7.422579e+00	-4.401927e+01
1.620000e-06	-1.020848e-06	-6.145170e-10	-7.102892e+00	-4.349775e+01
1.630000e-06	-9.747973e-07	-6.053206e-10	-6.782478e+00	-4.296005e+01
1.640000e-06	-9.286620e-07	-5.949961e-10	-6.461477e+00	-4.240581e+01
1.650000e-06	-8.824783e-07	-5.833346e-10	-6.140138e+00	-4.183462e+01
1.660000e-06	-8.362305e-07	-5.720627e-10	-5.818353e+00	-4.124603e+01
1.670000e-06	-7.899370e-07	-5.623587e-10	-5.496251e+00	-4.063952e+01
1.680000e-06	-7.436445e-07	-5.537220e-10	-5.174155e+00	-4.001454e+01
1.690000e-06	-6.973619e-07	-5.454588e-10	-4.852129e+00	-3.937047e+01
1.700000e-06	-6.510020e-07	-5.349019e-10	-4.529564e+00	-3.870662e+01
1.710000e-06	-6.045381e-07	-5.232265e-10	-4.206276e+00	-3.802227e+01
1.720000e-06	-5.580441e-07	-5.118545e-10	-3.882779e+00	-3.731659e+01
1.730000e-06	-5.115286e-07	-4.995433e-10	-3.559131e+00	-3.658875e+01
1.740000e-06	-4.648877e-07	-4.875264e-10	-3.234612e+00	-3.583785e+01
1.750000e-06	-4.181349e-07	-4.759101e-10	-2.909314e+00	-3.506292e+01
1.760000e-06	-3.714442e-07	-4.637731e-10	-2.584447e+00	-3.426301e+01
1.770000e-06	-3.248352e-07	-4.525452e-10	-2.260149e+00	-3.343712e+01
1.780000e-06	-2.781597e-07	-4.425441e-10	-1.935389e+00	-3.258424e+01
1.790000e-06	-2.314400e-07	-4.314797e-10	-1.610321e+00	-3.170338e+01
1.800000e-06	-1.847539e-07	-4.186499e-10	-1.285487e+00	-3.079357e+01
1.810000e-06	-1.380583e-07	-4.039657e-10	-9.605868e-01	-2.985388e+01
1.820000e-06	-9.127777e-08	-3.888449e-10	-6.350956e-01	-2.888344e+01
1.830000e-06	-4.448592e-08	-3.739752e-10	-3.095257e-01	-2.788146e+01
1.840000e-06	2.245124e-09	-3.607699e-10	1.562120e-02	-2.684722e+01
1.850000e-06	4.897974e-08	-3.473088e-10	3.407929e-01	-2.578014e+01
1.860000e-06	9.572192e-08	-3.311511e-10	6.660173e-01	-2.467976e+01
1.870000e-06	1.424961e-07	-3.118530e-10	9.914643e-01	-2.354577e+01
1.880000e-06	1.892254e-07	-2.926843e-10	1.316599e+00	-2.237801e+01
1.890000e-06	2.358651e-07	-2.758925e-10	1.641110e+00	-2.117651e+01
1.900000e-06	2.824698e-07	-2.604205e-10	1.965378e+00	-1.994145e+01
1.910000e-06	3.290902e-07	-2.448554e-10	2.289755e+00	-1.867325e+01
1.920000e-06	3.757709e-07	-2.297569e-10	2.614552e+00	-1.737251e+01
1.930000e-06	4.224743e-07	-2.128189e-10	2.939506e+00	-1.604003e+01
1.940000e-06	4.690606e-07	-1.943478e-10	3.263646e+00	-1.467682e+01
1.950000e-06	5.155752e-07	-1.740007e-10	3.587287e+00	-1.328411e+01
1.960000e-06	5.621449e-07	-1.536717e-10	3.911311e+00	-1.186332e+01
1.970000e-06	6.085955e-07	-1.341683e-10	4.234507e+00	-1.041607e+01
1.980000e-06	6.549163e-07	-1.147113e-10	4.556799e+00	-8.944155e+00
1.990000e-06	7.012202e-07	-9.390589e-11	4.878974e+00	-7.449559e+00
2.000000e-06	7.474894e-07	-7.160935e-11	5.200908e+00	-5.934415e+00
2.010000e-06	7.937345e-07	-4.949752e-11	5.522673e+00	-4.401000e+00
2.020000e-06	8.399959e-07	-2.648310e-11	5.844552e+00	-2.851711e+00
2.030000e-06	8.862113e-07	-3.405006e-12	6.166112e+00	-1.289049e+00
2.040000e-06	9.323275e-07	1.905533e-11	6.486980e+00	2.844063e-01
2.050000e-06	9.783538e-07	4.228405e-11	6.807224e+00	1.866021e+00
2.060000e-06	1.024308e-06	6.632077e-11	7.126967e+00	3.453127e+00
2.070000e-06	1.070222e-06	8.911449e-11	7.446424e+00	5.043050e+00
2.080000e-06	1.116061e-06	1.108838e-10	7.765370e+00	6.633130e+00
2.090000e-06	1.161830e-06	1.338437e-10	8.083821e+00	8.220746e+00
2.100000e-06	1.207555e-06	1.568021e-10	8.401967e+00	9.803340e+00
2.110000e-06	1.253146e-06	1.781106e-10	8.719182e+00	1.137844e+01
2.120000e-06	1.298545e-06	2.007926e-10	9.035062e+00	1.294366e+01
2.130000e-06	1.343822e-06	2.218782e-10	9.350090e+00	1.449676e+01
2.140000e-06	1.389131e-06	2.416341e-10	9.665344e+00	1.603562e+01
2.150000e-06	1.434390e-06	2.625714e-10	9.980246e+00	1.755826e+01
2.160000e-06	1.479498e-06	2.858300e-10	1.029410e+01	1.906289e+01
2.170000e-06	1.524496e-06	3.070052e-10	1.060719e+01	2.054785e+01
2.180000e-06	1.569312e-06	3.264483e-10	1.091901e+01	2.201169e+01
2.190000e-06	1.613997e-06	3.466650e-10	1.122993e+01	2.345310e+01
2.200000e-06	1.658608e-06	3.659881e-10	1.154032e+01	2.487096e+01
2.210000e-06	1.703102e-06	3.838024e-10	1.184990e+01	2.626434e+01
2.220000e-06	1.747472e-06	4.000849e-10	1.215862e+01	2.763244e+01
2.230000e-06	1.791701e-06	4.168758e-10	1.246636e+01	2.897467e+01
2.240000e-06	1.835840e-06	4.338330e-10	1.277347e+01	3.029053e+01
2.250000e-06	1.879930e-06	4.499664e-10	1.308024e+01	3.157972e+01
2.260000e-06	1.923929e-06	4.678347e-10	1.338638e+01	3.284201e+01
2.270000e-06	1.967865e-06	4.869138e-10	1.369208e+01	3.407734e+01
2.280000e-06	2.011762e-06	5.049729e-10	1.399751e+01	3.528570e+01
2.290000e-06	2.055606e-06	5.216658e-10	1.430256e+01	3.646719e+01
2.300000e-06	2.099336e-06	5.375922e-10	1.460683e+01	3.762197e+01
2.310000e-06	2.142923e-06	5.532718e-10	1.491010e+01	3.875026e+01
2.320000e-06	2.186431e-06	5.675200e-10	1.521283e+01	3.985231e+01
2.330000e-06	2.229816e-06	5.817280e-10	1.551469e+01	4.092840e+01
2.340000e-06	2.272932e-06	5.964216e-10	1.581468e+01	4.197882e+01
2.350000e-06	2.315789e-06	6.130742e-10	1.611287e+01	4.300387e+01
2.360000e-06	2.358463e-06	6.288892e-10	1.640980e+01	4.400381e+01
2.370000e-06	2.400885e-06	6.408533e-10	1.670496e+01	4.497894e+01
2.380000e-06	2.442955e-06	6.509594e-10	1.699768e+01	4.592947e+01
2.390000e-06	2.484691e-06	6.611975e-10	1.728807e+01	4.685563e+01
2.400000e-06	2.526141e-06	6.726056e-10	1.757647e+01	4.775759e+01
2.410000e-06	2.567341e-06	6.857191e-10	1.786314e+01	4.863551e+01
2.420000e-06	2.608272e-06	6.983880e-10	1.814793e+01	4.948950e+01
2.430000e-06	2.648906e-06	7.100799e-10	1.843065e+01	5.031965e+01
2.440000e-06	2.689324e-06	7.204923e-10	1.871187e+01	5.112601e+01
2.450000e-06	2.729554e-06	7.300475e-10	1.899179e+01	5.190862e+01
2.460000e-06	2.769609e-06	7.393751e-10	1.927048e+01	5.266751e+01
2.470000e-06	2.809580e-06	7.497671e-10	1.954860e+01	5.340269e+01
2.480000e-06	2.849483e-06	7.607808e-10	1.982623e+01	5.411418e+01
2.490000e-06	2.889273e-06	7.709252e-10	2.010309e+01	5.480200e+01
2.500000e-06	2.928864e-06	7.811674e-10	2.037855e+01	5.546619e+01
2.510000e-06	2.968298e-06	7.906494e-10	2.065293e+01	5.610682e+01
2.520000e-06	3.007627e-06	7.991785e-10	2.092657e+01	5.672397e+01
2.530000e-06	3.046732e-06	8.074487e-10	2.119866e+01	5.731780e+01
2.540000e-06	3.085588e-06	8.143995e-10	2.146901e+01	5.788848e+01
2.550000e-06	3.124219e-06	8.188195e-10	2.173780e+01	5.843624e+01
2.560000e-06	3.162554e-06	8.230235e-10	2.200453e+01	5.896139e+01
2.570000e-06	3.200568e-06	8.286687e-10	2.226902e+01	5.946427e+01
2.580000e-06	3.238425e-06	8.352493e-10	2.253242e+01	5.994529e+01
2.590000e-06	3.276169e-06	8.426386e-10	2.279504e+01	6.040494e+01
2.600000e-06	3.313762e-06	8.504318e-10	2.305661e+01	6.084375e+01
2.610000e-06	3.351054e-06	8.580589e-10	2.331608e+01	6.126232e+01
2.620000e-06	3.387926e-06	8.638638e-10	2.357263e+01	6.166131e+01
2.630000e-06	3.424527e-06	8.672471e-10	2.382729e+01	6.204141e+01
2.640000e-06	3.460974e-06	8.721433e-10	2.408089e+01	6.240338e+01
2.650000e-06	3.497266e-06	8.787835e-10	2.433340e+01	6.274800e+01
2.660000e-06	3.533395e-06	8.850283e-10	2.458478e+01	6.307610e+01
2.670000e-06	3.569437e-06	8.918811e-10	2.483555e+01	6.338852e+01
2.680000e-06	3.605334e-06	8.959757e-10	2.508532e+01	6.368611e+01
2.690000e-06	3.641008e-06	8.984824e-10	2.533353e+01	6.396972e+01
2.700000e-06	3.676547e-06	9.025546e-10	2.558081e+01	6.424022e+01
2.710000e-06	3.711854e-06	9.069129e-10	2.582647e+01	6.449845e+01
2.720000e-06	3.746732e-06	9.121028e-10	2.606914e+01	6.474521e+01
2.730000e-06	3.781230e-06	9.170229e-10	2.630917e+01	6.498131e+01
2.740000e-06	3.815361e-06	9.223248e-10	2.654665e+01	6.520749e+01
2.750000e-06	3.849013e-06	9.260983e-10	2.678079e+01	6.542446e+01
2.760000e-06	3.882184e-06	9.286250e-10	2.701160e+01	6.563289e+01
2.770000e-06	3.914906e-06	9.327829e-10	2.723927e+01	6.583337e+01
2.780000e-06	3.947270e-06	9.386201e-10	2.746445e+01	6.602645e+01
2.790000e-06	3.979437e-06	9.443345e-10	2.768826e+01	6.621264e+01
2.800000e-06	4.011452e-06	9.475081e-10	2.791102e+01	6.639236e+01
2.810000e-06	4.043354e-06	9.488664e-10	2.813298e+01	6.656600e+01
2.820000e-06	4.075065e-06	9.498731e-10	2.835363e+01	6.673386e+01
2.830000e-06	4.106467e-06	9.528112e-10	2.857212e+01	6.689623e+01
2.840000e-06	4.137583e-06	9.562797e-10	2.878862e+01	6.705331e+01
2.850000e-06	4.168371e-06	9.602616e-10	2.900283e+01	6.720528e+01
2.860000e-06	4.198823e-06	9.662107e-10	2.921471e+01	6.735228e+01
2.870000e-06	4.229011e-06	9.708276e-10	2.942475e+01	6.749440e+01
2.880000e-06	4.258976e-06	9.743059e-10	2.963325e+01	6.763171e+01
2.890000e-06	4.288700e-06	9.765176e-10	2.984006e+01	6.776427e+01
2.900000e-06	4.318087e-06	9.774652e-10	3.004453e+01	6.789211e+01
