# Temperatura_=_-15.88
# Concentracion g/m^3_=_1620.0
# C_Vs_to_Am_M_A/Vsm_=_65563218390.804596
# pendiente_HvsI_1/m_=_3716.3
# ordenada_HvsI_A/m_=_1297.0
# frecuencia_Hz_=_135108.82298183237

Tiempo_(s)	Campo_(V.s)	Magnetizacion_(V.s)	Campo_(kA/m)	Magnetizacion_(A/m)
0.000000e+00	-5.525551e-06	-7.929193e-10	-3.836556e+01	-5.487826e+01
1.000000e-08	-5.525746e-06	-7.891266e-10	-3.836691e+01	-5.486505e+01
2.000000e-08	-5.525647e-06	-7.871929e-10	-3.836623e+01	-5.485330e+01
3.000000e-08	-5.525204e-06	-7.871586e-10	-3.836315e+01	-5.484360e+01
4.000000e-08	-5.524341e-06	-7.883173e-10	-3.835716e+01	-5.483656e+01
5.000000e-08	-5.522963e-06	-7.881519e-10	-3.834759e+01	-5.483276e+01
6.000000e-08	-5.521011e-06	-7.855904e-10	-3.833404e+01	-5.483277e+01
7.000000e-08	-5.518422e-06	-7.813977e-10	-3.831606e+01	-5.483712e+01
8.000000e-08	-5.515247e-06	-7.496902e-10	-3.829401e+01	-5.484629e+01
9.000000e-08	-5.511541e-06	-7.394538e-10	-3.826828e+01	-5.486068e+01
1.000000e-07	-5.507466e-06	-8.375701e-10	-3.823999e+01	-5.488062e+01
1.100000e-07	-5.503083e-06	-8.954989e-10	-3.820956e+01	-5.490635e+01
1.200000e-07	-5.498461e-06	-7.308544e-10	-3.817746e+01	-5.493801e+01
1.300000e-07	-5.493727e-06	-6.693270e-10	-3.814459e+01	-5.497561e+01
1.400000e-07	-5.488635e-06	-7.764660e-10	-3.810924e+01	-5.501908e+01
1.500000e-07	-5.483013e-06	-9.062487e-10	-3.807021e+01	-5.506821e+01
1.600000e-07	-5.477000e-06	-7.725714e-10	-3.802846e+01	-5.512268e+01
1.700000e-07	-5.470776e-06	-6.623140e-10	-3.798524e+01	-5.518205e+01
1.800000e-07	-5.464124e-06	-8.074433e-10	-3.793905e+01	-5.524577e+01
1.900000e-07	-5.456869e-06	-9.180668e-10	-3.788868e+01	-5.531319e+01
2.000000e-07	-5.449261e-06	-8.247379e-10	-3.783585e+01	-5.538356e+01
2.100000e-07	-5.441409e-06	-7.006836e-10	-3.778134e+01	-5.545607e+01
2.200000e-07	-5.433375e-06	-7.872274e-10	-3.772555e+01	-5.552981e+01
2.300000e-07	-5.425136e-06	-8.779304e-10	-3.766835e+01	-5.560385e+01
2.400000e-07	-5.416513e-06	-8.602345e-10	-3.760847e+01	-5.567722e+01
2.500000e-07	-5.407296e-06	-7.922159e-10	-3.754448e+01	-5.574891e+01
2.600000e-07	-5.397286e-06	-8.461888e-10	-3.747498e+01	-5.581796e+01
2.700000e-07	-5.386570e-06	-8.737256e-10	-3.740057e+01	-5.588340e+01
2.800000e-07	-5.375397e-06	-8.538306e-10	-3.732300e+01	-5.594433e+01
2.900000e-07	-5.363740e-06	-8.104656e-10	-3.724205e+01	-5.599989e+01
3.000000e-07	-5.351702e-06	-8.577358e-10	-3.715848e+01	-5.604932e+01
3.100000e-07	-5.339447e-06	-8.935615e-10	-3.707338e+01	-5.609195e+01
3.200000e-07	-5.326772e-06	-8.939757e-10	-3.698538e+01	-5.612724e+01
3.300000e-07	-5.313536e-06	-8.479469e-10	-3.689348e+01	-5.615475e+01
3.400000e-07	-5.299992e-06	-8.686199e-10	-3.679943e+01	-5.617420e+01
3.500000e-07	-5.286209e-06	-9.108013e-10	-3.670374e+01	-5.618543e+01
3.600000e-07	-5.271912e-06	-8.731840e-10	-3.660447e+01	-5.618846e+01
3.700000e-07	-5.257056e-06	-8.230032e-10	-3.650132e+01	-5.618342e+01
3.800000e-07	-5.241829e-06	-8.929269e-10	-3.639559e+01	-5.617061e+01
3.900000e-07	-5.226117e-06	-9.198932e-10	-3.628650e+01	-5.615048e+01
4.000000e-07	-5.209712e-06	-8.125574e-10	-3.617260e+01	-5.612359e+01
4.100000e-07	-5.192884e-06	-8.348444e-10	-3.605575e+01	-5.609063e+01
4.200000e-07	-5.175845e-06	-9.333205e-10	-3.593745e+01	-5.605242e+01
4.300000e-07	-5.158509e-06	-8.463796e-10	-3.581708e+01	-5.600983e+01
4.400000e-07	-5.140851e-06	-7.591389e-10	-3.569447e+01	-5.596385e+01
4.500000e-07	-5.122856e-06	-9.159263e-10	-3.556953e+01	-5.591550e+01
4.600000e-07	-5.104397e-06	-9.269924e-10	-3.544136e+01	-5.586584e+01
4.700000e-07	-5.085383e-06	-7.643792e-10	-3.530934e+01	-5.581595e+01
4.800000e-07	-5.066034e-06	-8.171923e-10	-3.517499e+01	-5.576687e+01
4.900000e-07	-5.046500e-06	-9.431626e-10	-3.503936e+01	-5.571965e+01
5.000000e-07	-5.026695e-06	-8.073586e-10	-3.490185e+01	-5.567527e+01
5.100000e-07	-5.006641e-06	-7.829894e-10	-3.476261e+01	-5.563463e+01
5.200000e-07	-4.986338e-06	-9.239602e-10	-3.462164e+01	-5.559855e+01
5.300000e-07	-4.965717e-06	-8.613388e-10	-3.447846e+01	-5.556774e+01
5.400000e-07	-4.944742e-06	-7.547586e-10	-3.433283e+01	-5.554281e+01
5.500000e-07	-4.923534e-06	-8.967403e-10	-3.418558e+01	-5.552420e+01
5.600000e-07	-4.901968e-06	-9.042186e-10	-3.403583e+01	-5.551223e+01
5.700000e-07	-4.879944e-06	-7.603672e-10	-3.388291e+01	-5.550710e+01
5.800000e-07	-4.857631e-06	-8.265972e-10	-3.372799e+01	-5.550883e+01
5.900000e-07	-4.834993e-06	-9.261557e-10	-3.357081e+01	-5.551730e+01
6.000000e-07	-4.811935e-06	-8.139105e-10	-3.341071e+01	-5.553227e+01
6.100000e-07	-4.788611e-06	-8.083945e-10	-3.324877e+01	-5.555335e+01
6.200000e-07	-4.765025e-06	-9.116674e-10	-3.308500e+01	-5.558002e+01
6.300000e-07	-4.741091e-06	-8.561075e-10	-3.291882e+01	-5.561169e+01
6.400000e-07	-4.716952e-06	-8.036020e-10	-3.275121e+01	-5.564763e+01
6.500000e-07	-4.692648e-06	-8.834216e-10	-3.258246e+01	-5.568707e+01
6.600000e-07	-4.667998e-06	-8.761194e-10	-3.241131e+01	-5.572915e+01
6.700000e-07	-4.642857e-06	-8.175460e-10	-3.223675e+01	-5.577300e+01
6.800000e-07	-4.617143e-06	-8.666848e-10	-3.205821e+01	-5.581773e+01
6.900000e-07	-4.590693e-06	-8.853300e-10	-3.187456e+01	-5.586244e+01
7.000000e-07	-4.563684e-06	-8.314450e-10	-3.168703e+01	-5.590626e+01
7.100000e-07	-4.536395e-06	-8.405486e-10	-3.149755e+01	-5.594836e+01
7.200000e-07	-4.508886e-06	-8.685235e-10	-3.130655e+01	-5.598798e+01
7.300000e-07	-4.481112e-06	-8.342194e-10	-3.111371e+01	-5.602443e+01
7.400000e-07	-4.453096e-06	-8.371702e-10	-3.091918e+01	-5.605711e+01
7.500000e-07	-4.424948e-06	-8.682685e-10	-3.072374e+01	-5.608552e+01
7.600000e-07	-4.396578e-06	-8.603871e-10	-3.052676e+01	-5.610928e+01
7.700000e-07	-4.367955e-06	-8.436390e-10	-3.032802e+01	-5.612813e+01
7.800000e-07	-4.339038e-06	-8.599388e-10	-3.012724e+01	-5.614190e+01
7.900000e-07	-4.309658e-06	-8.451734e-10	-2.992325e+01	-5.615059e+01
8.000000e-07	-4.279921e-06	-8.290848e-10	-2.971678e+01	-5.615426e+01
8.100000e-07	-4.249974e-06	-8.418915e-10	-2.950885e+01	-5.615313e+01
8.200000e-07	-4.219761e-06	-8.522725e-10	-2.929907e+01	-5.614748e+01
8.300000e-07	-4.189300e-06	-8.421774e-10	-2.908757e+01	-5.613772e+01
8.400000e-07	-4.158588e-06	-8.601372e-10	-2.887433e+01	-5.612430e+01
8.500000e-07	-4.127564e-06	-8.715680e-10	-2.865891e+01	-5.610776e+01
8.600000e-07	-4.096250e-06	-8.546523e-10	-2.844149e+01	-5.608866e+01
8.700000e-07	-4.064664e-06	-8.452407e-10	-2.822219e+01	-5.606760e+01
8.800000e-07	-4.032951e-06	-8.564518e-10	-2.800199e+01	-5.604518e+01
8.900000e-07	-4.001056e-06	-8.457291e-10	-2.778054e+01	-5.602201e+01
9.000000e-07	-3.968888e-06	-8.391894e-10	-2.755718e+01	-5.599863e+01
9.100000e-07	-3.936491e-06	-8.544429e-10	-2.733224e+01	-5.597557e+01
9.200000e-07	-3.903794e-06	-8.553738e-10	-2.710522e+01	-5.595328e+01
9.300000e-07	-3.870725e-06	-8.441037e-10	-2.687560e+01	-5.593215e+01
9.400000e-07	-3.837217e-06	-8.564363e-10	-2.664295e+01	-5.591246e+01
9.500000e-07	-3.803263e-06	-8.634206e-10	-2.640720e+01	-5.589440e+01
9.600000e-07	-3.768852e-06	-8.420860e-10	-2.616827e+01	-5.587805e+01
9.700000e-07	-3.733982e-06	-8.342311e-10	-2.592616e+01	-5.586340e+01
9.800000e-07	-3.698694e-06	-8.421342e-10	-2.568114e+01	-5.585030e+01
9.900000e-07	-3.663129e-06	-8.361845e-10	-2.543420e+01	-5.583851e+01
1.000000e-06	-3.627401e-06	-8.318423e-10	-2.518614e+01	-5.582767e+01
1.010000e-06	-3.591516e-06	-8.488521e-10	-2.493698e+01	-5.581734e+01
1.020000e-06	-3.555512e-06	-8.522624e-10	-2.468699e+01	-5.580698e+01
1.030000e-06	-3.519377e-06	-8.434490e-10	-2.443609e+01	-5.579598e+01
1.040000e-06	-3.483111e-06	-8.439759e-10	-2.418429e+01	-5.578365e+01
1.050000e-06	-3.446614e-06	-8.452551e-10	-2.393088e+01	-5.576928e+01
1.060000e-06	-3.409867e-06	-8.324209e-10	-2.367573e+01	-5.575213e+01
1.070000e-06	-3.372897e-06	-8.334017e-10	-2.341903e+01	-5.573143e+01
1.080000e-06	-3.335598e-06	-8.443160e-10	-2.316006e+01	-5.570644e+01
1.090000e-06	-3.298042e-06	-8.464651e-10	-2.289930e+01	-5.567644e+01
1.100000e-06	-3.260281e-06	-8.414112e-10	-2.263711e+01	-5.564076e+01
1.110000e-06	-3.222230e-06	-8.418124e-10	-2.237291e+01	-5.559879e+01
1.120000e-06	-3.183906e-06	-8.341803e-10	-2.210682e+01	-5.554999e+01
1.130000e-06	-3.145371e-06	-8.263189e-10	-2.183925e+01	-5.549393e+01
1.140000e-06	-3.106659e-06	-8.295019e-10	-2.157046e+01	-5.543028e+01
1.150000e-06	-3.067810e-06	-8.362691e-10	-2.130073e+01	-5.535881e+01
1.160000e-06	-3.028785e-06	-8.342659e-10	-2.102976e+01	-5.527944e+01
1.170000e-06	-2.989528e-06	-8.356216e-10	-2.075719e+01	-5.519217e+01
1.180000e-06	-2.950046e-06	-8.371559e-10	-2.048306e+01	-5.509717e+01
1.190000e-06	-2.910336e-06	-8.327525e-10	-2.020734e+01	-5.499469e+01
1.200000e-06	-2.870486e-06	-8.248088e-10	-1.993064e+01	-5.488513e+01
1.210000e-06	-2.830565e-06	-8.195028e-10	-1.965346e+01	-5.476896e+01
1.220000e-06	-2.790520e-06	-8.141896e-10	-1.937542e+01	-5.464678e+01
1.230000e-06	-2.750320e-06	-8.104797e-10	-1.909629e+01	-5.451924e+01
1.240000e-06	-2.709966e-06	-8.142735e-10	-1.881611e+01	-5.438709e+01
1.250000e-06	-2.669479e-06	-8.207793e-10	-1.853500e+01	-5.425109e+01
1.260000e-06	-2.628767e-06	-8.239946e-10	-1.825232e+01	-5.411205e+01
1.270000e-06	-2.587713e-06	-8.227867e-10	-1.796727e+01	-5.397078e+01
1.280000e-06	-2.546364e-06	-8.209818e-10	-1.768017e+01	-5.382808e+01
1.290000e-06	-2.504789e-06	-8.134005e-10	-1.739150e+01	-5.368472e+01
1.300000e-06	-2.463020e-06	-8.024540e-10	-1.710149e+01	-5.354140e+01
1.310000e-06	-2.420935e-06	-7.959468e-10	-1.680928e+01	-5.339877e+01
1.320000e-06	-2.378476e-06	-7.956364e-10	-1.651448e+01	-5.325738e+01
1.330000e-06	-2.335722e-06	-7.949570e-10	-1.621762e+01	-5.311765e+01
1.340000e-06	-2.292722e-06	-7.965048e-10	-1.591906e+01	-5.297992e+01
1.350000e-06	-2.249519e-06	-7.967162e-10	-1.561909e+01	-5.284438e+01
1.360000e-06	-2.206131e-06	-7.924781e-10	-1.531783e+01	-5.271106e+01
1.370000e-06	-2.162643e-06	-7.867669e-10	-1.501588e+01	-5.257988e+01
1.380000e-06	-2.118988e-06	-7.833119e-10	-1.471277e+01	-5.245058e+01
1.390000e-06	-2.075186e-06	-7.795233e-10	-1.440864e+01	-5.232278e+01
1.400000e-06	-2.031349e-06	-7.770720e-10	-1.410427e+01	-5.219594e+01
1.410000e-06	-1.987424e-06	-7.756166e-10	-1.379928e+01	-5.206938e+01
1.420000e-06	-1.943389e-06	-7.725189e-10	-1.349353e+01	-5.194230e+01
1.430000e-06	-1.899268e-06	-7.690085e-10	-1.318718e+01	-5.181377e+01
1.440000e-06	-1.855042e-06	-7.682464e-10	-1.288011e+01	-5.168279e+01
1.450000e-06	-1.810727e-06	-7.656745e-10	-1.257242e+01	-5.154824e+01
1.460000e-06	-1.766308e-06	-7.615969e-10	-1.226401e+01	-5.140894e+01
1.470000e-06	-1.721752e-06	-7.561307e-10	-1.195464e+01	-5.126366e+01
1.480000e-06	-1.677098e-06	-7.521613e-10	-1.164459e+01	-5.111115e+01
1.490000e-06	-1.632382e-06	-7.476208e-10	-1.133412e+01	-5.095015e+01
1.500000e-06	-1.587523e-06	-7.414246e-10	-1.102265e+01	-5.077937e+01
1.510000e-06	-1.542498e-06	-7.384735e-10	-1.071003e+01	-5.059759e+01
1.520000e-06	-1.497333e-06	-7.374045e-10	-1.039643e+01	-5.040361e+01
1.530000e-06	-1.452063e-06	-7.365194e-10	-1.008211e+01	-5.019629e+01
1.540000e-06	-1.406726e-06	-7.370158e-10	-9.767321e+00	-4.997456e+01
1.550000e-06	-1.361253e-06	-7.356169e-10	-9.451587e+00	-4.973743e+01
1.560000e-06	-1.315617e-06	-7.309479e-10	-9.134725e+00	-4.948401e+01
1.570000e-06	-1.269971e-06	-7.258955e-10	-8.817792e+00	-4.921349e+01
1.580000e-06	-1.224304e-06	-7.208049e-10	-8.500708e+00	-4.892517e+01
1.590000e-06	-1.178474e-06	-7.161870e-10	-8.182497e+00	-4.861846e+01
1.600000e-06	-1.132567e-06	-7.126337e-10	-7.863754e+00	-4.829284e+01
1.610000e-06	-1.086614e-06	-7.061288e-10	-7.544690e+00	-4.794790e+01
1.620000e-06	-1.040512e-06	-6.964303e-10	-7.224588e+00	-4.758333e+01
1.630000e-06	-9.942936e-07	-6.892514e-10	-6.903679e+00	-4.719885e+01
1.640000e-06	-9.480817e-07	-6.823791e-10	-6.582816e+00	-4.679430e+01
1.650000e-06	-9.018235e-07	-6.747602e-10	-6.261631e+00	-4.636952e+01
1.660000e-06	-8.554579e-07	-6.664195e-10	-5.939701e+00	-4.592442e+01
1.670000e-06	-8.089729e-07	-6.577903e-10	-5.616942e+00	-4.545892e+01
1.680000e-06	-7.624589e-07	-6.475787e-10	-5.293981e+00	-4.497294e+01
1.690000e-06	-7.160128e-07	-6.378651e-10	-4.971492e+00	-4.446639e+01
1.700000e-06	-6.695496e-07	-6.303875e-10	-4.648884e+00	-4.393918e+01
1.710000e-06	-6.230331e-07	-6.245991e-10	-4.325906e+00	-4.339115e+01
1.720000e-06	-5.764294e-07	-6.188554e-10	-4.002322e+00	-4.282210e+01
1.730000e-06	-5.297653e-07	-6.099052e-10	-3.678319e+00	-4.223178e+01
1.740000e-06	-4.831191e-07	-5.975994e-10	-3.354441e+00	-4.161985e+01
1.750000e-06	-4.364508e-07	-5.833304e-10	-3.030409e+00	-4.098593e+01
1.760000e-06	-3.897091e-07	-5.680551e-10	-2.705867e+00	-4.032952e+01
1.770000e-06	-3.428018e-07	-5.553459e-10	-2.380176e+00	-3.965008e+01
1.780000e-06	-2.958573e-07	-5.452241e-10	-2.054226e+00	-3.894697e+01
1.790000e-06	-2.490362e-07	-5.366870e-10	-1.729133e+00	-3.821948e+01
1.800000e-06	-2.021633e-07	-5.262815e-10	-1.403680e+00	-3.746685e+01
1.810000e-06	-1.551649e-07	-5.130594e-10	-1.077356e+00	-3.668826e+01
1.820000e-06	-1.082569e-07	-4.994008e-10	-7.516605e-01	-3.588287e+01
1.830000e-06	-6.143116e-08	-4.851659e-10	-4.265350e-01	-3.504980e+01
1.840000e-06	-1.462360e-08	-4.720045e-10	-1.015361e-01	-3.418818e+01
1.850000e-06	3.217361e-08	-4.594791e-10	2.233910e-01	-3.329714e+01
1.860000e-06	7.900329e-08	-4.465743e-10	5.485436e-01	-3.237587e+01
1.870000e-06	1.258826e-07	-4.337637e-10	8.740405e-01	-3.142361e+01
1.880000e-06	1.727910e-07	-4.206017e-10	1.199740e+00	-3.043968e+01
1.890000e-06	2.196266e-07	-4.066144e-10	1.524933e+00	-2.942349e+01
1.900000e-06	2.664506e-07	-3.901887e-10	1.850046e+00	-2.837460e+01
1.910000e-06	3.133383e-07	-3.725159e-10	2.175602e+00	-2.729271e+01
1.920000e-06	3.602234e-07	-3.570230e-10	2.501139e+00	-2.617766e+01
1.930000e-06	4.070504e-07	-3.427534e-10	2.826273e+00	-2.502948e+01
1.940000e-06	4.538480e-07	-3.267557e-10	3.151203e+00	-2.384842e+01
1.950000e-06	5.006153e-07	-3.092120e-10	3.475922e+00	-2.263489e+01
1.960000e-06	5.472876e-07	-2.939451e-10	3.799982e+00	-2.138955e+01
1.970000e-06	5.938656e-07	-2.792045e-10	4.123387e+00	-2.011326e+01
1.980000e-06	6.404076e-07	-2.629372e-10	4.446542e+00	-1.880710e+01
1.990000e-06	6.869162e-07	-2.452358e-10	4.769465e+00	-1.747237e+01
2.000000e-06	7.333511e-07	-2.236465e-10	5.091877e+00	-1.611060e+01
2.010000e-06	7.797101e-07	-1.979779e-10	5.413762e+00	-1.472350e+01
2.020000e-06	8.260029e-07	-1.742835e-10	5.735186e+00	-1.331300e+01
2.030000e-06	8.721712e-07	-1.543942e-10	6.055747e+00	-1.188119e+01
2.040000e-06	9.182815e-07	-1.372835e-10	6.375904e+00	-1.043034e+01
2.050000e-06	9.644097e-07	-1.207705e-10	6.696186e+00	-8.962848e+00
2.060000e-06	1.010529e-06	-1.019329e-10	7.016409e+00	-7.481247e+00
2.070000e-06	1.056602e-06	-8.061860e-11	7.336308e+00	-5.988166e+00
2.080000e-06	1.102578e-06	-5.714818e-11	7.655530e+00	-4.486305e+00
2.090000e-06	1.148456e-06	-3.227972e-11	7.974076e+00	-2.978419e+00
2.100000e-06	1.194263e-06	-8.508382e-12	8.292129e+00	-1.467281e+00
2.110000e-06	1.239967e-06	1.281570e-11	8.609461e+00	4.433236e-02
2.120000e-06	1.285548e-06	3.277960e-11	8.925945e+00	1.553675e+00
2.130000e-06	1.330986e-06	5.196770e-11	9.241438e+00	3.058051e+00
2.140000e-06	1.376342e-06	7.042576e-11	9.556357e+00	4.554838e+00
2.150000e-06	1.421652e-06	9.063187e-11	9.870956e+00	6.041507e+00
2.160000e-06	1.466867e-06	1.128473e-10	1.018490e+01	7.515646e+00
2.170000e-06	1.512004e-06	1.331560e-10	1.049830e+01	8.974973e+00
2.180000e-06	1.557017e-06	1.520288e-10	1.081084e+01	1.041735e+01
2.190000e-06	1.601912e-06	1.730132e-10	1.112256e+01	1.184079e+01
2.200000e-06	1.646724e-06	1.935155e-10	1.143370e+01	1.324350e+01
2.210000e-06	1.691386e-06	2.088601e-10	1.174380e+01	1.462381e+01
2.220000e-06	1.735907e-06	2.226503e-10	1.205292e+01	1.598028e+01
2.230000e-06	1.780263e-06	2.393534e-10	1.236090e+01	1.731161e+01
2.240000e-06	1.824477e-06	2.565321e-10	1.266789e+01	1.861669e+01
2.250000e-06	1.868627e-06	2.727829e-10	1.297444e+01	1.989459e+01
2.260000e-06	1.912713e-06	2.920073e-10	1.328054e+01	2.114452e+01
2.270000e-06	1.956771e-06	3.115816e-10	1.358645e+01	2.236587e+01
2.280000e-06	2.000768e-06	3.298898e-10	1.389193e+01	2.355819e+01
2.290000e-06	2.044688e-06	3.459956e-10	1.419688e+01	2.472112e+01
2.300000e-06	2.088551e-06	3.607300e-10	1.450144e+01	2.585449e+01
2.310000e-06	2.132315e-06	3.759098e-10	1.480530e+01	2.695819e+01
2.320000e-06	2.176002e-06	3.907483e-10	1.510863e+01	2.803225e+01
2.330000e-06	2.219595e-06	4.047327e-10	1.541131e+01	2.907676e+01
2.340000e-06	2.263031e-06	4.183150e-10	1.571290e+01	3.009191e+01
2.350000e-06	2.306274e-06	4.335439e-10	1.601316e+01	3.107793e+01
2.360000e-06	2.349205e-06	4.477025e-10	1.631124e+01	3.203511e+01
2.370000e-06	2.391786e-06	4.585543e-10	1.660689e+01	3.296381e+01
2.380000e-06	2.433999e-06	4.680500e-10	1.689999e+01	3.386438e+01
2.390000e-06	2.475813e-06	4.790644e-10	1.719031e+01	3.473722e+01
2.400000e-06	2.517307e-06	4.912111e-10	1.747842e+01	3.558275e+01
2.410000e-06	2.558647e-06	5.050842e-10	1.776545e+01	3.640137e+01
2.420000e-06	2.599728e-06	5.192125e-10	1.805069e+01	3.719353e+01
2.430000e-06	2.640529e-06	5.314763e-10	1.833399e+01	3.795965e+01
2.440000e-06	2.681125e-06	5.418389e-10	1.861585e+01	3.870017e+01
2.450000e-06	2.721478e-06	5.487713e-10	1.889604e+01	3.941553e+01
2.460000e-06	2.761643e-06	5.537854e-10	1.917491e+01	4.010616e+01
2.470000e-06	2.801665e-06	5.608694e-10	1.945280e+01	4.077251e+01
2.480000e-06	2.841602e-06	5.702465e-10	1.973009e+01	4.141500e+01
2.490000e-06	2.881463e-06	5.812169e-10	2.000686e+01	4.203410e+01
2.500000e-06	2.921186e-06	5.921861e-10	2.028267e+01	4.263024e+01
2.510000e-06	2.960686e-06	6.028740e-10	2.055693e+01	4.320390e+01
2.520000e-06	2.999979e-06	6.114376e-10	2.082975e+01	4.375555e+01
2.530000e-06	3.039085e-06	6.179724e-10	2.110128e+01	4.428568e+01
2.540000e-06	3.077931e-06	6.240050e-10	2.137100e+01	4.479478e+01
2.550000e-06	3.116550e-06	6.296070e-10	2.163914e+01	4.528340e+01
2.560000e-06	3.155019e-06	6.351158e-10	2.190624e+01	4.575205e+01
2.570000e-06	3.193294e-06	6.402640e-10	2.217200e+01	4.620131e+01
2.580000e-06	3.231401e-06	6.467279e-10	2.243659e+01	4.663173e+01
2.590000e-06	3.269373e-06	6.543823e-10	2.270024e+01	4.704393e+01
2.600000e-06	3.307070e-06	6.621571e-10	2.296198e+01	4.743849e+01
2.610000e-06	3.344478e-06	6.684432e-10	2.322172e+01	4.781603e+01
2.620000e-06	3.381705e-06	6.735518e-10	2.348019e+01	4.817719e+01
2.630000e-06	3.418626e-06	6.786006e-10	2.373655e+01	4.852258e+01
2.640000e-06	3.455237e-06	6.814694e-10	2.399075e+01	4.885285e+01
2.650000e-06	3.491639e-06	6.843305e-10	2.424350e+01	4.916863e+01
2.660000e-06	3.527811e-06	6.893909e-10	2.449465e+01	4.947053e+01
2.670000e-06	3.563803e-06	6.934317e-10	2.474455e+01	4.975917e+01
2.680000e-06	3.599720e-06	6.964784e-10	2.499394e+01	5.003514e+01
2.690000e-06	3.635557e-06	7.003862e-10	2.524276e+01	5.029901e+01
2.700000e-06	3.671246e-06	7.060479e-10	2.549056e+01	5.055136e+01
2.710000e-06	3.706687e-06	7.114893e-10	2.573664e+01	5.079269e+01
2.720000e-06	3.741898e-06	7.187886e-10	2.598112e+01	5.102351e+01
2.730000e-06	3.776849e-06	7.261744e-10	2.622379e+01	5.124429e+01
2.740000e-06	3.811235e-06	7.304465e-10	2.646255e+01	5.145547e+01
2.750000e-06	3.844970e-06	7.326594e-10	2.669678e+01	5.165745e+01
2.760000e-06	3.878222e-06	7.338437e-10	2.692766e+01	5.185060e+01
2.770000e-06	3.911046e-06	7.350906e-10	2.715557e+01	5.203527e+01
2.780000e-06	3.943486e-06	7.392428e-10	2.738081e+01	5.221177e+01
2.790000e-06	3.975708e-06	7.464823e-10	2.760453e+01	5.238039e+01
2.800000e-06	4.007809e-06	7.538599e-10	2.782742e+01	5.254140e+01
2.810000e-06	4.039786e-06	7.597572e-10	2.804945e+01	5.269503e+01
2.820000e-06	4.071586e-06	7.630161e-10	2.827024e+01	5.284152e+01
2.830000e-06	4.103163e-06	7.636968e-10	2.848949e+01	5.298107e+01
2.840000e-06	4.134509e-06	7.642266e-10	2.870714e+01	5.311390e+01
2.850000e-06	4.165537e-06	7.660469e-10	2.892257e+01	5.324020e+01
2.860000e-06	4.196188e-06	7.696953e-10	2.913539e+01	5.336018e+01
2.870000e-06	4.226506e-06	7.740443e-10	2.934590e+01	5.347403e+01
2.880000e-06	4.256495e-06	7.791409e-10	2.955413e+01	5.358196e+01
2.890000e-06	4.286288e-06	7.850347e-10	2.976098e+01	5.368418e+01
2.900000e-06	4.315885e-06	7.897004e-10	2.996649e+01	5.378091e+01
