# Temperatura_=_9.6
# Concentracion g/m^3_=_1620.0
# C_Vs_to_Am_M_A/Vsm_=_65563218390.804596
# pendiente_HvsI_1/m_=_3716.3
# ordenada_HvsI_A/m_=_1297.0
# frecuencia_Hz_=_135105.07803977616

Tiempo_(s)	Campo_(V.s)	Magnetizacion_(V.s)	Campo_(kA/m)	Magnetizacion_(A/m)
0.000000e+00	-5.530324e-06	-1.330098e-09	-3.837710e+01	-8.912629e+01
1.000000e-08	-5.530430e-06	-1.327825e-09	-3.837783e+01	-8.909845e+01
2.000000e-08	-5.530312e-06	-1.326447e-09	-3.837701e+01	-8.906950e+01
3.000000e-08	-5.529908e-06	-1.324561e-09	-3.837421e+01	-8.903951e+01
4.000000e-08	-5.529159e-06	-1.322618e-09	-3.836901e+01	-8.900857e+01
5.000000e-08	-5.527925e-06	-1.319596e-09	-3.836045e+01	-8.897680e+01
6.000000e-08	-5.526016e-06	-1.309274e-09	-3.834720e+01	-8.894434e+01
7.000000e-08	-5.523537e-06	-1.295671e-09	-3.833000e+01	-8.891134e+01
8.000000e-08	-5.520545e-06	-1.298740e-09	-3.830923e+01	-8.887793e+01
9.000000e-08	-5.517081e-06	-1.355571e-09	-3.828520e+01	-8.884426e+01
1.000000e-07	-5.513098e-06	-1.407074e-09	-3.825756e+01	-8.881048e+01
1.100000e-07	-5.508703e-06	-1.342102e-09	-3.822706e+01	-8.877669e+01
1.200000e-07	-5.504184e-06	-1.221977e-09	-3.819570e+01	-8.874298e+01
1.300000e-07	-5.499577e-06	-1.275494e-09	-3.816373e+01	-8.870943e+01
1.400000e-07	-5.494561e-06	-1.377498e-09	-3.812892e+01	-8.867604e+01
1.500000e-07	-5.488956e-06	-1.366055e-09	-3.809002e+01	-8.864280e+01
1.600000e-07	-5.482990e-06	-1.251880e-09	-3.804863e+01	-8.860965e+01
1.700000e-07	-5.476722e-06	-1.269832e-09	-3.800513e+01	-8.857646e+01
1.800000e-07	-5.469967e-06	-1.381570e-09	-3.795825e+01	-8.854309e+01
1.900000e-07	-5.462763e-06	-1.377953e-09	-3.790826e+01	-8.850931e+01
2.000000e-07	-5.455336e-06	-1.291345e-09	-3.785672e+01	-8.847486e+01
2.100000e-07	-5.447724e-06	-1.276733e-09	-3.780390e+01	-8.843943e+01
2.200000e-07	-5.439829e-06	-1.356995e-09	-3.774911e+01	-8.840267e+01
2.300000e-07	-5.431564e-06	-1.369355e-09	-3.769176e+01	-8.836420e+01
2.400000e-07	-5.423011e-06	-1.323562e-09	-3.763240e+01	-8.832358e+01
2.500000e-07	-5.413978e-06	-1.299425e-09	-3.756973e+01	-8.828038e+01
2.600000e-07	-5.404092e-06	-1.351107e-09	-3.750112e+01	-8.823413e+01
2.700000e-07	-5.393532e-06	-1.352470e-09	-3.742784e+01	-8.818435e+01
2.800000e-07	-5.382548e-06	-1.324475e-09	-3.735162e+01	-8.813058e+01
2.900000e-07	-5.371058e-06	-1.312907e-09	-3.727189e+01	-8.807234e+01
3.000000e-07	-5.359178e-06	-1.348882e-09	-3.718945e+01	-8.800921e+01
3.100000e-07	-5.346973e-06	-1.339421e-09	-3.710475e+01	-8.794074e+01
3.200000e-07	-5.334220e-06	-1.312335e-09	-3.701625e+01	-8.786657e+01
3.300000e-07	-5.320955e-06	-1.305664e-09	-3.692420e+01	-8.778636e+01
3.400000e-07	-5.307415e-06	-1.335198e-09	-3.683024e+01	-8.769980e+01
3.500000e-07	-5.293549e-06	-1.332020e-09	-3.673402e+01	-8.760669e+01
3.600000e-07	-5.279111e-06	-1.304973e-09	-3.663383e+01	-8.750683e+01
3.700000e-07	-5.264189e-06	-1.316349e-09	-3.653028e+01	-8.740014e+01
3.800000e-07	-5.249042e-06	-1.334567e-09	-3.642517e+01	-8.728658e+01
3.900000e-07	-5.233332e-06	-1.287425e-09	-3.631615e+01	-8.716618e+01
4.000000e-07	-5.216928e-06	-1.267954e-09	-3.620231e+01	-8.703904e+01
4.100000e-07	-5.200219e-06	-1.330899e-09	-3.608636e+01	-8.690535e+01
4.200000e-07	-5.183169e-06	-1.321904e-09	-3.596805e+01	-8.676535e+01
4.300000e-07	-5.165727e-06	-1.250613e-09	-3.584701e+01	-8.661933e+01
4.400000e-07	-5.148049e-06	-1.288753e-09	-3.572434e+01	-8.646764e+01
4.500000e-07	-5.130191e-06	-1.354619e-09	-3.560041e+01	-8.631071e+01
4.600000e-07	-5.111883e-06	-1.269121e-09	-3.547336e+01	-8.614897e+01
4.700000e-07	-5.092975e-06	-1.230209e-09	-3.534215e+01	-8.598291e+01
4.800000e-07	-5.073731e-06	-1.315294e-09	-3.520861e+01	-8.581303e+01
4.900000e-07	-5.054235e-06	-1.307223e-09	-3.507332e+01	-8.563985e+01
5.000000e-07	-5.034452e-06	-1.225331e-09	-3.493604e+01	-8.546390e+01
5.100000e-07	-5.014491e-06	-1.286023e-09	-3.479752e+01	-8.528570e+01
5.200000e-07	-4.994324e-06	-1.319046e-09	-3.465758e+01	-8.510576e+01
5.300000e-07	-4.973841e-06	-1.237319e-09	-3.451544e+01	-8.492456e+01
5.400000e-07	-4.952996e-06	-1.245988e-09	-3.437079e+01	-8.474256e+01
5.500000e-07	-4.931722e-06	-1.318941e-09	-3.422316e+01	-8.456017e+01
5.600000e-07	-4.910043e-06	-1.252007e-09	-3.407272e+01	-8.437776e+01
5.700000e-07	-4.888119e-06	-1.212700e-09	-3.392058e+01	-8.419565e+01
5.800000e-07	-4.865947e-06	-1.287460e-09	-3.376672e+01	-8.401409e+01
5.900000e-07	-4.843336e-06	-1.282354e-09	-3.360981e+01	-8.383327e+01
6.000000e-07	-4.820225e-06	-1.218930e-09	-3.344944e+01	-8.365334e+01
6.100000e-07	-4.796797e-06	-1.262354e-09	-3.328686e+01	-8.347437e+01
6.200000e-07	-4.773169e-06	-1.283467e-09	-3.312290e+01	-8.329635e+01
6.300000e-07	-4.749377e-06	-1.226985e-09	-3.295780e+01	-8.311924e+01
6.400000e-07	-4.725376e-06	-1.232427e-09	-3.279124e+01	-8.294291e+01
6.500000e-07	-4.700992e-06	-1.267187e-09	-3.262203e+01	-8.276719e+01
6.600000e-07	-4.676197e-06	-1.232282e-09	-3.244997e+01	-8.259185e+01
6.700000e-07	-4.650947e-06	-1.222831e-09	-3.227475e+01	-8.241663e+01
6.800000e-07	-4.625146e-06	-1.255692e-09	-3.209571e+01	-8.224122e+01
6.900000e-07	-4.598704e-06	-1.239803e-09	-3.191222e+01	-8.206525e+01
7.000000e-07	-4.571787e-06	-1.217575e-09	-3.172543e+01	-8.188838e+01
7.100000e-07	-4.544569e-06	-1.232453e-09	-3.153655e+01	-8.171020e+01
7.200000e-07	-4.517025e-06	-1.227799e-09	-3.134541e+01	-8.153032e+01
7.300000e-07	-4.489259e-06	-1.204875e-09	-3.115273e+01	-8.134834e+01
7.400000e-07	-4.461332e-06	-1.212661e-09	-3.095894e+01	-8.116387e+01
7.500000e-07	-4.433213e-06	-1.216513e-09	-3.076381e+01	-8.097651e+01
7.600000e-07	-4.404897e-06	-1.205450e-09	-3.056731e+01	-8.078589e+01
7.700000e-07	-4.376246e-06	-1.205327e-09	-3.036849e+01	-8.059169e+01
7.800000e-07	-4.347229e-06	-1.208346e-09	-3.016714e+01	-8.039358e+01
7.900000e-07	-4.317922e-06	-1.194714e-09	-2.996376e+01	-8.019127e+01
8.000000e-07	-4.288340e-06	-1.194082e-09	-2.975848e+01	-7.998454e+01
8.100000e-07	-4.258536e-06	-1.193928e-09	-2.955165e+01	-7.977317e+01
8.200000e-07	-4.228450e-06	-1.183953e-09	-2.934288e+01	-7.955699e+01
8.300000e-07	-4.197984e-06	-1.179103e-09	-2.913146e+01	-7.933588e+01
8.400000e-07	-4.167148e-06	-1.189184e-09	-2.891748e+01	-7.910976e+01
8.500000e-07	-4.136021e-06	-1.182566e-09	-2.870148e+01	-7.887859e+01
8.600000e-07	-4.104666e-06	-1.170444e-09	-2.848389e+01	-7.864235e+01
8.700000e-07	-4.073125e-06	-1.169368e-09	-2.826502e+01	-7.840108e+01
8.800000e-07	-4.041395e-06	-1.167743e-09	-2.804483e+01	-7.815483e+01
8.900000e-07	-4.009519e-06	-1.155969e-09	-2.782363e+01	-7.790369e+01
9.000000e-07	-3.977462e-06	-1.155414e-09	-2.760117e+01	-7.764777e+01
9.100000e-07	-3.945096e-06	-1.155565e-09	-2.737657e+01	-7.738720e+01
9.200000e-07	-3.912391e-06	-1.145565e-09	-2.714962e+01	-7.712212e+01
9.300000e-07	-3.879373e-06	-1.140609e-09	-2.692049e+01	-7.685268e+01
9.400000e-07	-3.845904e-06	-1.145057e-09	-2.668824e+01	-7.657904e+01
9.500000e-07	-3.811923e-06	-1.137300e-09	-2.645243e+01	-7.630135e+01
9.600000e-07	-3.777458e-06	-1.123732e-09	-2.621326e+01	-7.601975e+01
9.700000e-07	-3.742496e-06	-1.119400e-09	-2.597065e+01	-7.573440e+01
9.800000e-07	-3.707111e-06	-1.111739e-09	-2.572510e+01	-7.544542e+01
9.900000e-07	-3.671499e-06	-1.098049e-09	-2.547798e+01	-7.515291e+01
1.000000e-06	-3.635844e-06	-1.093760e-09	-2.523055e+01	-7.485698e+01
1.010000e-06	-3.600104e-06	-1.096329e-09	-2.498254e+01	-7.455770e+01
1.020000e-06	-3.564218e-06	-1.091039e-09	-2.473351e+01	-7.425511e+01
1.030000e-06	-3.528198e-06	-1.087232e-09	-2.448355e+01	-7.394926e+01
1.040000e-06	-3.491963e-06	-1.086599e-09	-2.423210e+01	-7.364014e+01
1.050000e-06	-3.455388e-06	-1.078357e-09	-2.397830e+01	-7.332773e+01
1.060000e-06	-3.418531e-06	-1.063488e-09	-2.372253e+01	-7.301200e+01
1.070000e-06	-3.381510e-06	-1.057525e-09	-2.346562e+01	-7.269288e+01
1.080000e-06	-3.344216e-06	-1.053249e-09	-2.320683e+01	-7.237029e+01
1.090000e-06	-3.306615e-06	-1.049037e-09	-2.294590e+01	-7.204414e+01
1.100000e-06	-3.268830e-06	-1.047979e-09	-2.268369e+01	-7.171429e+01
1.110000e-06	-3.230848e-06	-1.046039e-09	-2.242012e+01	-7.138063e+01
1.120000e-06	-3.192647e-06	-1.035669e-09	-2.215503e+01	-7.104301e+01
1.130000e-06	-3.154277e-06	-1.027831e-09	-2.188877e+01	-7.070128e+01
1.140000e-06	-3.115663e-06	-1.022340e-09	-2.162081e+01	-7.035529e+01
1.150000e-06	-3.076719e-06	-1.015310e-09	-2.135056e+01	-7.000486e+01
1.160000e-06	-3.037558e-06	-1.005059e-09	-2.107881e+01	-6.964985e+01
1.170000e-06	-2.998279e-06	-9.987371e-10	-2.080624e+01	-6.929008e+01
1.180000e-06	-2.958816e-06	-9.936634e-10	-2.053239e+01	-6.892540e+01
1.190000e-06	-2.919129e-06	-9.870315e-10	-2.025698e+01	-6.855565e+01
1.200000e-06	-2.879336e-06	-9.805555e-10	-1.998084e+01	-6.818069e+01
1.210000e-06	-2.839438e-06	-9.744147e-10	-1.970398e+01	-6.780038e+01
1.220000e-06	-2.799444e-06	-9.655516e-10	-1.942644e+01	-6.741459e+01
1.230000e-06	-2.759365e-06	-9.596585e-10	-1.914832e+01	-6.702320e+01
1.240000e-06	-2.719154e-06	-9.571684e-10	-1.886928e+01	-6.662610e+01
1.250000e-06	-2.678693e-06	-9.541810e-10	-1.858850e+01	-6.622320e+01
1.260000e-06	-2.637857e-06	-9.506180e-10	-1.830512e+01	-6.581441e+01
1.270000e-06	-2.596834e-06	-9.454514e-10	-1.802045e+01	-6.539966e+01
1.280000e-06	-2.555631e-06	-9.390826e-10	-1.773453e+01	-6.497890e+01
1.290000e-06	-2.514106e-06	-9.317107e-10	-1.744637e+01	-6.455207e+01
1.300000e-06	-2.472142e-06	-9.237816e-10	-1.715516e+01	-6.411915e+01
1.310000e-06	-2.429793e-06	-9.169340e-10	-1.686129e+01	-6.368010e+01
1.320000e-06	-2.387225e-06	-9.118393e-10	-1.656590e+01	-6.323492e+01
1.330000e-06	-2.344357e-06	-9.057738e-10	-1.626842e+01	-6.278359e+01
1.340000e-06	-2.301202e-06	-9.005165e-10	-1.596894e+01	-6.232612e+01
1.350000e-06	-2.257883e-06	-8.942726e-10	-1.566834e+01	-6.186252e+01
1.360000e-06	-2.214411e-06	-8.850904e-10	-1.536667e+01	-6.139280e+01
1.370000e-06	-2.170765e-06	-8.741130e-10	-1.506379e+01	-6.091698e+01
1.380000e-06	-2.127000e-06	-8.648369e-10	-1.476009e+01	-6.043507e+01
1.390000e-06	-2.083179e-06	-8.553629e-10	-1.445600e+01	-5.994709e+01
1.400000e-06	-2.039343e-06	-8.482377e-10	-1.415181e+01	-5.945304e+01
1.410000e-06	-1.995473e-06	-8.418159e-10	-1.384737e+01	-5.895294e+01
1.420000e-06	-1.951515e-06	-8.350036e-10	-1.354233e+01	-5.844677e+01
1.430000e-06	-1.907461e-06	-8.264071e-10	-1.323662e+01	-5.793452e+01
1.440000e-06	-1.863350e-06	-8.173957e-10	-1.293052e+01	-5.741613e+01
1.450000e-06	-1.819149e-06	-8.084501e-10	-1.262379e+01	-5.689156e+01
1.460000e-06	-1.774838e-06	-7.985555e-10	-1.231630e+01	-5.636071e+01
1.470000e-06	-1.730424e-06	-7.865802e-10	-1.200809e+01	-5.582347e+01
1.480000e-06	-1.685810e-06	-7.769473e-10	-1.169850e+01	-5.527968e+01
1.490000e-06	-1.641003e-06	-7.668747e-10	-1.138756e+01	-5.472915e+01
1.500000e-06	-1.596049e-06	-7.554059e-10	-1.107562e+01	-5.417164e+01
1.510000e-06	-1.551010e-06	-7.464457e-10	-1.076307e+01	-5.360685e+01
1.520000e-06	-1.505853e-06	-7.399426e-10	-1.044971e+01	-5.303445e+01
1.530000e-06	-1.460495e-06	-7.328925e-10	-1.013495e+01	-5.245403e+01
1.540000e-06	-1.415036e-06	-7.250263e-10	-9.819490e+00	-5.186512e+01
1.550000e-06	-1.369533e-06	-7.161864e-10	-9.503730e+00	-5.126717e+01
1.560000e-06	-1.323960e-06	-7.040868e-10	-9.187482e+00	-5.065959e+01
1.570000e-06	-1.278300e-06	-6.897282e-10	-8.870623e+00	-5.004167e+01
1.580000e-06	-1.232578e-06	-6.775568e-10	-8.553346e+00	-4.941267e+01
1.590000e-06	-1.186784e-06	-6.701322e-10	-8.235560e+00	-4.877173e+01
1.600000e-06	-1.140907e-06	-6.642258e-10	-7.917204e+00	-4.811795e+01
1.610000e-06	-1.094941e-06	-6.566753e-10	-7.598227e+00	-4.745031e+01
1.620000e-06	-1.048915e-06	-6.466146e-10	-7.278835e+00	-4.676776e+01
1.630000e-06	-1.002828e-06	-6.360183e-10	-6.959017e+00	-4.606914e+01
1.640000e-06	-9.565792e-07	-6.238678e-10	-6.638079e+00	-4.535323e+01
1.650000e-06	-9.102341e-07	-6.104961e-10	-6.316473e+00	-4.461878e+01
1.660000e-06	-8.639376e-07	-5.959023e-10	-5.995203e+00	-4.386443e+01
1.670000e-06	-8.175787e-07	-5.798774e-10	-5.673500e+00	-4.308883e+01
1.680000e-06	-7.711244e-07	-5.635822e-10	-5.351136e+00	-4.229056e+01
1.690000e-06	-7.246560e-07	-5.488403e-10	-5.028673e+00	-4.146818e+01
1.700000e-06	-6.781534e-07	-5.347786e-10	-4.705973e+00	-4.062025e+01
1.710000e-06	-6.316249e-07	-5.206257e-10	-4.383094e+00	-3.974533e+01
1.720000e-06	-5.850575e-07	-5.070962e-10	-4.059944e+00	-3.884199e+01
1.730000e-06	-5.384354e-07	-4.943360e-10	-3.736415e+00	-3.790884e+01
1.740000e-06	-4.917631e-07	-4.788236e-10	-3.412537e+00	-3.694453e+01
1.750000e-06	-4.450022e-07	-4.613265e-10	-3.088046e+00	-3.594778e+01
1.760000e-06	-3.982534e-07	-4.422665e-10	-2.763637e+00	-3.491738e+01
1.770000e-06	-3.514543e-07	-4.230316e-10	-2.438880e+00	-3.385225e+01
1.780000e-06	-3.044416e-07	-4.066001e-10	-2.112640e+00	-3.275139e+01
1.790000e-06	-2.574605e-07	-3.932843e-10	-1.786619e+00	-3.161395e+01
1.800000e-06	-2.105651e-07	-3.798446e-10	-1.461194e+00	-3.043921e+01
1.810000e-06	-1.636731e-07	-3.633244e-10	-1.135792e+00	-2.922662e+01
1.820000e-06	-1.167804e-07	-3.468958e-10	-8.103851e-01	-2.797580e+01
1.830000e-06	-6.987885e-08	-3.307695e-10	-4.849169e-01	-2.668656e+01
1.840000e-06	-2.295463e-08	-3.131434e-10	-1.592912e-01	-2.535887e+01
1.850000e-06	2.394381e-08	-2.939789e-10	1.661555e-01	-2.399294e+01
1.860000e-06	7.078612e-08	-2.729195e-10	4.912127e-01	-2.258916e+01
1.870000e-06	1.176792e-07	-2.505986e-10	8.166222e-01	-2.114814e+01
1.880000e-06	1.646214e-07	-2.280801e-10	1.142373e+00	-1.967068e+01
1.890000e-06	2.115603e-07	-2.080383e-10	1.468100e+00	-1.815780e+01
1.900000e-06	2.584623e-07	-1.891718e-10	1.793571e+00	-1.661074e+01
1.910000e-06	3.052703e-07	-1.686626e-10	2.118391e+00	-1.503091e+01
1.920000e-06	3.520408e-07	-1.465992e-10	2.442949e+00	-1.341993e+01
1.930000e-06	3.988177e-07	-1.229640e-10	2.767553e+00	-1.177958e+01
1.940000e-06	4.455478e-07	-9.822888e-11	3.091831e+00	-1.011183e+01
1.950000e-06	4.922701e-07	-7.336582e-11	3.416056e+00	-8.418783e+00
1.960000e-06	5.389384e-07	-5.145552e-11	3.739906e+00	-6.702693e+00
1.970000e-06	5.855646e-07	-3.213844e-11	4.063463e+00	-4.965929e+00
1.980000e-06	6.321176e-07	-1.232762e-11	4.386512e+00	-3.210964e+00
1.990000e-06	6.785514e-07	9.645441e-12	4.708735e+00	-1.440351e+00
2.000000e-06	7.250020e-07	3.571220e-11	5.031074e+00	3.432924e-01
2.010000e-06	7.714596e-07	6.596281e-11	5.353462e+00	2.137305e+00
2.020000e-06	8.177953e-07	9.582934e-11	5.675003e+00	3.939005e+00
2.030000e-06	8.640462e-07	1.225451e-10	5.995956e+00	5.745706e+00
2.040000e-06	9.103016e-07	1.449675e-10	6.316941e+00	7.554739e+00
2.050000e-06	9.565068e-07	1.645987e-10	6.637577e+00	9.363473e+00
2.060000e-06	1.002600e-06	1.852358e-10	6.957435e+00	1.116933e+01
2.070000e-06	1.048549e-06	2.080248e-10	7.276296e+00	1.296979e+01
2.080000e-06	1.094423e-06	2.329443e-10	7.594633e+00	1.476244e+01
2.090000e-06	1.140296e-06	2.607989e-10	7.912960e+00	1.654494e+01
2.100000e-06	1.186119e-06	2.901772e-10	8.230948e+00	1.831509e+01
2.110000e-06	1.231840e-06	3.173593e-10	8.548225e+00	2.007078e+01
2.120000e-06	1.277509e-06	3.401474e-10	8.865135e+00	2.181004e+01
2.130000e-06	1.323165e-06	3.584961e-10	9.181964e+00	2.353104e+01
2.140000e-06	1.368701e-06	3.748320e-10	9.497956e+00	2.523207e+01
2.150000e-06	1.414049e-06	3.940609e-10	9.812645e+00	2.691159e+01
2.160000e-06	1.459310e-06	4.184078e-10	1.012673e+01	2.856817e+01
2.170000e-06	1.504554e-06	4.459418e-10	1.044069e+01	3.020054e+01
2.180000e-06	1.549690e-06	4.737790e-10	1.075391e+01	3.180756e+01
2.190000e-06	1.594601e-06	4.999247e-10	1.106557e+01	3.338823e+01
2.200000e-06	1.639382e-06	5.224021e-10	1.137632e+01	3.494167e+01
2.210000e-06	1.684104e-06	5.400381e-10	1.168666e+01	3.646713e+01
2.220000e-06	1.728691e-06	5.540293e-10	1.199607e+01	3.796398e+01
2.230000e-06	1.773146e-06	5.675250e-10	1.230456e+01	3.943168e+01
2.240000e-06	1.817448e-06	5.833224e-10	1.261199e+01	4.086982e+01
2.250000e-06	1.861600e-06	6.017438e-10	1.291838e+01	4.227806e+01
2.260000e-06	1.905655e-06	6.241816e-10	1.322409e+01	4.365616e+01
2.270000e-06	1.949626e-06	6.488759e-10	1.352922e+01	4.500396e+01
2.280000e-06	1.993526e-06	6.710395e-10	1.383386e+01	4.632135e+01
2.290000e-06	2.037406e-06	6.893260e-10	1.413836e+01	4.760831e+01
2.300000e-06	2.081267e-06	7.045607e-10	1.444273e+01	4.886487e+01
2.310000e-06	2.125062e-06	7.175218e-10	1.474664e+01	5.009110e+01
2.320000e-06	2.168798e-06	7.294241e-10	1.505014e+01	5.128714e+01
2.330000e-06	2.212479e-06	7.413879e-10	1.535326e+01	5.245315e+01
2.340000e-06	2.256023e-06	7.568055e-10	1.565543e+01	5.358936e+01
2.350000e-06	2.299300e-06	7.773145e-10	1.595575e+01	5.469601e+01
2.360000e-06	2.342345e-06	8.008577e-10	1.625446e+01	5.577339e+01
2.370000e-06	2.385207e-06	8.197908e-10	1.655189e+01	5.682181e+01
2.380000e-06	2.427778e-06	8.328835e-10	1.684731e+01	5.784164e+01
2.390000e-06	2.469948e-06	8.425788e-10	1.713994e+01	5.883327e+01
2.400000e-06	2.511747e-06	8.491204e-10	1.743000e+01	5.979710e+01
2.410000e-06	2.553193e-06	8.574155e-10	1.771761e+01	6.073360e+01
2.420000e-06	2.594335e-06	8.701500e-10	1.800311e+01	6.164325e+01
2.430000e-06	2.635254e-06	8.859088e-10	1.828706e+01	6.252656e+01
2.440000e-06	2.675896e-06	9.010532e-10	1.856909e+01	6.338409e+01
2.450000e-06	2.716280e-06	9.142534e-10	1.884933e+01	6.421642e+01
2.460000e-06	2.756511e-06	9.267391e-10	1.912851e+01	6.502414e+01
2.470000e-06	2.796612e-06	9.375453e-10	1.940679e+01	6.580791e+01
2.480000e-06	2.836564e-06	9.465949e-10	1.968403e+01	6.656839e+01
2.490000e-06	2.876438e-06	9.565887e-10	1.996074e+01	6.730626e+01
2.500000e-06	2.916230e-06	9.673791e-10	2.023687e+01	6.802222e+01
2.510000e-06	2.955848e-06	9.777573e-10	2.051179e+01	6.871700e+01
2.520000e-06	2.995327e-06	9.876196e-10	2.078575e+01	6.939133e+01
2.530000e-06	3.034658e-06	9.978466e-10	2.105869e+01	7.004595e+01
2.540000e-06	3.073796e-06	1.006469e-09	2.133028e+01	7.068159e+01
2.550000e-06	3.112664e-06	1.013985e-09	2.160000e+01	7.129898e+01
2.560000e-06	3.151263e-06	1.021841e-09	2.186785e+01	7.189885e+01
2.570000e-06	3.189639e-06	1.029862e-09	2.213416e+01	7.248190e+01
2.580000e-06	3.227817e-06	1.037107e-09	2.239909e+01	7.304879e+01
2.590000e-06	3.265802e-06	1.043478e-09	2.266268e+01	7.360017e+01
2.600000e-06	3.303520e-06	1.050026e-09	2.292442e+01	7.413666e+01
2.610000e-06	3.340999e-06	1.057869e-09	2.318451e+01	7.465882e+01
2.620000e-06	3.378254e-06	1.066415e-09	2.344303e+01	7.516716e+01
2.630000e-06	3.415247e-06	1.074343e-09	2.369974e+01	7.566217e+01
2.640000e-06	3.451950e-06	1.080028e-09	2.395444e+01	7.614426e+01
2.650000e-06	3.488367e-06	1.083124e-09	2.420715e+01	7.661380e+01
2.660000e-06	3.524581e-06	1.086597e-09	2.445846e+01	7.707109e+01
2.670000e-06	3.560655e-06	1.091171e-09	2.470879e+01	7.751640e+01
2.680000e-06	3.596599e-06	1.096529e-09	2.495822e+01	7.794992e+01
2.690000e-06	3.632454e-06	1.104295e-09	2.520703e+01	7.837181e+01
2.700000e-06	3.668186e-06	1.113336e-09	2.545498e+01	7.878218e+01
2.710000e-06	3.703768e-06	1.120690e-09	2.570190e+01	7.918110e+01
2.720000e-06	3.739146e-06	1.126524e-09	2.594741e+01	7.956859e+01
2.730000e-06	3.774177e-06	1.131929e-09	2.619050e+01	7.994466e+01
2.740000e-06	3.808767e-06	1.137236e-09	2.643054e+01	8.030930e+01
2.750000e-06	3.842766e-06	1.143457e-09	2.666647e+01	8.066248e+01
2.760000e-06	3.876192e-06	1.150901e-09	2.689842e+01	8.100417e+01
2.770000e-06	3.909166e-06	1.157686e-09	2.712724e+01	8.133434e+01
2.780000e-06	3.941765e-06	1.164041e-09	2.735346e+01	8.165298e+01
2.790000e-06	3.974084e-06	1.170374e-09	2.757773e+01	8.196011e+01
2.800000e-06	4.006152e-06	1.175135e-09	2.780026e+01	8.225577e+01
2.810000e-06	4.038082e-06	1.176843e-09	2.802184e+01	8.254004e+01
2.820000e-06	4.069922e-06	1.179289e-09	2.824279e+01	8.281304e+01
2.830000e-06	4.101562e-06	1.184060e-09	2.846235e+01	8.307495e+01
2.840000e-06	4.132964e-06	1.189528e-09	2.868026e+01	8.332602e+01
2.850000e-06	4.164056e-06	1.195477e-09	2.889602e+01	8.356652e+01
2.860000e-06	4.194794e-06	1.202011e-09	2.910933e+01	8.379680e+01
2.870000e-06	4.225223e-06	1.207321e-09	2.932048e+01	8.401729e+01
2.880000e-06	4.255379e-06	1.210873e-09	2.952975e+01	8.422845e+01
2.890000e-06	4.285289e-06	1.215366e-09	2.973731e+01	8.443081e+01
2.900000e-06	4.314888e-06	1.220409e-09	2.994270e+01	8.462493e+01
