# Temperatura_=_-16.91
# Concentracion g/m^3_=_1620.0
# C_Vs_to_Am_M_A/Vsm_=_65563218390.804596
# pendiente_HvsI_1/m_=_3716.3
# ordenada_HvsI_A/m_=_1297.0
# frecuencia_Hz_=_135110.765438501

Tiempo_(s)	Campo_(V.s)	Magnetizacion_(V.s)	Campo_(kA/m)	Magnetizacion_(A/m)
0.000000e+00	-5.521687e-06	-7.850284e-10	-3.836735e+01	-5.409137e+01
1.000000e-08	-5.521781e-06	-7.836266e-10	-3.836800e+01	-5.409506e+01
2.000000e-08	-5.521569e-06	-7.838617e-10	-3.836654e+01	-5.410159e+01
3.000000e-08	-5.520976e-06	-7.855505e-10	-3.836241e+01	-5.411132e+01
4.000000e-08	-5.519972e-06	-7.863367e-10	-3.835544e+01	-5.412458e+01
5.000000e-08	-5.518449e-06	-7.846767e-10	-3.834485e+01	-5.414168e+01
6.000000e-08	-5.516242e-06	-7.879666e-10	-3.832952e+01	-5.416292e+01
7.000000e-08	-5.513447e-06	-8.022457e-10	-3.831009e+01	-5.418850e+01
8.000000e-08	-5.510152e-06	-7.809652e-10	-3.828720e+01	-5.421859e+01
9.000000e-08	-5.506326e-06	-7.325037e-10	-3.826062e+01	-5.425331e+01
1.000000e-07	-5.502162e-06	-7.522994e-10	-3.823169e+01	-5.429266e+01
1.100000e-07	-5.497791e-06	-8.280781e-10	-3.820131e+01	-5.433658e+01
1.200000e-07	-5.493178e-06	-8.181126e-10	-3.816926e+01	-5.438493e+01
1.300000e-07	-5.488273e-06	-7.770656e-10	-3.813517e+01	-5.443744e+01
1.400000e-07	-5.482973e-06	-7.511045e-10	-3.809835e+01	-5.449379e+01
1.500000e-07	-5.477269e-06	-8.252844e-10	-3.805871e+01	-5.455355e+01
1.600000e-07	-5.471183e-06	-8.069855e-10	-3.801642e+01	-5.461619e+01
1.700000e-07	-5.464723e-06	-7.827428e-10	-3.797154e+01	-5.468112e+01
1.800000e-07	-5.457775e-06	-7.728602e-10	-3.792326e+01	-5.474767e+01
1.900000e-07	-5.450402e-06	-8.461152e-10	-3.787203e+01	-5.481512e+01
2.000000e-07	-5.442785e-06	-8.351913e-10	-3.781910e+01	-5.488267e+01
2.100000e-07	-5.434962e-06	-8.233884e-10	-3.776475e+01	-5.494953e+01
2.200000e-07	-5.426932e-06	-8.199661e-10	-3.770895e+01	-5.501484e+01
2.300000e-07	-5.418572e-06	-8.625526e-10	-3.765086e+01	-5.507778e+01
2.400000e-07	-5.409625e-06	-8.738122e-10	-3.758869e+01	-5.513753e+01
2.500000e-07	-5.400040e-06	-8.651598e-10	-3.752209e+01	-5.519328e+01
2.600000e-07	-5.389862e-06	-8.627319e-10	-3.745137e+01	-5.524429e+01
2.700000e-07	-5.379086e-06	-8.383294e-10	-3.737649e+01	-5.528987e+01
2.800000e-07	-5.367806e-06	-8.449273e-10	-3.729811e+01	-5.532942e+01
2.900000e-07	-5.356120e-06	-8.343019e-10	-3.721691e+01	-5.536242e+01
3.000000e-07	-5.344081e-06	-8.489067e-10	-3.713326e+01	-5.538844e+01
3.100000e-07	-5.331602e-06	-8.350032e-10	-3.704655e+01	-5.540719e+01
3.200000e-07	-5.318688e-06	-8.847861e-10	-3.695682e+01	-5.541848e+01
3.300000e-07	-5.305376e-06	-8.607900e-10	-3.686432e+01	-5.542224e+01
3.400000e-07	-5.291684e-06	-8.535288e-10	-3.676918e+01	-5.541854e+01
3.500000e-07	-5.277653e-06	-8.288465e-10	-3.667168e+01	-5.540756e+01
3.600000e-07	-5.263274e-06	-8.561554e-10	-3.657178e+01	-5.538961e+01
3.700000e-07	-5.248392e-06	-8.189998e-10	-3.646837e+01	-5.536512e+01
3.800000e-07	-5.232814e-06	-8.501128e-10	-3.636012e+01	-5.533462e+01
3.900000e-07	-5.216590e-06	-8.576740e-10	-3.624739e+01	-5.529873e+01
4.000000e-07	-5.199948e-06	-8.298147e-10	-3.613175e+01	-5.525818e+01
4.100000e-07	-5.183014e-06	-8.003268e-10	-3.601409e+01	-5.521374e+01
4.200000e-07	-5.165818e-06	-8.596339e-10	-3.589460e+01	-5.516625e+01
4.300000e-07	-5.148309e-06	-8.486628e-10	-3.577294e+01	-5.511658e+01
4.400000e-07	-5.130484e-06	-8.009223e-10	-3.564908e+01	-5.506562e+01
4.500000e-07	-5.112250e-06	-8.319409e-10	-3.552238e+01	-5.501426e+01
4.600000e-07	-5.093606e-06	-8.715127e-10	-3.539284e+01	-5.496338e+01
4.700000e-07	-5.074612e-06	-8.115998e-10	-3.526086e+01	-5.491382e+01
4.800000e-07	-5.055228e-06	-8.021210e-10	-3.512617e+01	-5.486636e+01
4.900000e-07	-5.035538e-06	-8.609361e-10	-3.498935e+01	-5.482172e+01
5.000000e-07	-5.015619e-06	-8.364097e-10	-3.485095e+01	-5.478055e+01
5.100000e-07	-4.995503e-06	-8.016747e-10	-3.471117e+01	-5.474340e+01
5.200000e-07	-4.975149e-06	-8.480929e-10	-3.456974e+01	-5.471071e+01
5.300000e-07	-4.954423e-06	-8.610449e-10	-3.442573e+01	-5.468284e+01
5.400000e-07	-4.933357e-06	-8.038691e-10	-3.427935e+01	-5.466002e+01
5.500000e-07	-4.912018e-06	-8.253046e-10	-3.413108e+01	-5.464237e+01
5.600000e-07	-4.890320e-06	-8.474631e-10	-3.398031e+01	-5.462991e+01
5.700000e-07	-4.868245e-06	-8.138470e-10	-3.382692e+01	-5.462253e+01
5.800000e-07	-4.845822e-06	-8.089019e-10	-3.367111e+01	-5.462005e+01
5.900000e-07	-4.822959e-06	-8.571378e-10	-3.351225e+01	-5.462217e+01
6.000000e-07	-4.799763e-06	-8.340687e-10	-3.335108e+01	-5.462854e+01
6.100000e-07	-4.776315e-06	-8.184763e-10	-3.318815e+01	-5.463870e+01
6.200000e-07	-4.752612e-06	-8.366873e-10	-3.302345e+01	-5.465217e+01
6.300000e-07	-4.728769e-06	-8.407875e-10	-3.285777e+01	-5.466841e+01
6.400000e-07	-4.704695e-06	-8.134192e-10	-3.269050e+01	-5.468686e+01
6.500000e-07	-4.680280e-06	-8.341519e-10	-3.252085e+01	-5.470695e+01
6.600000e-07	-4.655345e-06	-8.402203e-10	-3.234759e+01	-5.472812e+01
6.700000e-07	-4.629799e-06	-8.325521e-10	-3.217008e+01	-5.474982e+01
6.800000e-07	-4.603703e-06	-8.344357e-10	-3.198875e+01	-5.477155e+01
6.900000e-07	-4.577134e-06	-8.524177e-10	-3.180414e+01	-5.479284e+01
7.000000e-07	-4.550154e-06	-8.367392e-10	-3.161667e+01	-5.481328e+01
7.100000e-07	-4.522840e-06	-8.292068e-10	-3.142688e+01	-5.483254e+01
7.200000e-07	-4.495239e-06	-8.287101e-10	-3.123509e+01	-5.485034e+01
7.300000e-07	-4.467425e-06	-8.319802e-10	-3.104183e+01	-5.486652e+01
7.400000e-07	-4.439451e-06	-8.331957e-10	-3.084746e+01	-5.488095e+01
7.500000e-07	-4.411289e-06	-8.442057e-10	-3.065177e+01	-5.489361e+01
7.600000e-07	-4.382838e-06	-8.438500e-10	-3.045408e+01	-5.490456e+01
7.700000e-07	-4.354003e-06	-8.399328e-10	-3.025372e+01	-5.491392e+01
7.800000e-07	-4.324774e-06	-8.390905e-10	-3.005062e+01	-5.492188e+01
7.900000e-07	-4.295223e-06	-8.342695e-10	-2.984529e+01	-5.492870e+01
8.000000e-07	-4.265453e-06	-8.301395e-10	-2.963843e+01	-5.493468e+01
8.100000e-07	-4.235411e-06	-8.320618e-10	-2.942969e+01	-5.494013e+01
8.200000e-07	-4.205060e-06	-8.376531e-10	-2.921879e+01	-5.494542e+01
8.300000e-07	-4.174500e-06	-8.349688e-10	-2.900645e+01	-5.495092e+01
8.400000e-07	-4.143674e-06	-8.381624e-10	-2.879225e+01	-5.495698e+01
8.500000e-07	-4.112506e-06	-8.405708e-10	-2.857568e+01	-5.496393e+01
8.600000e-07	-4.081109e-06	-8.428029e-10	-2.835752e+01	-5.497209e+01
8.700000e-07	-4.049574e-06	-8.368206e-10	-2.813840e+01	-5.498172e+01
8.800000e-07	-4.017881e-06	-8.402589e-10	-2.791818e+01	-5.499303e+01
8.900000e-07	-3.985978e-06	-8.342463e-10	-2.769651e+01	-5.500615e+01
9.000000e-07	-3.953790e-06	-8.312527e-10	-2.747284e+01	-5.502116e+01
9.100000e-07	-3.921327e-06	-8.308089e-10	-2.724728e+01	-5.503804e+01
9.200000e-07	-3.888601e-06	-8.373141e-10	-2.701988e+01	-5.505670e+01
9.300000e-07	-3.855355e-06	-8.328214e-10	-2.678887e+01	-5.507696e+01
9.400000e-07	-3.821542e-06	-8.348300e-10	-2.655392e+01	-5.509855e+01
9.500000e-07	-3.787317e-06	-8.369150e-10	-2.631611e+01	-5.512115e+01
9.600000e-07	-3.752697e-06	-8.352460e-10	-2.607556e+01	-5.514433e+01
9.700000e-07	-3.717761e-06	-8.241410e-10	-2.583280e+01	-5.516762e+01
9.800000e-07	-3.682521e-06	-8.237891e-10	-2.558794e+01	-5.519047e+01
9.900000e-07	-3.646978e-06	-8.221705e-10	-2.534097e+01	-5.521231e+01
1.000000e-06	-3.611225e-06	-8.199615e-10	-2.509254e+01	-5.523251e+01
1.010000e-06	-3.575372e-06	-8.201800e-10	-2.484342e+01	-5.525045e+01
1.020000e-06	-3.539464e-06	-8.277278e-10	-2.459391e+01	-5.526549e+01
1.030000e-06	-3.503401e-06	-8.294351e-10	-2.434332e+01	-5.527701e+01
1.040000e-06	-3.467117e-06	-8.286879e-10	-2.409121e+01	-5.528439e+01
1.050000e-06	-3.430571e-06	-8.272850e-10	-2.383727e+01	-5.528708e+01
1.060000e-06	-3.393747e-06	-8.231918e-10	-2.358140e+01	-5.528458e+01
1.070000e-06	-3.356690e-06	-8.192084e-10	-2.332391e+01	-5.527643e+01
1.080000e-06	-3.319369e-06	-8.215426e-10	-2.306458e+01	-5.526227e+01
1.090000e-06	-3.281769e-06	-8.252843e-10	-2.280332e+01	-5.524182e+01
1.100000e-06	-3.243940e-06	-8.221190e-10	-2.254047e+01	-5.521488e+01
1.110000e-06	-3.205855e-06	-8.211562e-10	-2.227583e+01	-5.518136e+01
1.120000e-06	-3.167563e-06	-8.208820e-10	-2.200976e+01	-5.514126e+01
1.130000e-06	-3.129036e-06	-8.190368e-10	-2.174206e+01	-5.509466e+01
1.140000e-06	-3.090240e-06	-8.156919e-10	-2.147248e+01	-5.504176e+01
1.150000e-06	-3.051249e-06	-8.183621e-10	-2.120155e+01	-5.498285e+01
1.160000e-06	-3.012067e-06	-8.175219e-10	-2.092930e+01	-5.491826e+01
1.170000e-06	-2.972758e-06	-8.145705e-10	-2.065616e+01	-5.484843e+01
1.180000e-06	-2.933271e-06	-8.114157e-10	-2.038179e+01	-5.477385e+01
1.190000e-06	-2.893608e-06	-8.128532e-10	-2.010619e+01	-5.469504e+01
1.200000e-06	-2.853816e-06	-8.086521e-10	-1.982969e+01	-5.461256e+01
1.210000e-06	-2.813845e-06	-8.069319e-10	-1.955196e+01	-5.452700e+01
1.220000e-06	-2.773750e-06	-8.049276e-10	-1.927336e+01	-5.443891e+01
1.230000e-06	-2.733526e-06	-8.039578e-10	-1.899386e+01	-5.434885e+01
1.240000e-06	-2.693188e-06	-8.029152e-10	-1.871358e+01	-5.425736e+01
1.250000e-06	-2.652676e-06	-8.084696e-10	-1.843208e+01	-5.416490e+01
1.260000e-06	-2.611912e-06	-8.101481e-10	-1.814883e+01	-5.407189e+01
1.270000e-06	-2.570898e-06	-8.088458e-10	-1.786384e+01	-5.397867e+01
1.280000e-06	-2.529666e-06	-8.076114e-10	-1.757734e+01	-5.388548e+01
1.290000e-06	-2.488177e-06	-8.077574e-10	-1.728906e+01	-5.379250e+01
1.300000e-06	-2.446272e-06	-8.023381e-10	-1.699788e+01	-5.369978e+01
1.310000e-06	-2.403982e-06	-7.963181e-10	-1.670403e+01	-5.360727e+01
1.320000e-06	-2.361405e-06	-7.948095e-10	-1.640819e+01	-5.351484e+01
1.330000e-06	-2.318556e-06	-7.939598e-10	-1.611045e+01	-5.342222e+01
1.340000e-06	-2.275466e-06	-7.935595e-10	-1.581104e+01	-5.332906e+01
1.350000e-06	-2.232219e-06	-7.955227e-10	-1.551054e+01	-5.323493e+01
1.360000e-06	-2.188772e-06	-7.961443e-10	-1.520865e+01	-5.313927e+01
1.370000e-06	-2.145188e-06	-7.938054e-10	-1.490580e+01	-5.304148e+01
1.380000e-06	-2.101542e-06	-7.907080e-10	-1.460253e+01	-5.294088e+01
1.390000e-06	-2.057744e-06	-7.870594e-10	-1.429820e+01	-5.283675e+01
1.400000e-06	-2.013839e-06	-7.850019e-10	-1.399312e+01	-5.272833e+01
1.410000e-06	-1.969893e-06	-7.831034e-10	-1.368777e+01	-5.261481e+01
1.420000e-06	-1.925844e-06	-7.839865e-10	-1.338169e+01	-5.249541e+01
1.430000e-06	-1.881696e-06	-7.842979e-10	-1.307494e+01	-5.236935e+01
1.440000e-06	-1.837398e-06	-7.856452e-10	-1.276713e+01	-5.223584e+01
1.450000e-06	-1.792981e-06	-7.852260e-10	-1.245850e+01	-5.209416e+01
1.460000e-06	-1.748608e-06	-7.815401e-10	-1.215018e+01	-5.194361e+01
1.470000e-06	-1.704207e-06	-7.739723e-10	-1.184166e+01	-5.178356e+01
1.480000e-06	-1.659630e-06	-7.679899e-10	-1.153191e+01	-5.161344e+01
1.490000e-06	-1.614821e-06	-7.607239e-10	-1.122056e+01	-5.143273e+01
1.500000e-06	-1.569850e-06	-7.547563e-10	-1.090808e+01	-5.124102e+01
1.510000e-06	-1.524819e-06	-7.509995e-10	-1.059518e+01	-5.103791e+01
1.520000e-06	-1.479645e-06	-7.502428e-10	-1.028129e+01	-5.082314e+01
1.530000e-06	-1.434320e-06	-7.479337e-10	-9.966351e+00	-5.059645e+01
1.540000e-06	-1.388915e-06	-7.421380e-10	-9.650855e+00	-5.035767e+01
1.550000e-06	-1.343369e-06	-7.342999e-10	-9.334376e+00	-5.010668e+01
1.560000e-06	-1.297757e-06	-7.249786e-10	-9.017444e+00	-4.984337e+01
1.570000e-06	-1.252087e-06	-7.149692e-10	-8.700105e+00	-4.956768e+01
1.580000e-06	-1.206306e-06	-7.074408e-10	-8.381998e+00	-4.927953e+01
1.590000e-06	-1.160488e-06	-7.049175e-10	-8.063635e+00	-4.897886e+01
1.600000e-06	-1.114554e-06	-7.024824e-10	-7.744458e+00	-4.866555e+01
1.610000e-06	-1.068508e-06	-6.966013e-10	-7.424513e+00	-4.833947e+01
1.620000e-06	-1.022451e-06	-6.897748e-10	-7.104484e+00	-4.800042e+01
1.630000e-06	-9.762759e-07	-6.834033e-10	-6.783637e+00	-4.764813e+01
1.640000e-06	-9.300522e-07	-6.765208e-10	-6.462453e+00	-4.728223e+01
1.650000e-06	-8.838344e-07	-6.677898e-10	-6.141309e+00	-4.690227e+01
1.660000e-06	-8.375843e-07	-6.589955e-10	-5.819941e+00	-4.650769e+01
1.670000e-06	-7.912836e-07	-6.504525e-10	-5.498221e+00	-4.609780e+01
1.680000e-06	-7.448816e-07	-6.421802e-10	-5.175798e+00	-4.567180e+01
1.690000e-06	-6.984275e-07	-6.336714e-10	-4.853012e+00	-4.522878e+01
1.700000e-06	-6.519195e-07	-6.245712e-10	-4.529852e+00	-4.476770e+01
1.710000e-06	-6.053976e-07	-6.168056e-10	-4.206596e+00	-4.428739e+01
1.720000e-06	-5.588225e-07	-6.113217e-10	-3.882969e+00	-4.378660e+01
1.730000e-06	-5.121418e-07	-6.053998e-10	-3.558609e+00	-4.326398e+01
1.740000e-06	-4.655193e-07	-5.975787e-10	-3.234653e+00	-4.271809e+01
1.750000e-06	-4.189261e-07	-5.869987e-10	-2.910901e+00	-4.214743e+01
1.760000e-06	-3.722318e-07	-5.740212e-10	-2.586446e+00	-4.155048e+01
1.770000e-06	-3.254434e-07	-5.639385e-10	-2.261339e+00	-4.092567e+01
1.780000e-06	-2.786330e-07	-5.547366e-10	-1.936077e+00	-4.027147e+01
1.790000e-06	-2.318304e-07	-5.458310e-10	-1.610870e+00	-3.958634e+01
1.800000e-06	-1.850149e-07	-5.363462e-10	-1.285573e+00	-3.886884e+01
1.810000e-06	-1.381910e-07	-5.253966e-10	-9.602177e-01	-3.811759e+01
1.820000e-06	-9.135039e-08	-5.130981e-10	-6.347467e-01	-3.733132e+01
1.830000e-06	-4.449982e-08	-5.007196e-10	-3.092063e-01	-3.650891e+01
1.840000e-06	2.345025e-09	-4.892444e-10	1.629437e-02	-3.564941e+01
1.850000e-06	4.914355e-08	-4.779075e-10	3.414731e-01	-3.475202e+01
1.860000e-06	9.590969e-08	-4.642368e-10	6.664270e-01	-3.381617e+01
1.870000e-06	1.426688e-07	-4.496047e-10	9.913322e-01	-3.284150e+01
1.880000e-06	1.894785e-07	-4.348248e-10	1.316588e+00	-3.182790e+01
1.890000e-06	2.362880e-07	-4.202675e-10	1.641844e+00	-3.077548e+01
1.900000e-06	2.830222e-07	-4.053499e-10	1.966575e+00	-2.968463e+01
1.910000e-06	3.297810e-07	-3.906250e-10	2.291478e+00	-2.855598e+01
1.920000e-06	3.764877e-07	-3.761204e-10	2.616019e+00	-2.739041e+01
1.930000e-06	4.231049e-07	-3.596934e-10	2.939938e+00	-2.618906e+01
1.940000e-06	4.697120e-07	-3.412280e-10	3.263786e+00	-2.495330e+01
1.950000e-06	5.163390e-07	-3.231399e-10	3.587773e+00	-2.368474e+01
1.960000e-06	5.629765e-07	-3.067906e-10	3.911833e+00	-2.238520e+01
1.970000e-06	6.095229e-07	-2.901216e-10	4.235260e+00	-2.105668e+01
1.980000e-06	6.559426e-07	-2.726155e-10	4.557806e+00	-1.970136e+01
1.990000e-06	7.022814e-07	-2.532119e-10	4.879791e+00	-1.832157e+01
2.000000e-06	7.486136e-07	-2.314173e-10	5.201729e+00	-1.691974e+01
2.010000e-06	7.949045e-07	-2.073852e-10	5.523381e+00	-1.549843e+01
2.020000e-06	8.411166e-07	-1.834644e-10	5.844485e+00	-1.406023e+01
2.030000e-06	8.873058e-07	-1.629560e-10	6.165430e+00	-1.260779e+01
2.040000e-06	9.334443e-07	-1.468243e-10	6.486023e+00	-1.114376e+01
2.050000e-06	9.795002e-07	-1.306595e-10	6.806041e+00	-9.670777e+00
2.060000e-06	1.025495e-06	-1.117568e-10	7.125635e+00	-8.191430e+00
2.070000e-06	1.071446e-06	-9.310698e-11	7.444924e+00	-6.708247e+00
2.080000e-06	1.117336e-06	-7.023047e-11	7.763789e+00	-5.223669e+00
2.090000e-06	1.163115e-06	-4.428964e-11	8.081883e+00	-3.740029e+00
2.100000e-06	1.208775e-06	-1.999643e-11	8.399154e+00	-2.259539e+00
2.110000e-06	1.254388e-06	1.403985e-12	8.716098e+00	-7.842772e-01
2.120000e-06	1.299902e-06	1.979694e-11	9.032348e+00	6.838229e-01
2.130000e-06	1.345292e-06	3.515189e-11	9.347741e+00	2.142977e+00
2.140000e-06	1.390658e-06	4.942667e-11	9.662964e+00	3.591555e+00
2.150000e-06	1.435962e-06	6.785403e-11	9.977760e+00	5.028077e+00
2.160000e-06	1.481137e-06	9.201550e-11	1.029166e+01	6.451215e+00
2.170000e-06	1.526209e-06	1.171638e-10	1.060484e+01	7.859783e+00
2.180000e-06	1.571210e-06	1.410690e-10	1.091753e+01	9.252728e+00
2.190000e-06	1.616069e-06	1.627478e-10	1.122923e+01	1.062913e+01
2.200000e-06	1.660781e-06	1.801466e-10	1.153991e+01	1.198816e+01
2.210000e-06	1.705395e-06	1.942452e-10	1.184991e+01	1.332911e+01
2.220000e-06	1.749841e-06	2.082612e-10	1.215874e+01	1.465135e+01
2.230000e-06	1.794152e-06	2.251854e-10	1.246664e+01	1.595432e+01
2.240000e-06	1.838316e-06	2.426426e-10	1.277351e+01	1.723749e+01
2.250000e-06	1.882334e-06	2.614792e-10	1.307937e+01	1.850041e+01
2.260000e-06	1.926286e-06	2.825558e-10	1.338477e+01	1.974263e+01
2.270000e-06	1.970227e-06	3.031185e-10	1.369009e+01	2.096372e+01
2.280000e-06	2.014160e-06	3.204058e-10	1.399536e+01	2.216326e+01
2.290000e-06	2.057978e-06	3.365753e-10	1.429982e+01	2.334081e+01
2.300000e-06	2.101663e-06	3.523659e-10	1.460337e+01	2.449593e+01
2.310000e-06	2.145261e-06	3.677347e-10	1.490631e+01	2.562816e+01
2.320000e-06	2.188801e-06	3.830779e-10	1.520885e+01	2.673702e+01
2.330000e-06	2.232237e-06	3.979199e-10	1.551066e+01	2.782202e+01
2.340000e-06	2.275496e-06	4.128595e-10	1.581125e+01	2.888264e+01
2.350000e-06	2.318583e-06	4.298837e-10	1.611064e+01	2.991836e+01
2.360000e-06	2.361419e-06	4.466344e-10	1.640828e+01	3.092865e+01
2.370000e-06	2.403937e-06	4.590627e-10	1.670371e+01	3.191297e+01
2.380000e-06	2.446130e-06	4.696425e-10	1.699690e+01	3.287082e+01
2.390000e-06	2.487919e-06	4.817769e-10	1.728727e+01	3.380169e+01
2.400000e-06	2.529382e-06	4.932640e-10	1.757537e+01	3.470514e+01
2.410000e-06	2.570631e-06	5.048520e-10	1.786199e+01	3.558075e+01
2.420000e-06	2.611676e-06	5.186759e-10	1.814719e+01	3.642816e+01
2.430000e-06	2.652513e-06	5.320402e-10	1.843095e+01	3.724709e+01
2.440000e-06	2.693106e-06	5.433418e-10	1.871300e+01	3.803734e+01
2.450000e-06	2.733412e-06	5.527108e-10	1.899307e+01	3.879879e+01
2.460000e-06	2.773577e-06	5.598083e-10	1.927215e+01	3.953143e+01
2.470000e-06	2.813625e-06	5.657245e-10	1.955043e+01	4.023535e+01
2.480000e-06	2.853455e-06	5.731332e-10	1.982719e+01	4.091075e+01
2.490000e-06	2.893154e-06	5.824760e-10	2.010303e+01	4.155794e+01
2.500000e-06	2.932742e-06	5.919611e-10	2.037811e+01	4.217735e+01
2.510000e-06	2.972215e-06	6.016990e-10	2.065239e+01	4.276951e+01
2.520000e-06	3.011509e-06	6.120081e-10	2.092542e+01	4.333507e+01
2.530000e-06	3.050555e-06	6.208409e-10	2.119673e+01	4.387477e+01
2.540000e-06	3.089407e-06	6.276216e-10	2.146669e+01	4.438944e+01
2.550000e-06	3.128047e-06	6.314800e-10	2.173519e+01	4.488001e+01
2.560000e-06	3.166392e-06	6.336223e-10	2.200163e+01	4.534745e+01
2.570000e-06	3.204496e-06	6.375198e-10	2.226639e+01	4.579282e+01
2.580000e-06	3.242425e-06	6.437797e-10	2.252994e+01	4.621718e+01
2.590000e-06	3.280145e-06	6.507904e-10	2.279204e+01	4.662165e+01
2.600000e-06	3.317684e-06	6.583109e-10	2.305287e+01	4.700735e+01
2.610000e-06	3.355023e-06	6.653965e-10	2.331232e+01	4.737538e+01
2.620000e-06	3.392040e-06	6.706675e-10	2.356953e+01	4.772685e+01
2.630000e-06	3.428813e-06	6.741552e-10	2.382505e+01	4.806279e+01
2.640000e-06	3.465373e-06	6.765166e-10	2.407909e+01	4.838422e+01
2.650000e-06	3.501699e-06	6.788687e-10	2.433150e+01	4.869207e+01
2.660000e-06	3.537820e-06	6.816931e-10	2.458248e+01	4.898722e+01
2.670000e-06	3.573788e-06	6.845216e-10	2.483241e+01	4.927046e+01
2.680000e-06	3.609665e-06	6.884436e-10	2.508170e+01	4.954249e+01
2.690000e-06	3.645382e-06	6.924932e-10	2.532988e+01	4.980392e+01
2.700000e-06	3.680917e-06	6.952889e-10	2.557679e+01	5.005527e+01
2.710000e-06	3.716237e-06	6.991549e-10	2.582221e+01	5.029697e+01
2.720000e-06	3.751251e-06	7.044949e-10	2.606551e+01	5.052935e+01
2.730000e-06	3.785836e-06	7.094306e-10	2.630582e+01	5.075267e+01
2.740000e-06	3.819987e-06	7.133250e-10	2.654312e+01	5.096710e+01
2.750000e-06	3.853578e-06	7.168520e-10	2.677652e+01	5.117276e+01
2.760000e-06	3.886699e-06	7.204866e-10	2.700666e+01	5.136969e+01
2.770000e-06	3.919502e-06	7.240093e-10	2.723460e+01	5.155791e+01
2.780000e-06	3.951901e-06	7.270595e-10	2.745972e+01	5.173740e+01
2.790000e-06	3.984055e-06	7.303748e-10	2.768314e+01	5.190810e+01
2.800000e-06	4.016065e-06	7.337143e-10	2.790556e+01	5.206998e+01
2.810000e-06	4.047930e-06	7.353160e-10	2.812698e+01	5.222299e+01
2.820000e-06	4.079614e-06	7.383718e-10	2.834713e+01	5.236711e+01
2.830000e-06	4.111089e-06	7.438385e-10	2.856583e+01	5.250237e+01
2.840000e-06	4.142337e-06	7.492263e-10	2.878296e+01	5.262882e+01
2.850000e-06	4.173249e-06	7.525357e-10	2.899775e+01	5.274658e+01
2.860000e-06	4.203776e-06	7.554069e-10	2.920987e+01	5.285582e+01
2.870000e-06	4.233948e-06	7.596254e-10	2.941952e+01	5.295678e+01
2.880000e-06	4.263822e-06	7.630344e-10	2.962710e+01	5.304976e+01
2.890000e-06	4.293455e-06	7.675539e-10	2.983301e+01	5.313516e+01
2.900000e-06	4.322825e-06	7.738569e-10	3.003708e+01	5.321342e+01
