# Temperatura_=_14.3
# Concentracion g/m^3_=_1620.0
# C_Vs_to_Am_M_A/Vsm_=_65563218390.804596
# pendiente_HvsI_1/m_=_3716.3
# ordenada_HvsI_A/m_=_1297.0
# frecuencia_Hz_=_135103.23000013604

Tiempo_(s)	Campo_(V.s)	Magnetizacion_(V.s)	Campo_(kA/m)	Magnetizacion_(A/m)
0.000000e+00	-5.526071e-06	-1.522825e-09	-3.836925e+01	-1.008777e+02
1.000000e-08	-5.526424e-06	-1.519534e-09	-3.837171e+01	-1.008683e+02
2.000000e-08	-5.526479e-06	-1.517484e-09	-3.837209e+01	-1.008559e+02
3.000000e-08	-5.526178e-06	-1.515943e-09	-3.837000e+01	-1.008409e+02
4.000000e-08	-5.525447e-06	-1.515674e-09	-3.836493e+01	-1.008233e+02
5.000000e-08	-5.524177e-06	-1.513961e-09	-3.835611e+01	-1.008034e+02
6.000000e-08	-5.522341e-06	-1.511663e-09	-3.834336e+01	-1.007812e+02
7.000000e-08	-5.519912e-06	-1.523593e-09	-3.832649e+01	-1.007570e+02
8.000000e-08	-5.516972e-06	-1.547752e-09	-3.830608e+01	-1.007309e+02
9.000000e-08	-5.513492e-06	-1.520951e-09	-3.828192e+01	-1.007030e+02
1.000000e-07	-5.509480e-06	-1.433462e-09	-3.825406e+01	-1.006734e+02
1.100000e-07	-5.505238e-06	-1.451760e-09	-3.822461e+01	-1.006422e+02
1.200000e-07	-5.500891e-06	-1.536277e-09	-3.819442e+01	-1.006094e+02
1.300000e-07	-5.496184e-06	-1.556233e-09	-3.816175e+01	-1.005749e+02
1.400000e-07	-5.491047e-06	-1.451376e-09	-3.812608e+01	-1.005388e+02
1.500000e-07	-5.485615e-06	-1.443490e-09	-3.808836e+01	-1.005007e+02
1.600000e-07	-5.479834e-06	-1.536346e-09	-3.804822e+01	-1.004606e+02
1.700000e-07	-5.473635e-06	-1.551272e-09	-3.800518e+01	-1.004182e+02
1.800000e-07	-5.466975e-06	-1.459527e-09	-3.795894e+01	-1.003731e+02
1.900000e-07	-5.459940e-06	-1.450805e-09	-3.791009e+01	-1.003250e+02
2.000000e-07	-5.452546e-06	-1.547841e-09	-3.785875e+01	-1.002735e+02
2.100000e-07	-5.444785e-06	-1.564461e-09	-3.780486e+01	-1.002181e+02
2.200000e-07	-5.436826e-06	-1.509106e-09	-3.774960e+01	-1.001583e+02
2.300000e-07	-5.428644e-06	-1.475998e-09	-3.769279e+01	-1.000936e+02
2.400000e-07	-5.419992e-06	-1.532475e-09	-3.763272e+01	-1.000235e+02
2.500000e-07	-5.410669e-06	-1.546072e-09	-3.756798e+01	-9.994746e+01
2.600000e-07	-5.400686e-06	-1.530704e-09	-3.749867e+01	-9.986492e+01
2.700000e-07	-5.390184e-06	-1.497205e-09	-3.742575e+01	-9.977538e+01
2.800000e-07	-5.379198e-06	-1.511808e-09	-3.734947e+01	-9.967839e+01
2.900000e-07	-5.367730e-06	-1.506911e-09	-3.726985e+01	-9.957350e+01
3.000000e-07	-5.355968e-06	-1.492679e-09	-3.718818e+01	-9.946034e+01
3.100000e-07	-5.343842e-06	-1.467800e-09	-3.710399e+01	-9.933861e+01
3.200000e-07	-5.331181e-06	-1.501734e-09	-3.701608e+01	-9.920806e+01
3.300000e-07	-5.318089e-06	-1.528990e-09	-3.692518e+01	-9.906856e+01
3.400000e-07	-5.304653e-06	-1.505521e-09	-3.683188e+01	-9.892004e+01
3.500000e-07	-5.290842e-06	-1.475285e-09	-3.673599e+01	-9.876253e+01
3.600000e-07	-5.276608e-06	-1.506890e-09	-3.663716e+01	-9.859616e+01
3.700000e-07	-5.261970e-06	-1.500641e-09	-3.653552e+01	-9.842118e+01
3.800000e-07	-5.246745e-06	-1.447390e-09	-3.642981e+01	-9.823790e+01
3.900000e-07	-5.230858e-06	-1.471340e-09	-3.631950e+01	-9.804676e+01
4.000000e-07	-5.214564e-06	-1.515550e-09	-3.620637e+01	-9.784826e+01
4.100000e-07	-5.197958e-06	-1.460889e-09	-3.609106e+01	-9.764300e+01
4.200000e-07	-5.181014e-06	-1.428570e-09	-3.597342e+01	-9.743165e+01
4.300000e-07	-5.163724e-06	-1.508617e-09	-3.585337e+01	-9.721494e+01
4.400000e-07	-5.146095e-06	-1.492184e-09	-3.573096e+01	-9.699364e+01
4.500000e-07	-5.128153e-06	-1.411482e-09	-3.560639e+01	-9.676858e+01
4.600000e-07	-5.109804e-06	-1.449810e-09	-3.547898e+01	-9.654058e+01
4.700000e-07	-5.091024e-06	-1.511086e-09	-3.534859e+01	-9.631050e+01
4.800000e-07	-5.071848e-06	-1.427088e-09	-3.521545e+01	-9.607916e+01
4.900000e-07	-5.052366e-06	-1.414659e-09	-3.508017e+01	-9.584737e+01
5.000000e-07	-5.032715e-06	-1.486387e-09	-3.494373e+01	-9.561589e+01
5.100000e-07	-5.012843e-06	-1.458017e-09	-3.480576e+01	-9.538544e+01
5.200000e-07	-4.992601e-06	-1.399212e-09	-3.466521e+01	-9.515665e+01
5.300000e-07	-4.972010e-06	-1.468487e-09	-3.452223e+01	-9.493008e+01
5.400000e-07	-4.951157e-06	-1.465389e-09	-3.437745e+01	-9.470619e+01
5.500000e-07	-4.929951e-06	-1.382365e-09	-3.423021e+01	-9.448533e+01
5.600000e-07	-4.908368e-06	-1.405623e-09	-3.408035e+01	-9.426776e+01
5.700000e-07	-4.886504e-06	-1.460341e-09	-3.392854e+01	-9.405361e+01
5.800000e-07	-4.864337e-06	-1.393895e-09	-3.377463e+01	-9.384289e+01
5.900000e-07	-4.841777e-06	-1.382405e-09	-3.361799e+01	-9.363550e+01
6.000000e-07	-4.818838e-06	-1.444091e-09	-3.345872e+01	-9.343120e+01
6.100000e-07	-4.795643e-06	-1.419288e-09	-3.329766e+01	-9.322967e+01
6.200000e-07	-4.772190e-06	-1.370629e-09	-3.313482e+01	-9.303045e+01
6.300000e-07	-4.748463e-06	-1.407435e-09	-3.297008e+01	-9.283301e+01
6.400000e-07	-4.724496e-06	-1.409770e-09	-3.280367e+01	-9.263672e+01
6.500000e-07	-4.700217e-06	-1.361891e-09	-3.263509e+01	-9.244087e+01
6.600000e-07	-4.675595e-06	-1.376744e-09	-3.246413e+01	-9.224469e+01
6.700000e-07	-4.650526e-06	-1.399678e-09	-3.229007e+01	-9.204737e+01
6.800000e-07	-4.624873e-06	-1.367010e-09	-3.211195e+01	-9.184808e+01
6.900000e-07	-4.598691e-06	-1.359873e-09	-3.193017e+01	-9.164595e+01
7.000000e-07	-4.571990e-06	-1.384356e-09	-3.174478e+01	-9.144013e+01
7.100000e-07	-4.544774e-06	-1.361193e-09	-3.155580e+01	-9.122979e+01
7.200000e-07	-4.517235e-06	-1.336483e-09	-3.136459e+01	-9.101413e+01
7.300000e-07	-4.489567e-06	-1.347645e-09	-3.117248e+01	-9.079240e+01
7.400000e-07	-4.461789e-06	-1.347712e-09	-3.097961e+01	-9.056393e+01
7.500000e-07	-4.433819e-06	-1.326120e-09	-3.078541e+01	-9.032811e+01
7.600000e-07	-4.405605e-06	-1.336721e-09	-3.058951e+01	-9.008443e+01
7.700000e-07	-4.377098e-06	-1.340719e-09	-3.039157e+01	-8.983246e+01
7.800000e-07	-4.348242e-06	-1.322302e-09	-3.019122e+01	-8.957190e+01
7.900000e-07	-4.319078e-06	-1.311939e-09	-2.998872e+01	-8.930255e+01
8.000000e-07	-4.289605e-06	-1.316643e-09	-2.978409e+01	-8.902430e+01
8.100000e-07	-4.259813e-06	-1.301729e-09	-2.957723e+01	-8.873718e+01
8.200000e-07	-4.229741e-06	-1.298125e-09	-2.936843e+01	-8.844133e+01
8.300000e-07	-4.199331e-06	-1.304704e-09	-2.915728e+01	-8.813696e+01
8.400000e-07	-4.168612e-06	-1.296623e-09	-2.894399e+01	-8.782443e+01
8.500000e-07	-4.137579e-06	-1.280001e-09	-2.872852e+01	-8.750413e+01
8.600000e-07	-4.106283e-06	-1.282841e-09	-2.851122e+01	-8.717659e+01
8.700000e-07	-4.074801e-06	-1.273862e-09	-2.829263e+01	-8.684235e+01
8.800000e-07	-4.043112e-06	-1.258258e-09	-2.807260e+01	-8.650205e+01
8.900000e-07	-4.011310e-06	-1.259646e-09	-2.785179e+01	-8.615634e+01
9.000000e-07	-3.979364e-06	-1.262713e-09	-2.762998e+01	-8.580591e+01
9.100000e-07	-3.947116e-06	-1.250326e-09	-2.740607e+01	-8.545146e+01
9.200000e-07	-3.914547e-06	-1.247448e-09	-2.717994e+01	-8.509366e+01
9.300000e-07	-3.881570e-06	-1.246610e-09	-2.695097e+01	-8.473320e+01
9.400000e-07	-3.848065e-06	-1.228865e-09	-2.671833e+01	-8.437071e+01
9.500000e-07	-3.814035e-06	-1.215849e-09	-2.648205e+01	-8.400677e+01
9.600000e-07	-3.779638e-06	-1.216836e-09	-2.624322e+01	-8.364191e+01
9.700000e-07	-3.744833e-06	-1.208719e-09	-2.600156e+01	-8.327660e+01
9.800000e-07	-3.709606e-06	-1.194373e-09	-2.575697e+01	-8.291121e+01
9.900000e-07	-3.674172e-06	-1.194806e-09	-2.551094e+01	-8.254603e+01
1.000000e-06	-3.638583e-06	-1.190775e-09	-2.526383e+01	-8.218128e+01
1.010000e-06	-3.602837e-06	-1.176255e-09	-2.501564e+01	-8.181705e+01
1.020000e-06	-3.566960e-06	-1.170660e-09	-2.476653e+01	-8.145337e+01
1.030000e-06	-3.530927e-06	-1.173744e-09	-2.451634e+01	-8.109015e+01
1.040000e-06	-3.494706e-06	-1.165316e-09	-2.426485e+01	-8.072721e+01
1.050000e-06	-3.458255e-06	-1.160578e-09	-2.401176e+01	-8.036431e+01
1.060000e-06	-3.421535e-06	-1.161632e-09	-2.375680e+01	-8.000108e+01
1.070000e-06	-3.384604e-06	-1.156649e-09	-2.350038e+01	-7.963713e+01
1.080000e-06	-3.347398e-06	-1.145672e-09	-2.324204e+01	-7.927198e+01
1.090000e-06	-3.309892e-06	-1.144375e-09	-2.298163e+01	-7.890508e+01
1.100000e-06	-3.272196e-06	-1.138060e-09	-2.271989e+01	-7.853587e+01
1.110000e-06	-3.234319e-06	-1.124343e-09	-2.245690e+01	-7.816373e+01
1.120000e-06	-3.196144e-06	-1.116548e-09	-2.219184e+01	-7.778805e+01
1.130000e-06	-3.157674e-06	-1.115505e-09	-2.192473e+01	-7.740819e+01
1.140000e-06	-3.119028e-06	-1.107944e-09	-2.165640e+01	-7.702351e+01
1.150000e-06	-3.080261e-06	-1.104361e-09	-2.138723e+01	-7.663342e+01
1.160000e-06	-3.041281e-06	-1.105545e-09	-2.111657e+01	-7.623732e+01
1.170000e-06	-3.002021e-06	-1.099272e-09	-2.084398e+01	-7.583465e+01
1.180000e-06	-2.962544e-06	-1.085037e-09	-2.056988e+01	-7.542492e+01
1.190000e-06	-2.922898e-06	-1.075879e-09	-2.029460e+01	-7.500767e+01
1.200000e-06	-2.883200e-06	-1.066924e-09	-2.001897e+01	-7.458250e+01
1.210000e-06	-2.843408e-06	-1.056617e-09	-1.974268e+01	-7.414907e+01
1.220000e-06	-2.803444e-06	-1.051492e-09	-1.946520e+01	-7.370712e+01
1.230000e-06	-2.763345e-06	-1.050447e-09	-1.918677e+01	-7.325645e+01
1.240000e-06	-2.723102e-06	-1.047338e-09	-1.890736e+01	-7.279691e+01
1.250000e-06	-2.682653e-06	-1.043299e-09	-1.862651e+01	-7.232843e+01
1.260000e-06	-2.641963e-06	-1.039634e-09	-1.834399e+01	-7.185101e+01
1.270000e-06	-2.600994e-06	-1.028644e-09	-1.805952e+01	-7.136468e+01
1.280000e-06	-2.559684e-06	-1.014760e-09	-1.777269e+01	-7.086954e+01
1.290000e-06	-2.518087e-06	-1.004647e-09	-1.748388e+01	-7.036575e+01
1.300000e-06	-2.476172e-06	-9.957169e-10	-1.719284e+01	-6.985347e+01
1.310000e-06	-2.433964e-06	-9.860487e-10	-1.689978e+01	-6.933292e+01
1.320000e-06	-2.391444e-06	-9.794341e-10	-1.660456e+01	-6.880433e+01
1.330000e-06	-2.348627e-06	-9.728878e-10	-1.630726e+01	-6.826796e+01
1.340000e-06	-2.305633e-06	-9.628696e-10	-1.600874e+01	-6.772404e+01
1.350000e-06	-2.262470e-06	-9.518193e-10	-1.570904e+01	-6.717284e+01
1.360000e-06	-2.219155e-06	-9.413549e-10	-1.540830e+01	-6.661457e+01
1.370000e-06	-2.175646e-06	-9.278268e-10	-1.510620e+01	-6.604947e+01
1.380000e-06	-2.131991e-06	-9.156288e-10	-1.480309e+01	-6.547771e+01
1.390000e-06	-2.088271e-06	-9.062722e-10	-1.449953e+01	-6.489945e+01
1.400000e-06	-2.044493e-06	-8.989962e-10	-1.419556e+01	-6.431480e+01
1.410000e-06	-2.000655e-06	-8.909972e-10	-1.389118e+01	-6.372383e+01
1.420000e-06	-1.956711e-06	-8.840102e-10	-1.358606e+01	-6.312655e+01
1.430000e-06	-1.912662e-06	-8.743759e-10	-1.328022e+01	-6.252294e+01
1.440000e-06	-1.868574e-06	-8.626249e-10	-1.297410e+01	-6.191290e+01
1.450000e-06	-1.824451e-06	-8.485916e-10	-1.266774e+01	-6.129628e+01
1.460000e-06	-1.780144e-06	-8.351402e-10	-1.236010e+01	-6.067287e+01
1.470000e-06	-1.735631e-06	-8.231610e-10	-1.205103e+01	-6.004242e+01
1.480000e-06	-1.691015e-06	-8.135909e-10	-1.174125e+01	-5.940459e+01
1.490000e-06	-1.646293e-06	-8.064501e-10	-1.143073e+01	-5.875900e+01
1.500000e-06	-1.601464e-06	-7.993297e-10	-1.111947e+01	-5.810522e+01
1.510000e-06	-1.556519e-06	-7.908317e-10	-1.080741e+01	-5.744277e+01
1.520000e-06	-1.511442e-06	-7.818257e-10	-1.049442e+01	-5.677108e+01
1.530000e-06	-1.466217e-06	-7.723962e-10	-1.018041e+01	-5.608959e+01
1.540000e-06	-1.420813e-06	-7.618948e-10	-9.865152e+00	-5.539763e+01
1.550000e-06	-1.375318e-06	-7.490010e-10	-9.549265e+00	-5.469455e+01
1.560000e-06	-1.329798e-06	-7.367094e-10	-9.233205e+00	-5.397960e+01
1.570000e-06	-1.284203e-06	-7.257980e-10	-8.916630e+00	-5.325202e+01
1.580000e-06	-1.238471e-06	-7.149332e-10	-8.599095e+00	-5.251102e+01
1.590000e-06	-1.192629e-06	-7.064048e-10	-8.280797e+00	-5.175576e+01
1.600000e-06	-1.146737e-06	-6.999490e-10	-7.962158e+00	-5.098538e+01
1.610000e-06	-1.100742e-06	-6.920205e-10	-7.642802e+00	-5.019897e+01
1.620000e-06	-1.054719e-06	-6.803007e-10	-7.323247e+00	-4.939561e+01
1.630000e-06	-1.008640e-06	-6.676169e-10	-7.003305e+00	-4.857436e+01
1.640000e-06	-9.624286e-07	-6.557491e-10	-6.682446e+00	-4.773424e+01
1.650000e-06	-9.161708e-07	-6.428291e-10	-6.361264e+00	-4.687427e+01
1.660000e-06	-8.699335e-07	-6.287261e-10	-6.040223e+00	-4.599343e+01
1.670000e-06	-8.236354e-07	-6.166801e-10	-5.718761e+00	-4.509072e+01
1.680000e-06	-7.771930e-07	-6.038997e-10	-5.396297e+00	-4.416509e+01
1.690000e-06	-7.306888e-07	-5.887436e-10	-5.073403e+00	-4.321552e+01
1.700000e-06	-6.842290e-07	-5.706812e-10	-4.750818e+00	-4.224098e+01
1.710000e-06	-6.377384e-07	-5.519981e-10	-4.428020e+00	-4.124043e+01
1.720000e-06	-5.911308e-07	-5.359174e-10	-4.104408e+00	-4.021286e+01
1.730000e-06	-5.444145e-07	-5.221471e-10	-3.780042e+00	-3.915727e+01
1.740000e-06	-4.976342e-07	-5.069517e-10	-3.455232e+00	-3.807271e+01
1.750000e-06	-4.508611e-07	-4.906046e-10	-3.130471e+00	-3.695822e+01
1.760000e-06	-4.040544e-07	-4.729819e-10	-2.805477e+00	-3.581294e+01
1.770000e-06	-3.571960e-07	-4.544064e-10	-2.480125e+00	-3.463602e+01
1.780000e-06	-3.103587e-07	-4.357617e-10	-2.154919e+00	-3.342670e+01
1.790000e-06	-2.635460e-07	-4.177011e-10	-1.829883e+00	-3.218428e+01
1.800000e-06	-2.166965e-07	-4.004108e-10	-1.504592e+00	-3.090815e+01
1.810000e-06	-1.698229e-07	-3.807280e-10	-1.179134e+00	-2.959782e+01
1.820000e-06	-1.228902e-07	-3.624187e-10	-8.532656e-01	-2.825288e+01
1.830000e-06	-7.592606e-08	-3.477333e-10	-5.271786e-01	-2.687306e+01
1.840000e-06	-2.900905e-08	-3.316738e-10	-2.014190e-01	-2.545820e+01
1.850000e-06	1.789548e-08	-3.126755e-10	1.242540e-01	-2.400829e+01
1.860000e-06	6.481210e-08	-2.884885e-10	4.500109e-01	-2.252348e+01
1.870000e-06	1.117032e-07	-2.621836e-10	7.755908e-01	-2.100407e+01
1.880000e-06	1.585243e-07	-2.372138e-10	1.100685e+00	-1.945051e+01
1.890000e-06	2.053152e-07	-2.152618e-10	1.425569e+00	-1.786345e+01
1.900000e-06	2.521849e-07	-1.942021e-10	1.750999e+00	-1.624367e+01
1.910000e-06	2.990626e-07	-1.747700e-10	2.076486e+00	-1.459217e+01
1.920000e-06	3.457646e-07	-1.546223e-10	2.400753e+00	-1.291009e+01
1.930000e-06	3.924774e-07	-1.318900e-10	2.725095e+00	-1.119878e+01
1.940000e-06	4.393056e-07	-1.058738e-10	3.050237e+00	-9.459735e+00
1.950000e-06	4.859736e-07	-7.792709e-11	3.374268e+00	-7.694620e+00
1.960000e-06	5.325071e-07	-5.269658e-11	3.697365e+00	-5.905267e+00
1.970000e-06	5.790470e-07	-3.042135e-11	4.020506e+00	-4.093654e+00
1.980000e-06	6.255674e-07	-1.021242e-11	4.343512e+00	-2.261896e+00
1.990000e-06	6.719764e-07	1.307635e-11	4.665745e+00	-4.122387e-01
2.000000e-06	7.182980e-07	4.224216e-11	4.987370e+00	1.452964e+00
2.010000e-06	7.646313e-07	7.492041e-11	5.309077e+00	3.331259e+00
2.020000e-06	8.109701e-07	1.065949e-10	5.630822e+00	5.220114e+00
2.030000e-06	8.571875e-07	1.340839e-10	5.951724e+00	7.116936e+00
2.040000e-06	9.033284e-07	1.587181e-10	6.272095e+00	9.019087e+00
2.050000e-06	9.495087e-07	1.825654e-10	6.592739e+00	1.092390e+01
2.060000e-06	9.956350e-07	2.084082e-10	6.913008e+00	1.282871e+01
2.070000e-06	1.041581e-06	2.367163e-10	7.232025e+00	1.473087e+01
2.080000e-06	1.087391e-06	2.644564e-10	7.550097e+00	1.662774e+01
2.090000e-06	1.133209e-06	2.932602e-10	7.868231e+00	1.851676e+01
2.100000e-06	1.179030e-06	3.208073e-10	8.186381e+00	2.039542e+01
2.110000e-06	1.224756e-06	3.461925e-10	8.503869e+00	2.226130e+01
2.120000e-06	1.270352e-06	3.708477e-10	8.820457e+00	2.411207e+01
2.130000e-06	1.315876e-06	3.951016e-10	9.136546e+00	2.594553e+01
2.140000e-06	1.361359e-06	4.168895e-10	9.452347e+00	2.775959e+01
2.150000e-06	1.406770e-06	4.401056e-10	9.767647e+00	2.955229e+01
2.160000e-06	1.452125e-06	4.671489e-10	1.008256e+01	3.132183e+01
2.170000e-06	1.497366e-06	4.943183e-10	1.039668e+01	3.306655e+01
2.180000e-06	1.542428e-06	5.184032e-10	1.070957e+01	3.478494e+01
2.190000e-06	1.587301e-06	5.434617e-10	1.102113e+01	3.647566e+01
2.200000e-06	1.632012e-06	5.690542e-10	1.133157e+01	3.813751e+01
2.210000e-06	1.676697e-06	5.934940e-10	1.164183e+01	3.976947e+01
2.220000e-06	1.721283e-06	6.134068e-10	1.195141e+01	4.137064e+01
2.230000e-06	1.765629e-06	6.322229e-10	1.225932e+01	4.294030e+01
2.240000e-06	1.809818e-06	6.491507e-10	1.256614e+01	4.447787e+01
2.250000e-06	1.853955e-06	6.650089e-10	1.287260e+01	4.598291e+01
2.260000e-06	1.898005e-06	6.842170e-10	1.317845e+01	4.745509e+01
2.270000e-06	1.941986e-06	7.050263e-10	1.348382e+01	4.889423e+01
2.280000e-06	1.985926e-06	7.271195e-10	1.378891e+01	5.030025e+01
2.290000e-06	2.029792e-06	7.475555e-10	1.409349e+01	5.167318e+01
2.300000e-06	2.073581e-06	7.680739e-10	1.439753e+01	5.301313e+01
2.310000e-06	2.117334e-06	7.855278e-10	1.470132e+01	5.432031e+01
2.320000e-06	2.161018e-06	8.021361e-10	1.500463e+01	5.559500e+01
2.330000e-06	2.204578e-06	8.161312e-10	1.530708e+01	5.683756e+01
2.340000e-06	2.247990e-06	8.295189e-10	1.560851e+01	5.804838e+01
2.350000e-06	2.291251e-06	8.453340e-10	1.590888e+01	5.922791e+01
2.360000e-06	2.334325e-06	8.631787e-10	1.620796e+01	6.037666e+01
2.370000e-06	2.377138e-06	8.801414e-10	1.650522e+01	6.149515e+01
2.380000e-06	2.419674e-06	8.950388e-10	1.680056e+01	6.258394e+01
2.390000e-06	2.461876e-06	9.096300e-10	1.709358e+01	6.364360e+01
2.400000e-06	2.503655e-06	9.251524e-10	1.738367e+01	6.467475e+01
2.410000e-06	2.545157e-06	9.408299e-10	1.767183e+01	6.567798e+01
2.420000e-06	2.586462e-06	9.557554e-10	1.795862e+01	6.665393e+01
2.430000e-06	2.627544e-06	9.671117e-10	1.824387e+01	6.760323e+01
2.440000e-06	2.668375e-06	9.769424e-10	1.852737e+01	6.852652e+01
2.450000e-06	2.708874e-06	9.869581e-10	1.880857e+01	6.942444e+01
2.460000e-06	2.749143e-06	9.981639e-10	1.908817e+01	7.029765e+01
2.470000e-06	2.789262e-06	1.012034e-09	1.936673e+01	7.114678e+01
2.480000e-06	2.829218e-06	1.028620e-09	1.964416e+01	7.197251e+01
2.490000e-06	2.869025e-06	1.044843e-09	1.992055e+01	7.277548e+01
2.500000e-06	2.908709e-06	1.057445e-09	2.019609e+01	7.355636e+01
2.510000e-06	2.948307e-06	1.068940e-09	2.047102e+01	7.431580e+01
2.520000e-06	2.987722e-06	1.079677e-09	2.074470e+01	7.505446e+01
2.530000e-06	3.026898e-06	1.089429e-09	2.101671e+01	7.577300e+01
2.540000e-06	3.065894e-06	1.098636e-09	2.128747e+01	7.647208e+01
2.550000e-06	3.104733e-06	1.108777e-09	2.155714e+01	7.715233e+01
2.560000e-06	3.143349e-06	1.119082e-09	2.182527e+01	7.781442e+01
2.570000e-06	3.181650e-06	1.130188e-09	2.209121e+01	7.845897e+01
2.580000e-06	3.219798e-06	1.140041e-09	2.235608e+01	7.908662e+01
2.590000e-06	3.257828e-06	1.147651e-09	2.262013e+01	7.969797e+01
2.600000e-06	3.295604e-06	1.155348e-09	2.288242e+01	8.029361e+01
2.610000e-06	3.333126e-06	1.164006e-09	2.314295e+01	8.087413e+01
2.620000e-06	3.370399e-06	1.170966e-09	2.340174e+01	8.144009e+01
2.630000e-06	3.407350e-06	1.177817e-09	2.365831e+01	8.199201e+01
2.640000e-06	3.444044e-06	1.186220e-09	2.391309e+01	8.253039e+01
2.650000e-06	3.480468e-06	1.195016e-09	2.416599e+01	8.305572e+01
2.660000e-06	3.516655e-06	1.202385e-09	2.441725e+01	8.356843e+01
2.670000e-06	3.552742e-06	1.209633e-09	2.466781e+01	8.406893e+01
2.680000e-06	3.588703e-06	1.215904e-09	2.491750e+01	8.455760e+01
2.690000e-06	3.624528e-06	1.222411e-09	2.516624e+01	8.503478e+01
2.700000e-06	3.660175e-06	1.229264e-09	2.541375e+01	8.550077e+01
2.710000e-06	3.695608e-06	1.235694e-09	2.565977e+01	8.595585e+01
2.720000e-06	3.730858e-06	1.243115e-09	2.590453e+01	8.640026e+01
2.730000e-06	3.765845e-06	1.251368e-09	2.614745e+01	8.683420e+01
2.740000e-06	3.800379e-06	1.258234e-09	2.638723e+01	8.725787e+01
2.750000e-06	3.834428e-06	1.264082e-09	2.662364e+01	8.767140e+01
2.760000e-06	3.868002e-06	1.269565e-09	2.685676e+01	8.807495e+01
2.770000e-06	3.901121e-06	1.274656e-09	2.708672e+01	8.846862e+01
2.780000e-06	3.933812e-06	1.279404e-09	2.731370e+01	8.885253e+01
2.790000e-06	3.966156e-06	1.285028e-09	2.753827e+01	8.922677e+01
2.800000e-06	3.998277e-06	1.292298e-09	2.776130e+01	8.959145e+01
2.810000e-06	4.030204e-06	1.298401e-09	2.798298e+01	8.994665e+01
2.820000e-06	4.062023e-06	1.305460e-09	2.820391e+01	9.029249e+01
2.830000e-06	4.093662e-06	1.314697e-09	2.842359e+01	9.062908e+01
2.840000e-06	4.125037e-06	1.321721e-09	2.864143e+01	9.095654e+01
2.850000e-06	4.156172e-06	1.323405e-09	2.885761e+01	9.127504e+01
2.860000e-06	4.187025e-06	1.323739e-09	2.907184e+01	9.158474e+01
2.870000e-06	4.217556e-06	1.325892e-09	2.928382e+01	9.188584e+01
2.880000e-06	4.247756e-06	1.330670e-09	2.949351e+01	9.217856e+01
2.890000e-06	4.277669e-06	1.339113e-09	2.970121e+01	9.246314e+01
2.900000e-06	4.307327e-06	1.348659e-09	2.990714e+01	9.273987e+01
