# Temperatura_=_-7.9
# Concentracion g/m^3_=_1620.0
# C_Vs_to_Am_M_A/Vsm_=_65563218390.804596
# pendiente_HvsI_1/m_=_3716.3
# ordenada_HvsI_A/m_=_1297.0
# frecuencia_Hz_=_135111.11617162533

Tiempo_(s)	Campo_(V.s)	Magnetizacion_(V.s)	Campo_(kA/m)	Magnetizacion_(A/m)
0.000000e+00	-5.529880e-06	-1.082424e-09	-3.836759e+01	-7.324222e+01
1.000000e-08	-5.530000e-06	-1.080477e-09	-3.836842e+01	-7.322127e+01
2.000000e-08	-5.529877e-06	-1.081601e-09	-3.836757e+01	-7.319907e+01
3.000000e-08	-5.529375e-06	-1.083862e-09	-3.836409e+01	-7.317547e+01
4.000000e-08	-5.528355e-06	-1.082538e-09	-3.835701e+01	-7.315033e+01
5.000000e-08	-5.526799e-06	-1.073366e-09	-3.834621e+01	-7.312349e+01
6.000000e-08	-5.524582e-06	-1.053853e-09	-3.833083e+01	-7.309483e+01
7.000000e-08	-5.521696e-06	-1.043285e-09	-3.831081e+01	-7.306418e+01
8.000000e-08	-5.518294e-06	-1.069060e-09	-3.828720e+01	-7.303142e+01
9.000000e-08	-5.514446e-06	-1.135016e-09	-3.826051e+01	-7.299638e+01
1.000000e-07	-5.510222e-06	-1.151144e-09	-3.823120e+01	-7.295892e+01
1.100000e-07	-5.505659e-06	-1.065127e-09	-3.819954e+01	-7.291888e+01
1.200000e-07	-5.500903e-06	-9.622578e-10	-3.816654e+01	-7.287609e+01
1.300000e-07	-5.495934e-06	-1.067750e-09	-3.813206e+01	-7.283037e+01
1.400000e-07	-5.490543e-06	-1.132242e-09	-3.809466e+01	-7.278153e+01
1.500000e-07	-5.484766e-06	-1.098174e-09	-3.805458e+01	-7.272941e+01
1.600000e-07	-5.478603e-06	-9.992457e-10	-3.801182e+01	-7.267379e+01
1.700000e-07	-5.472070e-06	-1.066332e-09	-3.796649e+01	-7.261449e+01
1.800000e-07	-5.465061e-06	-1.157290e-09	-3.791786e+01	-7.255131e+01
1.900000e-07	-5.457649e-06	-1.105406e-09	-3.786644e+01	-7.248406e+01
2.000000e-07	-5.450052e-06	-1.011060e-09	-3.781373e+01	-7.241256e+01
2.100000e-07	-5.442146e-06	-1.033649e-09	-3.775887e+01	-7.233664e+01
2.200000e-07	-5.433938e-06	-1.137861e-09	-3.770192e+01	-7.225613e+01
2.300000e-07	-5.425558e-06	-1.138575e-09	-3.764378e+01	-7.217091e+01
2.400000e-07	-5.416752e-06	-1.092962e-09	-3.758268e+01	-7.208086e+01
2.500000e-07	-5.407141e-06	-1.078970e-09	-3.751600e+01	-7.198591e+01
2.600000e-07	-5.396719e-06	-1.129515e-09	-3.744369e+01	-7.188599e+01
2.700000e-07	-5.385783e-06	-1.087465e-09	-3.736782e+01	-7.178110e+01
2.800000e-07	-5.374460e-06	-1.069027e-09	-3.728925e+01	-7.167126e+01
2.900000e-07	-5.362697e-06	-1.074834e-09	-3.720763e+01	-7.155654e+01
3.000000e-07	-5.350619e-06	-1.111281e-09	-3.712384e+01	-7.143707e+01
3.100000e-07	-5.338192e-06	-1.082930e-09	-3.703761e+01	-7.131299e+01
3.200000e-07	-5.325277e-06	-1.088966e-09	-3.694800e+01	-7.118451e+01
3.300000e-07	-5.311898e-06	-1.085472e-09	-3.685518e+01	-7.105188e+01
3.400000e-07	-5.298200e-06	-1.101235e-09	-3.676014e+01	-7.091541e+01
3.500000e-07	-5.284099e-06	-1.072593e-09	-3.666231e+01	-7.077541e+01
3.600000e-07	-5.269511e-06	-1.069062e-09	-3.656109e+01	-7.063228e+01
3.700000e-07	-5.254537e-06	-1.074166e-09	-3.645720e+01	-7.048642e+01
3.800000e-07	-5.239062e-06	-1.094415e-09	-3.634983e+01	-7.033826e+01
3.900000e-07	-5.222982e-06	-1.057708e-09	-3.623826e+01	-7.018828e+01
4.000000e-07	-5.206403e-06	-1.054087e-09	-3.612323e+01	-7.003694e+01
4.100000e-07	-5.189468e-06	-1.095236e-09	-3.600573e+01	-6.988473e+01
4.200000e-07	-5.172250e-06	-1.077528e-09	-3.588627e+01	-6.973216e+01
4.300000e-07	-5.154764e-06	-1.025804e-09	-3.576495e+01	-6.957971e+01
4.400000e-07	-5.136980e-06	-1.062052e-09	-3.564156e+01	-6.942784e+01
4.500000e-07	-5.118779e-06	-1.111011e-09	-3.551528e+01	-6.927703e+01
4.600000e-07	-5.099996e-06	-1.033458e-09	-3.538496e+01	-6.912770e+01
4.700000e-07	-5.080678e-06	-1.016287e-09	-3.525093e+01	-6.898024e+01
4.800000e-07	-5.061144e-06	-1.090922e-09	-3.511539e+01	-6.883502e+01
4.900000e-07	-5.041489e-06	-1.086137e-09	-3.497902e+01	-6.869236e+01
5.000000e-07	-5.021640e-06	-1.015188e-09	-3.484130e+01	-6.855251e+01
5.100000e-07	-5.001585e-06	-1.065233e-09	-3.470216e+01	-6.841569e+01
5.200000e-07	-4.981155e-06	-1.077255e-09	-3.456041e+01	-6.828205e+01
5.300000e-07	-4.960293e-06	-1.019499e-09	-3.441567e+01	-6.815169e+01
5.400000e-07	-4.939068e-06	-1.031878e-09	-3.426840e+01	-6.802466e+01
5.500000e-07	-4.917497e-06	-1.084507e-09	-3.411874e+01	-6.790094e+01
5.600000e-07	-4.895632e-06	-1.016831e-09	-3.396703e+01	-6.778045e+01
5.700000e-07	-4.873568e-06	-1.004856e-09	-3.381394e+01	-6.766307e+01
5.800000e-07	-4.851198e-06	-1.065895e-09	-3.365874e+01	-6.754861e+01
5.900000e-07	-4.828349e-06	-1.050817e-09	-3.350020e+01	-6.743687e+01
6.000000e-07	-4.805127e-06	-9.951300e-10	-3.333909e+01	-6.732756e+01
6.100000e-07	-4.781669e-06	-1.037636e-09	-3.317633e+01	-6.722041e+01
6.200000e-07	-4.758001e-06	-1.044730e-09	-3.301212e+01	-6.711508e+01
6.300000e-07	-4.734091e-06	-1.001982e-09	-3.284622e+01	-6.701123e+01
6.400000e-07	-4.709913e-06	-1.013652e-09	-3.267847e+01	-6.690850e+01
6.500000e-07	-4.685316e-06	-1.043607e-09	-3.250781e+01	-6.680651e+01
6.600000e-07	-4.660259e-06	-1.013285e-09	-3.233396e+01	-6.670491e+01
6.700000e-07	-4.634817e-06	-1.009408e-09	-3.215744e+01	-6.660333e+01
6.800000e-07	-4.608749e-06	-1.030993e-09	-3.197657e+01	-6.650143e+01
6.900000e-07	-4.581996e-06	-1.015459e-09	-3.179096e+01	-6.639887e+01
7.000000e-07	-4.554813e-06	-9.964888e-10	-3.160235e+01	-6.629535e+01
7.100000e-07	-4.527348e-06	-1.004166e-09	-3.141179e+01	-6.619058e+01
7.200000e-07	-4.499705e-06	-1.000431e-09	-3.122000e+01	-6.608433e+01
7.300000e-07	-4.471922e-06	-9.903731e-10	-3.102723e+01	-6.597638e+01
7.400000e-07	-4.443957e-06	-1.000600e-09	-3.083321e+01	-6.586655e+01
7.500000e-07	-4.415812e-06	-1.001479e-09	-3.063793e+01	-6.575469e+01
7.600000e-07	-4.387353e-06	-9.926517e-10	-3.044047e+01	-6.564071e+01
7.700000e-07	-4.358479e-06	-9.845265e-10	-3.024014e+01	-6.552452e+01
7.800000e-07	-4.329259e-06	-9.813838e-10	-3.003740e+01	-6.540610e+01
7.900000e-07	-4.299738e-06	-9.710027e-10	-2.983258e+01	-6.528541e+01
8.000000e-07	-4.269954e-06	-9.735334e-10	-2.962593e+01	-6.516249e+01
8.100000e-07	-4.239859e-06	-9.715806e-10	-2.941713e+01	-6.503735e+01
8.200000e-07	-4.209510e-06	-9.720698e-10	-2.920655e+01	-6.491007e+01
8.300000e-07	-4.178821e-06	-9.719462e-10	-2.899363e+01	-6.478069e+01
8.400000e-07	-4.147725e-06	-9.784272e-10	-2.877788e+01	-6.464929e+01
8.500000e-07	-4.116396e-06	-9.703452e-10	-2.856051e+01	-6.451594e+01
8.600000e-07	-4.084895e-06	-9.655525e-10	-2.834195e+01	-6.438071e+01
8.700000e-07	-4.053234e-06	-9.612724e-10	-2.812228e+01	-6.424366e+01
8.800000e-07	-4.021402e-06	-9.595518e-10	-2.790142e+01	-6.410485e+01
8.900000e-07	-3.989386e-06	-9.512372e-10	-2.767929e+01	-6.396432e+01
9.000000e-07	-3.957174e-06	-9.530476e-10	-2.745579e+01	-6.382207e+01
9.100000e-07	-3.924697e-06	-9.516060e-10	-2.723046e+01	-6.367811e+01
9.200000e-07	-3.891825e-06	-9.492037e-10	-2.700238e+01	-6.353242e+01
9.300000e-07	-3.858450e-06	-9.495825e-10	-2.677082e+01	-6.338495e+01
9.400000e-07	-3.824571e-06	-9.538758e-10	-2.653576e+01	-6.323564e+01
9.500000e-07	-3.790231e-06	-9.460572e-10	-2.629750e+01	-6.308440e+01
9.600000e-07	-3.755491e-06	-9.361646e-10	-2.605647e+01	-6.293113e+01
9.700000e-07	-3.720360e-06	-9.314745e-10	-2.581272e+01	-6.277570e+01
9.800000e-07	-3.684889e-06	-9.263345e-10	-2.556662e+01	-6.261798e+01
9.900000e-07	-3.649252e-06	-9.193761e-10	-2.531935e+01	-6.245783e+01
1.000000e-06	-3.613534e-06	-9.185124e-10	-2.507154e+01	-6.229509e+01
1.010000e-06	-3.577719e-06	-9.219463e-10	-2.482305e+01	-6.212963e+01
1.020000e-06	-3.541763e-06	-9.213505e-10	-2.457357e+01	-6.196128e+01
1.030000e-06	-3.505692e-06	-9.225525e-10	-2.432330e+01	-6.178992e+01
1.040000e-06	-3.469392e-06	-9.227904e-10	-2.407145e+01	-6.161543e+01
1.050000e-06	-3.432754e-06	-9.178282e-10	-2.381725e+01	-6.143768e+01
1.060000e-06	-3.395741e-06	-9.081317e-10	-2.356044e+01	-6.125660e+01
1.070000e-06	-3.358415e-06	-9.063064e-10	-2.330146e+01	-6.107212e+01
1.080000e-06	-3.320889e-06	-9.045733e-10	-2.304110e+01	-6.088420e+01
1.090000e-06	-3.283134e-06	-9.039797e-10	-2.277914e+01	-6.069283e+01
1.100000e-06	-3.245216e-06	-9.021099e-10	-2.251606e+01	-6.049804e+01
1.110000e-06	-3.207138e-06	-9.007813e-10	-2.225187e+01	-6.029987e+01
1.120000e-06	-3.168871e-06	-8.932940e-10	-2.198637e+01	-6.009839e+01
1.130000e-06	-3.130325e-06	-8.877053e-10	-2.171892e+01	-5.989372e+01
1.140000e-06	-3.091471e-06	-8.845491e-10	-2.144934e+01	-5.968597e+01
1.150000e-06	-3.052377e-06	-8.846678e-10	-2.117810e+01	-5.947529e+01
1.160000e-06	-3.013120e-06	-8.793937e-10	-2.090572e+01	-5.926185e+01
1.170000e-06	-2.973745e-06	-8.761988e-10	-2.063254e+01	-5.904581e+01
1.180000e-06	-2.934178e-06	-8.740192e-10	-2.035801e+01	-5.882735e+01
1.190000e-06	-2.894451e-06	-8.723264e-10	-2.008238e+01	-5.860665e+01
1.200000e-06	-2.854644e-06	-8.652433e-10	-1.980618e+01	-5.838388e+01
1.210000e-06	-2.814724e-06	-8.588818e-10	-1.952921e+01	-5.815919e+01
1.220000e-06	-2.774664e-06	-8.533713e-10	-1.925127e+01	-5.793272e+01
1.230000e-06	-2.734432e-06	-8.495717e-10	-1.897213e+01	-5.770457e+01
1.240000e-06	-2.693988e-06	-8.475329e-10	-1.869152e+01	-5.747481e+01
1.250000e-06	-2.653372e-06	-8.478514e-10	-1.840971e+01	-5.724350e+01
1.260000e-06	-2.612477e-06	-8.457475e-10	-1.812597e+01	-5.701061e+01
1.270000e-06	-2.571270e-06	-8.406322e-10	-1.784007e+01	-5.677609e+01
1.280000e-06	-2.529766e-06	-8.376009e-10	-1.755210e+01	-5.653984e+01
1.290000e-06	-2.487907e-06	-8.331134e-10	-1.726167e+01	-5.630171e+01
1.300000e-06	-2.445761e-06	-8.242457e-10	-1.696926e+01	-5.606148e+01
1.310000e-06	-2.403296e-06	-8.175499e-10	-1.667463e+01	-5.581889e+01
1.320000e-06	-2.360464e-06	-8.142743e-10	-1.637745e+01	-5.557362e+01
1.330000e-06	-2.317326e-06	-8.112027e-10	-1.607815e+01	-5.532530e+01
1.340000e-06	-2.273997e-06	-8.100952e-10	-1.577752e+01	-5.507352e+01
1.350000e-06	-2.230558e-06	-8.079038e-10	-1.547613e+01	-5.481782e+01
1.360000e-06	-2.187019e-06	-8.009940e-10	-1.517405e+01	-5.455769e+01
1.370000e-06	-2.143397e-06	-7.917379e-10	-1.487139e+01	-5.429262e+01
1.380000e-06	-2.099682e-06	-7.847816e-10	-1.456808e+01	-5.402203e+01
1.390000e-06	-2.055882e-06	-7.764699e-10	-1.426418e+01	-5.374535e+01
1.400000e-06	-2.012038e-06	-7.703538e-10	-1.395999e+01	-5.346199e+01
1.410000e-06	-1.968151e-06	-7.669122e-10	-1.365549e+01	-5.317135e+01
1.420000e-06	-1.924179e-06	-7.655248e-10	-1.335040e+01	-5.287283e+01
1.430000e-06	-1.880097e-06	-7.628883e-10	-1.304455e+01	-5.256584e+01
1.440000e-06	-1.835868e-06	-7.607774e-10	-1.273767e+01	-5.224981e+01
1.450000e-06	-1.791523e-06	-7.539567e-10	-1.243000e+01	-5.192417e+01
1.460000e-06	-1.747073e-06	-7.430739e-10	-1.212159e+01	-5.158840e+01
1.470000e-06	-1.702489e-06	-7.307093e-10	-1.181226e+01	-5.124199e+01
1.480000e-06	-1.657755e-06	-7.226234e-10	-1.150189e+01	-5.088446e+01
1.490000e-06	-1.612826e-06	-7.146994e-10	-1.119016e+01	-5.051537e+01
1.500000e-06	-1.567749e-06	-7.081215e-10	-1.087740e+01	-5.013432e+01
1.510000e-06	-1.522564e-06	-7.050070e-10	-1.056390e+01	-4.974092e+01
1.520000e-06	-1.477206e-06	-7.017626e-10	-1.024920e+01	-4.933482e+01
1.530000e-06	-1.431733e-06	-6.955020e-10	-9.933694e+00	-4.891571e+01
1.540000e-06	-1.386277e-06	-6.877962e-10	-9.618314e+00	-4.848329e+01
1.550000e-06	-1.340795e-06	-6.763981e-10	-9.302749e+00	-4.803728e+01
1.560000e-06	-1.295222e-06	-6.633110e-10	-8.986553e+00	-4.757740e+01
1.570000e-06	-1.249536e-06	-6.514930e-10	-8.669568e+00	-4.710340e+01
1.580000e-06	-1.203726e-06	-6.429198e-10	-8.351728e+00	-4.661500e+01
1.590000e-06	-1.157822e-06	-6.386791e-10	-8.033237e+00	-4.611193e+01
1.600000e-06	-1.111862e-06	-6.355089e-10	-7.714358e+00	-4.559390e+01
1.610000e-06	-1.065859e-06	-6.298520e-10	-7.395178e+00	-4.506057e+01
1.620000e-06	-1.019713e-06	-6.217564e-10	-7.075009e+00	-4.451159e+01
1.630000e-06	-9.734522e-07	-6.107721e-10	-6.754037e+00	-4.394657e+01
1.640000e-06	-9.271832e-07	-5.970791e-10	-6.433013e+00	-4.336505e+01
1.650000e-06	-8.808434e-07	-5.849067e-10	-6.111496e+00	-4.276655e+01
1.660000e-06	-8.344500e-07	-5.724980e-10	-5.789608e+00	-4.215051e+01
1.670000e-06	-7.879816e-07	-5.617036e-10	-5.467200e+00	-4.151631e+01
1.680000e-06	-7.414417e-07	-5.526028e-10	-5.144295e+00	-4.086330e+01
1.690000e-06	-6.948729e-07	-5.441108e-10	-4.821189e+00	-4.019074e+01
1.700000e-06	-6.482831e-07	-5.330056e-10	-4.497939e+00	-3.949784e+01
1.710000e-06	-6.017211e-07	-5.212340e-10	-4.174881e+00	-3.878376e+01
1.720000e-06	-5.550763e-07	-5.090429e-10	-3.851248e+00	-3.804761e+01
1.730000e-06	-5.083516e-07	-4.952307e-10	-3.527061e+00	-3.728847e+01
1.740000e-06	-4.615712e-07	-4.806109e-10	-3.202488e+00	-3.650538e+01
1.750000e-06	-4.147406e-07	-4.664051e-10	-2.877566e+00	-3.569736e+01
1.760000e-06	-3.679450e-07	-4.554892e-10	-2.552888e+00	-3.486341e+01
1.770000e-06	-3.211386e-07	-4.483653e-10	-2.228134e+00	-3.400255e+01
1.780000e-06	-2.742345e-07	-4.396208e-10	-1.902703e+00	-3.311382e+01
1.790000e-06	-2.272749e-07	-4.286914e-10	-1.576886e+00	-3.219629e+01
1.800000e-06	-1.803343e-07	-4.128426e-10	-1.251201e+00	-3.124906e+01
1.810000e-06	-1.334317e-07	-3.921660e-10	-9.257804e-01	-3.027132e+01
1.820000e-06	-8.649227e-08	-3.725430e-10	-6.001034e-01	-2.926232e+01
1.830000e-06	-3.949771e-08	-3.581561e-10	-2.740443e-01	-2.822143e+01
1.840000e-06	7.463679e-09	-3.476337e-10	5.178474e-02	-2.714810e+01
1.850000e-06	5.447375e-08	-3.374606e-10	3.779515e-01	-2.604192e+01
1.860000e-06	1.015383e-07	-3.235703e-10	7.044961e-01	-2.490263e+01
1.870000e-06	1.485870e-07	-3.047694e-10	1.030931e+00	-2.373008e+01
1.880000e-06	1.956244e-07	-2.846140e-10	1.357288e+00	-2.252432e+01
1.890000e-06	2.426194e-07	-2.644274e-10	1.683350e+00	-2.128553e+01
1.900000e-06	2.895144e-07	-2.434372e-10	2.008718e+00	-2.001409e+01
1.910000e-06	3.363410e-07	-2.219638e-10	2.333612e+00	-1.871053e+01
1.920000e-06	3.831730e-07	-2.045211e-10	2.658543e+00	-1.737559e+01
1.930000e-06	4.299988e-07	-1.899928e-10	2.983431e+00	-1.601016e+01
1.940000e-06	4.768302e-07	-1.738652e-10	3.308359e+00	-1.461531e+01
1.950000e-06	5.236073e-07	-1.564308e-10	3.632909e+00	-1.319229e+01
1.960000e-06	5.702688e-07	-1.362923e-10	3.956657e+00	-1.174250e+01
1.970000e-06	6.167790e-07	-1.138936e-10	4.279356e+00	-1.026751e+01
1.980000e-06	6.631731e-07	-9.022241e-11	4.601249e+00	-8.769022e+00
1.990000e-06	7.096127e-07	-6.456051e-11	4.923458e+00	-7.248880e+00
2.000000e-06	7.561150e-07	-3.868172e-11	5.246101e+00	-5.709039e+00
2.010000e-06	8.025747e-07	-1.533986e-11	5.568450e+00	-4.151561e+00
2.020000e-06	8.489530e-07	5.676324e-12	5.890233e+00	-2.578597e+00
2.030000e-06	8.953668e-07	2.469143e-11	6.212263e+00	-9.923656e-01
2.040000e-06	9.417004e-07	4.232671e-11	6.533736e+00	6.048557e-01
2.050000e-06	9.878044e-07	6.309522e-11	6.853617e+00	2.210754e+00
2.060000e-06	1.033791e-06	8.656690e-11	7.172685e+00	3.822997e+00
2.070000e-06	1.079703e-06	1.118653e-10	7.491231e+00	5.439247e+00
2.080000e-06	1.125582e-06	1.382337e-10	7.809550e+00	7.057180e+00
2.090000e-06	1.171457e-06	1.630429e-10	8.127837e+00	8.674500e+00
2.100000e-06	1.217243e-06	1.847712e-10	8.445513e+00	1.028895e+01
2.110000e-06	1.262884e-06	2.058656e-10	8.762179e+00	1.189834e+01
2.120000e-06	1.308456e-06	2.266086e-10	9.078370e+00	1.350054e+01
2.130000e-06	1.353970e-06	2.462195e-10	9.394161e+00	1.509349e+01
2.140000e-06	1.399380e-06	2.658691e-10	9.709221e+00	1.667523e+01
2.150000e-06	1.444723e-06	2.887380e-10	1.002382e+01	1.824390e+01
2.160000e-06	1.490014e-06	3.122449e-10	1.033807e+01	1.979772e+01
2.170000e-06	1.535143e-06	3.337663e-10	1.065118e+01	2.133505e+01
2.180000e-06	1.580059e-06	3.551216e-10	1.096281e+01	2.285432e+01
2.190000e-06	1.624936e-06	3.771868e-10	1.127419e+01	2.435409e+01
2.200000e-06	1.669750e-06	3.985029e-10	1.158512e+01	2.583305e+01
2.210000e-06	1.714371e-06	4.171902e-10	1.189470e+01	2.728996e+01
2.220000e-06	1.758843e-06	4.346774e-10	1.220326e+01	2.872373e+01
2.230000e-06	1.803164e-06	4.513309e-10	1.251077e+01	3.013336e+01
2.240000e-06	1.847360e-06	4.664988e-10	1.281742e+01	3.151793e+01
2.250000e-06	1.891500e-06	4.812404e-10	1.312366e+01	3.287666e+01
2.260000e-06	1.935557e-06	4.990372e-10	1.342935e+01	3.420884e+01
2.270000e-06	1.979466e-06	5.196228e-10	1.373400e+01	3.551385e+01
2.280000e-06	2.023262e-06	5.382892e-10	1.403786e+01	3.679116e+01
2.290000e-06	2.066998e-06	5.553775e-10	1.434131e+01	3.804033e+01
2.300000e-06	2.110669e-06	5.705441e-10	1.464431e+01	3.926097e+01
2.310000e-06	2.154276e-06	5.854476e-10	1.494687e+01	4.045279e+01
2.320000e-06	2.197806e-06	6.001220e-10	1.524889e+01	4.161555e+01
2.330000e-06	2.241239e-06	6.158035e-10	1.555023e+01	4.274907e+01
2.340000e-06	2.284552e-06	6.308546e-10	1.585075e+01	4.385325e+01
2.350000e-06	2.327743e-06	6.442639e-10	1.615042e+01	4.492803e+01
2.360000e-06	2.370759e-06	6.578983e-10	1.644887e+01	4.597340e+01
2.370000e-06	2.413467e-06	6.711549e-10	1.674519e+01	4.698942e+01
2.380000e-06	2.455855e-06	6.836791e-10	1.703929e+01	4.797619e+01
2.390000e-06	2.497893e-06	6.964070e-10	1.733096e+01	4.893385e+01
2.400000e-06	2.539585e-06	7.093557e-10	1.762023e+01	4.986262e+01
2.410000e-06	2.581006e-06	7.234475e-10	1.790762e+01	5.076273e+01
2.420000e-06	2.622057e-06	7.374025e-10	1.819244e+01	5.163447e+01
2.430000e-06	2.662798e-06	7.478984e-10	1.847511e+01	5.247820e+01
2.440000e-06	2.703366e-06	7.563454e-10	1.875658e+01	5.329429e+01
2.450000e-06	2.743739e-06	7.636460e-10	1.903670e+01	5.408317e+01
2.460000e-06	2.783903e-06	7.719827e-10	1.931537e+01	5.484532e+01
2.470000e-06	2.823899e-06	7.812782e-10	1.959287e+01	5.558125e+01
2.480000e-06	2.863759e-06	7.926502e-10	1.986942e+01	5.629151e+01
2.490000e-06	2.903496e-06	8.054101e-10	2.014513e+01	5.697670e+01
2.500000e-06	2.943099e-06	8.175833e-10	2.041990e+01	5.763743e+01
2.510000e-06	2.982574e-06	8.269895e-10	2.069379e+01	5.827438e+01
2.520000e-06	3.021896e-06	8.348436e-10	2.096662e+01	5.888822e+01
2.530000e-06	3.060955e-06	8.421411e-10	2.123762e+01	5.947967e+01
2.540000e-06	3.099801e-06	8.476985e-10	2.150714e+01	6.004946e+01
2.550000e-06	3.138389e-06	8.544177e-10	2.177487e+01	6.059833e+01
2.560000e-06	3.176731e-06	8.618492e-10	2.204090e+01	6.112704e+01
2.570000e-06	3.214908e-06	8.695607e-10	2.230578e+01	6.163635e+01
2.580000e-06	3.252894e-06	8.779274e-10	2.256933e+01	6.212702e+01
2.590000e-06	3.290701e-06	8.860078e-10	2.283165e+01	6.259982e+01
2.600000e-06	3.328309e-06	8.940450e-10	2.309258e+01	6.305547e+01
2.610000e-06	3.365696e-06	9.008933e-10	2.335198e+01	6.349472e+01
2.620000e-06	3.402831e-06	9.078613e-10	2.360963e+01	6.391826e+01
2.630000e-06	3.439709e-06	9.120811e-10	2.386550e+01	6.432679e+01
2.640000e-06	3.476270e-06	9.170156e-10	2.411917e+01	6.472096e+01
2.650000e-06	3.512523e-06	9.234757e-10	2.437070e+01	6.510139e+01
2.660000e-06	3.548600e-06	9.291458e-10	2.462101e+01	6.546868e+01
2.670000e-06	3.584533e-06	9.341171e-10	2.487032e+01	6.582337e+01
2.680000e-06	3.620323e-06	9.381632e-10	2.511864e+01	6.616599e+01
2.690000e-06	3.655997e-06	9.434816e-10	2.536615e+01	6.649701e+01
2.700000e-06	3.691505e-06	9.477419e-10	2.561252e+01	6.681687e+01
2.710000e-06	3.726842e-06	9.523188e-10	2.585769e+01	6.712598e+01
2.720000e-06	3.762005e-06	9.595671e-10	2.610166e+01	6.742471e+01
2.730000e-06	3.796886e-06	9.661692e-10	2.634368e+01	6.771340e+01
2.740000e-06	3.831242e-06	9.715191e-10	2.658205e+01	6.799237e+01
2.750000e-06	3.864953e-06	9.765882e-10	2.681594e+01	6.826190e+01
2.760000e-06	3.898125e-06	9.822777e-10	2.704610e+01	6.852226e+01
2.770000e-06	3.930870e-06	9.854362e-10	2.727329e+01	6.877369e+01
2.780000e-06	3.963227e-06	9.894699e-10	2.749779e+01	6.901645e+01
2.790000e-06	3.995299e-06	9.957590e-10	2.772031e+01	6.925075e+01
2.800000e-06	4.027225e-06	1.002567e-09	2.794182e+01	6.947682e+01
2.810000e-06	4.059035e-06	1.008218e-09	2.816253e+01	6.969489e+01
2.820000e-06	4.090694e-06	1.012030e-09	2.838219e+01	6.990520e+01
2.830000e-06	4.122156e-06	1.014326e-09	2.860047e+01	7.010798e+01
2.840000e-06	4.153365e-06	1.013636e-09	2.881701e+01	7.030348e+01
2.850000e-06	4.184220e-06	1.016293e-09	2.903109e+01	7.049196e+01
2.860000e-06	4.214697e-06	1.022101e-09	2.924255e+01	7.067370e+01
2.870000e-06	4.244879e-06	1.027388e-09	2.945196e+01	7.084899e+01
2.880000e-06	4.274797e-06	1.032381e-09	2.965954e+01	7.101812e+01
2.890000e-06	4.304441e-06	1.037413e-09	2.986521e+01	7.118142e+01
2.900000e-06	4.333849e-06	1.041598e-09	3.006925e+01	7.133921e+01
