# Temperatura_=_-11.88
# Concentracion g/m^3_=_1620.0
# C_Vs_to_Am_M_A/Vsm_=_65563218390.804596
# pendiente_HvsI_1/m_=_3716.3
# ordenada_HvsI_A/m_=_1297.0
# frecuencia_Hz_=_135110.77156439566

Tiempo_(s)	Campo_(V.s)	Magnetizacion_(V.s)	Campo_(kA/m)	Magnetizacion_(A/m)
0.000000e+00	-5.527225e-06	-9.345149e-10	-3.836175e+01	-6.207298e+01
1.000000e-08	-5.527291e-06	-9.343380e-10	-3.836221e+01	-6.207278e+01
2.000000e-08	-5.527040e-06	-9.334381e-10	-3.836047e+01	-6.206774e+01
3.000000e-08	-5.526472e-06	-9.314162e-10	-3.835652e+01	-6.205735e+01
4.000000e-08	-5.525439e-06	-9.285285e-10	-3.834936e+01	-6.204116e+01
5.000000e-08	-5.523833e-06	-9.225558e-10	-3.833821e+01	-6.201883e+01
6.000000e-08	-5.521753e-06	-9.159171e-10	-3.832377e+01	-6.199010e+01
7.000000e-08	-5.518997e-06	-9.289338e-10	-3.830464e+01	-6.195481e+01
8.000000e-08	-5.515595e-06	-9.411019e-10	-3.828103e+01	-6.191289e+01
9.000000e-08	-5.511745e-06	-9.118803e-10	-3.825431e+01	-6.186437e+01
1.000000e-07	-5.507495e-06	-8.985720e-10	-3.822481e+01	-6.180938e+01
1.100000e-07	-5.503044e-06	-9.501238e-10	-3.819392e+01	-6.174811e+01
1.200000e-07	-5.498378e-06	-9.086543e-10	-3.816154e+01	-6.168086e+01
1.300000e-07	-5.493391e-06	-8.927195e-10	-3.812693e+01	-6.160798e+01
1.400000e-07	-5.487969e-06	-8.715716e-10	-3.808930e+01	-6.152991e+01
1.500000e-07	-5.482103e-06	-9.476592e-10	-3.804858e+01	-6.144711e+01
1.600000e-07	-5.475880e-06	-9.432590e-10	-3.800539e+01	-6.136010e+01
1.700000e-07	-5.469228e-06	-8.926957e-10	-3.795923e+01	-6.126943e+01
1.800000e-07	-5.462120e-06	-9.196234e-10	-3.790989e+01	-6.117568e+01
1.900000e-07	-5.454641e-06	-9.541888e-10	-3.785798e+01	-6.107941e+01
2.000000e-07	-5.446902e-06	-9.320113e-10	-3.780427e+01	-6.098120e+01
2.100000e-07	-5.438984e-06	-8.590324e-10	-3.774931e+01	-6.088161e+01
2.200000e-07	-5.430849e-06	-8.860660e-10	-3.769285e+01	-6.078117e+01
2.300000e-07	-5.422375e-06	-9.185552e-10	-3.763404e+01	-6.068038e+01
2.400000e-07	-5.413374e-06	-9.335504e-10	-3.757157e+01	-6.057970e+01
2.500000e-07	-5.403707e-06	-8.923116e-10	-3.750447e+01	-6.047956e+01
2.600000e-07	-5.393351e-06	-9.093937e-10	-3.743260e+01	-6.038030e+01
2.700000e-07	-5.382375e-06	-8.950127e-10	-3.735642e+01	-6.028225e+01
2.800000e-07	-5.370966e-06	-9.055301e-10	-3.727723e+01	-6.018565e+01
2.900000e-07	-5.359224e-06	-8.903341e-10	-3.719574e+01	-6.009071e+01
3.000000e-07	-5.347134e-06	-8.991176e-10	-3.711183e+01	-5.999756e+01
3.100000e-07	-5.334554e-06	-8.919045e-10	-3.702452e+01	-5.990630e+01
3.200000e-07	-5.321528e-06	-9.250576e-10	-3.693411e+01	-5.981698e+01
3.300000e-07	-5.308197e-06	-9.197336e-10	-3.684159e+01	-5.972958e+01
3.400000e-07	-5.294560e-06	-9.036596e-10	-3.674694e+01	-5.964407e+01
3.500000e-07	-5.280511e-06	-9.108650e-10	-3.664943e+01	-5.956038e+01
3.600000e-07	-5.265999e-06	-9.276048e-10	-3.654871e+01	-5.947841e+01
3.700000e-07	-5.250902e-06	-8.833389e-10	-3.644393e+01	-5.939806e+01
3.800000e-07	-5.235157e-06	-8.850694e-10	-3.633465e+01	-5.931919e+01
3.900000e-07	-5.219006e-06	-9.277230e-10	-3.622256e+01	-5.924168e+01
4.000000e-07	-5.202498e-06	-8.887167e-10	-3.610798e+01	-5.916540e+01
4.100000e-07	-5.185583e-06	-8.499559e-10	-3.599058e+01	-5.909024e+01
4.200000e-07	-5.168434e-06	-9.107517e-10	-3.587156e+01	-5.901610e+01
4.300000e-07	-5.151022e-06	-9.328322e-10	-3.575071e+01	-5.894291e+01
4.400000e-07	-5.133202e-06	-8.439926e-10	-3.562703e+01	-5.887059e+01
4.500000e-07	-5.114962e-06	-8.773747e-10	-3.550044e+01	-5.879912e+01
4.600000e-07	-5.096244e-06	-9.323353e-10	-3.537053e+01	-5.872850e+01
4.700000e-07	-5.077154e-06	-8.641734e-10	-3.523803e+01	-5.865874e+01
4.800000e-07	-5.057781e-06	-8.242475e-10	-3.510357e+01	-5.858988e+01
4.900000e-07	-5.038133e-06	-9.264063e-10	-3.496721e+01	-5.852201e+01
5.000000e-07	-5.018262e-06	-9.023790e-10	-3.482929e+01	-5.845521e+01
5.100000e-07	-4.998154e-06	-8.403908e-10	-3.468973e+01	-5.838960e+01
5.200000e-07	-4.977748e-06	-8.998478e-10	-3.454810e+01	-5.832530e+01
5.300000e-07	-4.956977e-06	-9.323929e-10	-3.440394e+01	-5.826243e+01
5.400000e-07	-4.935885e-06	-8.363300e-10	-3.425755e+01	-5.820115e+01
5.500000e-07	-4.914448e-06	-8.636976e-10	-3.410876e+01	-5.814158e+01
5.600000e-07	-4.892614e-06	-9.193745e-10	-3.395723e+01	-5.808385e+01
5.700000e-07	-4.870508e-06	-8.583475e-10	-3.380380e+01	-5.802807e+01
5.800000e-07	-4.848109e-06	-8.357194e-10	-3.364834e+01	-5.797433e+01
5.900000e-07	-4.825356e-06	-9.130008e-10	-3.349043e+01	-5.792271e+01
6.000000e-07	-4.802220e-06	-8.824963e-10	-3.332985e+01	-5.787325e+01
6.100000e-07	-4.778727e-06	-8.358925e-10	-3.316680e+01	-5.782595e+01
6.200000e-07	-4.755013e-06	-8.838331e-10	-3.300220e+01	-5.778080e+01
6.300000e-07	-4.731136e-06	-8.929647e-10	-3.283649e+01	-5.773774e+01
6.400000e-07	-4.707014e-06	-8.416637e-10	-3.266907e+01	-5.769666e+01
6.500000e-07	-4.682545e-06	-8.650872e-10	-3.249924e+01	-5.765744e+01
6.600000e-07	-4.657657e-06	-8.934944e-10	-3.232651e+01	-5.761991e+01
6.700000e-07	-4.632210e-06	-8.604018e-10	-3.214989e+01	-5.758387e+01
6.800000e-07	-4.606083e-06	-8.651202e-10	-3.196856e+01	-5.754909e+01
6.900000e-07	-4.579371e-06	-8.938414e-10	-3.178316e+01	-5.751532e+01
7.000000e-07	-4.552256e-06	-8.730891e-10	-3.159497e+01	-5.748227e+01
7.100000e-07	-4.524796e-06	-8.511513e-10	-3.140438e+01	-5.744965e+01
7.200000e-07	-4.497051e-06	-8.688662e-10	-3.121182e+01	-5.741717e+01
7.300000e-07	-4.469144e-06	-8.605121e-10	-3.101813e+01	-5.738450e+01
7.400000e-07	-4.441130e-06	-8.498521e-10	-3.082370e+01	-5.735135e+01
7.500000e-07	-4.412949e-06	-8.638823e-10	-3.062811e+01	-5.731741e+01
7.600000e-07	-4.384488e-06	-8.737482e-10	-3.043058e+01	-5.728240e+01
7.700000e-07	-4.355688e-06	-8.557243e-10	-3.023069e+01	-5.724605e+01
7.800000e-07	-4.326534e-06	-8.599804e-10	-3.002835e+01	-5.720813e+01
7.900000e-07	-4.297031e-06	-8.605124e-10	-2.982358e+01	-5.716841e+01
8.000000e-07	-4.267248e-06	-8.492842e-10	-2.961687e+01	-5.712671e+01
8.100000e-07	-4.237247e-06	-8.446233e-10	-2.940865e+01	-5.708288e+01
8.200000e-07	-4.207027e-06	-8.616098e-10	-2.919891e+01	-5.703682e+01
8.300000e-07	-4.176482e-06	-8.569101e-10	-2.898691e+01	-5.698844e+01
8.400000e-07	-4.145562e-06	-8.549717e-10	-2.877231e+01	-5.693771e+01
8.500000e-07	-4.114322e-06	-8.620479e-10	-2.855549e+01	-5.688464e+01
8.600000e-07	-4.082831e-06	-8.609293e-10	-2.833692e+01	-5.682923e+01
8.700000e-07	-4.051164e-06	-8.459837e-10	-2.811713e+01	-5.677157e+01
8.800000e-07	-4.019360e-06	-8.497533e-10	-2.789640e+01	-5.671174e+01
8.900000e-07	-3.987385e-06	-8.504105e-10	-2.767448e+01	-5.664986e+01
9.000000e-07	-3.955199e-06	-8.422901e-10	-2.745109e+01	-5.658604e+01
9.100000e-07	-3.922657e-06	-8.443416e-10	-2.722523e+01	-5.652044e+01
9.200000e-07	-3.889742e-06	-8.520630e-10	-2.699678e+01	-5.645320e+01
9.300000e-07	-3.856458e-06	-8.448571e-10	-2.676578e+01	-5.638448e+01
9.400000e-07	-3.822644e-06	-8.394723e-10	-2.653109e+01	-5.631441e+01
9.500000e-07	-3.788398e-06	-8.435438e-10	-2.629340e+01	-5.624313e+01
9.600000e-07	-3.753762e-06	-8.389708e-10	-2.605302e+01	-5.617076e+01
9.700000e-07	-3.718715e-06	-8.282762e-10	-2.580977e+01	-5.609741e+01
9.800000e-07	-3.683345e-06	-8.304807e-10	-2.556429e+01	-5.602314e+01
9.900000e-07	-3.647720e-06	-8.319640e-10	-2.531703e+01	-5.594800e+01
1.000000e-06	-3.611956e-06	-8.232416e-10	-2.506881e+01	-5.587201e+01
1.010000e-06	-3.576069e-06	-8.235403e-10	-2.481974e+01	-5.579516e+01
1.020000e-06	-3.540076e-06	-8.254298e-10	-2.456993e+01	-5.571740e+01
1.030000e-06	-3.503961e-06	-8.218377e-10	-2.431927e+01	-5.563866e+01
1.040000e-06	-3.467609e-06	-8.176072e-10	-2.406697e+01	-5.555882e+01
1.050000e-06	-3.430993e-06	-8.221845e-10	-2.381283e+01	-5.547776e+01
1.060000e-06	-3.394085e-06	-8.159764e-10	-2.355668e+01	-5.539530e+01
1.070000e-06	-3.356802e-06	-8.099288e-10	-2.329791e+01	-5.531126e+01
1.080000e-06	-3.319257e-06	-8.102346e-10	-2.303733e+01	-5.522544e+01
1.090000e-06	-3.281501e-06	-8.116708e-10	-2.277529e+01	-5.513762e+01
1.100000e-06	-3.243528e-06	-8.045324e-10	-2.251173e+01	-5.504756e+01
1.110000e-06	-3.205365e-06	-8.037724e-10	-2.224686e+01	-5.495504e+01
1.120000e-06	-3.167044e-06	-8.039393e-10	-2.198089e+01	-5.485983e+01
1.130000e-06	-3.128597e-06	-8.021869e-10	-2.171405e+01	-5.476169e+01
1.140000e-06	-3.089886e-06	-7.983395e-10	-2.144538e+01	-5.466040e+01
1.150000e-06	-3.050808e-06	-8.003444e-10	-2.117416e+01	-5.455577e+01
1.160000e-06	-3.011472e-06	-7.974159e-10	-2.090114e+01	-5.444761e+01
1.170000e-06	-2.971985e-06	-7.939537e-10	-2.062709e+01	-5.433575e+01
1.180000e-06	-2.932365e-06	-7.938131e-10	-2.035211e+01	-5.422004e+01
1.190000e-06	-2.892650e-06	-7.952734e-10	-2.007646e+01	-5.410038e+01
1.200000e-06	-2.852808e-06	-7.912673e-10	-1.979993e+01	-5.397666e+01
1.210000e-06	-2.812855e-06	-7.885602e-10	-1.952264e+01	-5.384882e+01
1.220000e-06	-2.772790e-06	-7.870113e-10	-1.924457e+01	-5.371681e+01
1.230000e-06	-2.732596e-06	-7.851594e-10	-1.896560e+01	-5.358061e+01
1.240000e-06	-2.692205e-06	-7.841095e-10	-1.868527e+01	-5.344022e+01
1.250000e-06	-2.651521e-06	-7.851716e-10	-1.840291e+01	-5.329564e+01
1.260000e-06	-2.610615e-06	-7.853467e-10	-1.811900e+01	-5.314690e+01
1.270000e-06	-2.569489e-06	-7.798250e-10	-1.783356e+01	-5.299403e+01
1.280000e-06	-2.528039e-06	-7.764118e-10	-1.754588e+01	-5.283707e+01
1.290000e-06	-2.486265e-06	-7.731646e-10	-1.725594e+01	-5.267604e+01
1.300000e-06	-2.444218e-06	-7.684134e-10	-1.696412e+01	-5.251096e+01
1.310000e-06	-2.401887e-06	-7.636681e-10	-1.667032e+01	-5.234185e+01
1.320000e-06	-2.359243e-06	-7.620111e-10	-1.637434e+01	-5.216869e+01
1.330000e-06	-2.316398e-06	-7.587956e-10	-1.607698e+01	-5.199146e+01
1.340000e-06	-2.273324e-06	-7.575555e-10	-1.577802e+01	-5.181010e+01
1.350000e-06	-2.229946e-06	-7.550535e-10	-1.547696e+01	-5.162452e+01
1.360000e-06	-2.186376e-06	-7.500761e-10	-1.517456e+01	-5.143460e+01
1.370000e-06	-2.142712e-06	-7.427471e-10	-1.487151e+01	-5.124018e+01
1.380000e-06	-2.098950e-06	-7.377690e-10	-1.456778e+01	-5.104108e+01
1.390000e-06	-2.055060e-06	-7.329028e-10	-1.426316e+01	-5.083706e+01
1.400000e-06	-2.011133e-06	-7.296677e-10	-1.395828e+01	-5.062786e+01
1.410000e-06	-1.967194e-06	-7.261904e-10	-1.365333e+01	-5.041319e+01
1.420000e-06	-1.923200e-06	-7.243230e-10	-1.334799e+01	-5.019270e+01
1.430000e-06	-1.879102e-06	-7.222505e-10	-1.304192e+01	-4.996604e+01
1.440000e-06	-1.834889e-06	-7.192307e-10	-1.273506e+01	-4.973280e+01
1.450000e-06	-1.790567e-06	-7.142203e-10	-1.242745e+01	-4.949258e+01
1.460000e-06	-1.746141e-06	-7.092568e-10	-1.211911e+01	-4.924494e+01
1.470000e-06	-1.701564e-06	-7.041945e-10	-1.180972e+01	-4.898941e+01
1.480000e-06	-1.656837e-06	-6.997541e-10	-1.149929e+01	-4.872554e+01
1.490000e-06	-1.611953e-06	-6.950990e-10	-1.118777e+01	-4.845284e+01
1.500000e-06	-1.566929e-06	-6.898071e-10	-1.087528e+01	-4.817082e+01
1.510000e-06	-1.521805e-06	-6.856509e-10	-1.056210e+01	-4.787901e+01
1.520000e-06	-1.476543e-06	-6.833829e-10	-1.024796e+01	-4.757692e+01
1.530000e-06	-1.431171e-06	-6.787054e-10	-9.933057e+00	-4.726406e+01
1.540000e-06	-1.385726e-06	-6.723673e-10	-9.617644e+00	-4.693995e+01
1.550000e-06	-1.340230e-06	-6.678040e-10	-9.301876e+00	-4.660410e+01
1.560000e-06	-1.294640e-06	-6.628096e-10	-8.985460e+00	-4.625606e+01
1.570000e-06	-1.248944e-06	-6.533803e-10	-8.668304e+00	-4.589533e+01
1.580000e-06	-1.203109e-06	-6.422992e-10	-8.350190e+00	-4.552145e+01
1.590000e-06	-1.157146e-06	-6.356273e-10	-8.031181e+00	-4.513393e+01
1.600000e-06	-1.111142e-06	-6.311389e-10	-7.711889e+00	-4.473230e+01
1.610000e-06	-1.065041e-06	-6.256853e-10	-7.391929e+00	-4.431605e+01
1.620000e-06	-1.018877e-06	-6.168572e-10	-7.071525e+00	-4.388466e+01
1.630000e-06	-9.726813e-07	-6.081182e-10	-6.750902e+00	-4.343762e+01
1.640000e-06	-9.264073e-07	-5.992066e-10	-6.429737e+00	-4.297434e+01
1.650000e-06	-8.800998e-07	-5.895748e-10	-6.108340e+00	-4.249425e+01
1.660000e-06	-8.338014e-07	-5.787727e-10	-5.787006e+00	-4.199672e+01
1.670000e-06	-7.874455e-07	-5.696661e-10	-5.465272e+00	-4.148107e+01
1.680000e-06	-7.410303e-07	-5.597270e-10	-5.143127e+00	-4.094660e+01
1.690000e-06	-6.946277e-07	-5.501716e-10	-4.821069e+00	-4.039256e+01
1.700000e-06	-6.481749e-07	-5.404074e-10	-4.498663e+00	-3.981815e+01
1.710000e-06	-6.016129e-07	-5.320585e-10	-4.175499e+00	-3.922251e+01
1.720000e-06	-5.549324e-07	-5.251082e-10	-3.851513e+00	-3.860476e+01
1.730000e-06	-5.082404e-07	-5.164113e-10	-3.527447e+00	-3.796397e+01
1.740000e-06	-4.615617e-07	-5.042126e-10	-3.203473e+00	-3.729915e+01
1.750000e-06	-4.148262e-07	-4.896922e-10	-2.879105e+00	-3.660932e+01
1.760000e-06	-3.680581e-07	-4.759415e-10	-2.554510e+00	-3.589346e+01
1.770000e-06	-3.212100e-07	-4.652854e-10	-2.229361e+00	-3.515052e+01
1.780000e-06	-2.743471e-07	-4.560131e-10	-1.904108e+00	-3.437947e+01
1.790000e-06	-2.274434e-07	-4.464922e-10	-1.578573e+00	-3.357929e+01
1.800000e-06	-1.804933e-07	-4.350142e-10	-1.252715e+00	-3.274899e+01
1.810000e-06	-1.336099e-07	-4.212345e-10	-9.273206e-01	-3.188762e+01
1.820000e-06	-8.666727e-08	-4.074051e-10	-6.015149e-01	-3.099427e+01
1.830000e-06	-3.967463e-08	-3.942681e-10	-2.753621e-01	-3.006813e+01
1.840000e-06	7.259534e-09	-3.820644e-10	5.038485e-02	-2.910848e+01
1.850000e-06	5.419167e-08	-3.694492e-10	3.761177e-01	-2.811469e+01
1.860000e-06	1.011016e-07	-3.555130e-10	7.016968e-01	-2.708629e+01
1.870000e-06	1.479682e-07	-3.409376e-10	1.026974e+00	-2.602292e+01
1.880000e-06	1.948592e-07	-3.266767e-10	1.352422e+00	-2.492439e+01
1.890000e-06	2.416909e-07	-3.109079e-10	1.677458e+00	-2.379070e+01
1.900000e-06	2.884086e-07	-2.924429e-10	2.001702e+00	-2.262200e+01
1.910000e-06	3.351228e-07	-2.740867e-10	2.325923e+00	-2.141866e+01
1.920000e-06	3.819082e-07	-2.592707e-10	2.650637e+00	-2.018124e+01
1.930000e-06	4.288261e-07	-2.439125e-10	2.976271e+00	-1.891051e+01
1.940000e-06	4.757531e-07	-2.252501e-10	3.301968e+00	-1.760745e+01
1.950000e-06	5.225182e-07	-2.057176e-10	3.626542e+00	-1.627326e+01
1.960000e-06	5.691722e-07	-1.889649e-10	3.950345e+00	-1.490932e+01
1.970000e-06	6.158245e-07	-1.721391e-10	4.274135e+00	-1.351723e+01
1.980000e-06	6.623922e-07	-1.546898e-10	4.597339e+00	-1.209878e+01
1.990000e-06	7.088143e-07	-1.354129e-10	4.919531e+00	-1.065595e+01
2.000000e-06	7.551629e-07	-1.122679e-10	5.241214e+00	-9.190865e+00
2.010000e-06	8.014919e-07	-8.759920e-11	5.562761e+00	-7.705820e+00
2.020000e-06	8.478618e-07	-6.447279e-11	5.884592e+00	-6.203234e+00
2.030000e-06	8.941306e-07	-4.390270e-11	6.205721e+00	-4.685637e+00
2.040000e-06	9.402430e-07	-2.486085e-11	6.525764e+00	-3.155651e+00
2.050000e-06	9.862843e-07	-5.910421e-12	6.845314e+00	-1.615964e+00
2.060000e-06	1.032279e-06	1.349195e-11	7.164541e+00	-6.930544e-02
2.070000e-06	1.078274e-06	3.433964e-11	7.483772e+00	1.481578e+00
2.080000e-06	1.124223e-06	5.725882e-11	7.802678e+00	3.033945e+00
2.090000e-06	1.170106e-06	8.087255e-11	8.121128e+00	4.585087e+00
2.100000e-06	1.215878e-06	1.028900e-10	8.438814e+00	6.132346e+00
2.110000e-06	1.261512e-06	1.245065e-10	8.755534e+00	7.673143e+00
2.120000e-06	1.307038e-06	1.448386e-10	9.071506e+00	9.204994e+00
2.130000e-06	1.352483e-06	1.625167e-10	9.386918e+00	1.072553e+01
2.140000e-06	1.397955e-06	1.803368e-10	9.702518e+00	1.223252e+01
2.150000e-06	1.443314e-06	2.005683e-10	1.001733e+01	1.372387e+01
2.160000e-06	1.488472e-06	2.225318e-10	1.033075e+01	1.519764e+01
2.170000e-06	1.533567e-06	2.429493e-10	1.064374e+01	1.665207e+01
2.180000e-06	1.578582e-06	2.617107e-10	1.095616e+01	1.808557e+01
2.190000e-06	1.623488e-06	2.798949e-10	1.126783e+01	1.949671e+01
2.200000e-06	1.668249e-06	2.976537e-10	1.157850e+01	2.088426e+01
2.210000e-06	1.712837e-06	3.139195e-10	1.188796e+01	2.224713e+01
2.220000e-06	1.757289e-06	3.298491e-10	1.219648e+01	2.358444e+01
2.230000e-06	1.801660e-06	3.462415e-10	1.250443e+01	2.489544e+01
2.240000e-06	1.845979e-06	3.622625e-10	1.281204e+01	2.617954e+01
2.250000e-06	1.890185e-06	3.792269e-10	1.311884e+01	2.743632e+01
2.260000e-06	1.934255e-06	3.986869e-10	1.342471e+01	2.866544e+01
2.270000e-06	1.978214e-06	4.181245e-10	1.372981e+01	2.986671e+01
2.280000e-06	2.022105e-06	4.362767e-10	1.403443e+01	3.104005e+01
2.290000e-06	2.065959e-06	4.533597e-10	1.433881e+01	3.218544e+01
2.300000e-06	2.109760e-06	4.682225e-10	1.464281e+01	3.330295e+01
2.310000e-06	2.153481e-06	4.823951e-10	1.494626e+01	3.439271e+01
2.320000e-06	2.197086e-06	4.976667e-10	1.524889e+01	3.545488e+01
2.330000e-06	2.240541e-06	5.127143e-10	1.555050e+01	3.648967e+01
2.340000e-06	2.283873e-06	5.277103e-10	1.585124e+01	3.749731e+01
2.350000e-06	2.326993e-06	5.433796e-10	1.615051e+01	3.847802e+01
2.360000e-06	2.369787e-06	5.582593e-10	1.644753e+01	3.943204e+01
2.370000e-06	2.412349e-06	5.696941e-10	1.674293e+01	4.035959e+01
2.380000e-06	2.454721e-06	5.793112e-10	1.703701e+01	4.126091e+01
2.390000e-06	2.496755e-06	5.898975e-10	1.732875e+01	4.213619e+01
2.400000e-06	2.538404e-06	6.020466e-10	1.761781e+01	4.298561e+01
2.410000e-06	2.579712e-06	6.153901e-10	1.790451e+01	4.380937e+01
2.420000e-06	2.620705e-06	6.277475e-10	1.818903e+01	4.460761e+01
2.430000e-06	2.661421e-06	6.391485e-10	1.847161e+01	4.538049e+01
2.440000e-06	2.701935e-06	6.487906e-10	1.875280e+01	4.612815e+01
2.450000e-06	2.742302e-06	6.562071e-10	1.903297e+01	4.685075e+01
2.460000e-06	2.782479e-06	6.650759e-10	1.931181e+01	4.754844e+01
2.470000e-06	2.822503e-06	6.758413e-10	1.958961e+01	4.822140e+01
2.480000e-06	2.862435e-06	6.859873e-10	1.986675e+01	4.886981e+01
2.490000e-06	2.902237e-06	6.956223e-10	2.014300e+01	4.949391e+01
2.500000e-06	2.941919e-06	7.044627e-10	2.041841e+01	5.009395e+01
2.510000e-06	2.981409e-06	7.102091e-10	2.069250e+01	5.067024e+01
2.520000e-06	3.020677e-06	7.146240e-10	2.096503e+01	5.122314e+01
2.530000e-06	3.059755e-06	7.204273e-10	2.123625e+01	5.175306e+01
2.540000e-06	3.098604e-06	7.267058e-10	2.150589e+01	5.226047e+01
2.550000e-06	3.137268e-06	7.333183e-10	2.177423e+01	5.274590e+01
2.560000e-06	3.175685e-06	7.407107e-10	2.204086e+01	5.320994e+01
2.570000e-06	3.213847e-06	7.483849e-10	2.230573e+01	5.365323e+01
2.580000e-06	3.251845e-06	7.535428e-10	2.256946e+01	5.407649e+01
2.590000e-06	3.289659e-06	7.569318e-10	2.283191e+01	5.448048e+01
2.600000e-06	3.327207e-06	7.618792e-10	2.309251e+01	5.486599e+01
2.610000e-06	3.364474e-06	7.690914e-10	2.335116e+01	5.523387e+01
2.620000e-06	3.401484e-06	7.765175e-10	2.360803e+01	5.558501e+01
2.630000e-06	3.438257e-06	7.813412e-10	2.386325e+01	5.592029e+01
2.640000e-06	3.474841e-06	7.841303e-10	2.411716e+01	5.624063e+01
2.650000e-06	3.511247e-06	7.867666e-10	2.436984e+01	5.654693e+01
2.660000e-06	3.547450e-06	7.904592e-10	2.462111e+01	5.684009e+01
2.670000e-06	3.583485e-06	7.934335e-10	2.487121e+01	5.712099e+01
2.680000e-06	3.619384e-06	7.958829e-10	2.512037e+01	5.739045e+01
2.690000e-06	3.655101e-06	8.002395e-10	2.536826e+01	5.764928e+01
2.700000e-06	3.690618e-06	8.049511e-10	2.561476e+01	5.789822e+01
2.710000e-06	3.725906e-06	8.107268e-10	2.585968e+01	5.813795e+01
2.720000e-06	3.760894e-06	8.149575e-10	2.610252e+01	5.836906e+01
2.730000e-06	3.795491e-06	8.177223e-10	2.634263e+01	5.859211e+01
2.740000e-06	3.829557e-06	8.216725e-10	2.657907e+01	5.880753e+01
2.750000e-06	3.863132e-06	8.264484e-10	2.681210e+01	5.901569e+01
2.760000e-06	3.896274e-06	8.310024e-10	2.704212e+01	5.921689e+01
2.770000e-06	3.928993e-06	8.332382e-10	2.726921e+01	5.941132e+01
2.780000e-06	3.961391e-06	8.366335e-10	2.749406e+01	5.959912e+01
2.790000e-06	3.993506e-06	8.404803e-10	2.771696e+01	5.978034e+01
2.800000e-06	4.025462e-06	8.439032e-10	2.793875e+01	5.995497e+01
2.810000e-06	4.057327e-06	8.458237e-10	2.815991e+01	6.012294e+01
2.820000e-06	4.088989e-06	8.482791e-10	2.837966e+01	6.028413e+01
2.830000e-06	4.120422e-06	8.522186e-10	2.859782e+01	6.043840e+01
2.840000e-06	4.151579e-06	8.541399e-10	2.881407e+01	6.058556e+01
2.850000e-06	4.182408e-06	8.560586e-10	2.902803e+01	6.072542e+01
2.860000e-06	4.212935e-06	8.596262e-10	2.923991e+01	6.085780e+01
2.870000e-06	4.243226e-06	8.634394e-10	2.945014e+01	6.098252e+01
2.880000e-06	4.273254e-06	8.661256e-10	2.965855e+01	6.109942e+01
2.890000e-06	4.302979e-06	8.690096e-10	2.986486e+01	6.120839e+01
2.900000e-06	4.332447e-06	8.729865e-10	3.006939e+01	6.130935e+01
