# Temperatura_=_-8.04
# Concentracion g/m^3_=_1620.0
# C_Vs_to_Am_M_A/Vsm_=_65563218390.804596
# pendiente_HvsI_1/m_=_3716.3
# ordenada_HvsI_A/m_=_1297.0
# frecuencia_Hz_=_135108.94760674555

Tiempo_(s)	Campo_(V.s)	Magnetizacion_(V.s)	Campo_(kA/m)	Magnetizacion_(A/m)
0.000000e+00	-5.528760e-06	-1.023990e-09	-3.836719e+01	-6.975102e+01
1.000000e-08	-5.529173e-06	-1.028272e-09	-3.837006e+01	-6.974708e+01
2.000000e-08	-5.529284e-06	-1.032152e-09	-3.837083e+01	-6.974215e+01
3.000000e-08	-5.528986e-06	-1.032022e-09	-3.836876e+01	-6.973611e+01
4.000000e-08	-5.528206e-06	-1.028075e-09	-3.836335e+01	-6.972887e+01
5.000000e-08	-5.526987e-06	-1.021304e-09	-3.835489e+01	-6.972034e+01
6.000000e-08	-5.525303e-06	-1.014647e-09	-3.834321e+01	-6.971043e+01
7.000000e-08	-5.522977e-06	-1.032975e-09	-3.832706e+01	-6.969908e+01
8.000000e-08	-5.519994e-06	-1.077385e-09	-3.830636e+01	-6.968622e+01
9.000000e-08	-5.516524e-06	-1.031893e-09	-3.828228e+01	-6.967177e+01
1.000000e-07	-5.512649e-06	-8.904147e-10	-3.825539e+01	-6.965567e+01
1.100000e-07	-5.508448e-06	-9.097396e-10	-3.822624e+01	-6.963781e+01
1.200000e-07	-5.503950e-06	-1.083936e-09	-3.819502e+01	-6.961812e+01
1.300000e-07	-5.499111e-06	-1.140930e-09	-3.816144e+01	-6.959649e+01
1.400000e-07	-5.494039e-06	-1.003396e-09	-3.812624e+01	-6.957278e+01
1.500000e-07	-5.488699e-06	-9.069391e-10	-3.808919e+01	-6.954687e+01
1.600000e-07	-5.482977e-06	-1.064322e-09	-3.804948e+01	-6.951860e+01
1.700000e-07	-5.476813e-06	-1.108088e-09	-3.800671e+01	-6.948779e+01
1.800000e-07	-5.470212e-06	-9.964619e-10	-3.796090e+01	-6.945426e+01
1.900000e-07	-5.463218e-06	-9.022306e-10	-3.791236e+01	-6.941780e+01
2.000000e-07	-5.455923e-06	-1.030757e-09	-3.786174e+01	-6.937820e+01
2.100000e-07	-5.448316e-06	-1.109242e-09	-3.780895e+01	-6.933523e+01
2.200000e-07	-5.440425e-06	-1.056103e-09	-3.775419e+01	-6.928869e+01
2.300000e-07	-5.432232e-06	-9.735659e-10	-3.769733e+01	-6.923834e+01
2.400000e-07	-5.423572e-06	-1.002778e-09	-3.763723e+01	-6.918397e+01
2.500000e-07	-5.414264e-06	-1.046687e-09	-3.757264e+01	-6.912537e+01
2.600000e-07	-5.404355e-06	-1.018388e-09	-3.750388e+01	-6.906238e+01
2.700000e-07	-5.393953e-06	-9.806765e-10	-3.743169e+01	-6.899483e+01
2.800000e-07	-5.383002e-06	-9.888685e-10	-3.735569e+01	-6.892260e+01
2.900000e-07	-5.371615e-06	-1.025804e-09	-3.727668e+01	-6.884560e+01
3.000000e-07	-5.359890e-06	-9.847986e-10	-3.719531e+01	-6.876380e+01
3.100000e-07	-5.347715e-06	-9.558617e-10	-3.711082e+01	-6.867719e+01
3.200000e-07	-5.335046e-06	-9.800150e-10	-3.702290e+01	-6.858584e+01
3.300000e-07	-5.322037e-06	-1.058653e-09	-3.693263e+01	-6.848985e+01
3.400000e-07	-5.308739e-06	-1.002135e-09	-3.684034e+01	-6.838940e+01
3.500000e-07	-5.294999e-06	-9.633323e-10	-3.674499e+01	-6.828471e+01
3.600000e-07	-5.280827e-06	-9.963934e-10	-3.664665e+01	-6.817607e+01
3.700000e-07	-5.266246e-06	-1.022361e-09	-3.654546e+01	-6.806381e+01
3.800000e-07	-5.251080e-06	-9.410912e-10	-3.644022e+01	-6.794833e+01
3.900000e-07	-5.235406e-06	-9.809660e-10	-3.633144e+01	-6.783007e+01
4.000000e-07	-5.219330e-06	-1.037205e-09	-3.621988e+01	-6.770951e+01
4.100000e-07	-5.202832e-06	-9.626598e-10	-3.610540e+01	-6.758716e+01
4.200000e-07	-5.185883e-06	-9.153275e-10	-3.598778e+01	-6.746358e+01
4.300000e-07	-5.168629e-06	-1.040563e-09	-3.586804e+01	-6.733932e+01
4.400000e-07	-5.151117e-06	-1.025500e-09	-3.574651e+01	-6.721497e+01
4.500000e-07	-5.133208e-06	-9.030717e-10	-3.562223e+01	-6.709111e+01
4.600000e-07	-5.114867e-06	-9.622868e-10	-3.549495e+01	-6.696831e+01
4.700000e-07	-5.096112e-06	-1.046373e-09	-3.536480e+01	-6.684711e+01
4.800000e-07	-5.077030e-06	-9.364533e-10	-3.523239e+01	-6.672803e+01
4.900000e-07	-5.057700e-06	-9.208836e-10	-3.509824e+01	-6.661156e+01
5.000000e-07	-5.038110e-06	-1.027089e-09	-3.496229e+01	-6.649813e+01
5.100000e-07	-5.018235e-06	-9.691865e-10	-3.482437e+01	-6.638812e+01
5.200000e-07	-4.998026e-06	-9.110536e-10	-3.468413e+01	-6.628185e+01
5.300000e-07	-4.977484e-06	-1.020802e-09	-3.454158e+01	-6.617955e+01
5.400000e-07	-4.956619e-06	-1.018001e-09	-3.439679e+01	-6.608140e+01
5.500000e-07	-4.935379e-06	-8.963942e-10	-3.424939e+01	-6.598750e+01
5.600000e-07	-4.913791e-06	-9.530734e-10	-3.409957e+01	-6.589785e+01
5.700000e-07	-4.891933e-06	-1.019789e-09	-3.394789e+01	-6.581240e+01
5.800000e-07	-4.869792e-06	-9.364556e-10	-3.379424e+01	-6.573100e+01
5.900000e-07	-4.847169e-06	-9.255158e-10	-3.363725e+01	-6.565343e+01
6.000000e-07	-4.824195e-06	-1.004222e-09	-3.347782e+01	-6.557941e+01
6.100000e-07	-4.801007e-06	-9.540608e-10	-3.331690e+01	-6.550857e+01
6.200000e-07	-4.777548e-06	-9.143399e-10	-3.315411e+01	-6.544052e+01
6.300000e-07	-4.753919e-06	-9.687470e-10	-3.299013e+01	-6.537479e+01
6.400000e-07	-4.730037e-06	-9.762370e-10	-3.282440e+01	-6.531089e+01
6.500000e-07	-4.705763e-06	-9.314082e-10	-3.265595e+01	-6.524828e+01
6.600000e-07	-4.681025e-06	-9.636804e-10	-3.248428e+01	-6.518643e+01
6.700000e-07	-4.655737e-06	-9.735914e-10	-3.230879e+01	-6.512478e+01
6.800000e-07	-4.629962e-06	-9.362335e-10	-3.212993e+01	-6.506279e+01
6.900000e-07	-4.603792e-06	-9.364192e-10	-3.194832e+01	-6.499991e+01
7.000000e-07	-4.577236e-06	-9.672313e-10	-3.176403e+01	-6.493564e+01
7.100000e-07	-4.550265e-06	-9.471993e-10	-3.157686e+01	-6.486950e+01
7.200000e-07	-4.522905e-06	-9.421133e-10	-3.138700e+01	-6.480106e+01
7.300000e-07	-4.495269e-06	-9.621096e-10	-3.119522e+01	-6.472994e+01
7.400000e-07	-4.467370e-06	-9.623446e-10	-3.100160e+01	-6.465582e+01
7.500000e-07	-4.439220e-06	-9.436804e-10	-3.080626e+01	-6.457843e+01
7.600000e-07	-4.410921e-06	-9.474199e-10	-3.060988e+01	-6.449758e+01
7.700000e-07	-4.382439e-06	-9.444763e-10	-3.041223e+01	-6.441313e+01
7.800000e-07	-4.353614e-06	-9.338422e-10	-3.021219e+01	-6.432502e+01
7.900000e-07	-4.324406e-06	-9.397296e-10	-3.000950e+01	-6.423326e+01
8.000000e-07	-4.294891e-06	-9.471810e-10	-2.980468e+01	-6.413790e+01
8.100000e-07	-4.265084e-06	-9.398910e-10	-2.959783e+01	-6.403907e+01
8.200000e-07	-4.235017e-06	-9.432838e-10	-2.938918e+01	-6.393694e+01
8.300000e-07	-4.204657e-06	-9.541994e-10	-2.917849e+01	-6.383173e+01
8.400000e-07	-4.173961e-06	-9.407682e-10	-2.896548e+01	-6.372370e+01
8.500000e-07	-4.143005e-06	-9.311216e-10	-2.875066e+01	-6.361312e+01
8.600000e-07	-4.111801e-06	-9.376302e-10	-2.853411e+01	-6.350029e+01
8.700000e-07	-4.080329e-06	-9.366853e-10	-2.831571e+01	-6.338551e+01
8.800000e-07	-4.048645e-06	-9.265997e-10	-2.809584e+01	-6.326909e+01
8.900000e-07	-4.016832e-06	-9.361294e-10	-2.787507e+01	-6.315132e+01
9.000000e-07	-3.984804e-06	-9.355544e-10	-2.765281e+01	-6.303247e+01
9.100000e-07	-3.952434e-06	-9.263717e-10	-2.742817e+01	-6.291276e+01
9.200000e-07	-3.919727e-06	-9.281942e-10	-2.720120e+01	-6.279239e+01
9.300000e-07	-3.886677e-06	-9.327492e-10	-2.697185e+01	-6.267152e+01
9.400000e-07	-3.853227e-06	-9.153911e-10	-2.673972e+01	-6.255024e+01
9.500000e-07	-3.819278e-06	-9.126054e-10	-2.650413e+01	-6.242859e+01
9.600000e-07	-3.784870e-06	-9.195790e-10	-2.626536e+01	-6.230654e+01
9.700000e-07	-3.750156e-06	-9.126378e-10	-2.602445e+01	-6.218403e+01
9.800000e-07	-3.715123e-06	-8.997868e-10	-2.578134e+01	-6.206090e+01
9.900000e-07	-3.679763e-06	-9.066825e-10	-2.553596e+01	-6.193696e+01
1.000000e-06	-3.644207e-06	-9.055672e-10	-2.528921e+01	-6.181196e+01
1.010000e-06	-3.608507e-06	-8.961316e-10	-2.504147e+01	-6.168557e+01
1.020000e-06	-3.572640e-06	-8.961928e-10	-2.479257e+01	-6.155746e+01
1.030000e-06	-3.536597e-06	-9.015748e-10	-2.454245e+01	-6.142723e+01
1.040000e-06	-3.500336e-06	-8.931744e-10	-2.429081e+01	-6.129447e+01
1.050000e-06	-3.463873e-06	-8.904552e-10	-2.403777e+01	-6.115873e+01
1.060000e-06	-3.427204e-06	-8.955635e-10	-2.378331e+01	-6.101957e+01
1.070000e-06	-3.390212e-06	-8.907001e-10	-2.352660e+01	-6.087653e+01
1.080000e-06	-3.352911e-06	-8.833515e-10	-2.326774e+01	-6.072918e+01
1.090000e-06	-3.315361e-06	-8.854679e-10	-2.300717e+01	-6.057709e+01
1.100000e-06	-3.277591e-06	-8.818882e-10	-2.274506e+01	-6.041986e+01
1.110000e-06	-3.239637e-06	-8.706937e-10	-2.248167e+01	-6.025715e+01
1.120000e-06	-3.201417e-06	-8.717137e-10	-2.221644e+01	-6.008863e+01
1.130000e-06	-3.162907e-06	-8.752098e-10	-2.194920e+01	-5.991404e+01
1.140000e-06	-3.124191e-06	-8.703481e-10	-2.168053e+01	-5.973318e+01
1.150000e-06	-3.085293e-06	-8.677507e-10	-2.141059e+01	-5.954590e+01
1.160000e-06	-3.046256e-06	-8.722939e-10	-2.113969e+01	-5.935212e+01
1.170000e-06	-3.007038e-06	-8.670057e-10	-2.086754e+01	-5.915183e+01
1.180000e-06	-2.967582e-06	-8.572945e-10	-2.059373e+01	-5.894507e+01
1.190000e-06	-2.927958e-06	-8.516946e-10	-2.031875e+01	-5.873194e+01
1.200000e-06	-2.888298e-06	-8.460981e-10	-2.004353e+01	-5.851262e+01
1.210000e-06	-2.848632e-06	-8.365477e-10	-1.976827e+01	-5.828732e+01
1.220000e-06	-2.808752e-06	-8.366805e-10	-1.949152e+01	-5.805631e+01
1.230000e-06	-2.768582e-06	-8.400197e-10	-1.921275e+01	-5.781990e+01
1.240000e-06	-2.728219e-06	-8.426792e-10	-1.893266e+01	-5.757842e+01
1.250000e-06	-2.687756e-06	-8.415816e-10	-1.865186e+01	-5.733224e+01
1.260000e-06	-2.647160e-06	-8.404343e-10	-1.837014e+01	-5.708172e+01
1.270000e-06	-2.606230e-06	-8.301174e-10	-1.808610e+01	-5.682724e+01
1.280000e-06	-2.564935e-06	-8.182344e-10	-1.779954e+01	-5.656916e+01
1.290000e-06	-2.523367e-06	-8.147038e-10	-1.751107e+01	-5.630784e+01
1.300000e-06	-2.481521e-06	-8.160572e-10	-1.722067e+01	-5.604359e+01
1.310000e-06	-2.439339e-06	-8.162934e-10	-1.692795e+01	-5.577670e+01
1.320000e-06	-2.396889e-06	-8.150950e-10	-1.663337e+01	-5.550740e+01
1.330000e-06	-2.354199e-06	-8.123123e-10	-1.633712e+01	-5.523589e+01
1.340000e-06	-2.311253e-06	-8.041950e-10	-1.603909e+01	-5.496230e+01
1.350000e-06	-2.268081e-06	-7.951378e-10	-1.573950e+01	-5.468668e+01
1.360000e-06	-2.224742e-06	-7.904573e-10	-1.543875e+01	-5.440904e+01
1.370000e-06	-2.181291e-06	-7.856436e-10	-1.513722e+01	-5.412932e+01
1.380000e-06	-2.137718e-06	-7.824287e-10	-1.483483e+01	-5.384736e+01
1.390000e-06	-2.094060e-06	-7.814135e-10	-1.453187e+01	-5.356296e+01
1.400000e-06	-2.050335e-06	-7.775200e-10	-1.422843e+01	-5.327585e+01
1.410000e-06	-2.006520e-06	-7.706750e-10	-1.392438e+01	-5.298569e+01
1.420000e-06	-1.962566e-06	-7.628306e-10	-1.361936e+01	-5.269206e+01
1.430000e-06	-1.918506e-06	-7.575153e-10	-1.331360e+01	-5.239451e+01
1.440000e-06	-1.874362e-06	-7.530688e-10	-1.300726e+01	-5.209254e+01
1.450000e-06	-1.830137e-06	-7.498623e-10	-1.270035e+01	-5.178560e+01
1.460000e-06	-1.785807e-06	-7.477330e-10	-1.239272e+01	-5.147308e+01
1.470000e-06	-1.741307e-06	-7.436443e-10	-1.208391e+01	-5.115439e+01
1.480000e-06	-1.696690e-06	-7.353630e-10	-1.177429e+01	-5.082886e+01
1.490000e-06	-1.651999e-06	-7.266163e-10	-1.146415e+01	-5.049585e+01
1.500000e-06	-1.607163e-06	-7.174008e-10	-1.115301e+01	-5.015470e+01
1.510000e-06	-1.562172e-06	-7.087808e-10	-1.084079e+01	-4.980471e+01
1.520000e-06	-1.517061e-06	-7.038039e-10	-1.052774e+01	-4.944523e+01
1.530000e-06	-1.471814e-06	-7.012333e-10	-1.021375e+01	-4.907559e+01
1.540000e-06	-1.426453e-06	-6.971468e-10	-9.898967e+00	-4.869512e+01
1.550000e-06	-1.380945e-06	-6.926757e-10	-9.583159e+00	-4.830319e+01
1.560000e-06	-1.335349e-06	-6.857777e-10	-9.266740e+00	-4.789915e+01
1.570000e-06	-1.289757e-06	-6.761249e-10	-8.950354e+00	-4.748237e+01
1.580000e-06	-1.244115e-06	-6.653911e-10	-8.633616e+00	-4.705224e+01
1.590000e-06	-1.198347e-06	-6.570192e-10	-8.316009e+00	-4.660815e+01
1.600000e-06	-1.152461e-06	-6.529885e-10	-7.997577e+00	-4.614950e+01
1.610000e-06	-1.106464e-06	-6.495673e-10	-7.678380e+00	-4.567569e+01
1.620000e-06	-1.060402e-06	-6.419694e-10	-7.358729e+00	-4.518612e+01
1.630000e-06	-1.014327e-06	-6.304549e-10	-7.038988e+00	-4.468018e+01
1.640000e-06	-9.682380e-07	-6.191524e-10	-6.719151e+00	-4.415724e+01
1.650000e-06	-9.220657e-07	-6.114186e-10	-6.398735e+00	-4.361667e+01
1.660000e-06	-8.757009e-07	-6.033829e-10	-6.076984e+00	-4.305783e+01
1.670000e-06	-8.292850e-07	-5.920717e-10	-5.754878e+00	-4.248002e+01
1.680000e-06	-7.829221e-07	-5.801958e-10	-5.433140e+00	-4.188254e+01
1.690000e-06	-7.365001e-07	-5.674343e-10	-5.110991e+00	-4.126466e+01
1.700000e-06	-6.899797e-07	-5.529159e-10	-4.788160e+00	-4.062561e+01
1.710000e-06	-6.434081e-07	-5.400421e-10	-4.464973e+00	-3.996460e+01
1.720000e-06	-5.967907e-07	-5.304136e-10	-4.141468e+00	-3.928080e+01
1.730000e-06	-5.501262e-07	-5.220918e-10	-3.817637e+00	-3.857336e+01
1.740000e-06	-5.034173e-07	-5.124528e-10	-3.493497e+00	-3.784140e+01
1.750000e-06	-4.566622e-07	-5.007465e-10	-3.169037e+00	-3.708405e+01
1.760000e-06	-4.098577e-07	-4.871057e-10	-2.844234e+00	-3.630040e+01
1.770000e-06	-3.630211e-07	-4.730781e-10	-2.519209e+00	-3.548956e+01
1.780000e-06	-3.161702e-07	-4.605647e-10	-2.194084e+00	-3.465063e+01
1.790000e-06	-2.693423e-07	-4.481565e-10	-1.869119e+00	-3.378276e+01
1.800000e-06	-2.224699e-07	-4.364658e-10	-1.543845e+00	-3.288511e+01
1.810000e-06	-1.755606e-07	-4.247674e-10	-1.218315e+00	-3.195690e+01
1.820000e-06	-1.287285e-07	-4.127012e-10	-8.933199e-01	-3.099742e+01
1.830000e-06	-8.192192e-08	-3.997075e-10	-5.685025e-01	-3.000601e+01
1.840000e-06	-3.501458e-08	-3.864036e-10	-2.429860e-01	-2.898213e+01
1.850000e-06	1.197200e-08	-3.725064e-10	8.308049e-02	-2.792532e+01
1.860000e-06	5.895482e-08	-3.563752e-10	4.091209e-01	-2.683525e+01
1.870000e-06	1.059103e-07	-3.390396e-10	7.349714e-01	-2.571173e+01
1.880000e-06	1.528108e-07	-3.212154e-10	1.060441e+00	-2.455470e+01
1.890000e-06	1.996431e-07	-3.030733e-10	1.385436e+00	-2.336426e+01
1.900000e-06	2.464265e-07	-2.858311e-10	1.710093e+00	-2.214066e+01
1.910000e-06	2.932169e-07	-2.687400e-10	2.034798e+00	-2.088436e+01
1.920000e-06	3.400317e-07	-2.524973e-10	2.359673e+00	-1.959594e+01
1.930000e-06	3.868133e-07	-2.373492e-10	2.684316e+00	-1.827621e+01
1.940000e-06	4.334996e-07	-2.200246e-10	3.008299e+00	-1.692613e+01
1.950000e-06	4.801109e-07	-1.995610e-10	3.331761e+00	-1.554685e+01
1.960000e-06	5.267480e-07	-1.787516e-10	3.655402e+00	-1.413970e+01
1.970000e-06	5.733061e-07	-1.594848e-10	3.978496e+00	-1.270615e+01
1.980000e-06	6.198061e-07	-1.397844e-10	4.301185e+00	-1.124787e+01
1.990000e-06	6.663262e-07	-1.188919e-10	4.624015e+00	-9.766662e+00
2.000000e-06	7.128506e-07	-9.674888e-11	4.946873e+00	-8.264462e+00
2.010000e-06	7.593184e-07	-7.241443e-11	5.269340e+00	-6.743338e+00
2.020000e-06	8.056439e-07	-4.738447e-11	5.590819e+00	-5.205464e+00
2.030000e-06	8.519569e-07	-2.435892e-11	5.912211e+00	-3.653103e+00
2.040000e-06	8.981948e-07	-4.962946e-12	6.233082e+00	-2.088594e+00
2.050000e-06	9.443191e-07	1.339815e-11	6.553165e+00	-5.143284e-01
2.060000e-06	9.903709e-07	3.458101e-11	6.872744e+00	1.067267e+00
2.070000e-06	1.036380e-06	5.775789e-11	7.192026e+00	2.653749e+00
2.080000e-06	1.082362e-06	8.098444e-11	7.511124e+00	4.242680e+00
2.090000e-06	1.128272e-06	1.050994e-10	7.829718e+00	5.831644e+00
2.100000e-06	1.174076e-06	1.294234e-10	8.147576e+00	7.418263e+00
2.110000e-06	1.219782e-06	1.512978e-10	8.464761e+00	9.000219e+00
2.120000e-06	1.265488e-06	1.712227e-10	8.781937e+00	1.057527e+01
2.130000e-06	1.311159e-06	1.915662e-10	9.098873e+00	1.214124e+01
2.140000e-06	1.356653e-06	2.112229e-10	9.414586e+00	1.369609e+01
2.150000e-06	1.401986e-06	2.292327e-10	9.729171e+00	1.523786e+01
2.160000e-06	1.447300e-06	2.503622e-10	1.004364e+01	1.676472e+01
2.170000e-06	1.492567e-06	2.744743e-10	1.035777e+01	1.827496e+01
2.180000e-06	1.537700e-06	2.979688e-10	1.067097e+01	1.976700e+01
2.190000e-06	1.582718e-06	3.205222e-10	1.098337e+01	2.123940e+01
2.200000e-06	1.627601e-06	3.415331e-10	1.129484e+01	2.269085e+01
2.210000e-06	1.672350e-06	3.600451e-10	1.160538e+01	2.412017e+01
2.220000e-06	1.717011e-06	3.755409e-10	1.191531e+01	2.552631e+01
2.230000e-06	1.761521e-06	3.900756e-10	1.222419e+01	2.690835e+01
2.240000e-06	1.805878e-06	4.059293e-10	1.253201e+01	2.826549e+01
2.250000e-06	1.850144e-06	4.221833e-10	1.283920e+01	2.959704e+01
2.260000e-06	1.894283e-06	4.400180e-10	1.314550e+01	3.090242e+01
2.270000e-06	1.938253e-06	4.602438e-10	1.345063e+01	3.218115e+01
2.280000e-06	1.982117e-06	4.797179e-10	1.375503e+01	3.343285e+01
2.290000e-06	2.025937e-06	4.963205e-10	1.405912e+01	3.465720e+01
2.300000e-06	2.069733e-06	5.108721e-10	1.436304e+01	3.585397e+01
2.310000e-06	2.113510e-06	5.238431e-10	1.466684e+01	3.702300e+01
2.320000e-06	2.157162e-06	5.367857e-10	1.496977e+01	3.816418e+01
2.330000e-06	2.200607e-06	5.510171e-10	1.527126e+01	3.927745e+01
2.340000e-06	2.243982e-06	5.662140e-10	1.557226e+01	4.036281e+01
2.350000e-06	2.287285e-06	5.831707e-10	1.587277e+01	4.142028e+01
2.360000e-06	2.330356e-06	5.996797e-10	1.617166e+01	4.244992e+01
2.370000e-06	2.373209e-06	6.131005e-10	1.646904e+01	4.345183e+01
2.380000e-06	2.415748e-06	6.234399e-10	1.676425e+01	4.442613e+01
2.390000e-06	2.457991e-06	6.337329e-10	1.705739e+01	4.537297e+01
2.400000e-06	2.499929e-06	6.454854e-10	1.734842e+01	4.629252e+01
2.410000e-06	2.541588e-06	6.595890e-10	1.763751e+01	4.718499e+01
2.420000e-06	2.583012e-06	6.751254e-10	1.792498e+01	4.805060e+01
2.430000e-06	2.624101e-06	6.893321e-10	1.821012e+01	4.888961e+01
2.440000e-06	2.664886e-06	7.012141e-10	1.849315e+01	4.970228e+01
2.450000e-06	2.705378e-06	7.093133e-10	1.877415e+01	5.048894e+01
2.460000e-06	2.745661e-06	7.148117e-10	1.905370e+01	5.124992e+01
2.470000e-06	2.785765e-06	7.211417e-10	1.933200e+01	5.198559e+01
2.480000e-06	2.825706e-06	7.303015e-10	1.960917e+01	5.269638e+01
2.490000e-06	2.865583e-06	7.430946e-10	1.988590e+01	5.338272e+01
2.500000e-06	2.905325e-06	7.581311e-10	2.016169e+01	5.404509e+01
2.510000e-06	2.944892e-06	7.721149e-10	2.043627e+01	5.468403e+01
2.520000e-06	2.984333e-06	7.820984e-10	2.070997e+01	5.530007e+01
2.530000e-06	3.023596e-06	7.876924e-10	2.098245e+01	5.589382e+01
2.540000e-06	3.062639e-06	7.904356e-10	2.125338e+01	5.646590e+01
2.550000e-06	3.101389e-06	7.915728e-10	2.152230e+01	5.701696e+01
2.560000e-06	3.139893e-06	7.944296e-10	2.178949e+01	5.754768e+01
2.570000e-06	3.178310e-06	8.006901e-10	2.205609e+01	5.805878e+01
2.580000e-06	3.216526e-06	8.104498e-10	2.232129e+01	5.855097e+01
2.590000e-06	3.254498e-06	8.215067e-10	2.258480e+01	5.902498e+01
2.600000e-06	3.292251e-06	8.291227e-10	2.284679e+01	5.948155e+01
2.610000e-06	3.329781e-06	8.334838e-10	2.310724e+01	5.992142e+01
2.620000e-06	3.367183e-06	8.374604e-10	2.336679e+01	6.034532e+01
2.630000e-06	3.404346e-06	8.393710e-10	2.362468e+01	6.075396e+01
2.640000e-06	3.441159e-06	8.396832e-10	2.388015e+01	6.114804e+01
2.650000e-06	3.477679e-06	8.425391e-10	2.413358e+01	6.152823e+01
2.660000e-06	3.514012e-06	8.490014e-10	2.438572e+01	6.189515e+01
2.670000e-06	3.550192e-06	8.565333e-10	2.463679e+01	6.224939e+01
2.680000e-06	3.586190e-06	8.632451e-10	2.488660e+01	6.259152e+01
2.690000e-06	3.622005e-06	8.691003e-10	2.513514e+01	6.292204e+01
2.700000e-06	3.657651e-06	8.734596e-10	2.538251e+01	6.324138e+01
2.710000e-06	3.693158e-06	8.756500e-10	2.562892e+01	6.354997e+01
2.720000e-06	3.728467e-06	8.775747e-10	2.587394e+01	6.384815e+01
2.730000e-06	3.763500e-06	8.811060e-10	2.611706e+01	6.413622e+01
2.740000e-06	3.798177e-06	8.859973e-10	2.635770e+01	6.441443e+01
2.750000e-06	3.832393e-06	8.922190e-10	2.659514e+01	6.468298e+01
2.760000e-06	3.866094e-06	8.987004e-10	2.682901e+01	6.494203e+01
2.770000e-06	3.899294e-06	9.037695e-10	2.705941e+01	6.519171e+01
2.780000e-06	3.932107e-06	9.073365e-10	2.728711e+01	6.543211e+01
2.790000e-06	3.964588e-06	9.123120e-10	2.751252e+01	6.566328e+01
2.800000e-06	3.996803e-06	9.173519e-10	2.773608e+01	6.588528e+01
2.810000e-06	4.028790e-06	9.219901e-10	2.795805e+01	6.609815e+01
2.820000e-06	4.060563e-06	9.260248e-10	2.817855e+01	6.630191e+01
2.830000e-06	4.092141e-06	9.287734e-10	2.839768e+01	6.649661e+01
2.840000e-06	4.123491e-06	9.318553e-10	2.861524e+01	6.668228e+01
2.850000e-06	4.154492e-06	9.352177e-10	2.883037e+01	6.685900e+01
2.860000e-06	4.185216e-06	9.397138e-10	2.904358e+01	6.702686e+01
2.870000e-06	4.215742e-06	9.433999e-10	2.925542e+01	6.718598e+01
2.880000e-06	4.246003e-06	9.470010e-10	2.946541e+01	6.733652e+01
2.890000e-06	4.276019e-06	9.499049e-10	2.967372e+01	6.747867e+01
2.900000e-06	4.305755e-06	9.508252e-10	2.988007e+01	6.761268e+01
