# Temperatura_=_-7.8
# Concentracion g/m^3_=_1620.0
# C_Vs_to_Am_M_A/Vsm_=_65563218390.804596
# pendiente_HvsI_1/m_=_3716.3
# ordenada_HvsI_A/m_=_1297.0
# frecuencia_Hz_=_135109.4768896592

Tiempo_(s)	Campo_(V.s)	Magnetizacion_(V.s)	Campo_(kA/m)	Magnetizacion_(A/m)
0.000000e+00	-5.525432e-06	-1.047472e-09	-3.836342e+01	-7.101352e+01
1.000000e-08	-5.525635e-06	-1.044765e-09	-3.836483e+01	-7.098190e+01
2.000000e-08	-5.525600e-06	-1.043095e-09	-3.836459e+01	-7.095288e+01
3.000000e-08	-5.525235e-06	-1.041938e-09	-3.836205e+01	-7.092612e+01
4.000000e-08	-5.524402e-06	-1.041220e-09	-3.835627e+01	-7.090124e+01
5.000000e-08	-5.522985e-06	-1.039547e-09	-3.834643e+01	-7.087779e+01
6.000000e-08	-5.520948e-06	-1.035651e-09	-3.833228e+01	-7.085528e+01
7.000000e-08	-5.518328e-06	-1.035093e-09	-3.831410e+01	-7.083320e+01
8.000000e-08	-5.515170e-06	-1.042470e-09	-3.829217e+01	-7.081096e+01
9.000000e-08	-5.511462e-06	-1.050161e-09	-3.826643e+01	-7.078800e+01
1.000000e-07	-5.507334e-06	-1.052890e-09	-3.823776e+01	-7.076371e+01
1.100000e-07	-5.502996e-06	-1.061298e-09	-3.820764e+01	-7.073748e+01
1.200000e-07	-5.498501e-06	-1.062987e-09	-3.817643e+01	-7.070870e+01
1.300000e-07	-5.493693e-06	-1.024176e-09	-3.814305e+01	-7.067680e+01
1.400000e-07	-5.488465e-06	-1.035433e-09	-3.810675e+01	-7.064119e+01
1.500000e-07	-5.482824e-06	-1.043525e-09	-3.806759e+01	-7.060134e+01
1.600000e-07	-5.476801e-06	-1.055544e-09	-3.802577e+01	-7.055676e+01
1.700000e-07	-5.470442e-06	-1.032939e-09	-3.798162e+01	-7.050699e+01
1.800000e-07	-5.463709e-06	-1.041515e-09	-3.793487e+01	-7.045163e+01
1.900000e-07	-5.456565e-06	-1.086658e-09	-3.788527e+01	-7.039035e+01
2.000000e-07	-5.449066e-06	-1.080900e-09	-3.783320e+01	-7.032289e+01
2.100000e-07	-5.441208e-06	-1.055827e-09	-3.777865e+01	-7.024905e+01
2.200000e-07	-5.433072e-06	-1.032728e-09	-3.772216e+01	-7.016870e+01
2.300000e-07	-5.424769e-06	-1.064256e-09	-3.766451e+01	-7.008181e+01
2.400000e-07	-5.416119e-06	-1.064358e-09	-3.760445e+01	-6.998841e+01
2.500000e-07	-5.406830e-06	-1.073370e-09	-3.753995e+01	-6.988862e+01
2.600000e-07	-5.396817e-06	-1.058861e-09	-3.747043e+01	-6.978263e+01
2.700000e-07	-5.386186e-06	-1.053117e-09	-3.739662e+01	-6.967070e+01
2.800000e-07	-5.374987e-06	-1.025292e-09	-3.731887e+01	-6.955319e+01
2.900000e-07	-5.363369e-06	-1.031415e-09	-3.723821e+01	-6.943050e+01
3.000000e-07	-5.351476e-06	-1.036626e-09	-3.715563e+01	-6.930310e+01
3.100000e-07	-5.339171e-06	-1.037524e-09	-3.707020e+01	-6.917151e+01
3.200000e-07	-5.326395e-06	-1.033229e-09	-3.698149e+01	-6.903630e+01
3.300000e-07	-5.313202e-06	-1.043806e-09	-3.688989e+01	-6.889808e+01
3.400000e-07	-5.299620e-06	-1.034820e-09	-3.679559e+01	-6.875748e+01
3.500000e-07	-5.285688e-06	-1.018651e-09	-3.669886e+01	-6.861516e+01
3.600000e-07	-5.271317e-06	-1.027018e-09	-3.659909e+01	-6.847178e+01
3.700000e-07	-5.256452e-06	-1.028000e-09	-3.649587e+01	-6.832800e+01
3.800000e-07	-5.241114e-06	-1.013674e-09	-3.638938e+01	-6.818447e+01
3.900000e-07	-5.225263e-06	-1.021365e-09	-3.627932e+01	-6.804182e+01
4.000000e-07	-5.208894e-06	-1.034810e-09	-3.616568e+01	-6.790063e+01
4.100000e-07	-5.192170e-06	-1.001438e-09	-3.604956e+01	-6.776146e+01
4.200000e-07	-5.175137e-06	-9.938918e-10	-3.593130e+01	-6.762481e+01
4.300000e-07	-5.157769e-06	-1.021085e-09	-3.581071e+01	-6.749114e+01
4.400000e-07	-5.140083e-06	-1.014253e-09	-3.568791e+01	-6.736081e+01
4.500000e-07	-5.121965e-06	-9.790028e-10	-3.556212e+01	-6.723414e+01
4.600000e-07	-5.103389e-06	-1.014786e-09	-3.543315e+01	-6.711137e+01
4.700000e-07	-5.084492e-06	-1.020758e-09	-3.530195e+01	-6.699266e+01
4.800000e-07	-5.065286e-06	-9.761392e-10	-3.516860e+01	-6.687809e+01
4.900000e-07	-5.045753e-06	-9.741139e-10	-3.503298e+01	-6.676767e+01
5.000000e-07	-5.026010e-06	-1.018107e-09	-3.489590e+01	-6.666132e+01
5.100000e-07	-5.006059e-06	-9.838421e-10	-3.475738e+01	-6.655889e+01
5.200000e-07	-4.985744e-06	-9.650539e-10	-3.461633e+01	-6.646016e+01
5.300000e-07	-4.965111e-06	-1.003742e-09	-3.447308e+01	-6.636486e+01
5.400000e-07	-4.944236e-06	-9.999074e-10	-3.432814e+01	-6.627262e+01
5.500000e-07	-4.923031e-06	-9.560383e-10	-3.418091e+01	-6.618307e+01
5.600000e-07	-4.901494e-06	-9.775960e-10	-3.403138e+01	-6.609576e+01
5.700000e-07	-4.879588e-06	-9.834676e-10	-3.387928e+01	-6.601022e+01
5.800000e-07	-4.857202e-06	-9.485798e-10	-3.372385e+01	-6.592594e+01
5.900000e-07	-4.834388e-06	-9.628297e-10	-3.356546e+01	-6.584243e+01
6.000000e-07	-4.811248e-06	-9.973430e-10	-3.340479e+01	-6.575916e+01
6.100000e-07	-4.787808e-06	-9.659889e-10	-3.324205e+01	-6.567562e+01
6.200000e-07	-4.764185e-06	-9.504921e-10	-3.307803e+01	-6.559132e+01
6.300000e-07	-4.740422e-06	-9.728349e-10	-3.291305e+01	-6.550580e+01
6.400000e-07	-4.716370e-06	-9.575060e-10	-3.274605e+01	-6.541861e+01
6.500000e-07	-4.691959e-06	-9.359824e-10	-3.257656e+01	-6.532937e+01
6.600000e-07	-4.667202e-06	-9.580007e-10	-3.240467e+01	-6.523774e+01
6.700000e-07	-4.641949e-06	-9.659281e-10	-3.222934e+01	-6.514343e+01
6.800000e-07	-4.616053e-06	-9.483673e-10	-3.204954e+01	-6.504621e+01
6.900000e-07	-4.589613e-06	-9.604175e-10	-3.186597e+01	-6.494593e+01
7.000000e-07	-4.562709e-06	-9.668307e-10	-3.167917e+01	-6.484249e+01
7.100000e-07	-4.535351e-06	-9.466207e-10	-3.148922e+01	-6.473586e+01
7.200000e-07	-4.507758e-06	-9.398156e-10	-3.129765e+01	-6.462607e+01
7.300000e-07	-4.480028e-06	-9.521145e-10	-3.110511e+01	-6.451323e+01
7.400000e-07	-4.452125e-06	-9.444445e-10	-3.091138e+01	-6.439749e+01
7.500000e-07	-4.424015e-06	-9.442574e-10	-3.071621e+01	-6.427906e+01
7.600000e-07	-4.395617e-06	-9.517247e-10	-3.051904e+01	-6.415820e+01
7.700000e-07	-4.366865e-06	-9.461987e-10	-3.031941e+01	-6.403521e+01
7.800000e-07	-4.337794e-06	-9.312265e-10	-3.011757e+01	-6.391041e+01
7.900000e-07	-4.308430e-06	-9.360622e-10	-2.991370e+01	-6.378417e+01
8.000000e-07	-4.278791e-06	-9.365325e-10	-2.970791e+01	-6.365685e+01
8.100000e-07	-4.248889e-06	-9.310184e-10	-2.950030e+01	-6.352882e+01
8.200000e-07	-4.218722e-06	-9.333276e-10	-2.929085e+01	-6.340044e+01
8.300000e-07	-4.188226e-06	-9.392469e-10	-2.907912e+01	-6.327207e+01
8.400000e-07	-4.157368e-06	-9.290842e-10	-2.886487e+01	-6.314403e+01
8.500000e-07	-4.126314e-06	-9.249453e-10	-2.864925e+01	-6.301660e+01
8.600000e-07	-4.095087e-06	-9.267559e-10	-2.843244e+01	-6.289005e+01
8.700000e-07	-4.063628e-06	-9.216973e-10	-2.821402e+01	-6.276458e+01
8.800000e-07	-4.031986e-06	-9.153682e-10	-2.799433e+01	-6.264032e+01
8.900000e-07	-4.000154e-06	-9.210337e-10	-2.777332e+01	-6.251737e+01
9.000000e-07	-3.968091e-06	-9.203199e-10	-2.755070e+01	-6.239575e+01
9.100000e-07	-3.935731e-06	-9.133439e-10	-2.732603e+01	-6.227544e+01
9.200000e-07	-3.902928e-06	-9.135638e-10	-2.709827e+01	-6.215631e+01
9.300000e-07	-3.869734e-06	-9.147283e-10	-2.686780e+01	-6.203821e+01
9.400000e-07	-3.836190e-06	-9.096105e-10	-2.663491e+01	-6.192091e+01
9.500000e-07	-3.802196e-06	-9.094109e-10	-2.639888e+01	-6.180413e+01
9.600000e-07	-3.767709e-06	-9.122846e-10	-2.615944e+01	-6.168752e+01
9.700000e-07	-3.732753e-06	-9.047688e-10	-2.591674e+01	-6.157071e+01
9.800000e-07	-3.697493e-06	-8.983079e-10	-2.567193e+01	-6.145327e+01
9.900000e-07	-3.662017e-06	-8.991587e-10	-2.542561e+01	-6.133475e+01
1.000000e-06	-3.626344e-06	-8.987803e-10	-2.517793e+01	-6.121466e+01
1.010000e-06	-3.590549e-06	-8.931824e-10	-2.492941e+01	-6.109253e+01
1.020000e-06	-3.554637e-06	-8.943139e-10	-2.468006e+01	-6.096786e+01
1.030000e-06	-3.518582e-06	-8.940418e-10	-2.442973e+01	-6.084016e+01
1.040000e-06	-3.482342e-06	-8.891140e-10	-2.417812e+01	-6.070897e+01
1.050000e-06	-3.445791e-06	-8.847974e-10	-2.392434e+01	-6.057382e+01
1.060000e-06	-3.408949e-06	-8.842354e-10	-2.366855e+01	-6.043432e+01
1.070000e-06	-3.371897e-06	-8.791308e-10	-2.341129e+01	-6.029007e+01
1.080000e-06	-3.334645e-06	-8.761441e-10	-2.315265e+01	-6.014074e+01
1.090000e-06	-3.297133e-06	-8.765190e-10	-2.289220e+01	-5.998606e+01
1.100000e-06	-3.259368e-06	-8.740986e-10	-2.262999e+01	-5.982579e+01
1.110000e-06	-3.221360e-06	-8.664468e-10	-2.236610e+01	-5.965976e+01
1.120000e-06	-3.183171e-06	-8.637456e-10	-2.210095e+01	-5.948786e+01
1.130000e-06	-3.144812e-06	-8.604413e-10	-2.183463e+01	-5.931002e+01
1.140000e-06	-3.106193e-06	-8.562681e-10	-2.156649e+01	-5.912625e+01
1.150000e-06	-3.067302e-06	-8.536786e-10	-2.129647e+01	-5.893660e+01
1.160000e-06	-3.028169e-06	-8.517042e-10	-2.102477e+01	-5.874115e+01
1.170000e-06	-2.988869e-06	-8.463876e-10	-2.075191e+01	-5.854006e+01
1.180000e-06	-2.949402e-06	-8.416090e-10	-2.047788e+01	-5.833349e+01
1.190000e-06	-2.909804e-06	-8.384964e-10	-2.020295e+01	-5.812165e+01
1.200000e-06	-2.870118e-06	-8.333775e-10	-1.992741e+01	-5.790477e+01
1.210000e-06	-2.830267e-06	-8.271980e-10	-1.965072e+01	-5.768306e+01
1.220000e-06	-2.790212e-06	-8.231037e-10	-1.937262e+01	-5.745678e+01
1.230000e-06	-2.750009e-06	-8.210186e-10	-1.909348e+01	-5.722615e+01
1.240000e-06	-2.709638e-06	-8.185455e-10	-1.881319e+01	-5.699138e+01
1.250000e-06	-2.669100e-06	-8.176128e-10	-1.853173e+01	-5.675268e+01
1.260000e-06	-2.628389e-06	-8.171708e-10	-1.824907e+01	-5.651019e+01
1.270000e-06	-2.587381e-06	-8.134428e-10	-1.796435e+01	-5.626404e+01
1.280000e-06	-2.546037e-06	-8.080918e-10	-1.767730e+01	-5.601431e+01
1.290000e-06	-2.504380e-06	-8.041287e-10	-1.738807e+01	-5.576104e+01
1.300000e-06	-2.462397e-06	-7.966933e-10	-1.709657e+01	-5.550420e+01
1.310000e-06	-2.420054e-06	-7.883465e-10	-1.680258e+01	-5.524372e+01
1.320000e-06	-2.377393e-06	-7.837735e-10	-1.650639e+01	-5.497948e+01
1.330000e-06	-2.334534e-06	-7.824606e-10	-1.620882e+01	-5.471129e+01
1.340000e-06	-2.291438e-06	-7.800900e-10	-1.590959e+01	-5.443893e+01
1.350000e-06	-2.248168e-06	-7.775450e-10	-1.560917e+01	-5.416211e+01
1.360000e-06	-2.204794e-06	-7.730179e-10	-1.530802e+01	-5.388052e+01
1.370000e-06	-2.161238e-06	-7.658386e-10	-1.500561e+01	-5.359379e+01
1.380000e-06	-2.117529e-06	-7.578788e-10	-1.470214e+01	-5.330153e+01
1.390000e-06	-2.073752e-06	-7.528989e-10	-1.439819e+01	-5.300332e+01
1.400000e-06	-2.029924e-06	-7.492819e-10	-1.409389e+01	-5.269874e+01
1.410000e-06	-1.986012e-06	-7.470731e-10	-1.378900e+01	-5.238735e+01
1.420000e-06	-1.942023e-06	-7.465599e-10	-1.348359e+01	-5.206871e+01
1.430000e-06	-1.897983e-06	-7.457764e-10	-1.317782e+01	-5.174238e+01
1.440000e-06	-1.853800e-06	-7.422208e-10	-1.287105e+01	-5.140794e+01
1.450000e-06	-1.809525e-06	-7.349852e-10	-1.256365e+01	-5.106501e+01
1.460000e-06	-1.765171e-06	-7.255829e-10	-1.225569e+01	-5.071321e+01
1.470000e-06	-1.720602e-06	-7.170849e-10	-1.194624e+01	-5.035220e+01
1.480000e-06	-1.675927e-06	-7.124419e-10	-1.163606e+01	-4.998168e+01
1.490000e-06	-1.631203e-06	-7.085465e-10	-1.132554e+01	-4.960139e+01
1.500000e-06	-1.586269e-06	-7.037786e-10	-1.101357e+01	-4.921110e+01
1.510000e-06	-1.541167e-06	-7.001101e-10	-1.070042e+01	-4.881060e+01
1.520000e-06	-1.495928e-06	-6.957954e-10	-1.038632e+01	-4.839976e+01
1.530000e-06	-1.450582e-06	-6.898003e-10	-1.007148e+01	-4.797843e+01
1.540000e-06	-1.405248e-06	-6.813537e-10	-9.756723e+00	-4.754650e+01
1.550000e-06	-1.359824e-06	-6.733676e-10	-9.441344e+00	-4.710388e+01
1.560000e-06	-1.314241e-06	-6.664903e-10	-9.124857e+00	-4.665049e+01
1.570000e-06	-1.268605e-06	-6.598127e-10	-8.808001e+00	-4.618623e+01
1.580000e-06	-1.222926e-06	-6.531322e-10	-8.490854e+00	-4.571101e+01
1.590000e-06	-1.177090e-06	-6.485484e-10	-8.172606e+00	-4.522468e+01
1.600000e-06	-1.131181e-06	-6.435219e-10	-7.853858e+00	-4.472709e+01
1.610000e-06	-1.085269e-06	-6.351610e-10	-7.535091e+00	-4.421802e+01
1.620000e-06	-1.039262e-06	-6.251905e-10	-7.215658e+00	-4.369719e+01
1.630000e-06	-9.931315e-07	-6.151867e-10	-6.895374e+00	-4.316426e+01
1.640000e-06	-9.469470e-07	-6.064628e-10	-6.574712e+00	-4.261881e+01
1.650000e-06	-9.006665e-07	-5.966280e-10	-6.253384e+00	-4.206031e+01
1.660000e-06	-8.543313e-07	-5.871100e-10	-5.931675e+00	-4.148815e+01
1.670000e-06	-8.079538e-07	-5.776746e-10	-5.609673e+00	-4.090163e+01
1.680000e-06	-7.615477e-07	-5.667313e-10	-5.287473e+00	-4.029993e+01
1.690000e-06	-7.151690e-07	-5.543140e-10	-4.965463e+00	-3.968211e+01
1.700000e-06	-6.687569e-07	-5.431125e-10	-4.643221e+00	-3.904716e+01
1.710000e-06	-6.223042e-07	-5.340023e-10	-4.320697e+00	-3.839395e+01
1.720000e-06	-5.757835e-07	-5.271716e-10	-3.997700e+00	-3.772125e+01
1.730000e-06	-5.291971e-07	-5.178339e-10	-3.674248e+00	-3.702777e+01
1.740000e-06	-4.825374e-07	-5.054237e-10	-3.350287e+00	-3.631212e+01
1.750000e-06	-4.358344e-07	-4.903522e-10	-3.026025e+00	-3.557286e+01
1.760000e-06	-3.890980e-07	-4.740425e-10	-2.701531e+00	-3.480851e+01
1.770000e-06	-3.423081e-07	-4.601761e-10	-2.376666e+00	-3.401758e+01
1.780000e-06	-2.954572e-07	-4.487644e-10	-2.051378e+00	-3.319854e+01
1.790000e-06	-2.485358e-07	-4.387831e-10	-1.725599e+00	-3.234992e+01
1.800000e-06	-2.016373e-07	-4.283291e-10	-1.399980e+00	-3.147026e+01
1.810000e-06	-1.548222e-07	-4.146462e-10	-1.074940e+00	-3.055818e+01
1.820000e-06	-1.080018e-07	-3.987414e-10	-7.498632e-01	-2.961237e+01
1.830000e-06	-6.112125e-08	-3.835882e-10	-4.243687e-01	-2.863165e+01
1.840000e-06	-1.421186e-08	-3.686786e-10	-9.867381e-02	-2.761497e+01
1.850000e-06	3.270481e-08	-3.521539e-10	2.270716e-01	-2.656143e+01
1.860000e-06	7.955154e-08	-3.360707e-10	5.523313e-01	-2.547033e+01
1.870000e-06	1.263922e-07	-3.209263e-10	8.775487e-01	-2.434114e+01
1.880000e-06	1.732965e-07	-3.042060e-10	1.203209e+00	-2.317355e+01
1.890000e-06	2.201492e-07	-2.880254e-10	1.528510e+00	-2.196751e+01
1.900000e-06	2.669122e-07	-2.722353e-10	1.853188e+00	-2.072317e+01
1.910000e-06	3.137383e-07	-2.550187e-10	2.178305e+00	-1.944096e+01
1.920000e-06	3.606516e-07	-2.376505e-10	2.504026e+00	-1.812155e+01
1.930000e-06	4.074633e-07	-2.195825e-10	2.829043e+00	-1.676587e+01
1.940000e-06	4.541353e-07	-1.977629e-10	3.153090e+00	-1.537512e+01
1.950000e-06	5.007495e-07	-1.752958e-10	3.476735e+00	-1.395073e+01
1.960000e-06	5.473742e-07	-1.559221e-10	3.800453e+00	-1.249439e+01
1.970000e-06	5.939554e-07	-1.390280e-10	4.123869e+00	-1.100802e+01
1.980000e-06	6.404529e-07	-1.229703e-10	4.446705e+00	-9.493747e+00
1.990000e-06	6.868806e-07	-1.056276e-10	4.769055e+00	-7.953908e+00
2.000000e-06	7.332219e-07	-8.568165e-11	5.090805e+00	-6.391012e+00
2.010000e-06	7.796156e-07	-6.044737e-11	5.412920e+00	-4.807725e+00
2.020000e-06	8.259896e-07	-3.393314e-11	5.734897e+00	-3.206843e+00
2.030000e-06	8.722030e-07	-9.893845e-12	6.055759e+00	-1.591265e+00
2.040000e-06	9.183330e-07	1.006603e-11	6.376043e+00	3.603280e-02
2.050000e-06	9.644546e-07	2.954322e-11	6.696268e+00	1.672026e+00
2.060000e-06	1.010564e-06	5.035572e-11	7.016409e+00	3.313674e+00
2.070000e-06	1.056595e-06	7.002137e-11	7.336008e+00	4.957942e+00
2.080000e-06	1.102530e-06	9.143586e-11	7.654935e+00	6.601835e+00
2.090000e-06	1.148351e-06	1.151242e-10	7.973070e+00	8.242422e+00
2.100000e-06	1.194104e-06	1.393992e-10	8.290737e+00	9.876861e+00
2.110000e-06	1.239821e-06	1.626353e-10	8.608154e+00	1.150242e+01
2.120000e-06	1.285431e-06	1.841105e-10	8.924831e+00	1.311650e+01
2.130000e-06	1.330967e-06	2.033983e-10	9.240985e+00	1.471667e+01
2.140000e-06	1.376460e-06	2.210979e-10	9.556845e+00	1.630063e+01
2.150000e-06	1.421833e-06	2.405279e-10	9.871876e+00	1.786630e+01
2.160000e-06	1.467057e-06	2.637774e-10	1.018587e+01	1.941177e+01
2.170000e-06	1.512160e-06	2.868837e-10	1.049902e+01	2.093532e+01
2.180000e-06	1.557141e-06	3.081221e-10	1.081133e+01	2.243546e+01
2.190000e-06	1.601990e-06	3.272074e-10	1.112272e+01	2.391086e+01
2.200000e-06	1.646712e-06	3.449715e-10	1.143323e+01	2.536042e+01
2.210000e-06	1.691341e-06	3.609415e-10	1.174308e+01	2.678323e+01
2.220000e-06	1.735835e-06	3.763127e-10	1.205201e+01	2.817854e+01
2.230000e-06	1.780223e-06	3.925422e-10	1.236020e+01	2.954581e+01
2.240000e-06	1.824501e-06	4.098738e-10	1.266762e+01	3.088464e+01
2.250000e-06	1.868627e-06	4.279982e-10	1.297399e+01	3.219477e+01
2.260000e-06	1.912656e-06	4.478681e-10	1.327969e+01	3.347612e+01
2.270000e-06	1.956624e-06	4.685922e-10	1.358496e+01	3.472867e+01
2.280000e-06	2.000525e-06	4.875132e-10	1.388977e+01	3.595255e+01
2.290000e-06	2.044311e-06	5.045919e-10	1.419378e+01	3.714794e+01
2.300000e-06	2.088039e-06	5.199968e-10	1.449738e+01	3.831511e+01
2.310000e-06	2.131741e-06	5.341817e-10	1.480081e+01	3.945437e+01
2.320000e-06	2.175390e-06	5.487456e-10	1.510387e+01	4.056608e+01
2.330000e-06	2.218908e-06	5.629366e-10	1.540601e+01	4.165060e+01
2.340000e-06	2.262266e-06	5.777221e-10	1.570705e+01	4.270834e+01
2.350000e-06	2.305488e-06	5.937739e-10	1.600714e+01	4.373966e+01
2.360000e-06	2.348474e-06	6.096057e-10	1.630560e+01	4.474494e+01
2.370000e-06	2.391201e-06	6.234413e-10	1.660226e+01	4.572454e+01
2.380000e-06	2.433738e-06	6.359994e-10	1.689759e+01	4.667879e+01
2.390000e-06	2.475980e-06	6.487305e-10	1.719088e+01	4.760798e+01
2.400000e-06	2.517758e-06	6.609052e-10	1.748095e+01	4.851239e+01
2.410000e-06	2.559134e-06	6.746760e-10	1.776823e+01	4.939227e+01
2.420000e-06	2.600254e-06	6.888234e-10	1.805372e+01	5.024782e+01
2.430000e-06	2.641155e-06	7.023993e-10	1.833770e+01	5.107923e+01
2.440000e-06	2.681832e-06	7.153006e-10	1.862013e+01	5.188668e+01
2.450000e-06	2.722298e-06	7.268372e-10	1.890109e+01	5.267032e+01
2.460000e-06	2.762580e-06	7.376319e-10	1.918076e+01	5.343030e+01
2.470000e-06	2.802644e-06	7.484249e-10	1.945893e+01	5.416676e+01
2.480000e-06	2.842510e-06	7.584812e-10	1.973572e+01	5.487985e+01
2.490000e-06	2.882226e-06	7.673381e-10	2.001148e+01	5.556976e+01
2.500000e-06	2.921862e-06	7.765332e-10	2.028667e+01	5.623666e+01
2.510000e-06	2.961434e-06	7.858183e-10	2.056142e+01	5.688078e+01
2.520000e-06	3.000844e-06	7.960990e-10	2.083505e+01	5.750239e+01
2.530000e-06	3.040043e-06	8.070465e-10	2.110721e+01	5.810178e+01
2.540000e-06	3.079021e-06	8.178288e-10	2.137783e+01	5.867931e+01
2.550000e-06	3.117824e-06	8.271426e-10	2.164725e+01	5.923539e+01
2.560000e-06	3.156374e-06	8.344409e-10	2.191490e+01	5.977046e+01
2.570000e-06	3.194603e-06	8.405157e-10	2.218032e+01	6.028505e+01
2.580000e-06	3.232641e-06	8.454457e-10	2.244442e+01	6.077971e+01
2.590000e-06	3.270564e-06	8.506312e-10	2.270773e+01	6.125507e+01
2.600000e-06	3.308312e-06	8.572109e-10	2.296982e+01	6.171180e+01
2.610000e-06	3.345766e-06	8.639945e-10	2.322986e+01	6.215059e+01
2.620000e-06	3.382981e-06	8.713557e-10	2.348825e+01	6.257222e+01
2.630000e-06	3.419955e-06	8.782252e-10	2.374496e+01	6.297744e+01
2.640000e-06	3.456611e-06	8.811606e-10	2.399947e+01	6.336708e+01
2.650000e-06	3.493022e-06	8.822572e-10	2.425227e+01	6.374193e+01
2.660000e-06	3.529227e-06	8.848384e-10	2.450364e+01	6.410282e+01
2.670000e-06	3.565230e-06	8.901938e-10	2.475362e+01	6.445055e+01
2.680000e-06	3.601105e-06	8.956242e-10	2.500269e+01	6.478594e+01
2.690000e-06	3.636841e-06	9.015087e-10	2.525082e+01	6.510974e+01
2.700000e-06	3.672422e-06	9.079539e-10	2.549786e+01	6.542270e+01
2.710000e-06	3.707875e-06	9.126267e-10	2.574401e+01	6.572550e+01
2.720000e-06	3.743153e-06	9.181397e-10	2.598894e+01	6.601879e+01
2.730000e-06	3.778132e-06	9.229691e-10	2.623180e+01	6.630314e+01
2.740000e-06	3.812685e-06	9.262602e-10	2.647171e+01	6.657907e+01
2.750000e-06	3.846760e-06	9.316041e-10	2.670830e+01	6.684703e+01
2.760000e-06	3.880332e-06	9.367165e-10	2.694139e+01	6.710739e+01
2.770000e-06	3.913401e-06	9.406655e-10	2.717099e+01	6.736046e+01
2.780000e-06	3.946020e-06	9.446437e-10	2.739746e+01	6.760647e+01
2.790000e-06	3.978285e-06	9.481204e-10	2.762148e+01	6.784556e+01
2.800000e-06	4.010303e-06	9.492163e-10	2.784378e+01	6.807782e+01
2.810000e-06	4.042165e-06	9.494013e-10	2.806501e+01	6.830329e+01
2.820000e-06	4.073863e-06	9.519107e-10	2.828508e+01	6.852191e+01
2.830000e-06	4.105336e-06	9.557836e-10	2.850360e+01	6.873361e+01
2.840000e-06	4.136604e-06	9.592997e-10	2.872070e+01	6.893825e+01
2.850000e-06	4.167659e-06	9.631487e-10	2.893631e+01	6.913566e+01
2.860000e-06	4.198410e-06	9.677129e-10	2.914982e+01	6.932566e+01
2.870000e-06	4.228823e-06	9.714564e-10	2.936098e+01	6.950803e+01
2.880000e-06	4.258917e-06	9.756496e-10	2.956993e+01	6.968257e+01
2.890000e-06	4.288628e-06	9.803874e-10	2.977621e+01	6.984908e+01
2.900000e-06	4.318010e-06	9.839967e-10	2.998021e+01	7.000737e+01
