# Temperatura_=_9.62
# Concentracion g/m^3_=_1620.0
# C_Vs_to_Am_M_A/Vsm_=_65563218390.804596
# pendiente_HvsI_1/m_=_3716.3
# ordenada_HvsI_A/m_=_1297.0
# frecuencia_Hz_=_135104.9134171572

Tiempo_(s)	Campo_(V.s)	Magnetizacion_(V.s)	Campo_(kA/m)	Magnetizacion_(A/m)
0.000000e+00	-5.518572e-06	-1.334807e-09	-3.836669e+01	-9.075950e+01
1.000000e-08	-5.518776e-06	-1.331118e-09	-3.836811e+01	-9.072620e+01
2.000000e-08	-5.518753e-06	-1.330886e-09	-3.836795e+01	-9.069496e+01
3.000000e-08	-5.518442e-06	-1.332340e-09	-3.836579e+01	-9.066601e+01
4.000000e-08	-5.517757e-06	-1.333218e-09	-3.836103e+01	-9.063950e+01
5.000000e-08	-5.516678e-06	-1.331457e-09	-3.835352e+01	-9.061556e+01
6.000000e-08	-5.515106e-06	-1.324513e-09	-3.834259e+01	-9.059424e+01
7.000000e-08	-5.512863e-06	-1.313686e-09	-3.832700e+01	-9.057554e+01
8.000000e-08	-5.509926e-06	-1.325073e-09	-3.830658e+01	-9.055940e+01
9.000000e-08	-5.506458e-06	-1.359270e-09	-3.828247e+01	-9.054569e+01
1.000000e-07	-5.502513e-06	-1.371058e-09	-3.825505e+01	-9.053420e+01
1.100000e-07	-5.498194e-06	-1.345635e-09	-3.822502e+01	-9.052467e+01
1.200000e-07	-5.493714e-06	-1.308485e-09	-3.819387e+01	-9.051676e+01
1.300000e-07	-5.489059e-06	-1.310302e-09	-3.816151e+01	-9.051007e+01
1.400000e-07	-5.484025e-06	-1.346634e-09	-3.812651e+01	-9.050414e+01
1.500000e-07	-5.478513e-06	-1.342418e-09	-3.808819e+01	-9.049845e+01
1.600000e-07	-5.472643e-06	-1.331359e-09	-3.804738e+01	-9.049242e+01
1.700000e-07	-5.466452e-06	-1.317224e-09	-3.800434e+01	-9.048544e+01
1.800000e-07	-5.459783e-06	-1.348721e-09	-3.795797e+01	-9.047684e+01
1.900000e-07	-5.452625e-06	-1.367303e-09	-3.790821e+01	-9.046594e+01
2.000000e-07	-5.445156e-06	-1.362766e-09	-3.785628e+01	-9.045204e+01
2.100000e-07	-5.437441e-06	-1.333966e-09	-3.780264e+01	-9.043443e+01
2.200000e-07	-5.429477e-06	-1.349994e-09	-3.774728e+01	-9.041239e+01
2.300000e-07	-5.421228e-06	-1.368250e-09	-3.768992e+01	-9.038523e+01
2.400000e-07	-5.412664e-06	-1.371348e-09	-3.763039e+01	-9.035227e+01
2.500000e-07	-5.403537e-06	-1.348703e-09	-3.756693e+01	-9.031287e+01
2.600000e-07	-5.393683e-06	-1.344095e-09	-3.749842e+01	-9.026645e+01
2.700000e-07	-5.383267e-06	-1.351684e-09	-3.742601e+01	-9.021247e+01
2.800000e-07	-5.372335e-06	-1.343341e-09	-3.735001e+01	-9.015045e+01
2.900000e-07	-5.360882e-06	-1.336793e-09	-3.727038e+01	-9.008001e+01
3.000000e-07	-5.349017e-06	-1.329530e-09	-3.718790e+01	-9.000082e+01
3.100000e-07	-5.336786e-06	-1.334017e-09	-3.710286e+01	-8.991266e+01
3.200000e-07	-5.324108e-06	-1.326646e-09	-3.701472e+01	-8.981538e+01
3.300000e-07	-5.310957e-06	-1.339352e-09	-3.692329e+01	-8.970895e+01
3.400000e-07	-5.297444e-06	-1.332671e-09	-3.682935e+01	-8.959341e+01
3.500000e-07	-5.283620e-06	-1.332343e-09	-3.673324e+01	-8.946891e+01
3.600000e-07	-5.269435e-06	-1.326526e-09	-3.663462e+01	-8.933568e+01
3.700000e-07	-5.254861e-06	-1.331564e-09	-3.653329e+01	-8.919405e+01
3.800000e-07	-5.239832e-06	-1.303812e-09	-3.642881e+01	-8.904442e+01
3.900000e-07	-5.224161e-06	-1.300857e-09	-3.631986e+01	-8.888727e+01
4.000000e-07	-5.207931e-06	-1.315617e-09	-3.620703e+01	-8.872315e+01
4.100000e-07	-5.191341e-06	-1.325302e-09	-3.609169e+01	-8.855266e+01
4.200000e-07	-5.174317e-06	-1.302061e-09	-3.597333e+01	-8.837645e+01
4.300000e-07	-5.156976e-06	-1.302382e-09	-3.585278e+01	-8.819519e+01
4.400000e-07	-5.139404e-06	-1.306937e-09	-3.573061e+01	-8.800961e+01
4.500000e-07	-5.121559e-06	-1.298411e-09	-3.560654e+01	-8.782039e+01
4.600000e-07	-5.103315e-06	-1.285713e-09	-3.547971e+01	-8.762827e+01
4.700000e-07	-5.084565e-06	-1.288891e-09	-3.534935e+01	-8.743392e+01
4.800000e-07	-5.065403e-06	-1.280589e-09	-3.521613e+01	-8.723801e+01
4.900000e-07	-5.045942e-06	-1.276930e-09	-3.508083e+01	-8.704118e+01
5.000000e-07	-5.026202e-06	-1.281824e-09	-3.494359e+01	-8.684399e+01
5.100000e-07	-5.006249e-06	-1.275381e-09	-3.480487e+01	-8.664696e+01
5.200000e-07	-4.986097e-06	-1.264433e-09	-3.466477e+01	-8.645055e+01
5.300000e-07	-4.965590e-06	-1.267255e-09	-3.452220e+01	-8.625513e+01
5.400000e-07	-4.944783e-06	-1.265351e-09	-3.437754e+01	-8.606099e+01
5.500000e-07	-4.923678e-06	-1.255765e-09	-3.423082e+01	-8.586837e+01
5.600000e-07	-4.902145e-06	-1.262496e-09	-3.408111e+01	-8.567738e+01
5.700000e-07	-4.880265e-06	-1.260599e-09	-3.392900e+01	-8.548808e+01
5.800000e-07	-4.858104e-06	-1.246852e-09	-3.377493e+01	-8.530045e+01
5.900000e-07	-4.835614e-06	-1.247732e-09	-3.361857e+01	-8.511438e+01
6.000000e-07	-4.812707e-06	-1.258210e-09	-3.345932e+01	-8.492968e+01
6.100000e-07	-4.789465e-06	-1.246453e-09	-3.329773e+01	-8.474612e+01
6.200000e-07	-4.765932e-06	-1.242337e-09	-3.313412e+01	-8.456339e+01
6.300000e-07	-4.742152e-06	-1.247765e-09	-3.296880e+01	-8.438115e+01
6.400000e-07	-4.718228e-06	-1.244986e-09	-3.280247e+01	-8.419900e+01
6.500000e-07	-4.694072e-06	-1.232547e-09	-3.263453e+01	-8.401654e+01
6.600000e-07	-4.669505e-06	-1.238644e-09	-3.246373e+01	-8.383331e+01
6.700000e-07	-4.644402e-06	-1.237682e-09	-3.228921e+01	-8.364888e+01
6.800000e-07	-4.618821e-06	-1.233492e-09	-3.211137e+01	-8.346280e+01
6.900000e-07	-4.592793e-06	-1.234568e-09	-3.193041e+01	-8.327465e+01
7.000000e-07	-4.566254e-06	-1.238154e-09	-3.174590e+01	-8.308402e+01
7.100000e-07	-4.539197e-06	-1.225770e-09	-3.155779e+01	-8.289052e+01
7.200000e-07	-4.511712e-06	-1.219252e-09	-3.136671e+01	-8.269383e+01
7.300000e-07	-4.483986e-06	-1.219138e-09	-3.117395e+01	-8.249363e+01
7.400000e-07	-4.456118e-06	-1.215547e-09	-3.098020e+01	-8.228969e+01
7.500000e-07	-4.428113e-06	-1.210639e-09	-3.078551e+01	-8.208179e+01
7.600000e-07	-4.399902e-06	-1.219046e-09	-3.058938e+01	-8.186981e+01
7.700000e-07	-4.371448e-06	-1.217604e-09	-3.039156e+01	-8.165365e+01
7.800000e-07	-4.342623e-06	-1.204782e-09	-3.019115e+01	-8.143326e+01
7.900000e-07	-4.313416e-06	-1.196765e-09	-2.998810e+01	-8.120866e+01
8.000000e-07	-4.283882e-06	-1.194056e-09	-2.978277e+01	-8.097991e+01
8.100000e-07	-4.254036e-06	-1.184779e-09	-2.957527e+01	-8.074709e+01
8.200000e-07	-4.223947e-06	-1.179049e-09	-2.936608e+01	-8.051034e+01
8.300000e-07	-4.193521e-06	-1.182469e-09	-2.915456e+01	-8.026983e+01
8.400000e-07	-4.162769e-06	-1.180721e-09	-2.894076e+01	-8.002571e+01
8.500000e-07	-4.131776e-06	-1.176267e-09	-2.872529e+01	-7.977818e+01
8.600000e-07	-4.100476e-06	-1.173037e-09	-2.850768e+01	-7.952743e+01
8.700000e-07	-4.068894e-06	-1.166108e-09	-2.828811e+01	-7.927364e+01
8.800000e-07	-4.037151e-06	-1.156493e-09	-2.806743e+01	-7.901698e+01
8.900000e-07	-4.005271e-06	-1.156185e-09	-2.784579e+01	-7.875760e+01
9.000000e-07	-3.973226e-06	-1.154851e-09	-2.762300e+01	-7.849562e+01
9.100000e-07	-3.940969e-06	-1.150353e-09	-2.739874e+01	-7.823113e+01
9.200000e-07	-3.908481e-06	-1.146094e-09	-2.717288e+01	-7.796417e+01
9.300000e-07	-3.875644e-06	-1.144226e-09	-2.694458e+01	-7.769474e+01
9.400000e-07	-3.842281e-06	-1.135794e-09	-2.671263e+01	-7.742281e+01
9.500000e-07	-3.808400e-06	-1.129494e-09	-2.647709e+01	-7.714830e+01
9.600000e-07	-3.774116e-06	-1.122711e-09	-2.623873e+01	-7.687107e+01
9.700000e-07	-3.739407e-06	-1.113042e-09	-2.599743e+01	-7.659096e+01
9.800000e-07	-3.704246e-06	-1.102087e-09	-2.575298e+01	-7.630775e+01
9.900000e-07	-3.668824e-06	-1.096681e-09	-2.550671e+01	-7.602121e+01
1.000000e-06	-3.633207e-06	-1.089259e-09	-2.525910e+01	-7.573105e+01
1.010000e-06	-3.597411e-06	-1.084030e-09	-2.501023e+01	-7.543698e+01
1.020000e-06	-3.561506e-06	-1.082401e-09	-2.476061e+01	-7.513870e+01
1.030000e-06	-3.525457e-06	-1.082983e-09	-2.450999e+01	-7.483590e+01
1.040000e-06	-3.489243e-06	-1.080987e-09	-2.425822e+01	-7.452826e+01
1.050000e-06	-3.452751e-06	-1.078416e-09	-2.400451e+01	-7.421548e+01
1.060000e-06	-3.416012e-06	-1.072241e-09	-2.374909e+01	-7.389730e+01
1.070000e-06	-3.379046e-06	-1.062206e-09	-2.349209e+01	-7.357346e+01
1.080000e-06	-3.341825e-06	-1.054528e-09	-2.323332e+01	-7.324375e+01
1.090000e-06	-3.304386e-06	-1.050620e-09	-2.297303e+01	-7.290801e+01
1.100000e-06	-3.266735e-06	-1.044477e-09	-2.271128e+01	-7.256613e+01
1.110000e-06	-3.228890e-06	-1.038352e-09	-2.244817e+01	-7.221804e+01
1.120000e-06	-3.190798e-06	-1.033929e-09	-2.218334e+01	-7.186375e+01
1.130000e-06	-3.152472e-06	-1.027500e-09	-2.191689e+01	-7.150331e+01
1.140000e-06	-3.113921e-06	-1.021161e-09	-2.164887e+01	-7.113684e+01
1.150000e-06	-3.075148e-06	-1.017384e-09	-2.137931e+01	-7.076452e+01
1.160000e-06	-3.036138e-06	-1.012357e-09	-2.110810e+01	-7.038659e+01
1.170000e-06	-2.996952e-06	-1.002621e-09	-2.083567e+01	-7.000333e+01
1.180000e-06	-2.957643e-06	-9.954203e-10	-2.056238e+01	-6.961507e+01
1.190000e-06	-2.918086e-06	-9.918055e-10	-2.028737e+01	-6.922220e+01
1.200000e-06	-2.878371e-06	-9.889836e-10	-2.001126e+01	-6.882511e+01
1.210000e-06	-2.838550e-06	-9.845521e-10	-1.973441e+01	-6.842421e+01
1.220000e-06	-2.798578e-06	-9.809705e-10	-1.945652e+01	-6.801995e+01
1.230000e-06	-2.758488e-06	-9.743552e-10	-1.917780e+01	-6.761275e+01
1.240000e-06	-2.718221e-06	-9.676515e-10	-1.889785e+01	-6.720303e+01
1.250000e-06	-2.677755e-06	-9.619067e-10	-1.861652e+01	-6.679117e+01
1.260000e-06	-2.637096e-06	-9.568702e-10	-1.833385e+01	-6.637755e+01
1.270000e-06	-2.596176e-06	-9.490862e-10	-1.804936e+01	-6.596245e+01
1.280000e-06	-2.555032e-06	-9.405234e-10	-1.776331e+01	-6.554614e+01
1.290000e-06	-2.513695e-06	-9.331252e-10	-1.747593e+01	-6.512880e+01
1.300000e-06	-2.471978e-06	-9.266009e-10	-1.718590e+01	-6.471054e+01
1.310000e-06	-2.429933e-06	-9.206255e-10	-1.689359e+01	-6.429140e+01
1.320000e-06	-2.387638e-06	-9.158869e-10	-1.659954e+01	-6.387131e+01
1.330000e-06	-2.345134e-06	-9.103242e-10	-1.630404e+01	-6.345013e+01
1.340000e-06	-2.302359e-06	-9.029170e-10	-1.600666e+01	-6.302764e+01
1.350000e-06	-2.259237e-06	-8.961569e-10	-1.570686e+01	-6.260349e+01
1.360000e-06	-2.215934e-06	-8.904695e-10	-1.540581e+01	-6.217728e+01
1.370000e-06	-2.172532e-06	-8.843307e-10	-1.510407e+01	-6.174852e+01
1.380000e-06	-2.128981e-06	-8.789123e-10	-1.480128e+01	-6.131661e+01
1.390000e-06	-2.085243e-06	-8.727411e-10	-1.449720e+01	-6.088092e+01
1.400000e-06	-2.041417e-06	-8.669178e-10	-1.419251e+01	-6.044073e+01
1.410000e-06	-1.997500e-06	-8.617839e-10	-1.388719e+01	-5.999526e+01
1.420000e-06	-1.953481e-06	-8.542949e-10	-1.358116e+01	-5.954371e+01
1.430000e-06	-1.909446e-06	-8.443269e-10	-1.327502e+01	-5.908523e+01
1.440000e-06	-1.865349e-06	-8.338826e-10	-1.296844e+01	-5.861895e+01
1.450000e-06	-1.821123e-06	-8.255544e-10	-1.266097e+01	-5.814399e+01
1.460000e-06	-1.776808e-06	-8.188038e-10	-1.235288e+01	-5.765946e+01
1.470000e-06	-1.732372e-06	-8.118014e-10	-1.204395e+01	-5.716450e+01
1.480000e-06	-1.687840e-06	-8.047565e-10	-1.173435e+01	-5.665826e+01
1.490000e-06	-1.643175e-06	-7.963414e-10	-1.142382e+01	-5.613991e+01
1.500000e-06	-1.598402e-06	-7.862754e-10	-1.111255e+01	-5.560867e+01
1.510000e-06	-1.553556e-06	-7.766670e-10	-1.080077e+01	-5.506381e+01
1.520000e-06	-1.508552e-06	-7.677063e-10	-1.048789e+01	-5.450462e+01
1.530000e-06	-1.463415e-06	-7.587445e-10	-1.017408e+01	-5.393047e+01
1.540000e-06	-1.418166e-06	-7.499498e-10	-9.859493e+00	-5.334075e+01
1.550000e-06	-1.372854e-06	-7.416988e-10	-9.544472e+00	-5.273492e+01
1.560000e-06	-1.327477e-06	-7.308017e-10	-9.229001e+00	-5.211249e+01
1.570000e-06	-1.281984e-06	-7.188515e-10	-8.912722e+00	-5.147301e+01
1.580000e-06	-1.236362e-06	-7.062382e-10	-8.595544e+00	-5.081606e+01
1.590000e-06	-1.190605e-06	-6.943906e-10	-8.277425e+00	-5.014125e+01
1.600000e-06	-1.144735e-06	-6.831639e-10	-7.958524e+00	-4.944822e+01
1.610000e-06	-1.098813e-06	-6.708120e-10	-7.639262e+00	-4.873663e+01
1.620000e-06	-1.052761e-06	-6.592711e-10	-7.319096e+00	-4.800613e+01
1.630000e-06	-1.006599e-06	-6.492069e-10	-6.998163e+00	-4.725636e+01
1.640000e-06	-9.605003e-07	-6.387666e-10	-6.677673e+00	-4.648695e+01
1.650000e-06	-9.143905e-07	-6.274390e-10	-6.357105e+00	-4.569752e+01
1.660000e-06	-8.681930e-07	-6.149295e-10	-6.035926e+00	-4.488762e+01
1.670000e-06	-8.219728e-07	-6.006570e-10	-5.714590e+00	-4.405679e+01
1.680000e-06	-7.756550e-07	-5.847203e-10	-5.392575e+00	-4.320450e+01
1.690000e-06	-7.291952e-07	-5.671028e-10	-5.069573e+00	-4.233017e+01
1.700000e-06	-6.827403e-07	-5.499473e-10	-4.746606e+00	-4.143315e+01
1.710000e-06	-6.363697e-07	-5.343360e-10	-4.424224e+00	-4.051276e+01
1.720000e-06	-5.899824e-07	-5.219434e-10	-4.101726e+00	-3.956823e+01
1.730000e-06	-5.434541e-07	-5.114956e-10	-3.778248e+00	-3.859874e+01
1.740000e-06	-4.968645e-07	-4.989383e-10	-3.454344e+00	-3.760345e+01
1.750000e-06	-4.502152e-07	-4.820403e-10	-3.130025e+00	-3.658143e+01
1.760000e-06	-4.035010e-07	-4.615027e-10	-2.805255e+00	-3.553176e+01
1.770000e-06	-3.567888e-07	-4.398162e-10	-2.480498e+00	-3.445348e+01
1.780000e-06	-3.099314e-07	-4.193538e-10	-2.154732e+00	-3.334562e+01
1.790000e-06	-2.631027e-07	-4.042899e-10	-1.829165e+00	-3.220723e+01
1.800000e-06	-2.164116e-07	-3.922958e-10	-1.504555e+00	-3.103741e+01
1.810000e-06	-1.696849e-07	-3.795608e-10	-1.179698e+00	-2.983527e+01
1.820000e-06	-1.229068e-07	-3.650644e-10	-8.544834e-01	-2.860002e+01
1.830000e-06	-7.612113e-08	-3.469090e-10	-5.292158e-01	-2.733096e+01
1.840000e-06	-2.934427e-08	-3.256462e-10	-2.040098e-01	-2.602747e+01
1.850000e-06	1.749347e-08	-3.040714e-10	1.216196e-01	-2.468909e+01
1.860000e-06	6.434144e-08	-2.846096e-10	4.473201e-01	-2.331550e+01
1.870000e-06	1.111226e-07	-2.653323e-10	7.725561e-01	-2.190657e+01
1.880000e-06	1.578754e-07	-2.459730e-10	1.097595e+00	-2.046231e+01
1.890000e-06	2.046243e-07	-2.292254e-10	1.422607e+00	-1.898297e+01
1.900000e-06	2.513516e-07	-2.111138e-10	1.747468e+00	-1.746901e+01
1.910000e-06	2.981445e-07	-1.889191e-10	2.072786e+00	-1.592110e+01
1.920000e-06	3.449376e-07	-1.654268e-10	2.398104e+00	-1.434013e+01
1.930000e-06	3.916146e-07	-1.439300e-10	2.722617e+00	-1.272726e+01
1.940000e-06	4.382903e-07	-1.213218e-10	3.047119e+00	-1.108385e+01
1.950000e-06	4.849517e-07	-9.667935e-11	3.371523e+00	-9.411508e+00
1.960000e-06	5.315636e-07	-7.487315e-11	3.695582e+00	-7.712060e+00
1.970000e-06	5.781205e-07	-5.576097e-11	4.019259e+00	-5.987551e+00
1.980000e-06	6.246402e-07	-3.527327e-11	4.342677e+00	-4.240227e+00
1.990000e-06	6.711350e-07	-1.300707e-11	4.665922e+00	-2.472519e+00
2.000000e-06	7.175155e-07	1.031099e-11	4.988373e+00	-6.870266e-01
2.010000e-06	7.638142e-07	3.774060e-11	5.310255e+00	1.113507e+00
2.020000e-06	8.100642e-07	6.853615e-11	5.631798e+00	2.926218e+00
2.030000e-06	8.561976e-07	9.715118e-11	5.952530e+00	4.748143e+00
2.040000e-06	9.022587e-07	1.208151e-10	6.272761e+00	6.576256e+00
2.050000e-06	9.483974e-07	1.423979e-10	6.593530e+00	8.407485e+00
2.060000e-06	9.945033e-07	1.667893e-10	6.914072e+00	1.023875e+01
2.070000e-06	1.040439e-06	1.931601e-10	7.233428e+00	1.206699e+01
2.080000e-06	1.086306e-06	2.187750e-10	7.552311e+00	1.388919e+01
2.090000e-06	1.132144e-06	2.444333e-10	7.870991e+00	1.570240e+01
2.100000e-06	1.177929e-06	2.688726e-10	8.189298e+00	1.750378e+01
2.110000e-06	1.223647e-06	2.929579e-10	8.507145e+00	1.929061e+01
2.120000e-06	1.269214e-06	3.161903e-10	8.823936e+00	2.106032e+01
2.130000e-06	1.314684e-06	3.369324e-10	9.140062e+00	2.281051e+01
2.140000e-06	1.360172e-06	3.572997e-10	9.456307e+00	2.453895e+01
2.150000e-06	1.405595e-06	3.802841e-10	9.772098e+00	2.624362e+01
2.160000e-06	1.450902e-06	4.057146e-10	1.008709e+01	2.792271e+01
2.170000e-06	1.496045e-06	4.312819e-10	1.040093e+01	2.957461e+01
2.180000e-06	1.541059e-06	4.551991e-10	1.071388e+01	3.119797e+01
2.190000e-06	1.585958e-06	4.781395e-10	1.102604e+01	3.279161e+01
2.200000e-06	1.630651e-06	5.015399e-10	1.133675e+01	3.435462e+01
2.210000e-06	1.675193e-06	5.246735e-10	1.164642e+01	3.588627e+01
2.220000e-06	1.719658e-06	5.448335e-10	1.195555e+01	3.738607e+01
2.230000e-06	1.764028e-06	5.634442e-10	1.226403e+01	3.885368e+01
2.240000e-06	1.808265e-06	5.812887e-10	1.257158e+01	4.028900e+01
2.250000e-06	1.852369e-06	5.961662e-10	1.287820e+01	4.169205e+01
2.260000e-06	1.896404e-06	6.117916e-10	1.318434e+01	4.306304e+01
2.270000e-06	1.940433e-06	6.319015e-10	1.349044e+01	4.440228e+01
2.280000e-06	1.984426e-06	6.534639e-10	1.379630e+01	4.571022e+01
2.290000e-06	2.028344e-06	6.745974e-10	1.410163e+01	4.698739e+01
2.300000e-06	2.072183e-06	6.942743e-10	1.440641e+01	4.823440e+01
2.310000e-06	2.115919e-06	7.095673e-10	1.471047e+01	4.945193e+01
2.320000e-06	2.159581e-06	7.215814e-10	1.501402e+01	5.064066e+01
2.330000e-06	2.203195e-06	7.345226e-10	1.531724e+01	5.180133e+01
2.340000e-06	2.246629e-06	7.494977e-10	1.561921e+01	5.293467e+01
2.350000e-06	2.289786e-06	7.664198e-10	1.591925e+01	5.404138e+01
2.360000e-06	2.332685e-06	7.864096e-10	1.621750e+01	5.512215e+01
2.370000e-06	2.375350e-06	8.051465e-10	1.651411e+01	5.617764e+01
2.380000e-06	2.417717e-06	8.194469e-10	1.680866e+01	5.720845e+01
2.390000e-06	2.459787e-06	8.300199e-10	1.710114e+01	5.821513e+01
2.400000e-06	2.501566e-06	8.380102e-10	1.739161e+01	5.919818e+01
2.410000e-06	2.542965e-06	8.470799e-10	1.767942e+01	6.015803e+01
2.420000e-06	2.583988e-06	8.599378e-10	1.796463e+01	6.109506e+01
2.430000e-06	2.624664e-06	8.765684e-10	1.824742e+01	6.200958e+01
2.440000e-06	2.665124e-06	8.922718e-10	1.852871e+01	6.290184e+01
2.450000e-06	2.705502e-06	9.032489e-10	1.880942e+01	6.377204e+01
2.460000e-06	2.745727e-06	9.118778e-10	1.908908e+01	6.462036e+01
2.470000e-06	2.785799e-06	9.197060e-10	1.936767e+01	6.544689e+01
2.480000e-06	2.825738e-06	9.282896e-10	1.964534e+01	6.625174e+01
2.490000e-06	2.865531e-06	9.396899e-10	1.992199e+01	6.703496e+01
2.500000e-06	2.905217e-06	9.532634e-10	2.019790e+01	6.779662e+01
2.510000e-06	2.944754e-06	9.666280e-10	2.047277e+01	6.853677e+01
2.520000e-06	2.984114e-06	9.778150e-10	2.074642e+01	6.925546e+01
2.530000e-06	3.023331e-06	9.870147e-10	2.101906e+01	6.995277e+01
2.540000e-06	3.062374e-06	9.954421e-10	2.129050e+01	7.062879e+01
2.550000e-06	3.101137e-06	1.001906e-09	2.155999e+01	7.128365e+01
2.560000e-06	3.139530e-06	1.007240e-09	2.182691e+01	7.191752e+01
2.570000e-06	3.177699e-06	1.014418e-09	2.209227e+01	7.253060e+01
2.580000e-06	3.215792e-06	1.022922e-09	2.235711e+01	7.312314e+01
2.590000e-06	3.253702e-06	1.031211e-09	2.262067e+01	7.369546e+01
2.600000e-06	3.291410e-06	1.038553e-09	2.288282e+01	7.424790e+01
2.610000e-06	3.328859e-06	1.045330e-09	2.314318e+01	7.478086e+01
2.620000e-06	3.365963e-06	1.051552e-09	2.340114e+01	7.529481e+01
2.630000e-06	3.402795e-06	1.056148e-09	2.365720e+01	7.579025e+01
2.640000e-06	3.439365e-06	1.059568e-09	2.391145e+01	7.626772e+01
2.650000e-06	3.475741e-06	1.063425e-09	2.416434e+01	7.672780e+01
2.660000e-06	3.511997e-06	1.068998e-09	2.441641e+01	7.717113e+01
2.670000e-06	3.548121e-06	1.076302e-09	2.466755e+01	7.759836e+01
2.680000e-06	3.584110e-06	1.082613e-09	2.491776e+01	7.801014e+01
2.690000e-06	3.619945e-06	1.087516e-09	2.516690e+01	7.840718e+01
2.700000e-06	3.655654e-06	1.092737e-09	2.541515e+01	7.879017e+01
2.710000e-06	3.691194e-06	1.097631e-09	2.566224e+01	7.915981e+01
2.720000e-06	3.726328e-06	1.103608e-09	2.590650e+01	7.951679e+01
2.730000e-06	3.761081e-06	1.110637e-09	2.614811e+01	7.986180e+01
2.740000e-06	3.795552e-06	1.116842e-09	2.638776e+01	8.019550e+01
2.750000e-06	3.829610e-06	1.123002e-09	2.662454e+01	8.051853e+01
2.760000e-06	3.863148e-06	1.127956e-09	2.685771e+01	8.083150e+01
2.770000e-06	3.896186e-06	1.131821e-09	2.708740e+01	8.113502e+01
2.780000e-06	3.928809e-06	1.134677e-09	2.731421e+01	8.142961e+01
2.790000e-06	3.961093e-06	1.138326e-09	2.753865e+01	8.171581e+01
2.800000e-06	3.993186e-06	1.144270e-09	2.776177e+01	8.199408e+01
2.810000e-06	4.025112e-06	1.150220e-09	2.798373e+01	8.226487e+01
2.820000e-06	4.056887e-06	1.157033e-09	2.820464e+01	8.252858e+01
2.830000e-06	4.088532e-06	1.163715e-09	2.842465e+01	8.278558e+01
2.840000e-06	4.119976e-06	1.171166e-09	2.864325e+01	8.303620e+01
2.850000e-06	4.151074e-06	1.175844e-09	2.885945e+01	8.328075e+01
2.860000e-06	4.181825e-06	1.179659e-09	2.907324e+01	8.351949e+01
2.870000e-06	4.212322e-06	1.184828e-09	2.928527e+01	8.375268e+01
2.880000e-06	4.242517e-06	1.188471e-09	2.949519e+01	8.398054e+01
2.890000e-06	4.272433e-06	1.192485e-09	2.970318e+01	8.420327e+01
2.900000e-06	4.302129e-06	1.196434e-09	2.990963e+01	8.442108e+01
