# Temperatura_=_13.9
# Concentracion g/m^3_=_1620.0
# C_Vs_to_Am_M_A/Vsm_=_65563218390.804596
# pendiente_HvsI_1/m_=_3716.3
# ordenada_HvsI_A/m_=_1297.0
# frecuencia_Hz_=_135101.44414250724

Tiempo_(s)	Campo_(V.s)	Magnetizacion_(V.s)	Campo_(kA/m)	Magnetizacion_(A/m)
0.000000e+00	-5.531981e-06	-1.458256e-09	-3.837565e+01	-9.878688e+01
1.000000e-08	-5.532269e-06	-1.458344e-09	-3.837765e+01	-9.872591e+01
2.000000e-08	-5.532306e-06	-1.459177e-09	-3.837791e+01	-9.866209e+01
3.000000e-08	-5.531975e-06	-1.458376e-09	-3.837561e+01	-9.859614e+01
4.000000e-08	-5.531246e-06	-1.456333e-09	-3.837056e+01	-9.852882e+01
5.000000e-08	-5.530055e-06	-1.450893e-09	-3.836230e+01	-9.846089e+01
6.000000e-08	-5.528257e-06	-1.443275e-09	-3.834982e+01	-9.839307e+01
7.000000e-08	-5.525857e-06	-1.436951e-09	-3.833318e+01	-9.832606e+01
8.000000e-08	-5.522939e-06	-1.424989e-09	-3.831293e+01	-9.826048e+01
9.000000e-08	-5.519508e-06	-1.452519e-09	-3.828913e+01	-9.819689e+01
1.000000e-07	-5.515595e-06	-1.525394e-09	-3.826198e+01	-9.813576e+01
1.100000e-07	-5.511174e-06	-1.495273e-09	-3.823131e+01	-9.807745e+01
1.200000e-07	-5.506478e-06	-1.328902e-09	-3.819874e+01	-9.802221e+01
1.300000e-07	-5.501806e-06	-1.355475e-09	-3.816633e+01	-9.797017e+01
1.400000e-07	-5.496821e-06	-1.479233e-09	-3.813175e+01	-9.792131e+01
1.500000e-07	-5.491295e-06	-1.546276e-09	-3.809342e+01	-9.787551e+01
1.600000e-07	-5.485414e-06	-1.365368e-09	-3.805262e+01	-9.783248e+01
1.700000e-07	-5.479308e-06	-1.348171e-09	-3.801026e+01	-9.779183e+01
1.800000e-07	-5.472645e-06	-1.488040e-09	-3.796404e+01	-9.775303e+01
1.900000e-07	-5.465421e-06	-1.554255e-09	-3.791393e+01	-9.771543e+01
2.000000e-07	-5.457988e-06	-1.423653e-09	-3.786236e+01	-9.767829e+01
2.100000e-07	-5.450411e-06	-1.344601e-09	-3.780980e+01	-9.764077e+01
2.200000e-07	-5.442555e-06	-1.446355e-09	-3.775530e+01	-9.760197e+01
2.300000e-07	-5.434301e-06	-1.506799e-09	-3.769805e+01	-9.756092e+01
2.400000e-07	-5.425784e-06	-1.461440e-09	-3.763896e+01	-9.751662e+01
2.500000e-07	-5.416772e-06	-1.392317e-09	-3.757645e+01	-9.746808e+01
2.600000e-07	-5.406868e-06	-1.472748e-09	-3.750774e+01	-9.741428e+01
2.700000e-07	-5.396262e-06	-1.479389e-09	-3.743416e+01	-9.735425e+01
2.800000e-07	-5.385279e-06	-1.437187e-09	-3.735798e+01	-9.728707e+01
2.900000e-07	-5.373905e-06	-1.378966e-09	-3.727907e+01	-9.721190e+01
3.000000e-07	-5.362068e-06	-1.452362e-09	-3.719696e+01	-9.712798e+01
3.100000e-07	-5.349856e-06	-1.458852e-09	-3.711224e+01	-9.703465e+01
3.200000e-07	-5.337289e-06	-1.439257e-09	-3.702507e+01	-9.693139e+01
3.300000e-07	-5.324166e-06	-1.403125e-09	-3.693403e+01	-9.681781e+01
3.400000e-07	-5.310632e-06	-1.476661e-09	-3.684014e+01	-9.669364e+01
3.500000e-07	-5.296874e-06	-1.479233e-09	-3.674470e+01	-9.655881e+01
3.600000e-07	-5.282691e-06	-1.424698e-09	-3.664631e+01	-9.641334e+01
3.700000e-07	-5.267917e-06	-1.390610e-09	-3.654383e+01	-9.625747e+01
3.800000e-07	-5.252824e-06	-1.462850e-09	-3.643913e+01	-9.609154e+01
3.900000e-07	-5.237161e-06	-1.434176e-09	-3.633047e+01	-9.591604e+01
4.000000e-07	-5.220774e-06	-1.371793e-09	-3.621679e+01	-9.573162e+01
4.100000e-07	-5.204148e-06	-1.431571e-09	-3.610146e+01	-9.553903e+01
4.200000e-07	-5.187290e-06	-1.479159e-09	-3.598452e+01	-9.533911e+01
4.300000e-07	-5.170032e-06	-1.379300e-09	-3.586480e+01	-9.513282e+01
4.400000e-07	-5.152410e-06	-1.368534e-09	-3.574255e+01	-9.492115e+01
4.500000e-07	-5.134586e-06	-1.493601e-09	-3.561890e+01	-9.470517e+01
4.600000e-07	-5.116394e-06	-1.425347e-09	-3.549270e+01	-9.448596e+01
4.700000e-07	-5.097564e-06	-1.314578e-09	-3.536208e+01	-9.426458e+01
4.800000e-07	-5.078336e-06	-1.396894e-09	-3.522869e+01	-9.404211e+01
4.900000e-07	-5.058919e-06	-1.455828e-09	-3.509400e+01	-9.381955e+01
5.000000e-07	-5.039266e-06	-1.335454e-09	-3.495766e+01	-9.359785e+01
5.100000e-07	-5.019427e-06	-1.376139e-09	-3.482004e+01	-9.337787e+01
5.200000e-07	-4.999362e-06	-1.457695e-09	-3.468085e+01	-9.316039e+01
5.300000e-07	-4.978853e-06	-1.373453e-09	-3.453857e+01	-9.294605e+01
5.400000e-07	-4.957915e-06	-1.328907e-09	-3.439333e+01	-9.273536e+01
5.500000e-07	-4.936725e-06	-1.442022e-09	-3.424633e+01	-9.252872e+01
5.600000e-07	-4.915182e-06	-1.377203e-09	-3.409688e+01	-9.232634e+01
5.700000e-07	-4.893225e-06	-1.286002e-09	-3.394457e+01	-9.212832e+01
5.800000e-07	-4.870965e-06	-1.366184e-09	-3.379015e+01	-9.193459e+01
5.900000e-07	-4.848406e-06	-1.408923e-09	-3.363366e+01	-9.174495e+01
6.000000e-07	-4.825462e-06	-1.311008e-09	-3.347449e+01	-9.155904e+01
6.100000e-07	-4.802235e-06	-1.343051e-09	-3.331337e+01	-9.137638e+01
6.200000e-07	-4.778751e-06	-1.387823e-09	-3.315046e+01	-9.119638e+01
6.300000e-07	-4.754973e-06	-1.322146e-09	-3.298551e+01	-9.101834e+01
6.400000e-07	-4.730964e-06	-1.301474e-09	-3.281895e+01	-9.084146e+01
6.500000e-07	-4.706670e-06	-1.359250e-09	-3.265043e+01	-9.066487e+01
6.600000e-07	-4.681906e-06	-1.328892e-09	-3.247864e+01	-9.048768e+01
6.700000e-07	-4.656685e-06	-1.306945e-09	-3.230368e+01	-9.030894e+01
6.800000e-07	-4.631018e-06	-1.344861e-09	-3.212563e+01	-9.012770e+01
6.900000e-07	-4.604767e-06	-1.336070e-09	-3.194352e+01	-8.994301e+01
7.000000e-07	-4.577940e-06	-1.303721e-09	-3.175742e+01	-8.975397e+01
7.100000e-07	-4.550735e-06	-1.320479e-09	-3.156870e+01	-8.955971e+01
7.200000e-07	-4.523320e-06	-1.315858e-09	-3.137852e+01	-8.935943e+01
7.300000e-07	-4.495677e-06	-1.285510e-09	-3.118676e+01	-8.915241e+01
7.400000e-07	-4.467884e-06	-1.299750e-09	-3.099396e+01	-8.893803e+01
7.500000e-07	-4.439887e-06	-1.308348e-09	-3.079974e+01	-8.871577e+01
7.600000e-07	-4.411566e-06	-1.293836e-09	-3.060328e+01	-8.848522e+01
7.700000e-07	-4.382936e-06	-1.289677e-09	-3.040467e+01	-8.824609e+01
7.800000e-07	-4.354004e-06	-1.292095e-09	-3.020396e+01	-8.799821e+01
7.900000e-07	-4.324712e-06	-1.265818e-09	-3.000076e+01	-8.774153e+01
8.000000e-07	-4.295073e-06	-1.265985e-09	-2.979516e+01	-8.747611e+01
8.100000e-07	-4.265202e-06	-1.272178e-09	-2.958794e+01	-8.720213e+01
8.200000e-07	-4.235095e-06	-1.259937e-09	-2.937909e+01	-8.691987e+01
8.300000e-07	-4.204688e-06	-1.248167e-09	-2.916815e+01	-8.662970e+01
8.400000e-07	-4.174021e-06	-1.268380e-09	-2.895541e+01	-8.633206e+01
8.500000e-07	-4.143027e-06	-1.260657e-09	-2.874041e+01	-8.602748e+01
8.600000e-07	-4.111748e-06	-1.245267e-09	-2.852342e+01	-8.571652e+01
8.700000e-07	-4.080316e-06	-1.243454e-09	-2.830538e+01	-8.539979e+01
8.800000e-07	-4.048681e-06	-1.243897e-09	-2.808592e+01	-8.507790e+01
8.900000e-07	-4.016877e-06	-1.220086e-09	-2.786530e+01	-8.475148e+01
9.000000e-07	-3.984869e-06	-1.218387e-09	-2.764326e+01	-8.442113e+01
9.100000e-07	-3.952539e-06	-1.222306e-09	-2.741898e+01	-8.408746e+01
9.200000e-07	-3.919828e-06	-1.211585e-09	-2.719206e+01	-8.375098e+01
9.300000e-07	-3.886706e-06	-1.202683e-09	-2.696229e+01	-8.341220e+01
9.400000e-07	-3.853203e-06	-1.216035e-09	-2.672988e+01	-8.307154e+01
9.500000e-07	-3.819310e-06	-1.208863e-09	-2.649476e+01	-8.272934e+01
9.600000e-07	-3.784971e-06	-1.190456e-09	-2.625655e+01	-8.238588e+01
9.700000e-07	-3.750139e-06	-1.185692e-09	-2.601492e+01	-8.204135e+01
9.800000e-07	-3.714917e-06	-1.178099e-09	-2.577058e+01	-8.169584e+01
9.900000e-07	-3.679474e-06	-1.160914e-09	-2.552471e+01	-8.134937e+01
1.000000e-06	-3.643849e-06	-1.159396e-09	-2.527758e+01	-8.100188e+01
1.010000e-06	-3.608097e-06	-1.168295e-09	-2.502956e+01	-8.065322e+01
1.020000e-06	-3.572238e-06	-1.163402e-09	-2.478081e+01	-8.030317e+01
1.030000e-06	-3.536174e-06	-1.157443e-09	-2.453064e+01	-7.995145e+01
1.040000e-06	-3.499888e-06	-1.157287e-09	-2.427892e+01	-7.959773e+01
1.050000e-06	-3.463402e-06	-1.150281e-09	-2.402581e+01	-7.924164e+01
1.060000e-06	-3.426675e-06	-1.133924e-09	-2.377103e+01	-7.888275e+01
1.070000e-06	-3.389659e-06	-1.130255e-09	-2.351425e+01	-7.852064e+01
1.080000e-06	-3.352363e-06	-1.124955e-09	-2.325552e+01	-7.815487e+01
1.090000e-06	-3.314800e-06	-1.117250e-09	-2.299495e+01	-7.778502e+01
1.100000e-06	-3.276974e-06	-1.113053e-09	-2.273255e+01	-7.741065e+01
1.110000e-06	-3.238973e-06	-1.112844e-09	-2.246893e+01	-7.703139e+01
1.120000e-06	-3.200777e-06	-1.101065e-09	-2.220396e+01	-7.664687e+01
1.130000e-06	-3.162332e-06	-1.092549e-09	-2.193727e+01	-7.625678e+01
1.140000e-06	-3.123718e-06	-1.087540e-09	-2.166940e+01	-7.586085e+01
1.150000e-06	-3.084878e-06	-1.082398e-09	-2.139996e+01	-7.545888e+01
1.160000e-06	-3.045754e-06	-1.070120e-09	-2.112856e+01	-7.505072e+01
1.170000e-06	-3.006478e-06	-1.063644e-09	-2.085610e+01	-7.463626e+01
1.180000e-06	-2.967078e-06	-1.054406e-09	-2.058279e+01	-7.421548e+01
1.190000e-06	-2.927528e-06	-1.044433e-09	-2.030842e+01	-7.378840e+01
1.200000e-06	-2.887826e-06	-1.036549e-09	-2.003301e+01	-7.335507e+01
1.210000e-06	-2.847960e-06	-1.033014e-09	-1.975645e+01	-7.291562e+01
1.220000e-06	-2.807939e-06	-1.025495e-09	-1.947883e+01	-7.247020e+01
1.230000e-06	-2.767824e-06	-1.020292e-09	-1.920055e+01	-7.201899e+01
1.240000e-06	-2.727563e-06	-1.014650e-09	-1.892125e+01	-7.156218e+01
1.250000e-06	-2.687012e-06	-1.006114e-09	-1.863995e+01	-7.109999e+01
1.260000e-06	-2.646221e-06	-9.987924e-10	-1.835698e+01	-7.063262e+01
1.270000e-06	-2.605205e-06	-9.936699e-10	-1.807245e+01	-7.016027e+01
1.280000e-06	-2.563914e-06	-9.860731e-10	-1.778601e+01	-6.968312e+01
1.290000e-06	-2.522360e-06	-9.763660e-10	-1.749775e+01	-6.920131e+01
1.300000e-06	-2.480529e-06	-9.658742e-10	-1.720756e+01	-6.871494e+01
1.310000e-06	-2.438393e-06	-9.549085e-10	-1.691526e+01	-6.822408e+01
1.320000e-06	-2.395846e-06	-9.453362e-10	-1.662012e+01	-6.772873e+01
1.330000e-06	-2.352989e-06	-9.388841e-10	-1.632281e+01	-6.722883e+01
1.340000e-06	-2.310043e-06	-9.335755e-10	-1.602489e+01	-6.672428e+01
1.350000e-06	-2.266933e-06	-9.287105e-10	-1.572584e+01	-6.621488e+01
1.360000e-06	-2.223603e-06	-9.230442e-10	-1.542526e+01	-6.570041e+01
1.370000e-06	-2.180123e-06	-9.116919e-10	-1.512364e+01	-6.518055e+01
1.380000e-06	-2.136539e-06	-8.984448e-10	-1.482129e+01	-6.465494e+01
1.390000e-06	-2.092798e-06	-8.829915e-10	-1.451785e+01	-6.412316e+01
1.400000e-06	-2.048934e-06	-8.720338e-10	-1.421357e+01	-6.358474e+01
1.410000e-06	-2.005046e-06	-8.635820e-10	-1.390912e+01	-6.303917e+01
1.420000e-06	-1.961047e-06	-8.582341e-10	-1.360389e+01	-6.248590e+01
1.430000e-06	-1.916956e-06	-8.518615e-10	-1.329803e+01	-6.192437e+01
1.440000e-06	-1.872873e-06	-8.460572e-10	-1.299222e+01	-6.135398e+01
1.450000e-06	-1.828696e-06	-8.367304e-10	-1.268577e+01	-6.077412e+01
1.460000e-06	-1.784384e-06	-8.246681e-10	-1.237837e+01	-6.018422e+01
1.470000e-06	-1.739976e-06	-8.110260e-10	-1.207031e+01	-5.958366e+01
1.480000e-06	-1.695409e-06	-8.010493e-10	-1.176114e+01	-5.897188e+01
1.490000e-06	-1.650711e-06	-7.911713e-10	-1.145108e+01	-5.834831e+01
1.500000e-06	-1.605898e-06	-7.810455e-10	-1.114020e+01	-5.771244e+01
1.510000e-06	-1.560893e-06	-7.718207e-10	-1.082800e+01	-5.706375e+01
1.520000e-06	-1.515775e-06	-7.673823e-10	-1.051501e+01	-5.640178e+01
1.530000e-06	-1.470501e-06	-7.601607e-10	-1.020095e+01	-5.572609e+01
1.540000e-06	-1.424995e-06	-7.481974e-10	-9.885266e+00	-5.503628e+01
1.550000e-06	-1.379441e-06	-7.341751e-10	-9.569255e+00	-5.433198e+01
1.560000e-06	-1.333839e-06	-7.204236e-10	-9.252917e+00	-5.361284e+01
1.570000e-06	-1.288199e-06	-7.065536e-10	-8.936310e+00	-5.287852e+01
1.580000e-06	-1.242568e-06	-6.946929e-10	-8.619766e+00	-5.212870e+01
1.590000e-06	-1.196840e-06	-6.842559e-10	-8.302545e+00	-5.136307e+01
1.600000e-06	-1.150960e-06	-6.769665e-10	-7.984270e+00	-5.058132e+01
1.610000e-06	-1.104952e-06	-6.705739e-10	-7.665113e+00	-4.978310e+01
1.620000e-06	-1.058886e-06	-6.605250e-10	-7.345549e+00	-4.896806e+01
1.630000e-06	-1.012771e-06	-6.496513e-10	-7.025651e+00	-4.813581e+01
1.640000e-06	-9.665782e-07	-6.370926e-10	-6.705206e+00	-4.728591e+01
1.650000e-06	-9.202673e-07	-6.230019e-10	-6.383945e+00	-4.641787e+01
1.660000e-06	-8.738533e-07	-6.101897e-10	-6.061968e+00	-4.553116e+01
1.670000e-06	-8.274566e-07	-5.988329e-10	-5.740112e+00	-4.462517e+01
1.680000e-06	-7.810578e-07	-5.868929e-10	-5.418241e+00	-4.369921e+01
1.690000e-06	-7.345288e-07	-5.736655e-10	-5.095466e+00	-4.275254e+01
1.700000e-06	-6.879306e-07	-5.563706e-10	-4.772212e+00	-4.178434e+01
1.710000e-06	-6.413330e-07	-5.359374e-10	-4.448962e+00	-4.079371e+01
1.720000e-06	-5.947187e-07	-5.154808e-10	-4.125596e+00	-3.977969e+01
1.730000e-06	-5.480657e-07	-5.011289e-10	-3.801962e+00	-3.874127e+01
1.740000e-06	-5.013163e-07	-4.878997e-10	-3.477659e+00	-3.767738e+01
1.750000e-06	-4.544859e-07	-4.748009e-10	-3.152794e+00	-3.658691e+01
1.760000e-06	-4.076735e-07	-4.606791e-10	-2.828054e+00	-3.546874e+01
1.770000e-06	-3.608178e-07	-4.440850e-10	-2.503013e+00	-3.432172e+01
1.780000e-06	-3.139281e-07	-4.252055e-10	-2.177736e+00	-3.314471e+01
1.790000e-06	-2.670833e-07	-4.041345e-10	-1.852772e+00	-3.193662e+01
1.800000e-06	-2.202432e-07	-3.828265e-10	-1.527839e+00	-3.069638e+01
1.810000e-06	-1.734353e-07	-3.638179e-10	-1.203130e+00	-2.942300e+01
1.820000e-06	-1.266097e-07	-3.469823e-10	-8.782987e-01	-2.811559e+01
1.830000e-06	-7.969927e-08	-3.340732e-10	-5.528782e-01	-2.677336e+01
1.840000e-06	-3.280500e-08	-3.189211e-10	-2.275701e-01	-2.539565e+01
1.850000e-06	1.410560e-08	-2.996564e-10	9.785130e-02	-2.398197e+01
1.860000e-06	6.104202e-08	-2.755473e-10	4.234518e-01	-2.253197e+01
1.870000e-06	1.079021e-07	-2.483191e-10	7.485225e-01	-2.104552e+01
1.880000e-06	1.548100e-07	-2.232307e-10	1.073925e+00	-1.952267e+01
1.890000e-06	2.017819e-07	-2.016411e-10	1.399772e+00	-1.796372e+01
1.900000e-06	2.488055e-07	-1.821097e-10	1.725977e+00	-1.636915e+01
1.910000e-06	2.958356e-07	-1.625408e-10	2.052228e+00	-1.473972e+01
1.920000e-06	3.427969e-07	-1.438131e-10	2.378001e+00	-1.307639e+01
1.930000e-06	3.896294e-07	-1.240983e-10	2.702881e+00	-1.138038e+01
1.940000e-06	4.363544e-07	-9.928962e-11	3.027015e+00	-9.653126e+00
1.950000e-06	4.830773e-07	-7.113828e-11	3.351134e+00	-7.896315e+00
1.960000e-06	5.297520e-07	-4.376140e-11	3.674918e+00	-6.111839e+00
1.970000e-06	5.763218e-07	-2.045411e-11	3.997976e+00	-4.301798e+00
1.980000e-06	6.228322e-07	6.919566e-13	4.320621e+00	-2.468484e+00
1.990000e-06	6.693640e-07	2.234064e-11	4.643415e+00	-6.143626e-01
2.000000e-06	7.158905e-07	4.882431e-11	4.966172e+00	1.257951e+00
2.010000e-06	7.623575e-07	8.098905e-11	5.288515e+00	3.145712e+00
2.020000e-06	8.087593e-07	1.138654e-10	5.610408e+00	5.046068e+00
2.030000e-06	8.551394e-07	1.428659e-10	5.932149e+00	6.956091e+00
2.040000e-06	9.014815e-07	1.664948e-10	6.253627e+00	8.872797e+00
2.050000e-06	9.476785e-07	1.865875e-10	6.574098e+00	1.079318e+01
2.060000e-06	9.937466e-07	2.064811e-10	6.893674e+00	1.271423e+01
2.070000e-06	1.039811e-06	2.301365e-10	7.213225e+00	1.463296e+01
2.080000e-06	1.085809e-06	2.582179e-10	7.532320e+00	1.654644e+01
2.090000e-06	1.131750e-06	2.903492e-10	7.851013e+00	1.845182e+01
2.100000e-06	1.177662e-06	3.212742e-10	8.169504e+00	2.034634e+01
2.110000e-06	1.223438e-06	3.486822e-10	8.487053e+00	2.222735e+01
2.120000e-06	1.269154e-06	3.730828e-10	8.804192e+00	2.409235e+01
2.130000e-06	1.314851e-06	3.939271e-10	9.121191e+00	2.593898e+01
2.140000e-06	1.360432e-06	4.120645e-10	9.437395e+00	2.776505e+01
2.150000e-06	1.405857e-06	4.335019e-10	9.752509e+00	2.956853e+01
2.160000e-06	1.451131e-06	4.610354e-10	1.006658e+01	3.134757e+01
2.170000e-06	1.496285e-06	4.913150e-10	1.037981e+01	3.310053e+01
2.180000e-06	1.541334e-06	5.178534e-10	1.069232e+01	3.482591e+01
2.190000e-06	1.586230e-06	5.418266e-10	1.100376e+01	3.652242e+01
2.200000e-06	1.630995e-06	5.645278e-10	1.131430e+01	3.818896e+01
2.210000e-06	1.675667e-06	5.851839e-10	1.162420e+01	3.982459e+01
2.220000e-06	1.720235e-06	6.010811e-10	1.193337e+01	4.142853e+01
2.230000e-06	1.764642e-06	6.154614e-10	1.224142e+01	4.300016e+01
2.240000e-06	1.808901e-06	6.327741e-10	1.254844e+01	4.453903e+01
2.250000e-06	1.853095e-06	6.525628e-10	1.285502e+01	4.604479e+01
2.260000e-06	1.897196e-06	6.752783e-10	1.316095e+01	4.751724e+01
2.270000e-06	1.941199e-06	6.991737e-10	1.346621e+01	4.895629e+01
2.280000e-06	1.985164e-06	7.212312e-10	1.377119e+01	5.036193e+01
2.290000e-06	2.029105e-06	7.400977e-10	1.407601e+01	5.173426e+01
2.300000e-06	2.073010e-06	7.555462e-10	1.438058e+01	5.307342e+01
2.310000e-06	2.116821e-06	7.691629e-10	1.468450e+01	5.437965e+01
2.320000e-06	2.160446e-06	7.839867e-10	1.498713e+01	5.565322e+01
2.330000e-06	2.203937e-06	8.011895e-10	1.528883e+01	5.689446e+01
2.340000e-06	2.247355e-06	8.183044e-10	1.559002e+01	5.810372e+01
2.350000e-06	2.290652e-06	8.349108e-10	1.589038e+01	5.928138e+01
2.360000e-06	2.333747e-06	8.513540e-10	1.618933e+01	6.042786e+01
2.370000e-06	2.376561e-06	8.639998e-10	1.648633e+01	6.154358e+01
2.380000e-06	2.419135e-06	8.748948e-10	1.678167e+01	6.262899e+01
2.390000e-06	2.461427e-06	8.867253e-10	1.707505e+01	6.368456e+01
2.400000e-06	2.503397e-06	9.002301e-10	1.736620e+01	6.471076e+01
2.410000e-06	2.545048e-06	9.151785e-10	1.765514e+01	6.570809e+01
2.420000e-06	2.586318e-06	9.314060e-10	1.794143e+01	6.667705e+01
2.430000e-06	2.627288e-06	9.467025e-10	1.822564e+01	6.761816e+01
2.440000e-06	2.668011e-06	9.590791e-10	1.850814e+01	6.853198e+01
2.450000e-06	2.708514e-06	9.695412e-10	1.878911e+01	6.941907e+01
2.460000e-06	2.748816e-06	9.789414e-10	1.906868e+01	7.028002e+01
2.470000e-06	2.788940e-06	9.878967e-10	1.934703e+01	7.111544e+01
2.480000e-06	2.828943e-06	9.985461e-10	1.962453e+01	7.192598e+01
2.490000e-06	2.868843e-06	1.012115e-09	1.990132e+01	7.271230e+01
2.500000e-06	2.908640e-06	1.028150e-09	2.017740e+01	7.347508e+01
2.510000e-06	2.948284e-06	1.042234e-09	2.045241e+01	7.421505e+01
2.520000e-06	2.987709e-06	1.051770e-09	2.072590e+01	7.493296e+01
2.530000e-06	3.026902e-06	1.058307e-09	2.099779e+01	7.562954e+01
2.540000e-06	3.065875e-06	1.064539e-09	2.126814e+01	7.630560e+01
2.550000e-06	3.104638e-06	1.070935e-09	2.153704e+01	7.696191e+01
2.560000e-06	3.143192e-06	1.078951e-09	2.180450e+01	7.759927e+01
2.570000e-06	3.181529e-06	1.089484e-09	2.207044e+01	7.821848e+01
2.580000e-06	3.219670e-06	1.100286e-09	2.233503e+01	7.882034e+01
2.590000e-06	3.257623e-06	1.109604e-09	2.259831e+01	7.940564e+01
2.600000e-06	3.295416e-06	1.117104e-09	2.286048e+01	7.997512e+01
2.610000e-06	3.332975e-06	1.124660e-09	2.312103e+01	8.052955e+01
2.620000e-06	3.370224e-06	1.132090e-09	2.337943e+01	8.106962e+01
2.630000e-06	3.407226e-06	1.139241e-09	2.363611e+01	8.159602e+01
2.640000e-06	3.443941e-06	1.146749e-09	2.389081e+01	8.210936e+01
2.650000e-06	3.480423e-06	1.154743e-09	2.414389e+01	8.261024e+01
2.660000e-06	3.516735e-06	1.163080e-09	2.439578e+01	8.309918e+01
2.670000e-06	3.552815e-06	1.171049e-09	2.464607e+01	8.357665e+01
2.680000e-06	3.588747e-06	1.177038e-09	2.489533e+01	8.404309e+01
2.690000e-06	3.624581e-06	1.182178e-09	2.514392e+01	8.449883e+01
2.700000e-06	3.660293e-06	1.190303e-09	2.539165e+01	8.494421e+01
2.710000e-06	3.695862e-06	1.199953e-09	2.563839e+01	8.537945e+01
2.720000e-06	3.731167e-06	1.209023e-09	2.588331e+01	8.580477e+01
2.730000e-06	3.766114e-06	1.217951e-09	2.612574e+01	8.622031e+01
2.740000e-06	3.800688e-06	1.224758e-09	2.636558e+01	8.662618e+01
2.750000e-06	3.834856e-06	1.229814e-09	2.660261e+01	8.702246e+01
2.760000e-06	3.868566e-06	1.235779e-09	2.683645e+01	8.740920e+01
2.770000e-06	3.901774e-06	1.242249e-09	2.706682e+01	8.778641e+01
2.780000e-06	3.934565e-06	1.248235e-09	2.729430e+01	8.815412e+01
2.790000e-06	3.966973e-06	1.255177e-09	2.751911e+01	8.851232e+01
2.800000e-06	3.999107e-06	1.262441e-09	2.774203e+01	8.886104e+01
2.810000e-06	4.031080e-06	1.268689e-09	2.796382e+01	8.920029e+01
2.820000e-06	4.062874e-06	1.273534e-09	2.818438e+01	8.953011e+01
2.830000e-06	4.094485e-06	1.278820e-09	2.840367e+01	8.985058e+01
2.840000e-06	4.125856e-06	1.283223e-09	2.862129e+01	9.016178e+01
2.850000e-06	4.157027e-06	1.286683e-09	2.883752e+01	9.046386e+01
2.860000e-06	4.187869e-06	1.291263e-09	2.905147e+01	9.075698e+01
2.870000e-06	4.218255e-06	1.296271e-09	2.926227e+01	9.104136e+01
2.880000e-06	4.248374e-06	1.300720e-09	2.947120e+01	9.131725e+01
2.890000e-06	4.278308e-06	1.304295e-09	2.967886e+01	9.158496e+01
2.900000e-06	4.308035e-06	1.310190e-09	2.988507e+01	9.184480e+01
