# Temperatura_=_-16.3
# Concentracion g/m^3_=_1620.0
# C_Vs_to_Am_M_A/Vsm_=_65563218390.804596
# pendiente_HvsI_1/m_=_3716.3
# ordenada_HvsI_A/m_=_1297.0
# frecuencia_Hz_=_135110.37899622635

Tiempo_(s)	Campo_(V.s)	Magnetizacion_(V.s)	Campo_(kA/m)	Magnetizacion_(A/m)
0.000000e+00	-5.524740e-06	-8.684548e-10	-3.836141e+01	-5.896542e+01
1.000000e-08	-5.524895e-06	-8.679445e-10	-3.836249e+01	-5.898046e+01
2.000000e-08	-5.524811e-06	-8.693196e-10	-3.836191e+01	-5.899548e+01
3.000000e-08	-5.524514e-06	-8.686956e-10	-3.835984e+01	-5.901015e+01
4.000000e-08	-5.523862e-06	-8.658384e-10	-3.835532e+01	-5.902412e+01
5.000000e-08	-5.522687e-06	-8.619050e-10	-3.834716e+01	-5.903706e+01
6.000000e-08	-5.520918e-06	-8.613160e-10	-3.833488e+01	-5.904861e+01
7.000000e-08	-5.518507e-06	-8.578481e-10	-3.831814e+01	-5.905844e+01
8.000000e-08	-5.515400e-06	-8.290353e-10	-3.829656e+01	-5.906622e+01
9.000000e-08	-5.511744e-06	-8.087149e-10	-3.827118e+01	-5.907162e+01
1.000000e-07	-5.507756e-06	-8.899274e-10	-3.824349e+01	-5.907434e+01
1.100000e-07	-5.503449e-06	-9.628035e-10	-3.821358e+01	-5.907410e+01
1.200000e-07	-5.498925e-06	-8.458595e-10	-3.818217e+01	-5.907062e+01
1.300000e-07	-5.494289e-06	-7.424243e-10	-3.814997e+01	-5.906368e+01
1.400000e-07	-5.489314e-06	-8.077817e-10	-3.811543e+01	-5.905305e+01
1.500000e-07	-5.483748e-06	-9.317058e-10	-3.807678e+01	-5.903855e+01
1.600000e-07	-5.477780e-06	-8.746916e-10	-3.803534e+01	-5.902006e+01
1.700000e-07	-5.471619e-06	-7.540949e-10	-3.799256e+01	-5.899745e+01
1.800000e-07	-5.465050e-06	-8.494452e-10	-3.794695e+01	-5.897066e+01
1.900000e-07	-5.457924e-06	-9.312440e-10	-3.789747e+01	-5.893967e+01
2.000000e-07	-5.450459e-06	-8.976564e-10	-3.784564e+01	-5.890450e+01
2.100000e-07	-5.442759e-06	-7.826575e-10	-3.779217e+01	-5.886521e+01
2.200000e-07	-5.434752e-06	-8.297034e-10	-3.773657e+01	-5.882191e+01
2.300000e-07	-5.426487e-06	-8.854910e-10	-3.767919e+01	-5.877476e+01
2.400000e-07	-5.417982e-06	-8.859516e-10	-3.762013e+01	-5.872395e+01
2.500000e-07	-5.409006e-06	-8.350039e-10	-3.755780e+01	-5.866973e+01
2.600000e-07	-5.399230e-06	-8.573380e-10	-3.748993e+01	-5.861238e+01
2.700000e-07	-5.388578e-06	-8.669825e-10	-3.741596e+01	-5.855222e+01
2.800000e-07	-5.377367e-06	-8.518098e-10	-3.733812e+01	-5.848962e+01
2.900000e-07	-5.365774e-06	-8.290357e-10	-3.725763e+01	-5.842495e+01
3.000000e-07	-5.353830e-06	-8.473575e-10	-3.717469e+01	-5.835864e+01
3.100000e-07	-5.341643e-06	-8.814067e-10	-3.709007e+01	-5.829112e+01
3.200000e-07	-5.329041e-06	-8.748653e-10	-3.700257e+01	-5.822285e+01
3.300000e-07	-5.315901e-06	-8.551742e-10	-3.691132e+01	-5.815429e+01
3.400000e-07	-5.302399e-06	-8.386716e-10	-3.681757e+01	-5.808589e+01
3.500000e-07	-5.288612e-06	-8.814587e-10	-3.672184e+01	-5.801814e+01
3.600000e-07	-5.274333e-06	-8.495418e-10	-3.662269e+01	-5.795149e+01
3.700000e-07	-5.259485e-06	-8.213510e-10	-3.651960e+01	-5.788637e+01
3.800000e-07	-5.244231e-06	-8.557352e-10	-3.641368e+01	-5.782320e+01
3.900000e-07	-5.228513e-06	-8.977450e-10	-3.630454e+01	-5.776236e+01
4.000000e-07	-5.212155e-06	-8.070897e-10	-3.619096e+01	-5.770422e+01
4.100000e-07	-5.195337e-06	-8.144027e-10	-3.607418e+01	-5.764908e+01
4.200000e-07	-5.178299e-06	-9.019226e-10	-3.595588e+01	-5.759721e+01
4.300000e-07	-5.160960e-06	-8.612454e-10	-3.583548e+01	-5.754882e+01
4.400000e-07	-5.143270e-06	-7.637541e-10	-3.571265e+01	-5.750408e+01
4.500000e-07	-5.125391e-06	-8.730369e-10	-3.558851e+01	-5.746311e+01
4.600000e-07	-5.107096e-06	-9.083843e-10	-3.546147e+01	-5.742594e+01
4.700000e-07	-5.088203e-06	-7.767737e-10	-3.533029e+01	-5.739258e+01
4.800000e-07	-5.068940e-06	-7.828831e-10	-3.519654e+01	-5.736296e+01
4.900000e-07	-5.049473e-06	-9.119334e-10	-3.506137e+01	-5.733696e+01
5.000000e-07	-5.029772e-06	-8.341894e-10	-3.492457e+01	-5.731441e+01
5.100000e-07	-5.009821e-06	-7.843066e-10	-3.478603e+01	-5.729508e+01
5.200000e-07	-4.989631e-06	-8.934484e-10	-3.464585e+01	-5.727871e+01
5.300000e-07	-4.969120e-06	-8.745767e-10	-3.450342e+01	-5.726499e+01
5.400000e-07	-4.948141e-06	-7.650728e-10	-3.435776e+01	-5.725357e+01
5.500000e-07	-4.926763e-06	-8.469711e-10	-3.420932e+01	-5.724407e+01
5.600000e-07	-4.905169e-06	-8.877256e-10	-3.405938e+01	-5.723612e+01
5.700000e-07	-4.883249e-06	-7.755297e-10	-3.390718e+01	-5.722929e+01
5.800000e-07	-4.860953e-06	-7.991093e-10	-3.375236e+01	-5.722318e+01
5.900000e-07	-4.838377e-06	-8.912431e-10	-3.359561e+01	-5.721738e+01
6.000000e-07	-4.815410e-06	-8.253102e-10	-3.343613e+01	-5.721148e+01
6.100000e-07	-4.792070e-06	-7.894977e-10	-3.327407e+01	-5.720510e+01
6.200000e-07	-4.768518e-06	-8.668472e-10	-3.311053e+01	-5.719790e+01
6.300000e-07	-4.744750e-06	-8.382737e-10	-3.294550e+01	-5.718953e+01
6.400000e-07	-4.720765e-06	-7.867619e-10	-3.277896e+01	-5.717971e+01
6.500000e-07	-4.696493e-06	-8.354964e-10	-3.261042e+01	-5.716819e+01
6.600000e-07	-4.671770e-06	-8.503194e-10	-3.243876e+01	-5.715477e+01
6.700000e-07	-4.646573e-06	-8.015923e-10	-3.226380e+01	-5.713931e+01
6.800000e-07	-4.620947e-06	-8.341906e-10	-3.208587e+01	-5.712169e+01
6.900000e-07	-4.594743e-06	-8.564866e-10	-3.190392e+01	-5.710187e+01
7.000000e-07	-4.567939e-06	-8.249006e-10	-3.171780e+01	-5.707986e+01
7.100000e-07	-4.540705e-06	-8.204157e-10	-3.152870e+01	-5.705571e+01
7.200000e-07	-4.513159e-06	-8.448800e-10	-3.133743e+01	-5.702952e+01
7.300000e-07	-4.485419e-06	-8.190254e-10	-3.114482e+01	-5.700145e+01
7.400000e-07	-4.457575e-06	-8.179480e-10	-3.095148e+01	-5.697168e+01
7.500000e-07	-4.429559e-06	-8.360860e-10	-3.075695e+01	-5.694043e+01
7.600000e-07	-4.401246e-06	-8.312014e-10	-3.056036e+01	-5.690796e+01
7.700000e-07	-4.372665e-06	-8.178909e-10	-3.036190e+01	-5.687454e+01
7.800000e-07	-4.343817e-06	-8.324962e-10	-3.016160e+01	-5.684044e+01
7.900000e-07	-4.314612e-06	-8.224471e-10	-2.995881e+01	-5.680598e+01
8.000000e-07	-4.285077e-06	-8.103426e-10	-2.975373e+01	-5.677142e+01
8.100000e-07	-4.255253e-06	-8.191432e-10	-2.954664e+01	-5.673707e+01
8.200000e-07	-4.225159e-06	-8.233660e-10	-2.933768e+01	-5.670317e+01
8.300000e-07	-4.194755e-06	-8.089857e-10	-2.912657e+01	-5.666998e+01
8.400000e-07	-4.163989e-06	-8.173964e-10	-2.891294e+01	-5.663769e+01
8.500000e-07	-4.132912e-06	-8.298154e-10	-2.869716e+01	-5.660649e+01
8.600000e-07	-4.101560e-06	-8.207229e-10	-2.847947e+01	-5.657649e+01
8.700000e-07	-4.070000e-06	-8.176554e-10	-2.826033e+01	-5.654779e+01
8.800000e-07	-4.038251e-06	-8.279710e-10	-2.803987e+01	-5.652043e+01
8.900000e-07	-4.006283e-06	-8.222272e-10	-2.781790e+01	-5.649437e+01
9.000000e-07	-3.974124e-06	-8.131765e-10	-2.759461e+01	-5.646956e+01
9.100000e-07	-3.941739e-06	-8.244820e-10	-2.736973e+01	-5.644587e+01
9.200000e-07	-3.909041e-06	-8.251304e-10	-2.714270e+01	-5.642314e+01
9.300000e-07	-3.875989e-06	-8.168953e-10	-2.691320e+01	-5.640114e+01
9.400000e-07	-3.842615e-06	-8.217602e-10	-2.668146e+01	-5.637961e+01
9.500000e-07	-3.808855e-06	-8.304890e-10	-2.644705e+01	-5.635826e+01
9.600000e-07	-3.774505e-06	-8.149411e-10	-2.620854e+01	-5.633674e+01
9.700000e-07	-3.739614e-06	-8.076171e-10	-2.596627e+01	-5.631471e+01
9.800000e-07	-3.704401e-06	-8.105451e-10	-2.572177e+01	-5.629176e+01
9.900000e-07	-3.668922e-06	-8.081446e-10	-2.547541e+01	-5.626751e+01
1.000000e-06	-3.633237e-06	-8.017047e-10	-2.522763e+01	-5.624156e+01
1.010000e-06	-3.597425e-06	-8.115765e-10	-2.497897e+01	-5.621352e+01
1.020000e-06	-3.561492e-06	-8.130183e-10	-2.472946e+01	-5.618298e+01
1.030000e-06	-3.525426e-06	-8.064197e-10	-2.447904e+01	-5.614959e+01
1.040000e-06	-3.489178e-06	-8.044720e-10	-2.422735e+01	-5.611299e+01
1.050000e-06	-3.452635e-06	-8.095308e-10	-2.397361e+01	-5.607286e+01
1.060000e-06	-3.415824e-06	-8.019873e-10	-2.371801e+01	-5.602893e+01
1.070000e-06	-3.378817e-06	-7.988466e-10	-2.346105e+01	-5.598096e+01
1.080000e-06	-3.341555e-06	-8.029852e-10	-2.320232e+01	-5.592873e+01
1.090000e-06	-3.304013e-06	-8.056723e-10	-2.294164e+01	-5.587211e+01
1.100000e-06	-3.266199e-06	-8.038605e-10	-2.267908e+01	-5.581098e+01
1.110000e-06	-3.228206e-06	-8.063951e-10	-2.241527e+01	-5.574530e+01
1.120000e-06	-3.190051e-06	-8.041909e-10	-2.215034e+01	-5.567503e+01
1.130000e-06	-3.151673e-06	-7.981411e-10	-2.188386e+01	-5.560023e+01
1.140000e-06	-3.113156e-06	-7.980278e-10	-2.161641e+01	-5.552096e+01
1.150000e-06	-3.074381e-06	-8.019693e-10	-2.134718e+01	-5.543733e+01
1.160000e-06	-3.035289e-06	-7.989153e-10	-2.107574e+01	-5.534948e+01
1.170000e-06	-2.996025e-06	-7.927574e-10	-2.080311e+01	-5.525759e+01
1.180000e-06	-2.956579e-06	-7.916140e-10	-2.052921e+01	-5.516183e+01
1.190000e-06	-2.916942e-06	-7.901730e-10	-2.025398e+01	-5.506242e+01
1.200000e-06	-2.877171e-06	-7.880361e-10	-1.997784e+01	-5.495955e+01
1.210000e-06	-2.837299e-06	-7.882008e-10	-1.970098e+01	-5.485343e+01
1.220000e-06	-2.797332e-06	-7.885533e-10	-1.942346e+01	-5.474425e+01
1.230000e-06	-2.757254e-06	-7.845060e-10	-1.914518e+01	-5.463220e+01
1.240000e-06	-2.717020e-06	-7.830267e-10	-1.886582e+01	-5.451742e+01
1.250000e-06	-2.676576e-06	-7.821596e-10	-1.858499e+01	-5.440005e+01
1.260000e-06	-2.635840e-06	-7.810952e-10	-1.830213e+01	-5.428019e+01
1.270000e-06	-2.594805e-06	-7.778278e-10	-1.801721e+01	-5.415787e+01
1.280000e-06	-2.553513e-06	-7.778357e-10	-1.773050e+01	-5.403313e+01
1.290000e-06	-2.511960e-06	-7.754417e-10	-1.744196e+01	-5.390593e+01
1.300000e-06	-2.470080e-06	-7.727854e-10	-1.715117e+01	-5.377620e+01
1.310000e-06	-2.427855e-06	-7.691017e-10	-1.685798e+01	-5.364381e+01
1.320000e-06	-2.385370e-06	-7.702999e-10	-1.656298e+01	-5.350860e+01
1.330000e-06	-2.342622e-06	-7.690111e-10	-1.626616e+01	-5.337036e+01
1.340000e-06	-2.299640e-06	-7.687881e-10	-1.596771e+01	-5.322883e+01
1.350000e-06	-2.256444e-06	-7.677413e-10	-1.566778e+01	-5.308374e+01
1.360000e-06	-2.213078e-06	-7.640539e-10	-1.536666e+01	-5.293476e+01
1.370000e-06	-2.169597e-06	-7.563523e-10	-1.506475e+01	-5.278153e+01
1.380000e-06	-2.126009e-06	-7.507988e-10	-1.476209e+01	-5.262370e+01
1.390000e-06	-2.082299e-06	-7.498019e-10	-1.445859e+01	-5.246087e+01
1.400000e-06	-2.038467e-06	-7.517933e-10	-1.415424e+01	-5.229265e+01
1.410000e-06	-1.994581e-06	-7.532304e-10	-1.384951e+01	-5.211862e+01
1.420000e-06	-1.950626e-06	-7.530167e-10	-1.354431e+01	-5.193840e+01
1.430000e-06	-1.906590e-06	-7.492336e-10	-1.323854e+01	-5.175157e+01
1.440000e-06	-1.862473e-06	-7.446533e-10	-1.293221e+01	-5.155775e+01
1.450000e-06	-1.818234e-06	-7.391758e-10	-1.262504e+01	-5.135657e+01
1.460000e-06	-1.773817e-06	-7.310848e-10	-1.231662e+01	-5.114768e+01
1.470000e-06	-1.729299e-06	-7.253711e-10	-1.200750e+01	-5.093072e+01
1.480000e-06	-1.684682e-06	-7.209777e-10	-1.169771e+01	-5.070539e+01
1.490000e-06	-1.639908e-06	-7.214822e-10	-1.138682e+01	-5.047139e+01
1.500000e-06	-1.595035e-06	-7.198457e-10	-1.107524e+01	-5.022844e+01
1.510000e-06	-1.550102e-06	-7.172676e-10	-1.076324e+01	-4.997627e+01
1.520000e-06	-1.505064e-06	-7.124862e-10	-1.045052e+01	-4.971464e+01
1.530000e-06	-1.459817e-06	-7.072445e-10	-1.013634e+01	-4.944330e+01
1.540000e-06	-1.414423e-06	-7.020691e-10	-9.821147e+00	-4.916200e+01
1.550000e-06	-1.369003e-06	-6.971764e-10	-9.505767e+00	-4.887051e+01
1.560000e-06	-1.323482e-06	-6.946773e-10	-9.189690e+00	-4.856857e+01
1.570000e-06	-1.277870e-06	-6.917111e-10	-8.872975e+00	-4.825591e+01
1.580000e-06	-1.232269e-06	-6.868727e-10	-8.556344e+00	-4.793222e+01
1.590000e-06	-1.186623e-06	-6.820762e-10	-8.239401e+00	-4.759717e+01
1.600000e-06	-1.140823e-06	-6.744516e-10	-7.921384e+00	-4.725038e+01
1.610000e-06	-1.094826e-06	-6.662386e-10	-7.602002e+00	-4.689143e+01
1.620000e-06	-1.048736e-06	-6.576951e-10	-7.281974e+00	-4.651984e+01
1.630000e-06	-1.002604e-06	-6.532183e-10	-6.961647e+00	-4.613505e+01
1.640000e-06	-9.564513e-07	-6.506455e-10	-6.641186e+00	-4.573646e+01
1.650000e-06	-9.102582e-07	-6.474516e-10	-6.320440e+00	-4.532339e+01
1.660000e-06	-8.639626e-07	-6.391471e-10	-5.998984e+00	-4.489507e+01
1.670000e-06	-8.176320e-07	-6.251937e-10	-5.677284e+00	-4.445068e+01
1.680000e-06	-7.712691e-07	-6.100663e-10	-5.355360e+00	-4.398931e+01
1.690000e-06	-7.248392e-07	-5.976365e-10	-5.032971e+00	-4.350998e+01
1.700000e-06	-6.783849e-07	-5.914968e-10	-4.710412e+00	-4.301165e+01
1.710000e-06	-6.318906e-07	-5.889921e-10	-4.387576e+00	-4.249322e+01
1.720000e-06	-5.853269e-07	-5.875362e-10	-4.064258e+00	-4.195353e+01
1.730000e-06	-5.387449e-07	-5.828491e-10	-3.740813e+00	-4.139137e+01
1.740000e-06	-4.920868e-07	-5.711471e-10	-3.416838e+00	-4.080550e+01
1.750000e-06	-4.453738e-07	-5.546143e-10	-3.092483e+00	-4.019468e+01
1.760000e-06	-3.986453e-07	-5.375976e-10	-2.768021e+00	-3.955763e+01
1.770000e-06	-3.518528e-07	-5.228982e-10	-2.443115e+00	-3.889310e+01
1.780000e-06	-3.050704e-07	-5.131416e-10	-2.118278e+00	-3.819987e+01
1.790000e-06	-2.583462e-07	-5.059132e-10	-1.793845e+00	-3.747673e+01
1.800000e-06	-2.115074e-07	-5.010962e-10	-1.468616e+00	-3.672256e+01
1.810000e-06	-1.645214e-07	-4.937682e-10	-1.142366e+00	-3.593629e+01
1.820000e-06	-1.175599e-07	-4.821154e-10	-8.162854e-01	-3.511696e+01
1.830000e-06	-7.069372e-08	-4.667196e-10	-4.908667e-01	-3.426370e+01
1.840000e-06	-2.381958e-08	-4.498381e-10	-1.653929e-01	-3.337577e+01
1.850000e-06	2.312168e-08	-4.329709e-10	1.605470e-01	-3.245256e+01
1.860000e-06	6.999799e-08	-4.165085e-10	4.860359e-01	-3.149363e+01
1.870000e-06	1.168091e-07	-4.008578e-10	8.110718e-01	-3.049868e+01
1.880000e-06	1.635383e-07	-3.878847e-10	1.135540e+00	-2.946759e+01
1.890000e-06	2.102014e-07	-3.763347e-10	1.459548e+00	-2.840041e+01
1.900000e-06	2.569425e-07	-3.639500e-10	1.784098e+00	-2.729738e+01
1.910000e-06	3.037740e-07	-3.499423e-10	2.109276e+00	-2.615895e+01
1.920000e-06	3.505846e-07	-3.332987e-10	2.434308e+00	-2.498573e+01
1.930000e-06	3.974326e-07	-3.133991e-10	2.759601e+00	-2.377853e+01
1.940000e-06	4.442571e-07	-2.918491e-10	3.084730e+00	-2.253836e+01
1.950000e-06	4.909146e-07	-2.699256e-10	3.408699e+00	-2.126640e+01
1.960000e-06	5.374853e-07	-2.511815e-10	3.732066e+00	-1.996400e+01
1.970000e-06	5.839962e-07	-2.381728e-10	4.055018e+00	-1.863269e+01
1.980000e-06	6.305325e-07	-2.269442e-10	4.378146e+00	-1.727414e+01
1.990000e-06	6.770187e-07	-2.113261e-10	4.700926e+00	-1.589018e+01
2.000000e-06	7.233774e-07	-1.889641e-10	5.022821e+00	-1.448276e+01
2.010000e-06	7.697052e-07	-1.621940e-10	5.344501e+00	-1.305393e+01
2.020000e-06	8.160096e-07	-1.351499e-10	5.666019e+00	-1.160587e+01
2.030000e-06	8.622749e-07	-1.122697e-10	5.987266e+00	-1.014080e+01
2.040000e-06	9.084881e-07	-9.451637e-11	6.308150e+00	-8.661030e+00
2.050000e-06	9.546838e-07	-7.873953e-11	6.628913e+00	-7.168910e+00
2.060000e-06	1.000771e-06	-5.973291e-11	6.948921e+00	-5.666813e+00
2.070000e-06	1.046740e-06	-3.808714e-11	7.268111e+00	-4.157125e+00
2.080000e-06	1.092689e-06	-1.450111e-11	7.587159e+00	-2.642227e+00
2.090000e-06	1.138582e-06	1.142585e-11	7.905822e+00	-1.124478e+00
2.100000e-06	1.184405e-06	3.674627e-11	8.223997e+00	3.938012e-01
2.110000e-06	1.230137e-06	5.851164e-11	8.541540e+00	1.910337e+00
2.120000e-06	1.275790e-06	7.874867e-11	8.858537e+00	3.422921e+00
2.130000e-06	1.321332e-06	9.705756e-11	9.174758e+00	4.929418e+00
2.140000e-06	1.366789e-06	1.136744e-10	9.490395e+00	6.427774e+00
2.150000e-06	1.412167e-06	1.323847e-10	9.805476e+00	7.916029e+00
2.160000e-06	1.457415e-06	1.551525e-10	1.011966e+01	9.392320e+00
2.170000e-06	1.502604e-06	1.794130e-10	1.043343e+01	1.085489e+01
2.180000e-06	1.547667e-06	2.024585e-10	1.074633e+01	1.230208e+01
2.190000e-06	1.592512e-06	2.242537e-10	1.105771e+01	1.373234e+01
2.200000e-06	1.637199e-06	2.443895e-10	1.136800e+01	1.514425e+01
2.210000e-06	1.681861e-06	2.596530e-10	1.167811e+01	1.653649e+01
2.220000e-06	1.726481e-06	2.717495e-10	1.198794e+01	1.790782e+01
2.230000e-06	1.770930e-06	2.858135e-10	1.229658e+01	1.925714e+01
2.240000e-06	1.815221e-06	3.024175e-10	1.260411e+01	2.058345e+01
2.250000e-06	1.859398e-06	3.214626e-10	1.291086e+01	2.188584e+01
2.260000e-06	1.903448e-06	3.412742e-10	1.321672e+01	2.316349e+01
2.270000e-06	1.947396e-06	3.606914e-10	1.352188e+01	2.441569e+01
2.280000e-06	1.991305e-06	3.773051e-10	1.382677e+01	2.564179e+01
2.290000e-06	2.035172e-06	3.923516e-10	1.413136e+01	2.684125e+01
2.300000e-06	2.078951e-06	4.076446e-10	1.443534e+01	2.801359e+01
2.310000e-06	2.122649e-06	4.220381e-10	1.473876e+01	2.915840e+01
2.320000e-06	2.166256e-06	4.375769e-10	1.504155e+01	3.027536e+01
2.330000e-06	2.209782e-06	4.526291e-10	1.534378e+01	3.136419e+01
2.340000e-06	2.253270e-06	4.655541e-10	1.564574e+01	3.242468e+01
2.350000e-06	2.296530e-06	4.784433e-10	1.594612e+01	3.345669e+01
2.360000e-06	2.339447e-06	4.920486e-10	1.624411e+01	3.446012e+01
2.370000e-06	2.382113e-06	5.054873e-10	1.654036e+01	3.543494e+01
2.380000e-06	2.424513e-06	5.198596e-10	1.683477e+01	3.638117e+01
2.390000e-06	2.466608e-06	5.346398e-10	1.712706e+01	3.729886e+01
2.400000e-06	2.508338e-06	5.492583e-10	1.741682e+01	3.818814e+01
2.410000e-06	2.549749e-06	5.612323e-10	1.770436e+01	3.904917e+01
2.420000e-06	2.590926e-06	5.705372e-10	1.799027e+01	3.988217e+01
2.430000e-06	2.631875e-06	5.788928e-10	1.827461e+01	4.068739e+01
2.440000e-06	2.672626e-06	5.866386e-10	1.855756e+01	4.146516e+01
2.450000e-06	2.713129e-06	5.956873e-10	1.883880e+01	4.221583e+01
2.460000e-06	2.753408e-06	6.059478e-10	1.911848e+01	4.293980e+01
2.470000e-06	2.793557e-06	6.181102e-10	1.939726e+01	4.363752e+01
2.480000e-06	2.833514e-06	6.313542e-10	1.967470e+01	4.430948e+01
2.490000e-06	2.873329e-06	6.456347e-10	1.995116e+01	4.495622e+01
2.500000e-06	2.913083e-06	6.576537e-10	2.022719e+01	4.557830e+01
2.510000e-06	2.952707e-06	6.662239e-10	2.050232e+01	4.617634e+01
2.520000e-06	2.992152e-06	6.715593e-10	2.077621e+01	4.675098e+01
2.530000e-06	3.031389e-06	6.738893e-10	2.104866e+01	4.730288e+01
2.540000e-06	3.070366e-06	6.762961e-10	2.131930e+01	4.783276e+01
2.550000e-06	3.109140e-06	6.812870e-10	2.158853e+01	4.834131e+01
2.560000e-06	3.147651e-06	6.889349e-10	2.185593e+01	4.882929e+01
2.570000e-06	3.185889e-06	6.976184e-10	2.212144e+01	4.929742e+01
2.580000e-06	3.224029e-06	7.075737e-10	2.238627e+01	4.974647e+01
2.590000e-06	3.262012e-06	7.179904e-10	2.265001e+01	5.017719e+01
2.600000e-06	3.299716e-06	7.253585e-10	2.291181e+01	5.059032e+01
2.610000e-06	3.337166e-06	7.279424e-10	2.317184e+01	5.098661e+01
2.620000e-06	3.374458e-06	7.264462e-10	2.343078e+01	5.136677e+01
2.630000e-06	3.411568e-06	7.264142e-10	2.368846e+01	5.173152e+01
2.640000e-06	3.448358e-06	7.306036e-10	2.394391e+01	5.208152e+01
2.650000e-06	3.484804e-06	7.385530e-10	2.419698e+01	5.241743e+01
2.660000e-06	3.521035e-06	7.469489e-10	2.444855e+01	5.273988e+01
2.670000e-06	3.557110e-06	7.525029e-10	2.469904e+01	5.304945e+01
2.680000e-06	3.593037e-06	7.562284e-10	2.494850e+01	5.334668e+01
2.690000e-06	3.628820e-06	7.587254e-10	2.519696e+01	5.363210e+01
2.700000e-06	3.664431e-06	7.602719e-10	2.544423e+01	5.390617e+01
2.710000e-06	3.699854e-06	7.609349e-10	2.569019e+01	5.416933e+01
2.720000e-06	3.735047e-06	7.638723e-10	2.593455e+01	5.442199e+01
2.730000e-06	3.769942e-06	7.694169e-10	2.617685e+01	5.466450e+01
2.740000e-06	3.804485e-06	7.750686e-10	2.641670e+01	5.489720e+01
2.750000e-06	3.838572e-06	7.806091e-10	2.665339e+01	5.512038e+01
2.760000e-06	3.872069e-06	7.851880e-10	2.688598e+01	5.533432e+01
2.770000e-06	3.905001e-06	7.876748e-10	2.711464e+01	5.553927e+01
2.780000e-06	3.937597e-06	7.907296e-10	2.734098e+01	5.573545e+01
2.790000e-06	3.970025e-06	7.950996e-10	2.756614e+01	5.592308e+01
2.800000e-06	4.002208e-06	7.995947e-10	2.778961e+01	5.610236e+01
2.810000e-06	4.034107e-06	8.027267e-10	2.801110e+01	5.627349e+01
2.820000e-06	4.065837e-06	8.043740e-10	2.823142e+01	5.643666e+01
2.830000e-06	4.097460e-06	8.048114e-10	2.845100e+01	5.659208e+01
2.840000e-06	4.128874e-06	8.053264e-10	2.866912e+01	5.673993e+01
2.850000e-06	4.160030e-06	8.069463e-10	2.888545e+01	5.688045e+01
2.860000e-06	4.190847e-06	8.089614e-10	2.909944e+01	5.701385e+01
2.870000e-06	4.221249e-06	8.117079e-10	2.931053e+01	5.714037e+01
2.880000e-06	4.251355e-06	8.150407e-10	2.951958e+01	5.726027e+01
2.890000e-06	4.281198e-06	8.182964e-10	2.972679e+01	5.737382e+01
2.900000e-06	4.310764e-06	8.217765e-10	2.993209e+01	5.748132e+01
