# Temperatura_=_5.52
# Concentracion g/m^3_=_1620.0
# C_Vs_to_Am_M_A/Vsm_=_65563218390.804596
# pendiente_HvsI_1/m_=_3716.3
# ordenada_HvsI_A/m_=_1297.0
# frecuencia_Hz_=_135107.50109392

Tiempo_(s)	Campo_(V.s)	Magnetizacion_(V.s)	Campo_(kA/m)	Magnetizacion_(A/m)
0.000000e+00	-5.508485e-06	-1.276446e-09	-3.836887e+01	-8.465887e+01
1.000000e-08	-5.508587e-06	-1.274741e-09	-3.836958e+01	-8.463537e+01
2.000000e-08	-5.508397e-06	-1.272728e-09	-3.836826e+01	-8.461260e+01
3.000000e-08	-5.507781e-06	-1.270537e-09	-3.836397e+01	-8.459084e+01
4.000000e-08	-5.506679e-06	-1.268011e-09	-3.835629e+01	-8.457029e+01
5.000000e-08	-5.505059e-06	-1.262538e-09	-3.834501e+01	-8.455113e+01
6.000000e-08	-5.502848e-06	-1.258650e-09	-3.832961e+01	-8.453350e+01
7.000000e-08	-5.500033e-06	-1.265979e-09	-3.831000e+01	-8.451748e+01
8.000000e-08	-5.496681e-06	-1.277261e-09	-3.828666e+01	-8.450308e+01
9.000000e-08	-5.492839e-06	-1.272403e-09	-3.825989e+01	-8.449024e+01
1.000000e-07	-5.488641e-06	-1.265454e-09	-3.823065e+01	-8.447883e+01
1.100000e-07	-5.484233e-06	-1.261443e-09	-3.819995e+01	-8.446864e+01
1.200000e-07	-5.479631e-06	-1.252661e-09	-3.816789e+01	-8.445939e+01
1.300000e-07	-5.474683e-06	-1.250818e-09	-3.813343e+01	-8.445070e+01
1.400000e-07	-5.469295e-06	-1.261002e-09	-3.809590e+01	-8.444212e+01
1.500000e-07	-5.463532e-06	-1.272795e-09	-3.805576e+01	-8.443313e+01
1.600000e-07	-5.457434e-06	-1.276938e-09	-3.801328e+01	-8.442313e+01
1.700000e-07	-5.450898e-06	-1.258301e-09	-3.796776e+01	-8.441147e+01
1.800000e-07	-5.443911e-06	-1.275757e-09	-3.791908e+01	-8.439744e+01
1.900000e-07	-5.436564e-06	-1.284018e-09	-3.786791e+01	-8.438028e+01
2.000000e-07	-5.429002e-06	-1.273696e-09	-3.781524e+01	-8.435922e+01
2.100000e-07	-5.421260e-06	-1.260445e-09	-3.776132e+01	-8.433345e+01
2.200000e-07	-5.413204e-06	-1.274691e-09	-3.770520e+01	-8.430217e+01
2.300000e-07	-5.404809e-06	-1.290804e-09	-3.764673e+01	-8.426460e+01
2.400000e-07	-5.396008e-06	-1.288990e-09	-3.758542e+01	-8.421999e+01
2.500000e-07	-5.386531e-06	-1.289828e-09	-3.751941e+01	-8.416762e+01
2.600000e-07	-5.376327e-06	-1.280722e-09	-3.744834e+01	-8.410685e+01
2.700000e-07	-5.365602e-06	-1.269855e-09	-3.737363e+01	-8.403710e+01
2.800000e-07	-5.354367e-06	-1.270459e-09	-3.729538e+01	-8.395789e+01
2.900000e-07	-5.342604e-06	-1.284728e-09	-3.721344e+01	-8.386883e+01
3.000000e-07	-5.330466e-06	-1.274011e-09	-3.712890e+01	-8.376966e+01
3.100000e-07	-5.317981e-06	-1.274027e-09	-3.704193e+01	-8.366023e+01
3.200000e-07	-5.305131e-06	-1.293907e-09	-3.695243e+01	-8.354052e+01
3.300000e-07	-5.291921e-06	-1.301314e-09	-3.686041e+01	-8.341064e+01
3.400000e-07	-5.278287e-06	-1.273883e-09	-3.676545e+01	-8.327084e+01
3.500000e-07	-5.264258e-06	-1.279183e-09	-3.666773e+01	-8.312150e+01
3.600000e-07	-5.249860e-06	-1.289878e-09	-3.656744e+01	-8.296313e+01
3.700000e-07	-5.234931e-06	-1.270122e-09	-3.646346e+01	-8.279635e+01
3.800000e-07	-5.219449e-06	-1.254732e-09	-3.635562e+01	-8.262192e+01
3.900000e-07	-5.203474e-06	-1.274160e-09	-3.624435e+01	-8.244069e+01
4.000000e-07	-5.187050e-06	-1.267098e-09	-3.612995e+01	-8.225358e+01
4.100000e-07	-5.170292e-06	-1.249217e-09	-3.601322e+01	-8.206161e+01
4.200000e-07	-5.153154e-06	-1.266598e-09	-3.589385e+01	-8.186586e+01
4.300000e-07	-5.135677e-06	-1.271248e-09	-3.577211e+01	-8.166742e+01
4.400000e-07	-5.117918e-06	-1.239206e-09	-3.564841e+01	-8.146742e+01
4.500000e-07	-5.099763e-06	-1.241376e-09	-3.552196e+01	-8.126698e+01
4.600000e-07	-5.081177e-06	-1.255104e-09	-3.539249e+01	-8.106720e+01
4.700000e-07	-5.062226e-06	-1.223551e-09	-3.526049e+01	-8.086914e+01
4.800000e-07	-5.042933e-06	-1.216788e-09	-3.512611e+01	-8.067379e+01
4.900000e-07	-5.023356e-06	-1.252109e-09	-3.498975e+01	-8.048207e+01
5.000000e-07	-5.003571e-06	-1.241933e-09	-3.485194e+01	-8.029480e+01
5.100000e-07	-4.983570e-06	-1.217009e-09	-3.471262e+01	-8.011268e+01
5.200000e-07	-4.963220e-06	-1.242241e-09	-3.457088e+01	-7.993629e+01
5.300000e-07	-4.942511e-06	-1.241850e-09	-3.442663e+01	-7.976609e+01
5.400000e-07	-4.921465e-06	-1.202818e-09	-3.428003e+01	-7.960238e+01
5.500000e-07	-4.900053e-06	-1.208820e-09	-3.413089e+01	-7.944532e+01
5.600000e-07	-4.878367e-06	-1.228298e-09	-3.397984e+01	-7.929490e+01
5.700000e-07	-4.856354e-06	-1.201379e-09	-3.382651e+01	-7.915100e+01
5.800000e-07	-4.833953e-06	-1.196999e-09	-3.367048e+01	-7.901333e+01
5.900000e-07	-4.811213e-06	-1.218929e-09	-3.351209e+01	-7.888146e+01
6.000000e-07	-4.788175e-06	-1.203060e-09	-3.335162e+01	-7.875486e+01
6.100000e-07	-4.764880e-06	-1.181496e-09	-3.318935e+01	-7.863285e+01
6.200000e-07	-4.741304e-06	-1.198009e-09	-3.302514e+01	-7.851467e+01
6.300000e-07	-4.717490e-06	-1.200145e-09	-3.285926e+01	-7.839947e+01
6.400000e-07	-4.693429e-06	-1.186190e-09	-3.269167e+01	-7.828634e+01
6.500000e-07	-4.669003e-06	-1.192190e-09	-3.252154e+01	-7.817431e+01
6.600000e-07	-4.644136e-06	-1.198445e-09	-3.234832e+01	-7.806240e+01
6.700000e-07	-4.618753e-06	-1.180292e-09	-3.217152e+01	-7.794960e+01
6.800000e-07	-4.592764e-06	-1.172434e-09	-3.199050e+01	-7.783493e+01
6.900000e-07	-4.566179e-06	-1.176946e-09	-3.180532e+01	-7.771743e+01
7.000000e-07	-4.539147e-06	-1.169097e-09	-3.161703e+01	-7.759621e+01
7.100000e-07	-4.511795e-06	-1.158215e-09	-3.142651e+01	-7.747042e+01
7.200000e-07	-4.484226e-06	-1.163534e-09	-3.123449e+01	-7.733931e+01
7.300000e-07	-4.456505e-06	-1.165640e-09	-3.104140e+01	-7.720223e+01
7.400000e-07	-4.428620e-06	-1.156753e-09	-3.084716e+01	-7.705861e+01
7.500000e-07	-4.400521e-06	-1.154305e-09	-3.065145e+01	-7.690802e+01
7.600000e-07	-4.372116e-06	-1.155651e-09	-3.045359e+01	-7.675015e+01
7.700000e-07	-4.343316e-06	-1.145953e-09	-3.025299e+01	-7.658479e+01
7.800000e-07	-4.314156e-06	-1.137129e-09	-3.004988e+01	-7.641188e+01
7.900000e-07	-4.284739e-06	-1.138361e-09	-2.984498e+01	-7.623147e+01
8.000000e-07	-4.255141e-06	-1.135310e-09	-2.963881e+01	-7.604371e+01
8.100000e-07	-4.225305e-06	-1.128878e-09	-2.943100e+01	-7.584887e+01
8.200000e-07	-4.195140e-06	-1.131729e-09	-2.922089e+01	-7.564732e+01
8.300000e-07	-4.164677e-06	-1.134116e-09	-2.900870e+01	-7.543950e+01
8.400000e-07	-4.133885e-06	-1.129062e-09	-2.879421e+01	-7.522593e+01
8.500000e-07	-4.102728e-06	-1.129832e-09	-2.857720e+01	-7.500719e+01
8.600000e-07	-4.071256e-06	-1.128440e-09	-2.835798e+01	-7.478387e+01
8.700000e-07	-4.039641e-06	-1.116808e-09	-2.813776e+01	-7.455660e+01
8.800000e-07	-4.007973e-06	-1.108053e-09	-2.791719e+01	-7.432603e+01
8.900000e-07	-3.976151e-06	-1.105580e-09	-2.769553e+01	-7.409276e+01
9.000000e-07	-3.944111e-06	-1.097471e-09	-2.747236e+01	-7.385738e+01
9.100000e-07	-3.911805e-06	-1.092515e-09	-2.724734e+01	-7.362044e+01
9.200000e-07	-3.879182e-06	-1.093973e-09	-2.702010e+01	-7.338242e+01
9.300000e-07	-3.846136e-06	-1.092516e-09	-2.678993e+01	-7.314374e+01
9.400000e-07	-3.812525e-06	-1.087605e-09	-2.655581e+01	-7.290473e+01
9.500000e-07	-3.778383e-06	-1.086244e-09	-2.631800e+01	-7.266564e+01
9.600000e-07	-3.743870e-06	-1.078243e-09	-2.607760e+01	-7.242661e+01
9.700000e-07	-3.708952e-06	-1.064539e-09	-2.583438e+01	-7.218771e+01
9.800000e-07	-3.673614e-06	-1.056682e-09	-2.558824e+01	-7.194889e+01
9.900000e-07	-3.638064e-06	-1.054064e-09	-2.534062e+01	-7.171000e+01
1.000000e-06	-3.602417e-06	-1.049692e-09	-2.509232e+01	-7.147083e+01
1.010000e-06	-3.566615e-06	-1.050380e-09	-2.484294e+01	-7.123105e+01
1.020000e-06	-3.530686e-06	-1.054660e-09	-2.459268e+01	-7.099027e+01
1.030000e-06	-3.494666e-06	-1.052017e-09	-2.434179e+01	-7.074804e+01
1.040000e-06	-3.458436e-06	-1.045405e-09	-2.408943e+01	-7.050384e+01
1.050000e-06	-3.421843e-06	-1.040637e-09	-2.383455e+01	-7.025713e+01
1.060000e-06	-3.385037e-06	-1.032774e-09	-2.357818e+01	-7.000732e+01
1.070000e-06	-3.347995e-06	-1.024039e-09	-2.332017e+01	-6.975382e+01
1.080000e-06	-3.310652e-06	-1.022520e-09	-2.306006e+01	-6.949604e+01
1.090000e-06	-3.273129e-06	-1.023086e-09	-2.279869e+01	-6.923340e+01
1.100000e-06	-3.235388e-06	-1.018247e-09	-2.253581e+01	-6.896538e+01
1.110000e-06	-3.197457e-06	-1.015072e-09	-2.227161e+01	-6.869146e+01
1.120000e-06	-3.159346e-06	-1.015343e-09	-2.200615e+01	-6.841119e+01
1.130000e-06	-3.120948e-06	-1.009260e-09	-2.173869e+01	-6.812421e+01
1.140000e-06	-3.082322e-06	-1.001381e-09	-2.146964e+01	-6.783018e+01
1.150000e-06	-3.043472e-06	-9.972973e-10	-2.119904e+01	-6.752890e+01
1.160000e-06	-3.004354e-06	-9.906133e-10	-2.092656e+01	-6.722020e+01
1.170000e-06	-2.965055e-06	-9.808231e-10	-2.065284e+01	-6.690402e+01
1.180000e-06	-2.925577e-06	-9.775851e-10	-2.037785e+01	-6.658038e+01
1.190000e-06	-2.885990e-06	-9.751241e-10	-2.010211e+01	-6.624939e+01
1.200000e-06	-2.846331e-06	-9.681210e-10	-1.982587e+01	-6.591121e+01
1.210000e-06	-2.806543e-06	-9.622659e-10	-1.954873e+01	-6.556609e+01
1.220000e-06	-2.766575e-06	-9.594872e-10	-1.927034e+01	-6.521434e+01
1.230000e-06	-2.726462e-06	-9.544035e-10	-1.899093e+01	-6.485632e+01
1.240000e-06	-2.686195e-06	-9.471049e-10	-1.871046e+01	-6.449243e+01
1.250000e-06	-2.645733e-06	-9.431787e-10	-1.842862e+01	-6.412309e+01
1.260000e-06	-2.605057e-06	-9.390025e-10	-1.814530e+01	-6.374874e+01
1.270000e-06	-2.564077e-06	-9.333450e-10	-1.785986e+01	-6.336982e+01
1.280000e-06	-2.522800e-06	-9.290203e-10	-1.757234e+01	-6.298676e+01
1.290000e-06	-2.481374e-06	-9.239488e-10	-1.728380e+01	-6.259996e+01
1.300000e-06	-2.439715e-06	-9.147190e-10	-1.699362e+01	-6.220978e+01
1.310000e-06	-2.397630e-06	-9.049378e-10	-1.670048e+01	-6.181653e+01
1.320000e-06	-2.355175e-06	-8.981740e-10	-1.640476e+01	-6.142047e+01
1.330000e-06	-2.312444e-06	-8.920043e-10	-1.610713e+01	-6.102177e+01
1.340000e-06	-2.269520e-06	-8.889995e-10	-1.580814e+01	-6.062056e+01
1.350000e-06	-2.226364e-06	-8.886084e-10	-1.550755e+01	-6.021684e+01
1.360000e-06	-2.182965e-06	-8.841583e-10	-1.520526e+01	-5.981055e+01
1.370000e-06	-2.139446e-06	-8.752577e-10	-1.490213e+01	-5.940156e+01
1.380000e-06	-2.095812e-06	-8.659372e-10	-1.459820e+01	-5.898962e+01
1.390000e-06	-2.052047e-06	-8.553530e-10	-1.429335e+01	-5.857441e+01
1.400000e-06	-2.008212e-06	-8.446780e-10	-1.398802e+01	-5.815553e+01
1.410000e-06	-1.964263e-06	-8.380682e-10	-1.368190e+01	-5.773250e+01
1.420000e-06	-1.920191e-06	-8.349263e-10	-1.337492e+01	-5.730477e+01
1.430000e-06	-1.876118e-06	-8.311590e-10	-1.306794e+01	-5.687174e+01
1.440000e-06	-1.832048e-06	-8.269874e-10	-1.276097e+01	-5.643275e+01
1.450000e-06	-1.787922e-06	-8.194878e-10	-1.245362e+01	-5.598710e+01
1.460000e-06	-1.743624e-06	-8.073852e-10	-1.214506e+01	-5.553405e+01
1.470000e-06	-1.699154e-06	-7.915229e-10	-1.183531e+01	-5.507286e+01
1.480000e-06	-1.654620e-06	-7.784873e-10	-1.152511e+01	-5.460276e+01
1.490000e-06	-1.610018e-06	-7.686573e-10	-1.121444e+01	-5.412299e+01
1.500000e-06	-1.565281e-06	-7.611057e-10	-1.090283e+01	-5.363279e+01
1.510000e-06	-1.520384e-06	-7.572600e-10	-1.059010e+01	-5.313142e+01
1.520000e-06	-1.475395e-06	-7.525409e-10	-1.027674e+01	-5.261816e+01
1.530000e-06	-1.430308e-06	-7.455489e-10	-9.962685e+00	-5.209231e+01
1.540000e-06	-1.385068e-06	-7.347986e-10	-9.647569e+00	-5.155321e+01
1.550000e-06	-1.339758e-06	-7.231452e-10	-9.331967e+00	-5.100023e+01
1.560000e-06	-1.294356e-06	-7.116448e-10	-9.015723e+00	-5.043277e+01
1.570000e-06	-1.248776e-06	-7.010542e-10	-8.698239e+00	-4.985028e+01
1.580000e-06	-1.203086e-06	-6.930344e-10	-8.379988e+00	-4.925219e+01
1.590000e-06	-1.157337e-06	-6.872106e-10	-8.061328e+00	-4.863802e+01
1.600000e-06	-1.111507e-06	-6.809726e-10	-7.742105e+00	-4.800725e+01
1.610000e-06	-1.065587e-06	-6.729001e-10	-7.422250e+00	-4.735942e+01
1.620000e-06	-1.019614e-06	-6.638688e-10	-7.102033e+00	-4.669404e+01
1.630000e-06	-9.736059e-07	-6.536093e-10	-6.781567e+00	-4.601063e+01
1.640000e-06	-9.275352e-07	-6.419962e-10	-6.460666e+00	-4.530870e+01
1.650000e-06	-8.813283e-07	-6.291652e-10	-6.138815e+00	-4.458775e+01
1.660000e-06	-8.350119e-07	-6.160705e-10	-5.816202e+00	-4.384723e+01
1.670000e-06	-7.887582e-07	-6.038398e-10	-5.494026e+00	-4.308658e+01
1.680000e-06	-7.425517e-07	-5.910020e-10	-5.172179e+00	-4.230519e+01
1.690000e-06	-6.962484e-07	-5.771694e-10	-4.849657e+00	-4.150241e+01
1.700000e-06	-6.498861e-07	-5.623864e-10	-4.526725e+00	-4.067753e+01
1.710000e-06	-6.034639e-07	-5.491578e-10	-4.203375e+00	-3.982981e+01
1.720000e-06	-5.569246e-07	-5.389635e-10	-3.879210e+00	-3.895845e+01
1.730000e-06	-5.103481e-07	-5.272549e-10	-3.554785e+00	-3.806260e+01
1.740000e-06	-4.637953e-07	-5.126732e-10	-3.230526e+00	-3.714140e+01
1.750000e-06	-4.171737e-07	-4.955470e-10	-2.905787e+00	-3.619391e+01
1.760000e-06	-3.705089e-07	-4.758279e-10	-2.580747e+00	-3.521921e+01
1.770000e-06	-3.238364e-07	-4.603115e-10	-2.255654e+00	-3.421633e+01
1.780000e-06	-2.771821e-07	-4.470619e-10	-1.930688e+00	-3.318434e+01
1.790000e-06	-2.304859e-07	-4.347486e-10	-1.605429e+00	-3.212229e+01
1.800000e-06	-1.836579e-07	-4.214186e-10	-1.279253e+00	-3.102928e+01
1.810000e-06	-1.368630e-07	-4.056899e-10	-9.533070e-01	-2.990445e+01
1.820000e-06	-9.018672e-08	-3.907617e-10	-6.281877e-01	-2.874704e+01
1.830000e-06	-4.350767e-08	-3.729304e-10	-3.030489e-01	-2.755632e+01
1.840000e-06	3.194526e-09	-3.533567e-10	2.225119e-02	-2.633173e+01
1.850000e-06	4.982726e-08	-3.328738e-10	3.470675e-01	-2.507278e+01
1.860000e-06	9.641198e-08	-3.131368e-10	6.715492e-01	-2.377917e+01
1.870000e-06	1.430474e-07	-2.939889e-10	9.963843e-01	-2.245073e+01
1.880000e-06	1.897014e-07	-2.759491e-10	1.321349e+00	-2.108747e+01
1.890000e-06	2.362611e-07	-2.596157e-10	1.645656e+00	-1.968961e+01
1.900000e-06	2.828119e-07	-2.402296e-10	1.969902e+00	-1.825755e+01
1.910000e-06	3.293749e-07	-2.172377e-10	2.294232e+00	-1.679190e+01
1.920000e-06	3.758538e-07	-1.941874e-10	2.617977e+00	-1.529351e+01
1.930000e-06	4.223451e-07	-1.689498e-10	2.941808e+00	-1.376343e+01
1.940000e-06	4.689242e-07	-1.434500e-10	3.266251e+00	-1.220292e+01
1.950000e-06	5.154659e-07	-1.219447e-10	3.590433e+00	-1.061349e+01
1.960000e-06	5.618986e-07	-1.052350e-10	3.913856e+00	-8.996833e+00
1.970000e-06	6.082798e-07	-8.868038e-11	4.236920e+00	-7.354852e+00
1.980000e-06	6.546986e-07	-7.020343e-11	4.560246e+00	-5.689642e+00
1.990000e-06	7.011080e-07	-4.549633e-11	4.883507e+00	-4.003467e+00
2.000000e-06	7.473841e-07	-1.471466e-11	5.205839e+00	-2.298751e+00
2.010000e-06	7.935892e-07	1.830583e-11	5.527676e+00	-5.780523e-01
2.020000e-06	8.397600e-07	4.789007e-11	5.849275e+00	1.155958e+00
2.030000e-06	8.858484e-07	7.253901e-11	6.170300e+00	2.900518e+00
2.040000e-06	9.318635e-07	9.268163e-11	6.490814e+00	4.652801e+00
2.050000e-06	9.778759e-07	1.111872e-10	6.811309e+00	6.409941e+00
2.060000e-06	1.023877e-06	1.329918e-10	7.131729e+00	8.169059e+00
2.070000e-06	1.069752e-06	1.567830e-10	7.451262e+00	9.927291e+00
2.080000e-06	1.115452e-06	1.843450e-10	7.769581e+00	1.168181e+01
2.090000e-06	1.161100e-06	2.160844e-10	8.087543e+00	1.342985e+01
2.100000e-06	1.206722e-06	2.474103e-10	8.405317e+00	1.516874e+01
2.110000e-06	1.252212e-06	2.732406e-10	8.722176e+00	1.689591e+01
2.120000e-06	1.297597e-06	2.936197e-10	9.038300e+00	1.860891e+01
2.130000e-06	1.342873e-06	3.102544e-10	9.353665e+00	2.030546e+01
2.140000e-06	1.388055e-06	3.273823e-10	9.668375e+00	2.198341e+01
2.150000e-06	1.433152e-06	3.477688e-10	9.982495e+00	2.364080e+01
2.160000e-06	1.478141e-06	3.737996e-10	1.029586e+01	2.527584e+01
2.170000e-06	1.523034e-06	4.022877e-10	1.060856e+01	2.688693e+01
2.180000e-06	1.567815e-06	4.284611e-10	1.092048e+01	2.847266e+01
2.190000e-06	1.612445e-06	4.527354e-10	1.123135e+01	3.003181e+01
2.200000e-06	1.656949e-06	4.753215e-10	1.154134e+01	3.156334e+01
2.210000e-06	1.701361e-06	4.910595e-10	1.185068e+01	3.306639e+01
2.220000e-06	1.745636e-06	5.043935e-10	1.215908e+01	3.454029e+01
2.230000e-06	1.789859e-06	5.194247e-10	1.246711e+01	3.598453e+01
2.240000e-06	1.834075e-06	5.357662e-10	1.277509e+01	3.739873e+01
2.250000e-06	1.878161e-06	5.541937e-10	1.308216e+01	3.878267e+01
2.260000e-06	1.922098e-06	5.774727e-10	1.338821e+01	4.013626e+01
2.270000e-06	1.965940e-06	6.027901e-10	1.369358e+01	4.145950e+01
2.280000e-06	2.009752e-06	6.249445e-10	1.399875e+01	4.275252e+01
2.290000e-06	2.053575e-06	6.422941e-10	1.430400e+01	4.401549e+01
2.300000e-06	2.097335e-06	6.560633e-10	1.460881e+01	4.524868e+01
2.310000e-06	2.140928e-06	6.685664e-10	1.491245e+01	4.645239e+01
2.320000e-06	2.184380e-06	6.813187e-10	1.521511e+01	4.762697e+01
2.330000e-06	2.227762e-06	6.950524e-10	1.551728e+01	4.877279e+01
2.340000e-06	2.270913e-06	7.104102e-10	1.581785e+01	4.989022e+01
2.350000e-06	2.313774e-06	7.270373e-10	1.611639e+01	5.097967e+01
2.360000e-06	2.356383e-06	7.421636e-10	1.641318e+01	5.204151e+01
2.370000e-06	2.398769e-06	7.550329e-10	1.670841e+01	5.307611e+01
2.380000e-06	2.440903e-06	7.677072e-10	1.700190e+01	5.408385e+01
2.390000e-06	2.482633e-06	7.805835e-10	1.729256e+01	5.506506e+01
2.400000e-06	2.524033e-06	7.935632e-10	1.758093e+01	5.602007e+01
2.410000e-06	2.565199e-06	8.079215e-10	1.786767e+01	5.694919e+01
2.420000e-06	2.605990e-06	8.233768e-10	1.815179e+01	5.785269e+01
2.430000e-06	2.646506e-06	8.383953e-10	1.843400e+01	5.873088e+01
2.440000e-06	2.686881e-06	8.505020e-10	1.871524e+01	5.958400e+01
2.450000e-06	2.727066e-06	8.612376e-10	1.899514e+01	6.041233e+01
2.460000e-06	2.767143e-06	8.703506e-10	1.927429e+01	6.121613e+01
2.470000e-06	2.807116e-06	8.788721e-10	1.955272e+01	6.199567e+01
2.480000e-06	2.846938e-06	8.894652e-10	1.983010e+01	6.275125e+01
2.490000e-06	2.886603e-06	9.035232e-10	2.010638e+01	6.348317e+01
2.500000e-06	2.926102e-06	9.181013e-10	2.038151e+01	6.419176e+01
2.510000e-06	2.965433e-06	9.304832e-10	2.065547e+01	6.487738e+01
2.520000e-06	3.004578e-06	9.395699e-10	2.092812e+01	6.554043e+01
2.530000e-06	3.043583e-06	9.468355e-10	2.119981e+01	6.618133e+01
2.540000e-06	3.082438e-06	9.522657e-10	2.147046e+01	6.680057e+01
2.550000e-06	3.120952e-06	9.568153e-10	2.173872e+01	6.739866e+01
2.560000e-06	3.159164e-06	9.630697e-10	2.200488e+01	6.797614e+01
2.570000e-06	3.197193e-06	9.700318e-10	2.226977e+01	6.853362e+01
2.580000e-06	3.235062e-06	9.786049e-10	2.253355e+01	6.907173e+01
2.590000e-06	3.272750e-06	9.884284e-10	2.279606e+01	6.959113e+01
2.600000e-06	3.310203e-06	9.970570e-10	2.305693e+01	7.009253e+01
2.610000e-06	3.347445e-06	1.004939e-09	2.331634e+01	7.057663e+01
2.620000e-06	3.384428e-06	1.010848e-09	2.357394e+01	7.104420e+01
2.630000e-06	3.421080e-06	1.016095e-09	2.382924e+01	7.149596e+01
2.640000e-06	3.457474e-06	1.020108e-09	2.408274e+01	7.193269e+01
2.650000e-06	3.493663e-06	1.023400e-09	2.433480e+01	7.235513e+01
2.660000e-06	3.529647e-06	1.028128e-09	2.458545e+01	7.276403e+01
2.670000e-06	3.565530e-06	1.032674e-09	2.483539e+01	7.316012e+01
2.680000e-06	3.601353e-06	1.040253e-09	2.508491e+01	7.354409e+01
2.690000e-06	3.637069e-06	1.049471e-09	2.533369e+01	7.391662e+01
2.700000e-06	3.672587e-06	1.057181e-09	2.558108e+01	7.427835e+01
2.710000e-06	3.707761e-06	1.062630e-09	2.582609e+01	7.462987e+01
2.720000e-06	3.742627e-06	1.066777e-09	2.606894e+01	7.497173e+01
2.730000e-06	3.777168e-06	1.069544e-09	2.630953e+01	7.530443e+01
2.740000e-06	3.811170e-06	1.073375e-09	2.654637e+01	7.562842e+01
2.750000e-06	3.844601e-06	1.079788e-09	2.677923e+01	7.594410e+01
2.760000e-06	3.877592e-06	1.086939e-09	2.700903e+01	7.625182e+01
2.770000e-06	3.910284e-06	1.092875e-09	2.723674e+01	7.655189e+01
2.780000e-06	3.942707e-06	1.098029e-09	2.746258e+01	7.684456e+01
2.790000e-06	3.974828e-06	1.103527e-09	2.768632e+01	7.713003e+01
2.800000e-06	4.006749e-06	1.109533e-09	2.790866e+01	7.740849e+01
2.810000e-06	4.038553e-06	1.113287e-09	2.813019e+01	7.768006e+01
2.820000e-06	4.070180e-06	1.115531e-09	2.835049e+01	7.794486e+01
2.830000e-06	4.101525e-06	1.119363e-09	2.856882e+01	7.820298e+01
2.840000e-06	4.132579e-06	1.123341e-09	2.878512e+01	7.845448e+01
2.850000e-06	4.163365e-06	1.127328e-09	2.899956e+01	7.869941e+01
2.860000e-06	4.193807e-06	1.133589e-09	2.921160e+01	7.893784e+01
2.870000e-06	4.223952e-06	1.139165e-09	2.942157e+01	7.916982e+01
2.880000e-06	4.253862e-06	1.142240e-09	2.962990e+01	7.939539e+01
2.890000e-06	4.283457e-06	1.145832e-09	2.983605e+01	7.961462e+01
2.900000e-06	4.312716e-06	1.149606e-09	3.003985e+01	7.982760e+01
