# Temperatura_=_11.1
# Concentracion g/m^3_=_1620.0
# C_Vs_to_Am_M_A/Vsm_=_65563218390.804596
# pendiente_HvsI_1/m_=_3716.3
# ordenada_HvsI_A/m_=_1297.0
# frecuencia_Hz_=_135103.94683324383

Tiempo_(s)	Campo_(V.s)	Magnetizacion_(V.s)	Campo_(kA/m)	Magnetizacion_(A/m)
0.000000e+00	-5.538536e-06	-1.387721e-09	-3.838118e+01	-9.178868e+01
1.000000e-08	-5.538574e-06	-1.387745e-09	-3.838145e+01	-9.175382e+01
2.000000e-08	-5.538341e-06	-1.385385e-09	-3.837983e+01	-9.171887e+01
3.000000e-08	-5.537707e-06	-1.382029e-09	-3.837544e+01	-9.168395e+01
4.000000e-08	-5.536598e-06	-1.377358e-09	-3.836775e+01	-9.164914e+01
5.000000e-08	-5.534883e-06	-1.371797e-09	-3.835587e+01	-9.161445e+01
6.000000e-08	-5.532555e-06	-1.380260e-09	-3.833973e+01	-9.157984e+01
7.000000e-08	-5.529661e-06	-1.393333e-09	-3.831968e+01	-9.154521e+01
8.000000e-08	-5.526292e-06	-1.364968e-09	-3.829634e+01	-9.151037e+01
9.000000e-08	-5.522493e-06	-1.313656e-09	-3.827001e+01	-9.147510e+01
1.000000e-07	-5.518295e-06	-1.355477e-09	-3.824091e+01	-9.143909e+01
1.100000e-07	-5.513768e-06	-1.421437e-09	-3.820954e+01	-9.140199e+01
1.200000e-07	-5.508968e-06	-1.399623e-09	-3.817628e+01	-9.136339e+01
1.300000e-07	-5.503885e-06	-1.308626e-09	-3.814106e+01	-9.132283e+01
1.400000e-07	-5.498481e-06	-1.328899e-09	-3.810361e+01	-9.127982e+01
1.500000e-07	-5.492753e-06	-1.417983e-09	-3.806391e+01	-9.123381e+01
1.600000e-07	-5.486651e-06	-1.405407e-09	-3.802163e+01	-9.118427e+01
1.700000e-07	-5.480099e-06	-1.316925e-09	-3.797622e+01	-9.113063e+01
1.800000e-07	-5.473073e-06	-1.328047e-09	-3.792753e+01	-9.107233e+01
1.900000e-07	-5.465704e-06	-1.414737e-09	-3.787647e+01	-9.100881e+01
2.000000e-07	-5.458065e-06	-1.399826e-09	-3.782353e+01	-9.093956e+01
2.100000e-07	-5.450157e-06	-1.338350e-09	-3.776873e+01	-9.086407e+01
2.200000e-07	-5.441971e-06	-1.322763e-09	-3.771200e+01	-9.078189e+01
2.300000e-07	-5.433420e-06	-1.376907e-09	-3.765275e+01	-9.069264e+01
2.400000e-07	-5.424357e-06	-1.374206e-09	-3.758994e+01	-9.059598e+01
2.500000e-07	-5.414669e-06	-1.355057e-09	-3.752280e+01	-9.049166e+01
2.600000e-07	-5.404289e-06	-1.336977e-09	-3.745087e+01	-9.037950e+01
2.700000e-07	-5.393293e-06	-1.346053e-09	-3.737467e+01	-9.025941e+01
2.800000e-07	-5.381822e-06	-1.335408e-09	-3.729518e+01	-9.013139e+01
2.900000e-07	-5.370069e-06	-1.329482e-09	-3.721374e+01	-8.999552e+01
3.000000e-07	-5.358062e-06	-1.322508e-09	-3.713053e+01	-8.985199e+01
3.100000e-07	-5.345561e-06	-1.343851e-09	-3.704390e+01	-8.970106e+01
3.200000e-07	-5.332554e-06	-1.361707e-09	-3.695376e+01	-8.954308e+01
3.300000e-07	-5.319149e-06	-1.338530e-09	-3.686087e+01	-8.937849e+01
3.400000e-07	-5.305371e-06	-1.315655e-09	-3.676538e+01	-8.920778e+01
3.500000e-07	-5.291313e-06	-1.335776e-09	-3.666797e+01	-8.903152e+01
3.600000e-07	-5.276922e-06	-1.335190e-09	-3.656824e+01	-8.885034e+01
3.700000e-07	-5.262076e-06	-1.292306e-09	-3.646536e+01	-8.866488e+01
3.800000e-07	-5.246688e-06	-1.312562e-09	-3.635873e+01	-8.847584e+01
3.900000e-07	-5.230600e-06	-1.338945e-09	-3.624723e+01	-8.828393e+01
4.000000e-07	-5.213925e-06	-1.291501e-09	-3.613168e+01	-8.808983e+01
4.100000e-07	-5.196946e-06	-1.274601e-09	-3.601402e+01	-8.789426e+01
4.200000e-07	-5.179762e-06	-1.347034e-09	-3.589494e+01	-8.769788e+01
4.300000e-07	-5.162294e-06	-1.321018e-09	-3.577389e+01	-8.750132e+01
4.400000e-07	-5.144445e-06	-1.250535e-09	-3.565020e+01	-8.730516e+01
4.500000e-07	-5.126222e-06	-1.293789e-09	-3.552391e+01	-8.710991e+01
4.600000e-07	-5.107598e-06	-1.334424e-09	-3.539485e+01	-8.691604e+01
4.700000e-07	-5.088495e-06	-1.246216e-09	-3.526247e+01	-8.672390e+01
4.800000e-07	-5.069050e-06	-1.246699e-09	-3.512772e+01	-8.653377e+01
4.900000e-07	-5.049381e-06	-1.318775e-09	-3.499141e+01	-8.634586e+01
5.000000e-07	-5.029479e-06	-1.280391e-09	-3.485350e+01	-8.616025e+01
5.100000e-07	-5.009368e-06	-1.234336e-09	-3.471413e+01	-8.597695e+01
5.200000e-07	-4.988994e-06	-1.306955e-09	-3.457294e+01	-8.579587e+01
5.300000e-07	-4.968255e-06	-1.294536e-09	-3.442922e+01	-8.561683e+01
5.400000e-07	-4.947164e-06	-1.216333e-09	-3.428307e+01	-8.543957e+01
5.500000e-07	-4.925675e-06	-1.254166e-09	-3.413415e+01	-8.526374e+01
5.600000e-07	-4.903805e-06	-1.297207e-09	-3.398260e+01	-8.508895e+01
5.700000e-07	-4.881578e-06	-1.227742e-09	-3.382857e+01	-8.491471e+01
5.800000e-07	-4.859044e-06	-1.227049e-09	-3.367241e+01	-8.474053e+01
5.900000e-07	-4.836276e-06	-1.286537e-09	-3.351463e+01	-8.456585e+01
6.000000e-07	-4.813136e-06	-1.248927e-09	-3.335428e+01	-8.439010e+01
6.100000e-07	-4.789661e-06	-1.210222e-09	-3.319159e+01	-8.421271e+01
6.200000e-07	-4.765977e-06	-1.255262e-09	-3.302747e+01	-8.403311e+01
6.300000e-07	-4.742017e-06	-1.249712e-09	-3.286143e+01	-8.385074e+01
6.400000e-07	-4.717753e-06	-1.201266e-09	-3.269328e+01	-8.366510e+01
6.500000e-07	-4.693142e-06	-1.221778e-09	-3.252273e+01	-8.347569e+01
6.600000e-07	-4.668063e-06	-1.237683e-09	-3.234894e+01	-8.328210e+01
6.700000e-07	-4.642411e-06	-1.201300e-09	-3.217118e+01	-8.308398e+01
6.800000e-07	-4.616193e-06	-1.200821e-09	-3.198949e+01	-8.288103e+01
6.900000e-07	-4.589466e-06	-1.227628e-09	-3.180428e+01	-8.267304e+01
7.000000e-07	-4.562311e-06	-1.199437e-09	-3.161610e+01	-8.245988e+01
7.100000e-07	-4.534854e-06	-1.178127e-09	-3.142583e+01	-8.224150e+01
7.200000e-07	-4.507166e-06	-1.195144e-09	-3.123395e+01	-8.201794e+01
7.300000e-07	-4.479297e-06	-1.191938e-09	-3.104082e+01	-8.178930e+01
7.400000e-07	-4.451256e-06	-1.170739e-09	-3.084651e+01	-8.155579e+01
7.500000e-07	-4.423004e-06	-1.184501e-09	-3.065073e+01	-8.131766e+01
7.600000e-07	-4.394538e-06	-1.188386e-09	-3.045346e+01	-8.107523e+01
7.700000e-07	-4.365706e-06	-1.168324e-09	-3.025366e+01	-8.082889e+01
7.800000e-07	-4.336380e-06	-1.160829e-09	-3.005043e+01	-8.057904e+01
7.900000e-07	-4.306718e-06	-1.163049e-09	-2.984488e+01	-8.032616e+01
8.000000e-07	-4.276836e-06	-1.144005e-09	-2.963780e+01	-8.007069e+01
8.100000e-07	-4.246712e-06	-1.139721e-09	-2.942904e+01	-7.981314e+01
8.200000e-07	-4.216278e-06	-1.151790e-09	-2.921815e+01	-7.955396e+01
8.300000e-07	-4.185514e-06	-1.149572e-09	-2.900495e+01	-7.929362e+01
8.400000e-07	-4.154452e-06	-1.140036e-09	-2.878970e+01	-7.903255e+01
8.500000e-07	-4.123174e-06	-1.145292e-09	-2.857295e+01	-7.877112e+01
8.600000e-07	-4.091696e-06	-1.135085e-09	-2.835481e+01	-7.850968e+01
8.700000e-07	-4.060035e-06	-1.115344e-09	-2.813541e+01	-7.824850e+01
8.800000e-07	-4.028199e-06	-1.113339e-09	-2.791479e+01	-7.798778e+01
8.900000e-07	-3.996145e-06	-1.113451e-09	-2.769266e+01	-7.772766e+01
9.000000e-07	-3.963812e-06	-1.103053e-09	-2.746860e+01	-7.746820e+01
9.100000e-07	-3.931190e-06	-1.105215e-09	-2.724253e+01	-7.720937e+01
9.200000e-07	-3.898121e-06	-1.112255e-09	-2.701337e+01	-7.695107e+01
9.300000e-07	-3.864553e-06	-1.103684e-09	-2.678074e+01	-7.669313e+01
9.400000e-07	-3.830584e-06	-1.097015e-09	-2.654535e+01	-7.643528e+01
9.500000e-07	-3.796112e-06	-1.098443e-09	-2.630646e+01	-7.617722e+01
9.600000e-07	-3.761290e-06	-1.087600e-09	-2.606515e+01	-7.591856e+01
9.700000e-07	-3.726237e-06	-1.072659e-09	-2.582224e+01	-7.565886e+01
9.800000e-07	-3.690801e-06	-1.075271e-09	-2.557667e+01	-7.539765e+01
9.900000e-07	-3.655101e-06	-1.074128e-09	-2.532927e+01	-7.513441e+01
1.000000e-06	-3.619304e-06	-1.066142e-09	-2.508121e+01	-7.486863e+01
1.010000e-06	-3.583391e-06	-1.065311e-09	-2.483234e+01	-7.459977e+01
1.020000e-06	-3.547335e-06	-1.070378e-09	-2.458247e+01	-7.432727e+01
1.030000e-06	-3.511128e-06	-1.065292e-09	-2.433156e+01	-7.405064e+01
1.040000e-06	-3.474725e-06	-1.061543e-09	-2.407930e+01	-7.376936e+01
1.050000e-06	-3.437971e-06	-1.059604e-09	-2.382460e+01	-7.348299e+01
1.060000e-06	-3.400911e-06	-1.046251e-09	-2.356778e+01	-7.319110e+01
1.070000e-06	-3.363579e-06	-1.031221e-09	-2.330908e+01	-7.289334e+01
1.080000e-06	-3.326055e-06	-1.029927e-09	-2.304904e+01	-7.258941e+01
1.090000e-06	-3.288381e-06	-1.028150e-09	-2.278796e+01	-7.227907e+01
1.100000e-06	-3.250451e-06	-1.022850e-09	-2.252512e+01	-7.196214e+01
1.110000e-06	-3.212330e-06	-1.022959e-09	-2.226094e+01	-7.163854e+01
1.120000e-06	-3.173959e-06	-1.024086e-09	-2.199504e+01	-7.130824e+01
1.130000e-06	-3.135272e-06	-1.015596e-09	-2.172695e+01	-7.097126e+01
1.140000e-06	-3.096309e-06	-1.008347e-09	-2.145693e+01	-7.062771e+01
1.150000e-06	-3.057140e-06	-1.002715e-09	-2.118550e+01	-7.027774e+01
1.160000e-06	-3.017814e-06	-9.907397e-10	-2.091298e+01	-6.992157e+01
1.170000e-06	-2.978370e-06	-9.792107e-10	-2.063964e+01	-6.955943e+01
1.180000e-06	-2.938783e-06	-9.780748e-10	-2.036530e+01	-6.919160e+01
1.190000e-06	-2.899040e-06	-9.763335e-10	-2.008989e+01	-6.881838e+01
1.200000e-06	-2.859174e-06	-9.701308e-10	-1.981363e+01	-6.844009e+01
1.210000e-06	-2.819196e-06	-9.663749e-10	-1.953658e+01	-6.805702e+01
1.220000e-06	-2.779122e-06	-9.617195e-10	-1.925888e+01	-6.766947e+01
1.230000e-06	-2.738861e-06	-9.530874e-10	-1.897988e+01	-6.727771e+01
1.240000e-06	-2.698387e-06	-9.460191e-10	-1.869940e+01	-6.688198e+01
1.250000e-06	-2.657683e-06	-9.450248e-10	-1.841733e+01	-6.648247e+01
1.260000e-06	-2.616714e-06	-9.408753e-10	-1.813342e+01	-6.607933e+01
1.270000e-06	-2.575445e-06	-9.337522e-10	-1.784743e+01	-6.567264e+01
1.280000e-06	-2.533824e-06	-9.294756e-10	-1.755900e+01	-6.526241e+01
1.290000e-06	-2.491913e-06	-9.244894e-10	-1.726856e+01	-6.484861e+01
1.300000e-06	-2.449720e-06	-9.154729e-10	-1.697618e+01	-6.443112e+01
1.310000e-06	-2.407204e-06	-9.079191e-10	-1.668154e+01	-6.400974e+01
1.320000e-06	-2.364444e-06	-9.023792e-10	-1.638522e+01	-6.358423e+01
1.330000e-06	-2.321450e-06	-8.952494e-10	-1.608728e+01	-6.315425e+01
1.340000e-06	-2.278185e-06	-8.891305e-10	-1.578747e+01	-6.271943e+01
1.350000e-06	-2.234770e-06	-8.856584e-10	-1.548660e+01	-6.227932e+01
1.360000e-06	-2.191258e-06	-8.787580e-10	-1.518507e+01	-6.183345e+01
1.370000e-06	-2.147659e-06	-8.707565e-10	-1.488294e+01	-6.138129e+01
1.380000e-06	-2.103976e-06	-8.619869e-10	-1.458022e+01	-6.092228e+01
1.390000e-06	-2.060140e-06	-8.508823e-10	-1.427645e+01	-6.045585e+01
1.400000e-06	-2.016189e-06	-8.410977e-10	-1.397187e+01	-5.998143e+01
1.410000e-06	-1.972146e-06	-8.370341e-10	-1.366666e+01	-5.949843e+01
1.420000e-06	-1.927985e-06	-8.336186e-10	-1.336063e+01	-5.900628e+01
1.430000e-06	-1.883802e-06	-8.280217e-10	-1.305445e+01	-5.850443e+01
1.440000e-06	-1.839540e-06	-8.209727e-10	-1.274772e+01	-5.799236e+01
1.450000e-06	-1.795150e-06	-8.125744e-10	-1.244011e+01	-5.746959e+01
1.460000e-06	-1.750626e-06	-8.011937e-10	-1.213156e+01	-5.693567e+01
1.470000e-06	-1.705912e-06	-7.884315e-10	-1.182170e+01	-5.639020e+01
1.480000e-06	-1.661074e-06	-7.769363e-10	-1.151098e+01	-5.583284e+01
1.490000e-06	-1.616116e-06	-7.662200e-10	-1.119943e+01	-5.526327e+01
1.500000e-06	-1.571012e-06	-7.575999e-10	-1.088687e+01	-5.468126e+01
1.510000e-06	-1.525698e-06	-7.528652e-10	-1.057285e+01	-5.408657e+01
1.520000e-06	-1.480319e-06	-7.481867e-10	-1.025838e+01	-5.347905e+01
1.530000e-06	-1.434964e-06	-7.414640e-10	-9.944072e+00	-5.285854e+01
1.540000e-06	-1.389442e-06	-7.324479e-10	-9.628617e+00	-5.222493e+01
1.550000e-06	-1.343820e-06	-7.218946e-10	-9.312461e+00	-5.157811e+01
1.560000e-06	-1.298161e-06	-7.106058e-10	-8.996054e+00	-5.091797e+01
1.570000e-06	-1.252446e-06	-6.971892e-10	-8.679257e+00	-5.024440e+01
1.580000e-06	-1.206678e-06	-6.845145e-10	-8.362086e+00	-4.955726e+01
1.590000e-06	-1.160794e-06	-6.769315e-10	-8.044118e+00	-4.885637e+01
1.600000e-06	-1.114748e-06	-6.708175e-10	-7.725027e+00	-4.814150e+01
1.610000e-06	-1.068610e-06	-6.615908e-10	-7.405298e+00	-4.741237e+01
1.620000e-06	-1.022446e-06	-6.525866e-10	-7.085392e+00	-4.666861e+01
1.630000e-06	-9.762027e-07	-6.442764e-10	-6.764931e+00	-4.590978e+01
1.640000e-06	-9.298801e-07	-6.335763e-10	-6.443923e+00	-4.513536e+01
1.650000e-06	-8.835242e-07	-6.180110e-10	-6.122684e+00	-4.434469e+01
1.660000e-06	-8.371012e-07	-6.011890e-10	-5.800980e+00	-4.353704e+01
1.670000e-06	-7.905899e-07	-5.849254e-10	-5.478664e+00	-4.271156e+01
1.680000e-06	-7.440522e-07	-5.706127e-10	-5.156165e+00	-4.186731e+01
1.690000e-06	-6.974703e-07	-5.576442e-10	-4.833360e+00	-4.100323e+01
1.700000e-06	-6.508142e-07	-5.457618e-10	-4.510040e+00	-4.011817e+01
1.710000e-06	-6.040656e-07	-5.333334e-10	-4.186080e+00	-3.921088e+01
1.720000e-06	-5.572447e-07	-5.191970e-10	-3.861618e+00	-3.828006e+01
1.730000e-06	-5.104873e-07	-5.027525e-10	-3.537597e+00	-3.732432e+01
1.740000e-06	-4.637266e-07	-4.854583e-10	-3.213552e+00	-3.634223e+01
1.750000e-06	-4.168263e-07	-4.678172e-10	-2.888540e+00	-3.533234e+01
1.760000e-06	-3.699261e-07	-4.503119e-10	-2.563530e+00	-3.429319e+01
1.770000e-06	-3.230766e-07	-4.360264e-10	-2.238870e+00	-3.322332e+01
1.780000e-06	-2.761468e-07	-4.217329e-10	-1.913654e+00	-3.212135e+01
1.790000e-06	-2.291292e-07	-4.065459e-10	-1.587830e+00	-3.098591e+01
1.800000e-06	-1.821185e-07	-3.898718e-10	-1.262053e+00	-2.981575e+01
1.810000e-06	-1.350921e-07	-3.719537e-10	-9.361669e-01	-2.860974e+01
1.820000e-06	-8.803706e-08	-3.546602e-10	-6.100830e-01	-2.736687e+01
1.830000e-06	-4.099395e-08	-3.392761e-10	-2.840816e-01	-2.608630e+01
1.840000e-06	6.012133e-09	-3.244136e-10	4.166313e-02	-2.476738e+01
1.850000e-06	5.297936e-08	-3.059616e-10	3.671386e-01	-2.340964e+01
1.860000e-06	9.992628e-08	-2.845555e-10	6.924734e-01	-2.201286e+01
1.870000e-06	1.468844e-07	-2.604228e-10	1.017886e+00	-2.057706e+01
1.880000e-06	1.938494e-07	-2.359930e-10	1.343346e+00	-1.910248e+01
1.890000e-06	2.407859e-07	-2.161238e-10	1.668609e+00	-1.758965e+01
1.900000e-06	2.877324e-07	-1.975377e-10	1.993940e+00	-1.603936e+01
1.910000e-06	3.347174e-07	-1.801187e-10	2.319539e+00	-1.445265e+01
1.920000e-06	3.817208e-07	-1.636718e-10	2.645265e+00	-1.283085e+01
1.930000e-06	4.286542e-07	-1.438235e-10	2.970506e+00	-1.117554e+01
1.940000e-06	4.755308e-07	-1.184904e-10	3.295354e+00	-9.488550e+00
1.950000e-06	5.223686e-07	-9.152546e-11	3.619932e+00	-7.771966e+00
1.960000e-06	5.691385e-07	-6.774557e-11	3.944040e+00	-6.028088e+00
1.970000e-06	6.158879e-07	-4.531345e-11	4.268006e+00	-4.259425e+00
1.980000e-06	6.625190e-07	-2.310987e-11	4.591153e+00	-2.468674e+00
1.990000e-06	7.090023e-07	2.256291e-12	4.913274e+00	-6.586914e-01
2.000000e-06	7.554419e-07	3.165114e-11	5.235094e+00	1.167528e+00
2.010000e-06	8.018077e-07	6.195350e-11	5.556402e+00	3.006881e+00
2.020000e-06	8.481609e-07	8.937834e-11	5.877622e+00	4.856186e+00
2.030000e-06	8.944553e-07	1.128535e-10	6.198435e+00	6.712211e+00
2.040000e-06	9.405839e-07	1.345752e-10	6.518098e+00	8.571702e+00
2.050000e-06	9.867006e-07	1.584915e-10	6.837680e+00	1.043142e+01
2.060000e-06	1.032850e-06	1.854012e-10	7.157491e+00	1.228815e+01
2.070000e-06	1.078863e-06	2.136182e-10	7.476353e+00	1.413875e+01
2.080000e-06	1.124708e-06	2.438384e-10	7.794047e+00	1.598019e+01
2.090000e-06	1.170538e-06	2.726820e-10	8.111644e+00	1.780953e+01
2.100000e-06	1.216434e-06	2.965919e-10	8.429693e+00	1.962397e+01
2.110000e-06	1.262220e-06	3.184032e-10	8.746985e+00	2.142088e+01
2.120000e-06	1.307816e-06	3.396100e-10	9.062962e+00	2.319782e+01
2.130000e-06	1.353359e-06	3.594149e-10	9.378566e+00	2.495250e+01
2.140000e-06	1.398808e-06	3.805599e-10	9.693521e+00	2.668287e+01
2.150000e-06	1.444138e-06	4.069790e-10	1.000765e+01	2.838707e+01
2.160000e-06	1.489368e-06	4.372097e-10	1.032108e+01	3.006346e+01
2.170000e-06	1.534499e-06	4.654581e-10	1.063383e+01	3.171061e+01
2.180000e-06	1.579536e-06	4.899006e-10	1.094594e+01	3.332732e+01
2.190000e-06	1.624526e-06	5.113992e-10	1.125771e+01	3.491258e+01
2.200000e-06	1.669440e-06	5.297055e-10	1.156895e+01	3.646562e+01
2.210000e-06	1.714212e-06	5.451881e-10	1.187922e+01	3.798582e+01
2.220000e-06	1.758827e-06	5.623552e-10	1.218840e+01	3.947279e+01
2.230000e-06	1.803287e-06	5.835580e-10	1.249650e+01	4.092629e+01
2.240000e-06	1.847630e-06	6.045785e-10	1.280379e+01	4.234624e+01
2.250000e-06	1.891853e-06	6.235852e-10	1.311024e+01	4.373273e+01
2.260000e-06	1.935968e-06	6.443446e-10	1.341595e+01	4.508596e+01
2.270000e-06	1.979964e-06	6.654246e-10	1.372084e+01	4.640623e+01
2.280000e-06	2.023830e-06	6.837312e-10	1.402482e+01	4.769396e+01
2.290000e-06	2.067676e-06	7.007044e-10	1.432867e+01	4.894966e+01
2.300000e-06	2.111473e-06	7.166553e-10	1.463218e+01	5.017387e+01
2.310000e-06	2.155204e-06	7.313812e-10	1.493522e+01	5.136721e+01
2.320000e-06	2.198914e-06	7.481655e-10	1.523813e+01	5.253033e+01
2.330000e-06	2.242469e-06	7.655932e-10	1.553996e+01	5.366389e+01
2.340000e-06	2.285829e-06	7.815434e-10	1.584044e+01	5.476859e+01
2.350000e-06	2.329070e-06	7.967410e-10	1.614009e+01	5.584510e+01
2.360000e-06	2.372080e-06	8.111411e-10	1.643814e+01	5.689411e+01
2.370000e-06	2.414754e-06	8.238735e-10	1.673387e+01	5.791629e+01
2.380000e-06	2.457131e-06	8.382489e-10	1.702753e+01	5.891226e+01
2.390000e-06	2.499187e-06	8.547815e-10	1.731897e+01	5.988267e+01
2.400000e-06	2.540944e-06	8.711539e-10	1.760834e+01	6.082809e+01
2.410000e-06	2.582366e-06	8.863264e-10	1.789539e+01	6.174911e+01
2.420000e-06	2.623482e-06	8.989729e-10	1.818032e+01	6.264625e+01
2.430000e-06	2.664376e-06	9.107167e-10	1.846370e+01	6.352002e+01
2.440000e-06	2.705019e-06	9.208110e-10	1.874535e+01	6.437090e+01
2.450000e-06	2.745446e-06	9.298672e-10	1.902551e+01	6.519936e+01
2.460000e-06	2.785718e-06	9.392619e-10	1.930459e+01	6.600583e+01
2.470000e-06	2.825835e-06	9.501969e-10	1.958259e+01	6.679072e+01
2.480000e-06	2.865831e-06	9.628084e-10	1.985976e+01	6.755446e+01
2.490000e-06	2.905705e-06	9.768604e-10	2.013608e+01	6.829742e+01
2.500000e-06	2.945410e-06	9.896167e-10	2.041123e+01	6.901999e+01
2.510000e-06	2.984895e-06	9.984844e-10	2.068485e+01	6.972257e+01
2.520000e-06	3.024145e-06	1.004000e-09	2.095685e+01	7.040554e+01
2.530000e-06	3.063207e-06	1.009221e-09	2.122754e+01	7.106927e+01
2.540000e-06	3.102018e-06	1.014912e-09	2.149649e+01	7.171417e+01
2.550000e-06	3.140552e-06	1.022209e-09	2.176353e+01	7.234062e+01
2.560000e-06	3.178903e-06	1.033021e-09	2.202930e+01	7.294904e+01
2.570000e-06	3.217087e-06	1.044669e-09	2.229391e+01	7.353983e+01
2.580000e-06	3.255062e-06	1.055934e-09	2.255707e+01	7.411342e+01
2.590000e-06	3.292915e-06	1.066708e-09	2.281938e+01	7.467023e+01
2.600000e-06	3.330606e-06	1.074804e-09	2.308058e+01	7.521070e+01
2.610000e-06	3.367977e-06	1.078722e-09	2.333955e+01	7.573527e+01
2.620000e-06	3.405018e-06	1.081226e-09	2.359624e+01	7.624438e+01
2.630000e-06	3.441818e-06	1.084942e-09	2.385126e+01	7.673849e+01
2.640000e-06	3.478415e-06	1.089556e-09	2.410487e+01	7.721803e+01
2.650000e-06	3.514795e-06	1.096727e-09	2.435698e+01	7.768345e+01
2.660000e-06	3.550986e-06	1.105868e-09	2.460778e+01	7.813520e+01
2.670000e-06	3.587031e-06	1.113770e-09	2.485756e+01	7.857370e+01
2.680000e-06	3.622938e-06	1.119299e-09	2.510639e+01	7.899939e+01
2.690000e-06	3.658733e-06	1.123192e-09	2.535444e+01	7.941267e+01
2.700000e-06	3.694397e-06	1.126237e-09	2.560159e+01	7.981394e+01
2.710000e-06	3.729850e-06	1.130317e-09	2.584727e+01	8.020361e+01
2.720000e-06	3.764950e-06	1.137124e-09	2.609051e+01	8.058204e+01
2.730000e-06	3.799652e-06	1.144360e-09	2.633099e+01	8.094960e+01
2.740000e-06	3.833978e-06	1.150660e-09	2.656887e+01	8.130663e+01
2.750000e-06	3.867837e-06	1.155483e-09	2.680350e+01	8.165348e+01
2.760000e-06	3.901181e-06	1.159250e-09	2.703457e+01	8.199046e+01
2.770000e-06	3.934012e-06	1.163072e-09	2.726209e+01	8.231789e+01
2.780000e-06	3.966559e-06	1.168532e-09	2.748763e+01	8.263605e+01
2.790000e-06	3.998909e-06	1.175787e-09	2.771181e+01	8.294523e+01
2.800000e-06	4.031006e-06	1.182873e-09	2.793424e+01	8.324571e+01
2.810000e-06	4.062916e-06	1.188382e-09	2.815537e+01	8.353776e+01
2.820000e-06	4.094669e-06	1.193446e-09	2.837541e+01	8.382164e+01
2.830000e-06	4.126217e-06	1.196101e-09	2.859403e+01	8.409761e+01
2.840000e-06	4.157496e-06	1.194821e-09	2.881079e+01	8.436592e+01
2.850000e-06	4.188395e-06	1.195538e-09	2.902492e+01	8.462682e+01
2.860000e-06	4.218982e-06	1.201028e-09	2.923688e+01	8.488055e+01
2.870000e-06	4.249292e-06	1.208477e-09	2.944693e+01	8.512736e+01
2.880000e-06	4.279240e-06	1.217040e-09	2.965446e+01	8.536748e+01
2.890000e-06	4.308983e-06	1.225030e-09	2.986057e+01	8.560117e+01
2.900000e-06	4.338543e-06	1.229408e-09	3.006542e+01	8.582866e+01
