# Temperatura_=_14.3
# Concentracion g/m^3_=_1620.0
# C_Vs_to_Am_M_A/Vsm_=_65563218390.804596
# pendiente_HvsI_1/m_=_3716.3
# ordenada_HvsI_A/m_=_1297.0
# frecuencia_Hz_=_135100.81213940636

Tiempo_(s)	Campo_(V.s)	Magnetizacion_(V.s)	Campo_(kA/m)	Magnetizacion_(A/m)
0.000000e+00	-5.532895e-06	-1.500981e-09	-3.837342e+01	-1.014147e+02
1.000000e-08	-5.533153e-06	-1.495690e-09	-3.837521e+01	-1.014055e+02
2.000000e-08	-5.533168e-06	-1.492829e-09	-3.837531e+01	-1.013949e+02
3.000000e-08	-5.532824e-06	-1.493819e-09	-3.837293e+01	-1.013829e+02
4.000000e-08	-5.532015e-06	-1.496339e-09	-3.836732e+01	-1.013695e+02
5.000000e-08	-5.530637e-06	-1.494878e-09	-3.835776e+01	-1.013549e+02
6.000000e-08	-5.528708e-06	-1.484494e-09	-3.834438e+01	-1.013389e+02
7.000000e-08	-5.526204e-06	-1.478417e-09	-3.832702e+01	-1.013216e+02
8.000000e-08	-5.523133e-06	-1.495787e-09	-3.830572e+01	-1.013029e+02
9.000000e-08	-5.519509e-06	-1.520936e-09	-3.828058e+01	-1.012827e+02
1.000000e-07	-5.515394e-06	-1.513244e-09	-3.825204e+01	-1.012609e+02
1.100000e-07	-5.511017e-06	-1.488587e-09	-3.822169e+01	-1.012373e+02
1.200000e-07	-5.506485e-06	-1.447804e-09	-3.819026e+01	-1.012117e+02
1.300000e-07	-5.501701e-06	-1.472300e-09	-3.815708e+01	-1.011838e+02
1.400000e-07	-5.496554e-06	-1.496564e-09	-3.812138e+01	-1.011534e+02
1.500000e-07	-5.491010e-06	-1.488414e-09	-3.808293e+01	-1.011202e+02
1.600000e-07	-5.485131e-06	-1.478547e-09	-3.804216e+01	-1.010838e+02
1.700000e-07	-5.478836e-06	-1.477256e-09	-3.799850e+01	-1.010439e+02
1.800000e-07	-5.472066e-06	-1.519691e-09	-3.795154e+01	-1.009999e+02
1.900000e-07	-5.464890e-06	-1.503039e-09	-3.790178e+01	-1.009516e+02
2.000000e-07	-5.457381e-06	-1.491894e-09	-3.784969e+01	-1.008985e+02
2.100000e-07	-5.449647e-06	-1.476371e-09	-3.779605e+01	-1.008400e+02
2.200000e-07	-5.441657e-06	-1.516996e-09	-3.774064e+01	-1.007759e+02
2.300000e-07	-5.433356e-06	-1.518094e-09	-3.768307e+01	-1.007056e+02
2.400000e-07	-5.424694e-06	-1.516188e-09	-3.762299e+01	-1.006287e+02
2.500000e-07	-5.415412e-06	-1.508613e-09	-3.755862e+01	-1.005448e+02
2.600000e-07	-5.405277e-06	-1.517461e-09	-3.748833e+01	-1.004536e+02
2.700000e-07	-5.394483e-06	-1.496981e-09	-3.741347e+01	-1.003548e+02
2.800000e-07	-5.383284e-06	-1.479000e-09	-3.733580e+01	-1.002481e+02
2.900000e-07	-5.371650e-06	-1.484353e-09	-3.725511e+01	-1.001332e+02
3.000000e-07	-5.359657e-06	-1.491984e-09	-3.717193e+01	-1.000101e+02
3.100000e-07	-5.347337e-06	-1.488118e-09	-3.708648e+01	-9.987863e+01
3.200000e-07	-5.334577e-06	-1.486727e-09	-3.699799e+01	-9.973879e+01
3.300000e-07	-5.321427e-06	-1.508262e-09	-3.690678e+01	-9.959066e+01
3.400000e-07	-5.307948e-06	-1.494689e-09	-3.681330e+01	-9.943437e+01
3.500000e-07	-5.294045e-06	-1.480705e-09	-3.671687e+01	-9.927015e+01
3.600000e-07	-5.279735e-06	-1.475177e-09	-3.661763e+01	-9.909827e+01
3.700000e-07	-5.265016e-06	-1.485043e-09	-3.651555e+01	-9.891911e+01
3.800000e-07	-5.249660e-06	-1.467699e-09	-3.640904e+01	-9.873310e+01
3.900000e-07	-5.233672e-06	-1.474196e-09	-3.629816e+01	-9.854071e+01
4.000000e-07	-5.217274e-06	-1.476337e-09	-3.618443e+01	-9.834251e+01
4.100000e-07	-5.200622e-06	-1.474555e-09	-3.606894e+01	-9.813908e+01
4.200000e-07	-5.183596e-06	-1.459515e-09	-3.595086e+01	-9.793104e+01
4.300000e-07	-5.166178e-06	-1.468852e-09	-3.583006e+01	-9.771905e+01
4.400000e-07	-5.148478e-06	-1.461281e-09	-3.570730e+01	-9.750378e+01
4.500000e-07	-5.130450e-06	-1.460427e-09	-3.558226e+01	-9.728591e+01
4.600000e-07	-5.112013e-06	-1.454068e-09	-3.545439e+01	-9.706609e+01
4.700000e-07	-5.093117e-06	-1.448874e-09	-3.532334e+01	-9.684497e+01
4.800000e-07	-5.073818e-06	-1.440634e-09	-3.518949e+01	-9.662318e+01
4.900000e-07	-5.054265e-06	-1.458357e-09	-3.505388e+01	-9.640128e+01
5.000000e-07	-5.034554e-06	-1.449947e-09	-3.491717e+01	-9.617981e+01
5.100000e-07	-5.014645e-06	-1.436975e-09	-3.477910e+01	-9.595921e+01
5.200000e-07	-4.994449e-06	-1.441500e-09	-3.463903e+01	-9.573989e+01
5.300000e-07	-4.973906e-06	-1.449682e-09	-3.449655e+01	-9.552217e+01
5.400000e-07	-4.952994e-06	-1.431307e-09	-3.435152e+01	-9.530628e+01
5.500000e-07	-4.931625e-06	-1.427263e-09	-3.420331e+01	-9.509237e+01
5.600000e-07	-4.909857e-06	-1.425559e-09	-3.405234e+01	-9.488051e+01
5.700000e-07	-4.887860e-06	-1.409171e-09	-3.389978e+01	-9.467067e+01
5.800000e-07	-4.865582e-06	-1.409283e-09	-3.374527e+01	-9.446275e+01
5.900000e-07	-4.842784e-06	-1.424078e-09	-3.358716e+01	-9.425655e+01
6.000000e-07	-4.819568e-06	-1.413155e-09	-3.342614e+01	-9.405179e+01
6.100000e-07	-4.796170e-06	-1.396325e-09	-3.326386e+01	-9.384813e+01
6.200000e-07	-4.772570e-06	-1.403243e-09	-3.310018e+01	-9.364516e+01
6.300000e-07	-4.748763e-06	-1.394215e-09	-3.293507e+01	-9.344239e+01
6.400000e-07	-4.724769e-06	-1.377320e-09	-3.276866e+01	-9.323931e+01
6.500000e-07	-4.700443e-06	-1.380882e-09	-3.259995e+01	-9.303535e+01
6.600000e-07	-4.675565e-06	-1.388620e-09	-3.242741e+01	-9.282993e+01
6.700000e-07	-4.650094e-06	-1.372953e-09	-3.225075e+01	-9.262244e+01
6.800000e-07	-4.623975e-06	-1.376328e-09	-3.206960e+01	-9.241227e+01
6.900000e-07	-4.597386e-06	-1.381595e-09	-3.188520e+01	-9.219881e+01
7.000000e-07	-4.570445e-06	-1.369258e-09	-3.169834e+01	-9.198147e+01
7.100000e-07	-4.543127e-06	-1.351594e-09	-3.150888e+01	-9.175970e+01
7.200000e-07	-4.515584e-06	-1.355353e-09	-3.131786e+01	-9.153297e+01
7.300000e-07	-4.487821e-06	-1.345936e-09	-3.112530e+01	-9.130079e+01
7.400000e-07	-4.459855e-06	-1.339351e-09	-3.093135e+01	-9.106273e+01
7.500000e-07	-4.431714e-06	-1.343365e-09	-3.073617e+01	-9.081843e+01
7.600000e-07	-4.403267e-06	-1.345006e-09	-3.053888e+01	-9.056757e+01
7.700000e-07	-4.374471e-06	-1.326460e-09	-3.033917e+01	-9.030990e+01
7.800000e-07	-4.345416e-06	-1.318759e-09	-3.013766e+01	-9.004526e+01
7.900000e-07	-4.316074e-06	-1.314984e-09	-2.993415e+01	-8.977352e+01
8.000000e-07	-4.286406e-06	-1.305889e-09	-2.972839e+01	-8.949464e+01
8.100000e-07	-4.256375e-06	-1.299090e-09	-2.952011e+01	-8.920864e+01
8.200000e-07	-4.226051e-06	-1.304868e-09	-2.930980e+01	-8.891559e+01
8.300000e-07	-4.195473e-06	-1.303764e-09	-2.909772e+01	-8.861562e+01
8.400000e-07	-4.164634e-06	-1.296892e-09	-2.888384e+01	-8.830891e+01
8.500000e-07	-4.133522e-06	-1.292381e-09	-2.866806e+01	-8.799567e+01
8.600000e-07	-4.102090e-06	-1.285006e-09	-2.845007e+01	-8.767616e+01
8.700000e-07	-4.070505e-06	-1.270497e-09	-2.823101e+01	-8.735064e+01
8.800000e-07	-4.038832e-06	-1.264585e-09	-2.801134e+01	-8.701940e+01
8.900000e-07	-4.006962e-06	-1.264788e-09	-2.779031e+01	-8.668275e+01
9.000000e-07	-3.974820e-06	-1.258237e-09	-2.756738e+01	-8.634098e+01
9.100000e-07	-3.942354e-06	-1.253254e-09	-2.734222e+01	-8.599438e+01
9.200000e-07	-3.909540e-06	-1.253053e-09	-2.711464e+01	-8.564323e+01
9.300000e-07	-3.876371e-06	-1.251197e-09	-2.688459e+01	-8.528778e+01
9.400000e-07	-3.842795e-06	-1.242777e-09	-2.665172e+01	-8.492827e+01
9.500000e-07	-3.808696e-06	-1.239495e-09	-2.641523e+01	-8.456489e+01
9.600000e-07	-3.774148e-06	-1.231705e-09	-2.617562e+01	-8.419781e+01
9.700000e-07	-3.739347e-06	-1.220238e-09	-2.593426e+01	-8.382716e+01
9.800000e-07	-3.704218e-06	-1.210006e-09	-2.569063e+01	-8.345305e+01
9.900000e-07	-3.668758e-06	-1.204515e-09	-2.544469e+01	-8.307552e+01
1.000000e-06	-3.633148e-06	-1.196685e-09	-2.519771e+01	-8.269461e+01
1.010000e-06	-3.597413e-06	-1.194058e-09	-2.494988e+01	-8.231031e+01
1.020000e-06	-3.561551e-06	-1.192668e-09	-2.470116e+01	-8.192258e+01
1.030000e-06	-3.525507e-06	-1.190526e-09	-2.445117e+01	-8.153137e+01
1.040000e-06	-3.489179e-06	-1.183943e-09	-2.419922e+01	-8.113659e+01
1.050000e-06	-3.452612e-06	-1.176992e-09	-2.394561e+01	-8.073816e+01
1.060000e-06	-3.415767e-06	-1.163404e-09	-2.369007e+01	-8.033595e+01
1.070000e-06	-3.378594e-06	-1.152663e-09	-2.343226e+01	-7.992988e+01
1.080000e-06	-3.341167e-06	-1.147901e-09	-2.317268e+01	-7.951983e+01
1.090000e-06	-3.303507e-06	-1.147111e-09	-2.291149e+01	-7.910570e+01
1.100000e-06	-3.265645e-06	-1.141899e-09	-2.264890e+01	-7.868741e+01
1.110000e-06	-3.227621e-06	-1.136162e-09	-2.238518e+01	-7.826488e+01
1.120000e-06	-3.189380e-06	-1.131361e-09	-2.211996e+01	-7.783805e+01
1.130000e-06	-3.150844e-06	-1.123998e-09	-2.185269e+01	-7.740690e+01
1.140000e-06	-3.112030e-06	-1.114140e-09	-2.158350e+01	-7.697140e+01
1.150000e-06	-3.073039e-06	-1.104940e-09	-2.131308e+01	-7.653159e+01
1.160000e-06	-3.033907e-06	-1.095876e-09	-2.104168e+01	-7.608748e+01
1.170000e-06	-2.994568e-06	-1.087802e-09	-2.076884e+01	-7.563914e+01
1.180000e-06	-2.955032e-06	-1.083099e-09	-2.049464e+01	-7.518664e+01
1.190000e-06	-2.915421e-06	-1.078791e-09	-2.021992e+01	-7.473006e+01
1.200000e-06	-2.875674e-06	-1.070784e-09	-1.994425e+01	-7.426952e+01
1.210000e-06	-2.835733e-06	-1.060677e-09	-1.966724e+01	-7.380511e+01
1.220000e-06	-2.795678e-06	-1.051265e-09	-1.938944e+01	-7.333693e+01
1.230000e-06	-2.755529e-06	-1.042186e-09	-1.911099e+01	-7.286509e+01
1.240000e-06	-2.715201e-06	-1.035897e-09	-1.883129e+01	-7.238966e+01
1.250000e-06	-2.674608e-06	-1.031026e-09	-1.854976e+01	-7.191071e+01
1.260000e-06	-2.633823e-06	-1.027673e-09	-1.826689e+01	-7.142828e+01
1.270000e-06	-2.592698e-06	-1.021360e-09	-1.798167e+01	-7.094237e+01
1.280000e-06	-2.551204e-06	-1.015659e-09	-1.769389e+01	-7.045294e+01
1.290000e-06	-2.509477e-06	-1.007797e-09	-1.740449e+01	-6.995992e+01
1.300000e-06	-2.467463e-06	-9.957299e-10	-1.711310e+01	-6.946318e+01
1.310000e-06	-2.425128e-06	-9.835144e-10	-1.681948e+01	-6.896254e+01
1.320000e-06	-2.382478e-06	-9.750525e-10	-1.652369e+01	-6.845777e+01
1.330000e-06	-2.339669e-06	-9.659629e-10	-1.622678e+01	-6.794858e+01
1.340000e-06	-2.296644e-06	-9.580121e-10	-1.592838e+01	-6.743464e+01
1.350000e-06	-2.253382e-06	-9.505543e-10	-1.562834e+01	-6.691554e+01
1.360000e-06	-2.210025e-06	-9.423273e-10	-1.532764e+01	-6.639085e+01
1.370000e-06	-2.166503e-06	-9.310156e-10	-1.502579e+01	-6.586008e+01
1.380000e-06	-2.122811e-06	-9.189191e-10	-1.472277e+01	-6.532268e+01
1.390000e-06	-2.079008e-06	-9.061928e-10	-1.441897e+01	-6.477809e+01
1.400000e-06	-2.035167e-06	-8.943119e-10	-1.411491e+01	-6.422570e+01
1.410000e-06	-1.991270e-06	-8.846219e-10	-1.381046e+01	-6.366490e+01
1.420000e-06	-1.947289e-06	-8.794944e-10	-1.350543e+01	-6.309503e+01
1.430000e-06	-1.903224e-06	-8.742694e-10	-1.319982e+01	-6.251545e+01
1.440000e-06	-1.859022e-06	-8.664853e-10	-1.289326e+01	-6.192551e+01
1.450000e-06	-1.814722e-06	-8.560826e-10	-1.258601e+01	-6.132457e+01
1.460000e-06	-1.770228e-06	-8.428988e-10	-1.227743e+01	-6.071200e+01
1.470000e-06	-1.725561e-06	-8.263426e-10	-1.196764e+01	-6.008719e+01
1.480000e-06	-1.680908e-06	-8.113016e-10	-1.165795e+01	-5.944956e+01
1.490000e-06	-1.636223e-06	-8.007725e-10	-1.134803e+01	-5.879856e+01
1.500000e-06	-1.591401e-06	-7.918577e-10	-1.103717e+01	-5.813368e+01
1.510000e-06	-1.546319e-06	-7.843244e-10	-1.072450e+01	-5.745444e+01
1.520000e-06	-1.501029e-06	-7.763522e-10	-1.041039e+01	-5.676040e+01
1.530000e-06	-1.455745e-06	-7.664692e-10	-1.009633e+01	-5.605117e+01
1.540000e-06	-1.410453e-06	-7.535280e-10	-9.782201e+00	-5.532638e+01
1.550000e-06	-1.364994e-06	-7.397091e-10	-9.466926e+00	-5.458570e+01
1.560000e-06	-1.319391e-06	-7.258448e-10	-9.150643e+00	-5.382882e+01
1.570000e-06	-1.273757e-06	-7.135203e-10	-8.834150e+00	-5.305546e+01
1.580000e-06	-1.228024e-06	-7.027100e-10	-8.516967e+00	-5.226537e+01
1.590000e-06	-1.182188e-06	-6.949332e-10	-8.199072e+00	-5.145827e+01
1.600000e-06	-1.136275e-06	-6.870197e-10	-7.880640e+00	-5.063391e+01
1.610000e-06	-1.090273e-06	-6.764086e-10	-7.561597e+00	-4.979202e+01
1.620000e-06	-1.044199e-06	-6.632145e-10	-7.242048e+00	-4.893232e+01
1.630000e-06	-9.980521e-07	-6.503827e-10	-6.921996e+00	-4.805447e+01
1.640000e-06	-9.518896e-07	-6.355169e-10	-6.601835e+00	-4.715815e+01
1.650000e-06	-9.056138e-07	-6.193497e-10	-6.280889e+00	-4.624293e+01
1.660000e-06	-8.592607e-07	-6.041049e-10	-5.959407e+00	-4.530838e+01
1.670000e-06	-8.128645e-07	-5.882865e-10	-5.637626e+00	-4.435398e+01
1.680000e-06	-7.663566e-07	-5.704988e-10	-5.315070e+00	-4.337918e+01
1.690000e-06	-7.198183e-07	-5.530248e-10	-4.992303e+00	-4.238332e+01
1.700000e-06	-6.732298e-07	-5.367568e-10	-4.669188e+00	-4.136573e+01
1.710000e-06	-6.266250e-07	-5.224239e-10	-4.345961e+00	-4.032563e+01
1.720000e-06	-5.800480e-07	-5.091697e-10	-4.022926e+00	-3.926220e+01
1.730000e-06	-5.333880e-07	-4.949301e-10	-3.699315e+00	-3.817457e+01
1.740000e-06	-4.865936e-07	-4.793104e-10	-3.374772e+00	-3.706183e+01
1.750000e-06	-4.397298e-07	-4.620201e-10	-3.049748e+00	-3.592300e+01
1.760000e-06	-3.929473e-07	-4.432331e-10	-2.725288e+00	-3.475711e+01
1.770000e-06	-3.461935e-07	-4.246428e-10	-2.401027e+00	-3.356318e+01
1.780000e-06	-2.993322e-07	-4.074566e-10	-2.076020e+00	-3.234022e+01
1.790000e-06	-2.523738e-07	-3.912257e-10	-1.750340e+00	-3.108726e+01
1.800000e-06	-2.053612e-07	-3.743228e-10	-1.424284e+00	-2.980341e+01
1.810000e-06	-1.584829e-07	-3.558727e-10	-1.099159e+00	-2.848780e+01
1.820000e-06	-1.116977e-07	-3.369597e-10	-7.746799e-01	-2.713967e+01
1.830000e-06	-6.479153e-08	-3.184604e-10	-4.493620e-01	-2.575835e+01
1.840000e-06	-1.780351e-08	-3.003275e-10	-1.234764e-01	-2.434329e+01
1.850000e-06	2.912323e-08	-2.807360e-10	2.019843e-01	-2.289410e+01
1.860000e-06	7.600180e-08	-2.595211e-10	5.271109e-01	-2.141053e+01
1.870000e-06	1.229621e-07	-2.366640e-10	8.528044e-01	-1.989252e+01
1.880000e-06	1.698811e-07	-2.145667e-10	1.178211e+00	-1.834020e+01
1.890000e-06	2.167906e-07	-1.934184e-10	1.503553e+00	-1.675390e+01
1.900000e-06	2.637767e-07	-1.732610e-10	1.829425e+00	-1.513417e+01
1.910000e-06	3.107258e-07	-1.521873e-10	2.155040e+00	-1.348179e+01
1.920000e-06	3.575883e-07	-1.304278e-10	2.480056e+00	-1.179775e+01
1.930000e-06	4.043910e-07	-1.070740e-10	2.804656e+00	-1.008328e+01
1.940000e-06	4.512262e-07	-8.088166e-11	3.129482e+00	-8.339837e+00
1.950000e-06	4.980296e-07	-5.448488e-11	3.454087e+00	-6.569098e+00
1.960000e-06	5.447332e-07	-3.046804e-11	3.778000e+00	-4.772956e+00
1.970000e-06	5.913703e-07	-7.845920e-12	4.101452e+00	-2.953503e+00
1.980000e-06	6.379441e-07	1.489163e-11	4.424465e+00	-1.113024e+00
1.990000e-06	6.844298e-07	3.967447e-11	4.746866e+00	7.460295e-01
2.000000e-06	7.308571e-07	6.862480e-11	5.068863e+00	2.621053e+00
2.010000e-06	7.772373e-07	1.002226e-10	5.390533e+00	4.509315e+00
2.020000e-06	8.235808e-07	1.301187e-10	5.711949e+00	6.407978e+00
2.030000e-06	8.699061e-07	1.560465e-10	6.033238e+00	8.314126e+00
2.040000e-06	9.161743e-07	1.783793e-10	6.354131e+00	1.022479e+01
2.050000e-06	9.624085e-07	1.993805e-10	6.674789e+00	1.213698e+01
2.060000e-06	1.008555e-06	2.233083e-10	6.994835e+00	1.404770e+01
2.070000e-06	1.054535e-06	2.493217e-10	7.313734e+00	1.595399e+01
2.080000e-06	1.100468e-06	2.768676e-10	7.632301e+00	1.785296e+01
2.090000e-06	1.146422e-06	3.060858e-10	7.951019e+00	1.974177e+01
2.100000e-06	1.192300e-06	3.355997e-10	8.269204e+00	2.161770e+01
2.110000e-06	1.238045e-06	3.629992e-10	8.586464e+00	2.347819e+01
2.120000e-06	1.283688e-06	3.859790e-10	8.903022e+00	2.532077e+01
2.130000e-06	1.329310e-06	4.065600e-10	9.219439e+00	2.714319e+01
2.140000e-06	1.374899e-06	4.279036e-10	9.535619e+00	2.894333e+01
2.150000e-06	1.420324e-06	4.518478e-10	9.850662e+00	3.071930e+01
2.160000e-06	1.465585e-06	4.796707e-10	1.016457e+01	3.246940e+01
2.170000e-06	1.510787e-06	5.076438e-10	1.047807e+01	3.419212e+01
2.180000e-06	1.555943e-06	5.324041e-10	1.079125e+01	3.588617e+01
2.190000e-06	1.600936e-06	5.559342e-10	1.110330e+01	3.755046e+01
2.200000e-06	1.645698e-06	5.776894e-10	1.141374e+01	3.918410e+01
2.210000e-06	1.690353e-06	5.954512e-10	1.172345e+01	4.078642e+01
2.220000e-06	1.734920e-06	6.125223e-10	1.203255e+01	4.235690e+01
2.230000e-06	1.779298e-06	6.313425e-10	1.234033e+01	4.389521e+01
2.240000e-06	1.823554e-06	6.509579e-10	1.264727e+01	4.540120e+01
2.250000e-06	1.867731e-06	6.700769e-10	1.295366e+01	4.687483e+01
2.260000e-06	1.911779e-06	6.904859e-10	1.325916e+01	4.831623e+01
2.270000e-06	1.955724e-06	7.134163e-10	1.356394e+01	4.972561e+01
2.280000e-06	1.999574e-06	7.335019e-10	1.386805e+01	5.110329e+01
2.290000e-06	2.043334e-06	7.503550e-10	1.417155e+01	5.244968e+01
2.300000e-06	2.087050e-06	7.672231e-10	1.447475e+01	5.376523e+01
2.310000e-06	2.130700e-06	7.831762e-10	1.477748e+01	5.505044e+01
2.320000e-06	2.174255e-06	7.983028e-10	1.507955e+01	5.630584e+01
2.330000e-06	2.217740e-06	8.133649e-10	1.538114e+01	5.753198e+01
2.340000e-06	2.261171e-06	8.289629e-10	1.568236e+01	5.872939e+01
2.350000e-06	2.304506e-06	8.453240e-10	1.598291e+01	5.989862e+01
2.360000e-06	2.347585e-06	8.620401e-10	1.628169e+01	6.104016e+01
2.370000e-06	2.390358e-06	8.759348e-10	1.657834e+01	6.215450e+01
2.380000e-06	2.432947e-06	8.882367e-10	1.687371e+01	6.324209e+01
2.390000e-06	2.475302e-06	9.008913e-10	1.716747e+01	6.430334e+01
2.400000e-06	2.517293e-06	9.143358e-10	1.745870e+01	6.533862e+01
2.410000e-06	2.558892e-06	9.301463e-10	1.774721e+01	6.634826e+01
2.420000e-06	2.600198e-06	9.449510e-10	1.803369e+01	6.733255e+01
2.430000e-06	2.641234e-06	9.573753e-10	1.831829e+01	6.829176e+01
2.440000e-06	2.681958e-06	9.691202e-10	1.860073e+01	6.922611e+01
2.450000e-06	2.722476e-06	9.806951e-10	1.888175e+01	7.013584e+01
2.460000e-06	2.762828e-06	9.916298e-10	1.916161e+01	7.102112e+01
2.470000e-06	2.802927e-06	1.002926e-09	1.943972e+01	7.188216e+01
2.480000e-06	2.842800e-06	1.016563e-09	1.971626e+01	7.271915e+01
2.490000e-06	2.882554e-06	1.032287e-09	1.999197e+01	7.353231e+01
2.500000e-06	2.922251e-06	1.048313e-09	2.026728e+01	7.432186e+01
2.510000e-06	2.961868e-06	1.060922e-09	2.054205e+01	7.508805e+01
2.520000e-06	3.001266e-06	1.069888e-09	2.081529e+01	7.583119e+01
2.530000e-06	3.040422e-06	1.077790e-09	2.108687e+01	7.655159e+01
2.540000e-06	3.079429e-06	1.085115e-09	2.135739e+01	7.724965e+01
2.550000e-06	3.118225e-06	1.094679e-09	2.162647e+01	7.792579e+01
2.560000e-06	3.156805e-06	1.107281e-09	2.189404e+01	7.858050e+01
2.570000e-06	3.195155e-06	1.119421e-09	2.216001e+01	7.921431e+01
2.580000e-06	3.233213e-06	1.128969e-09	2.242397e+01	7.982784e+01
2.590000e-06	3.271092e-06	1.136640e-09	2.268667e+01	8.042171e+01
2.600000e-06	3.308830e-06	1.143733e-09	2.294841e+01	8.099664e+01
2.610000e-06	3.346303e-06	1.150261e-09	2.320830e+01	8.155336e+01
2.620000e-06	3.383554e-06	1.155839e-09	2.346666e+01	8.209267e+01
2.630000e-06	3.420591e-06	1.161464e-09	2.372353e+01	8.261537e+01
2.640000e-06	3.457314e-06	1.168471e-09	2.397822e+01	8.312232e+01
2.650000e-06	3.493746e-06	1.178087e-09	2.423089e+01	8.361437e+01
2.660000e-06	3.529908e-06	1.187890e-09	2.448170e+01	8.409239e+01
2.670000e-06	3.565848e-06	1.195749e-09	2.473096e+01	8.455724e+01
2.680000e-06	3.601631e-06	1.202143e-09	2.497913e+01	8.500978e+01
2.690000e-06	3.637271e-06	1.209043e-09	2.522631e+01	8.545085e+01
2.700000e-06	3.672757e-06	1.218126e-09	2.547243e+01	8.588123e+01
2.710000e-06	3.708156e-06	1.225718e-09	2.571793e+01	8.630171e+01
2.720000e-06	3.743448e-06	1.232924e-09	2.596270e+01	8.671300e+01
2.730000e-06	3.778500e-06	1.240809e-09	2.620581e+01	8.711575e+01
2.740000e-06	3.813191e-06	1.246711e-09	2.644641e+01	8.751059e+01
2.750000e-06	3.847396e-06	1.251759e-09	2.668364e+01	8.789804e+01
2.760000e-06	3.881015e-06	1.257648e-09	2.691680e+01	8.827859e+01
2.770000e-06	3.914064e-06	1.263984e-09	2.714601e+01	8.865264e+01
2.780000e-06	3.946672e-06	1.270612e-09	2.737216e+01	8.902052e+01
2.790000e-06	3.978949e-06	1.277382e-09	2.759602e+01	8.938251e+01
2.800000e-06	4.011018e-06	1.284133e-09	2.781844e+01	8.973880e+01
2.810000e-06	4.042926e-06	1.289121e-09	2.803973e+01	9.008954e+01
2.820000e-06	4.074657e-06	1.292761e-09	2.825980e+01	9.043478e+01
2.830000e-06	4.106209e-06	1.297918e-09	2.847863e+01	9.077457e+01
2.840000e-06	4.137505e-06	1.302936e-09	2.869569e+01	9.110886e+01
2.850000e-06	4.168585e-06	1.307862e-09	2.891124e+01	9.143760e+01
2.860000e-06	4.199435e-06	1.313407e-09	2.912520e+01	9.176067e+01
2.870000e-06	4.229843e-06	1.320014e-09	2.933610e+01	9.207796e+01
2.880000e-06	4.259848e-06	1.326826e-09	2.954420e+01	9.238931e+01
2.890000e-06	4.289632e-06	1.333038e-09	2.975077e+01	9.269457e+01
2.900000e-06	4.319248e-06	1.340551e-09	2.995616e+01	9.299358e+01
