# Temperatura_=_8.73
# Concentracion g/m^3_=_1620.0
# C_Vs_to_Am_M_A/Vsm_=_65563218390.804596
# pendiente_HvsI_1/m_=_3716.3
# ordenada_HvsI_A/m_=_1297.0
# frecuencia_Hz_=_135104.99829265915

Tiempo_(s)	Campo_(V.s)	Magnetizacion_(V.s)	Campo_(kA/m)	Magnetizacion_(A/m)
0.000000e+00	-5.521723e-06	-1.364000e-09	-3.836825e+01	-9.122573e+01
1.000000e-08	-5.521898e-06	-1.361369e-09	-3.836946e+01	-9.117643e+01
2.000000e-08	-5.521835e-06	-1.359108e-09	-3.836902e+01	-9.112882e+01
3.000000e-08	-5.521465e-06	-1.356563e-09	-3.836645e+01	-9.108334e+01
4.000000e-08	-5.520594e-06	-1.352926e-09	-3.836040e+01	-9.104038e+01
5.000000e-08	-5.519040e-06	-1.349603e-09	-3.834960e+01	-9.100026e+01
6.000000e-08	-5.516895e-06	-1.357799e-09	-3.833470e+01	-9.096326e+01
7.000000e-08	-5.514198e-06	-1.381239e-09	-3.831596e+01	-9.092957e+01
8.000000e-08	-5.510960e-06	-1.357343e-09	-3.829346e+01	-9.089930e+01
9.000000e-08	-5.507250e-06	-1.273808e-09	-3.826768e+01	-9.087248e+01
1.000000e-07	-5.503184e-06	-1.298172e-09	-3.823942e+01	-9.084902e+01
1.100000e-07	-5.498820e-06	-1.447665e-09	-3.820910e+01	-9.082876e+01
1.200000e-07	-5.494098e-06	-1.421335e-09	-3.817629e+01	-9.081142e+01
1.300000e-07	-5.489066e-06	-1.280398e-09	-3.814132e+01	-9.079662e+01
1.400000e-07	-5.483840e-06	-1.248392e-09	-3.810501e+01	-9.078389e+01
1.500000e-07	-5.478282e-06	-1.393083e-09	-3.806639e+01	-9.077266e+01
1.600000e-07	-5.472258e-06	-1.424953e-09	-3.802454e+01	-9.076229e+01
1.700000e-07	-5.465728e-06	-1.282656e-09	-3.797916e+01	-9.075204e+01
1.800000e-07	-5.458762e-06	-1.289802e-09	-3.793076e+01	-9.074112e+01
1.900000e-07	-5.451460e-06	-1.423128e-09	-3.788002e+01	-9.072868e+01
2.000000e-07	-5.443791e-06	-1.445827e-09	-3.782672e+01	-9.071383e+01
2.100000e-07	-5.435869e-06	-1.326462e-09	-3.777168e+01	-9.069566e+01
2.200000e-07	-5.427804e-06	-1.299370e-09	-3.771564e+01	-9.067326e+01
2.300000e-07	-5.419489e-06	-1.382647e-09	-3.765786e+01	-9.064570e+01
2.400000e-07	-5.410625e-06	-1.412223e-09	-3.759627e+01	-9.061211e+01
2.500000e-07	-5.401198e-06	-1.362986e-09	-3.753077e+01	-9.057164e+01
2.600000e-07	-5.391236e-06	-1.342617e-09	-3.746154e+01	-9.052351e+01
2.700000e-07	-5.380538e-06	-1.353737e-09	-3.738721e+01	-9.046701e+01
2.800000e-07	-5.369266e-06	-1.351840e-09	-3.730888e+01	-9.040153e+01
2.900000e-07	-5.357676e-06	-1.328936e-09	-3.722835e+01	-9.032653e+01
3.000000e-07	-5.345703e-06	-1.320280e-09	-3.714515e+01	-9.024162e+01
3.100000e-07	-5.333258e-06	-1.339581e-09	-3.705868e+01	-9.014650e+01
3.200000e-07	-5.320460e-06	-1.376632e-09	-3.696975e+01	-9.004103e+01
3.300000e-07	-5.307290e-06	-1.352456e-09	-3.687824e+01	-8.992516e+01
3.400000e-07	-5.293595e-06	-1.310188e-09	-3.678308e+01	-8.979900e+01
3.500000e-07	-5.279531e-06	-1.338276e-09	-3.668535e+01	-8.966280e+01
3.600000e-07	-5.265155e-06	-1.357707e-09	-3.658546e+01	-8.951691e+01
3.700000e-07	-5.250259e-06	-1.286560e-09	-3.648195e+01	-8.936181e+01
3.800000e-07	-5.234769e-06	-1.301416e-09	-3.637432e+01	-8.919810e+01
3.900000e-07	-5.218809e-06	-1.386641e-09	-3.626342e+01	-8.902648e+01
4.000000e-07	-5.202390e-06	-1.318811e-09	-3.614933e+01	-8.884774e+01
4.100000e-07	-5.185500e-06	-1.244574e-09	-3.603197e+01	-8.866272e+01
4.200000e-07	-5.168297e-06	-1.361302e-09	-3.591243e+01	-8.847234e+01
4.300000e-07	-5.150861e-06	-1.385190e-09	-3.579128e+01	-8.827755e+01
4.400000e-07	-5.133090e-06	-1.229327e-09	-3.566779e+01	-8.807932e+01
4.500000e-07	-5.114938e-06	-1.271934e-09	-3.554166e+01	-8.787862e+01
4.600000e-07	-5.096424e-06	-1.399865e-09	-3.541301e+01	-8.767641e+01
4.700000e-07	-5.077519e-06	-1.273357e-09	-3.528165e+01	-8.747361e+01
4.800000e-07	-5.058251e-06	-1.199082e-09	-3.514776e+01	-8.727109e+01
4.900000e-07	-5.038733e-06	-1.359239e-09	-3.501214e+01	-8.706963e+01
5.000000e-07	-5.018984e-06	-1.342344e-09	-3.487492e+01	-8.686997e+01
5.100000e-07	-4.998944e-06	-1.214276e-09	-3.473566e+01	-8.667270e+01
5.200000e-07	-4.978602e-06	-1.317641e-09	-3.459432e+01	-8.647836e+01
5.300000e-07	-4.957941e-06	-1.370537e-09	-3.445075e+01	-8.628733e+01
5.400000e-07	-4.936882e-06	-1.216852e-09	-3.430442e+01	-8.609989e+01
5.500000e-07	-4.915455e-06	-1.246046e-09	-3.415553e+01	-8.591620e+01
5.600000e-07	-4.893725e-06	-1.360919e-09	-3.400454e+01	-8.573628e+01
5.700000e-07	-4.871629e-06	-1.252613e-09	-3.385100e+01	-8.556004e+01
5.800000e-07	-4.849170e-06	-1.204525e-09	-3.369494e+01	-8.538727e+01
5.900000e-07	-4.826447e-06	-1.332740e-09	-3.353705e+01	-8.521765e+01
6.000000e-07	-4.803384e-06	-1.299354e-09	-3.337680e+01	-8.505077e+01
6.100000e-07	-4.779967e-06	-1.206420e-09	-3.321408e+01	-8.488610e+01
6.200000e-07	-4.756322e-06	-1.280512e-09	-3.304978e+01	-8.472308e+01
6.300000e-07	-4.732469e-06	-1.298348e-09	-3.288403e+01	-8.456106e+01
6.400000e-07	-4.708374e-06	-1.211071e-09	-3.271661e+01	-8.439934e+01
6.500000e-07	-4.683968e-06	-1.242108e-09	-3.254702e+01	-8.423722e+01
6.600000e-07	-4.659075e-06	-1.286683e-09	-3.237405e+01	-8.407395e+01
6.700000e-07	-4.633607e-06	-1.228244e-09	-3.219708e+01	-8.390882e+01
6.800000e-07	-4.607573e-06	-1.227208e-09	-3.201618e+01	-8.374112e+01
6.900000e-07	-4.580986e-06	-1.276078e-09	-3.183144e+01	-8.357018e+01
7.000000e-07	-4.554019e-06	-1.244197e-09	-3.164406e+01	-8.339538e+01
7.100000e-07	-4.526757e-06	-1.218013e-09	-3.145463e+01	-8.321618e+01
7.200000e-07	-4.499211e-06	-1.247965e-09	-3.126322e+01	-8.303208e+01
7.300000e-07	-4.471470e-06	-1.236260e-09	-3.107046e+01	-8.284268e+01
7.400000e-07	-4.443565e-06	-1.210713e-09	-3.087656e+01	-8.264769e+01
7.500000e-07	-4.415439e-06	-1.232180e-09	-3.068112e+01	-8.244687e+01
7.600000e-07	-4.387038e-06	-1.236282e-09	-3.048377e+01	-8.224010e+01
7.700000e-07	-4.358307e-06	-1.210965e-09	-3.028413e+01	-8.202737e+01
7.800000e-07	-4.329194e-06	-1.214966e-09	-3.008184e+01	-8.180873e+01
7.900000e-07	-4.299743e-06	-1.217725e-09	-2.987719e+01	-8.158433e+01
8.000000e-07	-4.270016e-06	-1.195415e-09	-2.967063e+01	-8.135440e+01
8.100000e-07	-4.239990e-06	-1.194425e-09	-2.946199e+01	-8.111924e+01
8.200000e-07	-4.209757e-06	-1.209699e-09	-2.925192e+01	-8.087922e+01
8.300000e-07	-4.179317e-06	-1.196479e-09	-2.904040e+01	-8.063475e+01
8.400000e-07	-4.148545e-06	-1.187324e-09	-2.882658e+01	-8.038626e+01
8.500000e-07	-4.117428e-06	-1.201479e-09	-2.861036e+01	-8.013422e+01
8.600000e-07	-4.086033e-06	-1.195164e-09	-2.839221e+01	-7.987911e+01
8.700000e-07	-4.054467e-06	-1.174866e-09	-2.817287e+01	-7.962139e+01
8.800000e-07	-4.022772e-06	-1.179859e-09	-2.795264e+01	-7.936150e+01
8.900000e-07	-3.990919e-06	-1.179079e-09	-2.773130e+01	-7.909987e+01
9.000000e-07	-3.958789e-06	-1.160398e-09	-2.750804e+01	-7.883686e+01
9.100000e-07	-3.926360e-06	-1.161530e-09	-2.728271e+01	-7.857278e+01
9.200000e-07	-3.893545e-06	-1.171922e-09	-2.705469e+01	-7.830789e+01
9.300000e-07	-3.860281e-06	-1.156439e-09	-2.682355e+01	-7.804236e+01
9.400000e-07	-3.826645e-06	-1.145991e-09	-2.658983e+01	-7.777630e+01
9.500000e-07	-3.792596e-06	-1.153442e-09	-2.635324e+01	-7.750973e+01
9.600000e-07	-3.758097e-06	-1.142239e-09	-2.611351e+01	-7.724260e+01
9.700000e-07	-3.723152e-06	-1.122945e-09	-2.587070e+01	-7.697476e+01
9.800000e-07	-3.687880e-06	-1.127206e-09	-2.562560e+01	-7.670602e+01
9.900000e-07	-3.652448e-06	-1.128618e-09	-2.537940e+01	-7.643608e+01
1.000000e-06	-3.616861e-06	-1.115403e-09	-2.513212e+01	-7.616461e+01
1.010000e-06	-3.581089e-06	-1.115988e-09	-2.488356e+01	-7.589120e+01
1.020000e-06	-3.545190e-06	-1.122888e-09	-2.463411e+01	-7.561541e+01
1.030000e-06	-3.509129e-06	-1.113048e-09	-2.438353e+01	-7.533676e+01
1.040000e-06	-3.472815e-06	-1.103674e-09	-2.413120e+01	-7.505474e+01
1.050000e-06	-3.436259e-06	-1.105401e-09	-2.387719e+01	-7.476884e+01
1.060000e-06	-3.399441e-06	-1.095734e-09	-2.362136e+01	-7.447856e+01
1.070000e-06	-3.362282e-06	-1.081135e-09	-2.336315e+01	-7.418339e+01
1.080000e-06	-3.324815e-06	-1.081011e-09	-2.310281e+01	-7.388287e+01
1.090000e-06	-3.287119e-06	-1.080793e-09	-2.284088e+01	-7.357657e+01
1.100000e-06	-3.249166e-06	-1.069198e-09	-2.257715e+01	-7.326409e+01
1.110000e-06	-3.211033e-06	-1.064875e-09	-2.231218e+01	-7.294510e+01
1.120000e-06	-3.172822e-06	-1.065832e-09	-2.204667e+01	-7.261935e+01
1.130000e-06	-3.134407e-06	-1.057638e-09	-2.177974e+01	-7.228662e+01
1.140000e-06	-3.095660e-06	-1.048636e-09	-2.151050e+01	-7.194679e+01
1.150000e-06	-3.056713e-06	-1.048106e-09	-2.123988e+01	-7.159979e+01
1.160000e-06	-3.017605e-06	-1.041332e-09	-2.096813e+01	-7.124565e+01
1.170000e-06	-2.978317e-06	-1.029635e-09	-2.069514e+01	-7.088444e+01
1.180000e-06	-2.938932e-06	-1.026072e-09	-2.042146e+01	-7.051630e+01
1.190000e-06	-2.899393e-06	-1.024914e-09	-2.014672e+01	-7.014145e+01
1.200000e-06	-2.859643e-06	-1.019742e-09	-1.987052e+01	-6.976014e+01
1.210000e-06	-2.819746e-06	-1.015533e-09	-1.959329e+01	-6.937267e+01
1.220000e-06	-2.779724e-06	-1.012682e-09	-1.931519e+01	-6.897937e+01
1.230000e-06	-2.739537e-06	-1.004730e-09	-1.903595e+01	-6.858058e+01
1.240000e-06	-2.699134e-06	-9.937870e-10	-1.875520e+01	-6.817666e+01
1.250000e-06	-2.658563e-06	-9.873619e-10	-1.847329e+01	-6.776798e+01
1.260000e-06	-2.617847e-06	-9.809918e-10	-1.819037e+01	-6.735486e+01
1.270000e-06	-2.576853e-06	-9.734170e-10	-1.790552e+01	-6.693761e+01
1.280000e-06	-2.535536e-06	-9.688550e-10	-1.761842e+01	-6.651652e+01
1.290000e-06	-2.493879e-06	-9.663372e-10	-1.732897e+01	-6.609180e+01
1.300000e-06	-2.451866e-06	-9.591870e-10	-1.703704e+01	-6.566363e+01
1.310000e-06	-2.409543e-06	-9.495931e-10	-1.674295e+01	-6.523210e+01
1.320000e-06	-2.366902e-06	-9.419496e-10	-1.644666e+01	-6.479725e+01
1.330000e-06	-2.324031e-06	-9.334109e-10	-1.614876e+01	-6.435903e+01
1.340000e-06	-2.281011e-06	-9.252764e-10	-1.584984e+01	-6.391731e+01
1.350000e-06	-2.237792e-06	-9.197316e-10	-1.554952e+01	-6.347191e+01
1.360000e-06	-2.194386e-06	-9.136845e-10	-1.524791e+01	-6.302253e+01
1.370000e-06	-2.150806e-06	-9.047553e-10	-1.494509e+01	-6.256882e+01
1.380000e-06	-2.107121e-06	-8.945196e-10	-1.464154e+01	-6.211035e+01
1.390000e-06	-2.063383e-06	-8.860329e-10	-1.433762e+01	-6.164662e+01
1.400000e-06	-2.019591e-06	-8.769942e-10	-1.403333e+01	-6.117710e+01
1.410000e-06	-1.975770e-06	-8.663210e-10	-1.372884e+01	-6.070117e+01
1.420000e-06	-1.931865e-06	-8.587428e-10	-1.342376e+01	-6.021819e+01
1.430000e-06	-1.887837e-06	-8.524819e-10	-1.311783e+01	-5.972748e+01
1.440000e-06	-1.843714e-06	-8.448496e-10	-1.281123e+01	-5.922836e+01
1.450000e-06	-1.799543e-06	-8.365982e-10	-1.250430e+01	-5.872011e+01
1.460000e-06	-1.755246e-06	-8.284956e-10	-1.219650e+01	-5.820202e+01
1.470000e-06	-1.710661e-06	-8.177488e-10	-1.188670e+01	-5.767339e+01
1.480000e-06	-1.665889e-06	-8.071989e-10	-1.157560e+01	-5.713353e+01
1.490000e-06	-1.621031e-06	-7.968606e-10	-1.126389e+01	-5.658178e+01
1.500000e-06	-1.576079e-06	-7.868215e-10	-1.095155e+01	-5.601749e+01
1.510000e-06	-1.531117e-06	-7.796855e-10	-1.063912e+01	-5.544007e+01
1.520000e-06	-1.486112e-06	-7.737554e-10	-1.032640e+01	-5.484896e+01
1.530000e-06	-1.440932e-06	-7.662273e-10	-1.001246e+01	-5.424361e+01
1.540000e-06	-1.395571e-06	-7.545896e-10	-9.697268e+00	-5.362353e+01
1.550000e-06	-1.350097e-06	-7.409174e-10	-9.381283e+00	-5.298827e+01
1.560000e-06	-1.304527e-06	-7.257247e-10	-9.064639e+00	-5.233740e+01
1.570000e-06	-1.258907e-06	-7.103146e-10	-8.747644e+00	-5.167051e+01
1.580000e-06	-1.213206e-06	-6.981399e-10	-8.430084e+00	-5.098723e+01
1.590000e-06	-1.167403e-06	-6.891141e-10	-8.111818e+00	-5.028718e+01
1.600000e-06	-1.121534e-06	-6.834957e-10	-7.793089e+00	-4.957000e+01
1.610000e-06	-1.075555e-06	-6.757318e-10	-7.473599e+00	-4.883531e+01
1.620000e-06	-1.029493e-06	-6.656463e-10	-7.153537e+00	-4.808274e+01
1.630000e-06	-9.833955e-07	-6.549680e-10	-6.833222e+00	-4.731186e+01
1.640000e-06	-9.372531e-07	-6.418756e-10	-6.512597e+00	-4.652224e+01
1.650000e-06	-8.910315e-07	-6.257676e-10	-6.191421e+00	-4.571339e+01
1.660000e-06	-8.447085e-07	-6.078429e-10	-5.869542e+00	-4.488479e+01
1.670000e-06	-7.983045e-07	-5.925145e-10	-5.547099e+00	-4.403584e+01
1.680000e-06	-7.518826e-07	-5.775838e-10	-5.224532e+00	-4.316590e+01
1.690000e-06	-7.054454e-07	-5.643161e-10	-4.901858e+00	-4.227426e+01
1.700000e-06	-6.589741e-07	-5.505462e-10	-4.578948e+00	-4.136017e+01
1.710000e-06	-6.124845e-07	-5.366593e-10	-4.255910e+00	-4.042279e+01
1.720000e-06	-5.659488e-07	-5.243846e-10	-3.932552e+00	-3.946125e+01
1.730000e-06	-5.193150e-07	-5.086233e-10	-3.608513e+00	-3.847460e+01
1.740000e-06	-4.726146e-07	-4.890618e-10	-3.284010e+00	-3.746189e+01
1.750000e-06	-4.259337e-07	-4.694551e-10	-2.959643e+00	-3.642210e+01
1.760000e-06	-3.792026e-07	-4.522492e-10	-2.634927e+00	-3.535422e+01
1.770000e-06	-3.323779e-07	-4.381721e-10	-2.309561e+00	-3.425722e+01
1.780000e-06	-2.855502e-07	-4.268826e-10	-1.984174e+00	-3.313009e+01
1.790000e-06	-2.386936e-07	-4.165234e-10	-1.658587e+00	-3.197187e+01
1.800000e-06	-1.918431e-07	-4.007390e-10	-1.333041e+00	-3.078162e+01
1.810000e-06	-1.451041e-07	-3.801493e-10	-1.008270e+00	-2.955849e+01
1.820000e-06	-9.836918e-08	-3.575515e-10	-6.835281e-01	-2.830171e+01
1.830000e-06	-5.157751e-08	-3.363392e-10	-3.583915e-01	-2.701064e+01
1.840000e-06	-4.676323e-09	-3.183459e-10	-3.249390e-02	-2.568476e+01
1.850000e-06	4.228920e-08	-2.997324e-10	2.938508e-01	-2.432369e+01
1.860000e-06	8.922110e-08	-2.804351e-10	6.199617e-01	-2.292724e+01
1.870000e-06	1.360361e-07	-2.590420e-10	9.452604e-01	-2.149539e+01
1.880000e-06	1.827267e-07	-2.367968e-10	1.269695e+00	-2.002831e+01
1.890000e-06	2.294141e-07	-2.152633e-10	1.594107e+00	-1.852641e+01
1.900000e-06	2.762184e-07	-1.928761e-10	1.919331e+00	-1.699028e+01
1.910000e-06	3.231017e-07	-1.718031e-10	2.245104e+00	-1.542076e+01
1.920000e-06	3.698846e-07	-1.546053e-10	2.570180e+00	-1.381892e+01
1.930000e-06	4.166000e-07	-1.372785e-10	2.894787e+00	-1.218605e+01
1.940000e-06	4.633159e-07	-1.168501e-10	3.219397e+00	-1.052365e+01
1.950000e-06	5.099458e-07	-9.329471e-11	3.543410e+00	-8.833461e+00
1.960000e-06	5.565190e-07	-6.973721e-11	3.867028e+00	-7.117423e+00
1.970000e-06	6.030542e-07	-4.420132e-11	4.190382e+00	-5.377670e+00
1.980000e-06	6.495038e-07	-1.845576e-11	4.513142e+00	-3.616516e+00
1.990000e-06	6.958560e-07	5.711447e-12	4.835225e+00	-1.836437e+00
2.000000e-06	7.421637e-07	3.035835e-11	5.156999e+00	-4.004742e-02
2.010000e-06	7.885047e-07	5.753384e-11	5.479004e+00	1.769920e+00
2.020000e-06	8.347949e-07	8.445373e-11	5.800656e+00	3.590639e+00
2.030000e-06	8.809064e-07	1.092709e-10	6.121067e+00	5.419216e+00
2.040000e-06	9.269176e-07	1.327318e-10	6.440780e+00	7.252719e+00
2.050000e-06	9.729599e-07	1.569974e-10	6.760710e+00	9.088196e+00
2.060000e-06	1.018993e-06	1.822073e-10	7.080576e+00	1.092271e+01
2.070000e-06	1.065032e-06	2.072695e-10	7.400482e+00	1.275337e+01
2.080000e-06	1.110995e-06	2.342018e-10	7.719857e+00	1.457733e+01
2.090000e-06	1.156768e-06	2.620055e-10	8.037922e+00	1.639185e+01
2.100000e-06	1.202445e-06	2.895461e-10	8.355309e+00	1.819429e+01
2.110000e-06	1.248059e-06	3.145407e-10	8.672265e+00	1.998214e+01
2.120000e-06	1.293528e-06	3.368987e-10	8.988206e+00	2.175304e+01
2.130000e-06	1.338937e-06	3.578152e-10	9.303737e+00	2.350478e+01
2.140000e-06	1.384322e-06	3.803553e-10	9.619103e+00	2.523533e+01
2.150000e-06	1.429631e-06	4.050928e-10	9.933932e+00	2.694287e+01
2.160000e-06	1.474910e-06	4.321414e-10	1.024856e+01	2.862572e+01
2.170000e-06	1.520094e-06	4.584260e-10	1.056252e+01	3.028244e+01
2.180000e-06	1.565117e-06	4.822951e-10	1.087537e+01	3.191177e+01
2.190000e-06	1.609996e-06	5.060973e-10	1.118722e+01	3.351262e+01
2.200000e-06	1.654698e-06	5.284136e-10	1.149784e+01	3.508412e+01
2.210000e-06	1.699267e-06	5.456376e-10	1.180753e+01	3.662557e+01
2.220000e-06	1.743713e-06	5.606113e-10	1.211637e+01	3.813645e+01
2.230000e-06	1.788026e-06	5.767853e-10	1.242428e+01	3.961638e+01
2.240000e-06	1.832225e-06	5.929255e-10	1.273140e+01	4.106516e+01
2.250000e-06	1.876304e-06	6.103428e-10	1.303769e+01	4.248270e+01
2.260000e-06	1.920271e-06	6.323648e-10	1.334320e+01	4.386906e+01
2.270000e-06	1.964165e-06	6.573159e-10	1.364820e+01	4.522437e+01
2.280000e-06	2.008021e-06	6.804094e-10	1.395294e+01	4.654889e+01
2.290000e-06	2.051813e-06	6.998975e-10	1.425723e+01	4.784293e+01
2.300000e-06	2.095533e-06	7.149341e-10	1.456102e+01	4.910687e+01
2.310000e-06	2.139189e-06	7.264561e-10	1.486437e+01	5.034115e+01
2.320000e-06	2.182747e-06	7.393123e-10	1.516703e+01	5.154621e+01
2.330000e-06	2.226175e-06	7.544678e-10	1.546880e+01	5.272256e+01
2.340000e-06	2.269470e-06	7.711682e-10	1.576964e+01	5.387069e+01
2.350000e-06	2.312594e-06	7.908810e-10	1.606929e+01	5.499110e+01
2.360000e-06	2.355488e-06	8.097562e-10	1.636735e+01	5.608428e+01
2.370000e-06	2.398076e-06	8.255077e-10	1.666327e+01	5.715073e+01
2.380000e-06	2.440356e-06	8.396788e-10	1.695706e+01	5.819092e+01
2.390000e-06	2.482438e-06	8.509658e-10	1.724947e+01	5.920529e+01
2.400000e-06	2.524164e-06	8.604281e-10	1.753941e+01	6.019429e+01
2.410000e-06	2.565488e-06	8.709494e-10	1.782655e+01	6.115832e+01
2.420000e-06	2.606517e-06	8.837193e-10	1.811164e+01	6.209778e+01
2.430000e-06	2.647212e-06	8.996201e-10	1.839442e+01	6.301305e+01
2.440000e-06	2.687682e-06	9.156146e-10	1.867563e+01	6.390448e+01
2.450000e-06	2.728015e-06	9.300205e-10	1.895588e+01	6.477244e+01
2.460000e-06	2.768218e-06	9.425729e-10	1.923524e+01	6.561726e+01
2.470000e-06	2.808268e-06	9.536901e-10	1.951353e+01	6.643930e+01
2.480000e-06	2.848132e-06	9.650374e-10	1.979053e+01	6.723890e+01
2.490000e-06	2.887861e-06	9.761681e-10	2.006659e+01	6.801641e+01
2.500000e-06	2.927490e-06	9.869390e-10	2.034196e+01	6.877219e+01
2.510000e-06	2.967008e-06	9.964263e-10	2.061655e+01	6.950662e+01
2.520000e-06	3.006298e-06	1.005035e-09	2.088957e+01	7.022010e+01
2.530000e-06	3.045355e-06	1.014030e-09	2.116095e+01	7.091304e+01
2.540000e-06	3.084247e-06	1.022550e-09	2.143120e+01	7.158586e+01
2.550000e-06	3.122871e-06	1.030255e-09	2.169958e+01	7.223903e+01
2.560000e-06	3.161263e-06	1.037732e-09	2.196636e+01	7.287301e+01
2.570000e-06	3.199461e-06	1.045999e-09	2.223177e+01	7.348829e+01
2.580000e-06	3.237427e-06	1.054639e-09	2.249559e+01	7.408539e+01
2.590000e-06	3.275191e-06	1.062595e-09	2.275799e+01	7.466483e+01
2.600000e-06	3.312718e-06	1.070394e-09	2.301875e+01	7.522715e+01
2.610000e-06	3.350026e-06	1.077883e-09	2.327799e+01	7.577288e+01
2.620000e-06	3.387067e-06	1.084879e-09	2.353537e+01	7.630258e+01
2.630000e-06	3.423836e-06	1.090073e-09	2.379087e+01	7.681679e+01
2.640000e-06	3.460432e-06	1.095866e-09	2.404516e+01	7.731606e+01
2.650000e-06	3.496802e-06	1.103349e-09	2.429788e+01	7.780090e+01
2.660000e-06	3.532921e-06	1.110687e-09	2.454885e+01	7.827185e+01
2.670000e-06	3.568871e-06	1.117628e-09	2.479866e+01	7.872939e+01
2.680000e-06	3.604706e-06	1.123554e-09	2.504766e+01	7.917400e+01
2.690000e-06	3.640411e-06	1.130326e-09	2.529576e+01	7.960614e+01
2.700000e-06	3.675984e-06	1.137726e-09	2.554294e+01	8.002623e+01
2.710000e-06	3.711383e-06	1.143718e-09	2.578891e+01	8.043466e+01
2.720000e-06	3.746451e-06	1.149541e-09	2.603259e+01	8.083180e+01
2.730000e-06	3.781106e-06	1.154521e-09	2.627339e+01	8.121798e+01
2.740000e-06	3.815379e-06	1.159565e-09	2.651154e+01	8.159350e+01
2.750000e-06	3.849293e-06	1.166551e-09	2.674720e+01	8.195865e+01
2.760000e-06	3.882689e-06	1.173231e-09	2.697925e+01	8.231367e+01
2.770000e-06	3.915513e-06	1.178624e-09	2.720734e+01	8.265880e+01
2.780000e-06	3.948043e-06	1.183986e-09	2.743337e+01	8.299422e+01
2.790000e-06	3.980340e-06	1.190666e-09	2.765779e+01	8.332014e+01
2.800000e-06	4.012308e-06	1.197318e-09	2.787993e+01	8.363674e+01
2.810000e-06	4.044066e-06	1.200334e-09	2.810059e+01	8.394417e+01
2.820000e-06	4.075702e-06	1.201480e-09	2.832043e+01	8.424260e+01
2.830000e-06	4.107173e-06	1.203493e-09	2.853910e+01	8.453219e+01
2.840000e-06	4.138407e-06	1.206149e-09	2.875613e+01	8.481311e+01
2.850000e-06	4.169296e-06	1.209678e-09	2.897077e+01	8.508554e+01
2.860000e-06	4.199894e-06	1.214394e-09	2.918338e+01	8.534964e+01
2.870000e-06	4.230249e-06	1.220579e-09	2.939431e+01	8.560563e+01
2.880000e-06	4.260337e-06	1.226977e-09	2.960338e+01	8.585370e+01
2.890000e-06	4.290129e-06	1.233789e-09	2.981039e+01	8.609408e+01
2.900000e-06	4.319597e-06	1.239561e-09	3.001515e+01	8.632702e+01
