# Temperatura_=_13.1
# Concentracion g/m^3_=_1620.0
# C_Vs_to_Am_M_A/Vsm_=_65563218390.804596
# pendiente_HvsI_1/m_=_3716.3
# ordenada_HvsI_A/m_=_1297.0
# frecuencia_Hz_=_135103.14749834003

Tiempo_(s)	Campo_(V.s)	Magnetizacion_(V.s)	Campo_(kA/m)	Magnetizacion_(A/m)
0.000000e+00	-5.529402e-06	-1.435390e-09	-3.836150e+01	-9.554543e+01
1.000000e-08	-5.529500e-06	-1.431965e-09	-3.836219e+01	-9.552178e+01
2.000000e-08	-5.529338e-06	-1.427766e-09	-3.836106e+01	-9.549863e+01
3.000000e-08	-5.528827e-06	-1.426539e-09	-3.835751e+01	-9.547603e+01
4.000000e-08	-5.527738e-06	-1.424147e-09	-3.834996e+01	-9.545402e+01
5.000000e-08	-5.526010e-06	-1.417961e-09	-3.833797e+01	-9.543254e+01
6.000000e-08	-5.523780e-06	-1.413397e-09	-3.832250e+01	-9.541151e+01
7.000000e-08	-5.520969e-06	-1.421447e-09	-3.830300e+01	-9.539079e+01
8.000000e-08	-5.517565e-06	-1.447094e-09	-3.827938e+01	-9.537017e+01
9.000000e-08	-5.513747e-06	-1.453397e-09	-3.825289e+01	-9.534940e+01
1.000000e-07	-5.509652e-06	-1.443616e-09	-3.822448e+01	-9.532815e+01
1.100000e-07	-5.505381e-06	-1.432077e-09	-3.819485e+01	-9.530606e+01
1.200000e-07	-5.500867e-06	-1.392454e-09	-3.816354e+01	-9.528269e+01
1.300000e-07	-5.495890e-06	-1.398719e-09	-3.812900e+01	-9.525755e+01
1.400000e-07	-5.490429e-06	-1.421524e-09	-3.809112e+01	-9.523014e+01
1.500000e-07	-5.484616e-06	-1.433777e-09	-3.805079e+01	-9.519988e+01
1.600000e-07	-5.478406e-06	-1.427133e-09	-3.800770e+01	-9.516618e+01
1.700000e-07	-5.471779e-06	-1.404351e-09	-3.796173e+01	-9.512842e+01
1.800000e-07	-5.464764e-06	-1.475345e-09	-3.791306e+01	-9.508598e+01
1.900000e-07	-5.457346e-06	-1.471050e-09	-3.786160e+01	-9.503822e+01
2.000000e-07	-5.449689e-06	-1.449081e-09	-3.780848e+01	-9.498452e+01
2.100000e-07	-5.441917e-06	-1.408901e-09	-3.775456e+01	-9.492428e+01
2.200000e-07	-5.433962e-06	-1.461294e-09	-3.769937e+01	-9.485692e+01
2.300000e-07	-5.425626e-06	-1.472913e-09	-3.764153e+01	-9.478191e+01
2.400000e-07	-5.416643e-06	-1.460222e-09	-3.757921e+01	-9.469877e+01
2.500000e-07	-5.406882e-06	-1.440558e-09	-3.751149e+01	-9.460709e+01
2.600000e-07	-5.396411e-06	-1.445827e-09	-3.743885e+01	-9.450653e+01
2.700000e-07	-5.385379e-06	-1.426268e-09	-3.736231e+01	-9.439682e+01
2.800000e-07	-5.373975e-06	-1.412297e-09	-3.728319e+01	-9.427778e+01
2.900000e-07	-5.362218e-06	-1.427853e-09	-3.720163e+01	-9.414934e+01
3.000000e-07	-5.350072e-06	-1.425414e-09	-3.711736e+01	-9.401152e+01
3.100000e-07	-5.337539e-06	-1.426181e-09	-3.703041e+01	-9.386444e+01
3.200000e-07	-5.324519e-06	-1.424443e-09	-3.694008e+01	-9.370831e+01
3.300000e-07	-5.311118e-06	-1.439624e-09	-3.684711e+01	-9.354345e+01
3.400000e-07	-5.297350e-06	-1.403122e-09	-3.675159e+01	-9.337028e+01
3.500000e-07	-5.283101e-06	-1.411718e-09	-3.665274e+01	-9.318932e+01
3.600000e-07	-5.268510e-06	-1.407281e-09	-3.655151e+01	-9.300115e+01
3.700000e-07	-5.253587e-06	-1.398854e-09	-3.644798e+01	-9.280644e+01
3.800000e-07	-5.238060e-06	-1.386283e-09	-3.634025e+01	-9.260593e+01
3.900000e-07	-5.221922e-06	-1.422260e-09	-3.622829e+01	-9.240042e+01
4.000000e-07	-5.205308e-06	-1.393981e-09	-3.611303e+01	-9.219073e+01
4.100000e-07	-5.188372e-06	-1.372259e-09	-3.599553e+01	-9.197772e+01
4.200000e-07	-5.171181e-06	-1.392479e-09	-3.587626e+01	-9.176227e+01
4.300000e-07	-5.153711e-06	-1.402412e-09	-3.575506e+01	-9.154525e+01
4.400000e-07	-5.135887e-06	-1.349211e-09	-3.563140e+01	-9.132752e+01
4.500000e-07	-5.117587e-06	-1.371664e-09	-3.550444e+01	-9.110989e+01
4.600000e-07	-5.098873e-06	-1.391809e-09	-3.537461e+01	-9.089315e+01
4.700000e-07	-5.079744e-06	-1.344342e-09	-3.524190e+01	-9.067801e+01
4.800000e-07	-5.060272e-06	-1.328940e-09	-3.510680e+01	-9.046513e+01
4.900000e-07	-5.040599e-06	-1.393165e-09	-3.497032e+01	-9.025507e+01
5.000000e-07	-5.020769e-06	-1.369275e-09	-3.483274e+01	-9.004829e+01
5.100000e-07	-5.000759e-06	-1.324248e-09	-3.469392e+01	-8.984517e+01
5.200000e-07	-4.980387e-06	-1.363407e-09	-3.455259e+01	-8.964597e+01
5.300000e-07	-4.959592e-06	-1.374538e-09	-3.440831e+01	-8.945085e+01
5.400000e-07	-4.938469e-06	-1.314416e-09	-3.426177e+01	-8.925984e+01
5.500000e-07	-4.917054e-06	-1.325229e-09	-3.411320e+01	-8.907289e+01
5.600000e-07	-4.895332e-06	-1.350274e-09	-3.396249e+01	-8.888981e+01
5.700000e-07	-4.873291e-06	-1.301865e-09	-3.380958e+01	-8.871031e+01
5.800000e-07	-4.850798e-06	-1.303629e-09	-3.365353e+01	-8.853403e+01
5.900000e-07	-4.827823e-06	-1.351000e-09	-3.349413e+01	-8.836048e+01
6.000000e-07	-4.804549e-06	-1.324353e-09	-3.333267e+01	-8.818914e+01
6.100000e-07	-4.781065e-06	-1.288200e-09	-3.316974e+01	-8.801938e+01
6.200000e-07	-4.757354e-06	-1.322146e-09	-3.300524e+01	-8.785054e+01
6.300000e-07	-4.733408e-06	-1.308526e-09	-3.283911e+01	-8.768191e+01
6.400000e-07	-4.709196e-06	-1.273558e-09	-3.267113e+01	-8.751277e+01
6.500000e-07	-4.684689e-06	-1.294023e-09	-3.250111e+01	-8.734237e+01
6.600000e-07	-4.659801e-06	-1.315257e-09	-3.232844e+01	-8.716998e+01
6.700000e-07	-4.634314e-06	-1.283779e-09	-3.215162e+01	-8.699488e+01
6.800000e-07	-4.608158e-06	-1.295474e-09	-3.197016e+01	-8.681638e+01
6.900000e-07	-4.581367e-06	-1.310988e-09	-3.178429e+01	-8.663384e+01
7.000000e-07	-4.554199e-06	-1.286740e-09	-3.159581e+01	-8.644668e+01
7.100000e-07	-4.526830e-06	-1.262809e-09	-3.140593e+01	-8.625438e+01
7.200000e-07	-4.499219e-06	-1.276579e-09	-3.121437e+01	-8.605650e+01
7.300000e-07	-4.471410e-06	-1.264976e-09	-3.102144e+01	-8.585268e+01
7.400000e-07	-4.443380e-06	-1.256336e-09	-3.082697e+01	-8.564263e+01
7.500000e-07	-4.415102e-06	-1.267630e-09	-3.063079e+01	-8.542617e+01
7.600000e-07	-4.386543e-06	-1.270818e-09	-3.043266e+01	-8.520321e+01
7.700000e-07	-4.357677e-06	-1.249219e-09	-3.023239e+01	-8.497373e+01
7.800000e-07	-4.328432e-06	-1.248881e-09	-3.002950e+01	-8.473780e+01
7.900000e-07	-4.298832e-06	-1.247837e-09	-2.982414e+01	-8.449557e+01
8.000000e-07	-4.269031e-06	-1.232267e-09	-2.961739e+01	-8.424727e+01
8.100000e-07	-4.239015e-06	-1.227402e-09	-2.940915e+01	-8.399318e+01
8.200000e-07	-4.208655e-06	-1.240414e-09	-2.919852e+01	-8.373364e+01
8.300000e-07	-4.177973e-06	-1.238015e-09	-2.898565e+01	-8.346902e+01
8.400000e-07	-4.146989e-06	-1.230004e-09	-2.877070e+01	-8.319974e+01
8.500000e-07	-4.115697e-06	-1.231178e-09	-2.855360e+01	-8.292623e+01
8.600000e-07	-4.084226e-06	-1.220606e-09	-2.833526e+01	-8.264892e+01
8.700000e-07	-4.052624e-06	-1.203591e-09	-2.811602e+01	-8.236824e+01
8.800000e-07	-4.020892e-06	-1.201772e-09	-2.789587e+01	-8.208460e+01
8.900000e-07	-3.988998e-06	-1.203407e-09	-2.767459e+01	-8.179839e+01
9.000000e-07	-3.956785e-06	-1.191667e-09	-2.745111e+01	-8.150994e+01
9.100000e-07	-3.924246e-06	-1.193661e-09	-2.722536e+01	-8.121956e+01
9.200000e-07	-3.891412e-06	-1.200029e-09	-2.699757e+01	-8.092749e+01
9.300000e-07	-3.858053e-06	-1.196616e-09	-2.676614e+01	-8.063390e+01
9.400000e-07	-3.824140e-06	-1.187785e-09	-2.653085e+01	-8.033893e+01
9.500000e-07	-3.789767e-06	-1.186932e-09	-2.629238e+01	-8.004261e+01
9.600000e-07	-3.754972e-06	-1.172168e-09	-2.605098e+01	-7.974494e+01
9.700000e-07	-3.719822e-06	-1.156380e-09	-2.580713e+01	-7.944582e+01
9.800000e-07	-3.684383e-06	-1.153190e-09	-2.556126e+01	-7.914510e+01
9.900000e-07	-3.648777e-06	-1.156341e-09	-2.531423e+01	-7.884258e+01
1.000000e-06	-3.613029e-06	-1.148443e-09	-2.506622e+01	-7.853800e+01
1.010000e-06	-3.577157e-06	-1.149452e-09	-2.481735e+01	-7.823104e+01
1.020000e-06	-3.541202e-06	-1.151621e-09	-2.456790e+01	-7.792136e+01
1.030000e-06	-3.505031e-06	-1.146121e-09	-2.431696e+01	-7.760857e+01
1.040000e-06	-3.468558e-06	-1.135044e-09	-2.406392e+01	-7.729229e+01
1.050000e-06	-3.431818e-06	-1.128676e-09	-2.380903e+01	-7.697209e+01
1.060000e-06	-3.394821e-06	-1.116071e-09	-2.355235e+01	-7.664758e+01
1.070000e-06	-3.357590e-06	-1.106787e-09	-2.329406e+01	-7.631834e+01
1.080000e-06	-3.320095e-06	-1.107770e-09	-2.303393e+01	-7.598401e+01
1.090000e-06	-3.282340e-06	-1.108840e-09	-2.277199e+01	-7.564422e+01
1.100000e-06	-3.244403e-06	-1.101480e-09	-2.250880e+01	-7.529865e+01
1.110000e-06	-3.206392e-06	-1.098296e-09	-2.224509e+01	-7.494703e+01
1.120000e-06	-3.168118e-06	-1.096883e-09	-2.197955e+01	-7.458912e+01
1.130000e-06	-3.129537e-06	-1.087443e-09	-2.171189e+01	-7.422475e+01
1.140000e-06	-3.090745e-06	-1.076815e-09	-2.144275e+01	-7.385377e+01
1.150000e-06	-3.051690e-06	-1.070793e-09	-2.117180e+01	-7.347612e+01
1.160000e-06	-3.012460e-06	-1.062224e-09	-2.089963e+01	-7.309177e+01
1.170000e-06	-2.973091e-06	-1.050977e-09	-2.062650e+01	-7.270075e+01
1.180000e-06	-2.933583e-06	-1.047308e-09	-2.035241e+01	-7.230312e+01
1.190000e-06	-2.893968e-06	-1.043837e-09	-2.007757e+01	-7.189900e+01
1.200000e-06	-2.854228e-06	-1.037127e-09	-1.980187e+01	-7.148853e+01
1.210000e-06	-2.814333e-06	-1.029036e-09	-1.952509e+01	-7.107189e+01
1.220000e-06	-2.774320e-06	-1.022960e-09	-1.924748e+01	-7.064927e+01
1.230000e-06	-2.734153e-06	-1.012584e-09	-1.896882e+01	-7.022086e+01
1.240000e-06	-2.693721e-06	-1.003629e-09	-1.868831e+01	-6.978689e+01
1.250000e-06	-2.653012e-06	-9.982028e-10	-1.840588e+01	-6.934753e+01
1.260000e-06	-2.612090e-06	-9.939591e-10	-1.812198e+01	-6.890296e+01
1.270000e-06	-2.570899e-06	-9.882163e-10	-1.783620e+01	-6.845335e+01
1.280000e-06	-2.529268e-06	-9.843669e-10	-1.754738e+01	-6.799881e+01
1.290000e-06	-2.487324e-06	-9.773122e-10	-1.725639e+01	-6.753942e+01
1.300000e-06	-2.445124e-06	-9.677256e-10	-1.696361e+01	-6.707521e+01
1.310000e-06	-2.402608e-06	-9.564463e-10	-1.666865e+01	-6.660616e+01
1.320000e-06	-2.359854e-06	-9.488200e-10	-1.637204e+01	-6.613221e+01
1.330000e-06	-2.316892e-06	-9.409065e-10	-1.607397e+01	-6.565321e+01
1.340000e-06	-2.273794e-06	-9.344237e-10	-1.577497e+01	-6.516900e+01
1.350000e-06	-2.230501e-06	-9.299243e-10	-1.547462e+01	-6.467931e+01
1.360000e-06	-2.187001e-06	-9.235237e-10	-1.517282e+01	-6.418387e+01
1.370000e-06	-2.143345e-06	-9.131145e-10	-1.486995e+01	-6.368231e+01
1.380000e-06	-2.099616e-06	-9.032491e-10	-1.456657e+01	-6.317426e+01
1.390000e-06	-2.055838e-06	-8.919910e-10	-1.426285e+01	-6.265926e+01
1.400000e-06	-2.012025e-06	-8.815084e-10	-1.395889e+01	-6.213687e+01
1.410000e-06	-1.968179e-06	-8.741686e-10	-1.365470e+01	-6.160658e+01
1.420000e-06	-1.924236e-06	-8.688944e-10	-1.334983e+01	-6.106788e+01
1.430000e-06	-1.880187e-06	-8.619934e-10	-1.304423e+01	-6.052026e+01
1.440000e-06	-1.836008e-06	-8.540636e-10	-1.273773e+01	-5.996319e+01
1.450000e-06	-1.791731e-06	-8.439729e-10	-1.243055e+01	-5.939615e+01
1.460000e-06	-1.747347e-06	-8.301074e-10	-1.212262e+01	-5.881864e+01
1.470000e-06	-1.702750e-06	-8.163995e-10	-1.181322e+01	-5.823016e+01
1.480000e-06	-1.658011e-06	-8.058545e-10	-1.150284e+01	-5.763024e+01
1.490000e-06	-1.613126e-06	-7.967460e-10	-1.119144e+01	-5.701846e+01
1.500000e-06	-1.568046e-06	-7.878117e-10	-1.087868e+01	-5.639438e+01
1.510000e-06	-1.522809e-06	-7.816591e-10	-1.056484e+01	-5.575764e+01
1.520000e-06	-1.477530e-06	-7.752755e-10	-1.025070e+01	-5.510789e+01
1.530000e-06	-1.432178e-06	-7.662218e-10	-9.936068e+00	-5.444479e+01
1.540000e-06	-1.386685e-06	-7.539672e-10	-9.620445e+00	-5.376804e+01
1.550000e-06	-1.341177e-06	-7.430629e-10	-9.304722e+00	-5.307737e+01
1.560000e-06	-1.295600e-06	-7.314759e-10	-8.988527e+00	-5.237251e+01
1.570000e-06	-1.249909e-06	-7.223743e-10	-8.671529e+00	-5.165319e+01
1.580000e-06	-1.204171e-06	-7.129230e-10	-8.354214e+00	-5.091915e+01
1.590000e-06	-1.158360e-06	-7.044506e-10	-8.036387e+00	-5.017010e+01
1.600000e-06	-1.112425e-06	-6.938801e-10	-7.717705e+00	-4.940574e+01
1.610000e-06	-1.066432e-06	-6.811524e-10	-7.398618e+00	-4.862574e+01
1.620000e-06	-1.020275e-06	-6.694798e-10	-7.078392e+00	-4.782972e+01
1.630000e-06	-9.740579e-07	-6.572644e-10	-6.757751e+00	-4.701725e+01
1.640000e-06	-9.278452e-07	-6.437272e-10	-6.437140e+00	-4.618784e+01
1.650000e-06	-8.815454e-07	-6.262497e-10	-6.115925e+00	-4.534094e+01
1.660000e-06	-8.352124e-07	-6.081751e-10	-5.794479e+00	-4.447592e+01
1.670000e-06	-7.887970e-07	-5.906436e-10	-5.472462e+00	-4.359208e+01
1.680000e-06	-7.422912e-07	-5.743224e-10	-5.149817e+00	-4.268861e+01
1.690000e-06	-6.957286e-07	-5.615482e-10	-4.826778e+00	-4.176466e+01
1.700000e-06	-6.491148e-07	-5.495274e-10	-4.503384e+00	-4.081929e+01
1.710000e-06	-6.025084e-07	-5.372671e-10	-4.180041e+00	-3.985146e+01
1.720000e-06	-5.558702e-07	-5.229456e-10	-3.856478e+00	-3.886009e+01
1.730000e-06	-5.091845e-07	-5.065988e-10	-3.532585e+00	-3.784404e+01
1.740000e-06	-4.624863e-07	-4.887394e-10	-3.208605e+00	-3.680211e+01
1.750000e-06	-4.156634e-07	-4.692537e-10	-2.883761e+00	-3.573308e+01
1.760000e-06	-3.687624e-07	-4.507573e-10	-2.558374e+00	-3.463571e+01
1.770000e-06	-3.218623e-07	-4.370654e-10	-2.232994e+00	-3.350875e+01
1.780000e-06	-2.750284e-07	-4.236655e-10	-1.908073e+00	-3.235100e+01
1.790000e-06	-2.282146e-07	-4.090248e-10	-1.583291e+00	-3.116128e+01
1.800000e-06	-1.813889e-07	-3.908638e-10	-1.258427e+00	-2.993847e+01
1.810000e-06	-1.345429e-07	-3.691874e-10	-9.334222e-01	-2.868157e+01
1.820000e-06	-8.766735e-08	-3.490614e-10	-6.082125e-01	-2.738966e+01
1.830000e-06	-4.079045e-08	-3.301532e-10	-2.829932e-01	-2.606196e+01
1.840000e-06	6.136933e-09	-3.107461e-10	4.257639e-02	-2.469785e+01
1.850000e-06	5.311049e-08	-2.900943e-10	3.684663e-01	-2.329689e+01
1.860000e-06	1.000360e-07	-2.671710e-10	6.940232e-01	-2.185882e+01
1.870000e-06	1.469509e-07	-2.441894e-10	1.019506e+00	-2.038361e+01
1.880000e-06	1.938726e-07	-2.242163e-10	1.345036e+00	-1.887143e+01
1.890000e-06	2.407180e-07	-2.062585e-10	1.670037e+00	-1.732272e+01
1.900000e-06	2.876272e-07	-1.873791e-10	1.995480e+00	-1.573815e+01
1.910000e-06	3.345580e-07	-1.667884e-10	2.321073e+00	-1.411863e+01
1.920000e-06	3.813465e-07	-1.454852e-10	2.645679e+00	-1.246535e+01
1.930000e-06	4.281375e-07	-1.202260e-10	2.970303e+00	-1.077974e+01
1.940000e-06	4.749297e-07	-9.372377e-11	3.294934e+00	-9.063471e+00
1.950000e-06	5.216260e-07	-6.764060e-11	3.618901e+00	-7.318476e+00
1.960000e-06	5.683012e-07	-4.535268e-11	3.942721e+00	-5.546895e+00
1.970000e-06	6.149719e-07	-2.230392e-11	4.266510e+00	-3.751088e+00
1.980000e-06	6.615815e-07	1.753213e-12	4.589874e+00	-1.933609e+00
1.990000e-06	7.081036e-07	2.832163e-11	4.912632e+00	-9.718287e-02
2.000000e-06	7.545467e-07	5.860340e-11	5.234842e+00	1.755317e+00
2.010000e-06	8.009417e-07	9.012946e-11	5.556718e+00	3.620894e+00
2.020000e-06	8.473159e-07	1.184697e-10	5.878450e+00	5.496457e+00
2.030000e-06	8.936580e-07	1.419247e-10	6.199958e+00	7.378851e+00
2.040000e-06	9.399410e-07	1.626519e-10	6.521058e+00	9.264881e+00
2.050000e-06	9.861500e-07	1.854276e-10	6.841643e+00	1.115135e+01
2.060000e-06	1.032198e-06	2.112032e-10	7.161110e+00	1.303508e+01
2.070000e-06	1.078126e-06	2.375867e-10	7.479747e+00	1.491295e+01
2.080000e-06	1.124071e-06	2.654775e-10	7.798499e+00	1.678192e+01
2.090000e-06	1.169968e-06	2.959979e-10	8.116921e+00	1.863906e+01
2.100000e-06	1.215790e-06	3.239323e-10	8.434825e+00	2.048156e+01
2.110000e-06	1.261480e-06	3.492180e-10	8.751809e+00	2.230677e+01
2.120000e-06	1.307034e-06	3.722395e-10	9.067849e+00	2.411222e+01
2.130000e-06	1.352569e-06	3.932580e-10	9.383762e+00	2.589561e+01
2.140000e-06	1.398042e-06	4.126477e-10	9.699238e+00	2.765487e+01
2.150000e-06	1.443447e-06	4.321107e-10	1.001425e+01	2.938811e+01
2.160000e-06	1.488749e-06	4.578989e-10	1.032854e+01	3.109370e+01
2.170000e-06	1.533872e-06	4.835197e-10	1.064159e+01	3.277018e+01
2.180000e-06	1.578825e-06	5.104418e-10	1.095346e+01	3.441635e+01
2.190000e-06	1.623646e-06	5.365023e-10	1.126442e+01	3.603123e+01
2.200000e-06	1.668411e-06	5.618769e-10	1.157499e+01	3.761403e+01
2.210000e-06	1.713012e-06	5.803321e-10	1.188442e+01	3.916418e+01
2.220000e-06	1.757422e-06	5.928656e-10	1.219252e+01	4.068129e+01
2.230000e-06	1.801722e-06	6.047745e-10	1.249986e+01	4.216518e+01
2.240000e-06	1.845924e-06	6.203055e-10	1.280652e+01	4.361578e+01
2.250000e-06	1.890031e-06	6.410294e-10	1.311253e+01	4.503323e+01
2.260000e-06	1.934043e-06	6.679679e-10	1.341787e+01	4.641775e+01
2.270000e-06	1.977950e-06	6.954896e-10	1.372249e+01	4.776969e+01
2.280000e-06	2.021737e-06	7.199915e-10	1.402626e+01	4.908951e+01
2.290000e-06	2.065475e-06	7.405387e-10	1.432971e+01	5.037770e+01
2.300000e-06	2.109205e-06	7.532072e-10	1.463310e+01	5.163486e+01
2.310000e-06	2.152899e-06	7.606823e-10	1.493623e+01	5.286158e+01
2.320000e-06	2.196488e-06	7.702175e-10	1.523865e+01	5.405851e+01
2.330000e-06	2.239935e-06	7.848810e-10	1.554007e+01	5.522630e+01
2.340000e-06	2.283249e-06	8.048274e-10	1.584057e+01	5.636557e+01
2.350000e-06	2.326454e-06	8.261141e-10	1.614031e+01	5.747697e+01
2.360000e-06	2.369379e-06	8.464556e-10	1.643811e+01	5.856108e+01
2.370000e-06	2.411949e-06	8.621312e-10	1.673346e+01	5.961849e+01
2.380000e-06	2.454298e-06	8.721414e-10	1.702726e+01	6.064971e+01
2.390000e-06	2.496334e-06	8.820352e-10	1.731890e+01	6.165526e+01
2.400000e-06	2.538002e-06	8.925216e-10	1.760797e+01	6.263558e+01
2.410000e-06	2.579269e-06	9.050007e-10	1.789427e+01	6.359109e+01
2.420000e-06	2.620200e-06	9.186351e-10	1.817824e+01	6.452216e+01
2.430000e-06	2.660916e-06	9.345840e-10	1.846072e+01	6.542913e+01
2.440000e-06	2.701394e-06	9.495973e-10	1.874154e+01	6.631232e+01
2.450000e-06	2.741674e-06	9.643029e-10	1.902100e+01	6.717203e+01
2.460000e-06	2.781762e-06	9.770870e-10	1.929912e+01	6.800852e+01
2.470000e-06	2.821660e-06	9.877509e-10	1.957592e+01	6.882206e+01
2.480000e-06	2.861494e-06	9.968878e-10	1.985228e+01	6.961292e+01
2.490000e-06	2.901271e-06	1.007572e-09	2.012823e+01	7.038136e+01
2.500000e-06	2.940922e-06	1.018096e-09	2.040333e+01	7.112768e+01
2.510000e-06	2.980392e-06	1.027148e-09	2.067716e+01	7.185217e+01
2.520000e-06	3.019718e-06	1.036625e-09	2.094999e+01	7.255517e+01
2.530000e-06	3.058914e-06	1.048489e-09	2.122192e+01	7.323704e+01
2.540000e-06	3.097829e-06	1.058950e-09	2.149190e+01	7.389818e+01
2.550000e-06	3.136479e-06	1.067645e-09	2.176005e+01	7.453901e+01
2.560000e-06	3.174881e-06	1.078000e-09	2.202647e+01	7.516002e+01
2.570000e-06	3.213029e-06	1.087702e-09	2.229113e+01	7.576171e+01
2.580000e-06	3.251014e-06	1.095856e-09	2.255466e+01	7.634463e+01
2.590000e-06	3.288831e-06	1.104498e-09	2.281703e+01	7.690939e+01
2.600000e-06	3.326424e-06	1.112349e-09	2.307784e+01	7.745658e+01
2.610000e-06	3.363716e-06	1.119527e-09	2.333656e+01	7.798688e+01
2.620000e-06	3.400739e-06	1.125875e-09	2.359341e+01	7.850094e+01
2.630000e-06	3.437546e-06	1.130657e-09	2.384877e+01	7.899946e+01
2.640000e-06	3.474070e-06	1.134213e-09	2.410216e+01	7.948314e+01
2.650000e-06	3.510389e-06	1.138212e-09	2.435413e+01	7.995269e+01
2.660000e-06	3.546518e-06	1.143580e-09	2.460478e+01	8.040880e+01
2.670000e-06	3.582450e-06	1.149435e-09	2.485407e+01	8.085217e+01
2.680000e-06	3.618279e-06	1.155886e-09	2.510264e+01	8.128347e+01
2.690000e-06	3.654016e-06	1.162796e-09	2.535058e+01	8.170334e+01
2.700000e-06	3.689604e-06	1.168547e-09	2.559748e+01	8.211240e+01
2.710000e-06	3.724982e-06	1.173039e-09	2.584292e+01	8.251122e+01
2.720000e-06	3.760151e-06	1.178047e-09	2.608691e+01	8.290034e+01
2.730000e-06	3.795015e-06	1.182410e-09	2.632879e+01	8.328026e+01
2.740000e-06	3.829432e-06	1.188032e-09	2.656757e+01	8.365141e+01
2.750000e-06	3.863273e-06	1.196723e-09	2.680235e+01	8.401419e+01
2.760000e-06	3.896529e-06	1.206386e-09	2.703307e+01	8.436893e+01
2.770000e-06	3.929414e-06	1.213694e-09	2.726122e+01	8.471593e+01
2.780000e-06	3.962009e-06	1.220458e-09	2.748735e+01	8.505542e+01
2.790000e-06	3.994260e-06	1.226448e-09	2.771110e+01	8.538761e+01
2.800000e-06	4.026236e-06	1.230619e-09	2.793294e+01	8.571265e+01
2.810000e-06	4.058082e-06	1.230630e-09	2.815388e+01	8.603064e+01
2.820000e-06	4.089805e-06	1.231260e-09	2.837397e+01	8.634168e+01
2.830000e-06	4.121348e-06	1.235393e-09	2.859281e+01	8.664582e+01
2.840000e-06	4.152590e-06	1.240790e-09	2.880955e+01	8.694308e+01
2.850000e-06	4.183553e-06	1.247528e-09	2.902436e+01	8.723348e+01
2.860000e-06	4.214245e-06	1.255391e-09	2.923730e+01	8.751702e+01
2.870000e-06	4.244534e-06	1.262600e-09	2.944744e+01	8.779372e+01
2.880000e-06	4.274452e-06	1.267683e-09	2.965500e+01	8.806357e+01
2.890000e-06	4.304124e-06	1.271584e-09	2.986085e+01	8.832658e+01
2.900000e-06	4.333552e-06	1.275435e-09	3.006502e+01	8.858278e+01
