# Temperatura_=_-6.44
# Concentracion g/m^3_=_1620.0
# C_Vs_to_Am_M_A/Vsm_=_65563218390.804596
# pendiente_HvsI_1/m_=_3716.3
# ordenada_HvsI_A/m_=_1297.0
# frecuencia_Hz_=_135109.48843245787

Tiempo_(s)	Campo_(V.s)	Magnetizacion_(V.s)	Campo_(kA/m)	Magnetizacion_(A/m)
0.000000e+00	-5.516691e-06	-1.056455e-09	-3.836283e+01	-7.194104e+01
1.000000e-08	-5.516793e-06	-1.061276e-09	-3.836354e+01	-7.191532e+01
2.000000e-08	-5.516685e-06	-1.069092e-09	-3.836279e+01	-7.189130e+01
3.000000e-08	-5.516140e-06	-1.075930e-09	-3.835899e+01	-7.186879e+01
4.000000e-08	-5.515154e-06	-1.076404e-09	-3.835214e+01	-7.184756e+01
5.000000e-08	-5.513618e-06	-1.068334e-09	-3.834146e+01	-7.182735e+01
6.000000e-08	-5.511323e-06	-1.058261e-09	-3.832550e+01	-7.180785e+01
7.000000e-08	-5.508406e-06	-1.054192e-09	-3.830521e+01	-7.178875e+01
8.000000e-08	-5.505013e-06	-1.051694e-09	-3.828162e+01	-7.176969e+01
9.000000e-08	-5.501201e-06	-1.053335e-09	-3.825511e+01	-7.175028e+01
1.000000e-07	-5.496984e-06	-1.080866e-09	-3.822579e+01	-7.173014e+01
1.100000e-07	-5.492524e-06	-1.102050e-09	-3.819478e+01	-7.170883e+01
1.200000e-07	-5.487934e-06	-1.066240e-09	-3.816285e+01	-7.168594e+01
1.300000e-07	-5.483047e-06	-1.040244e-09	-3.812887e+01	-7.166102e+01
1.400000e-07	-5.477752e-06	-1.068253e-09	-3.809205e+01	-7.163366e+01
1.500000e-07	-5.472044e-06	-1.089563e-09	-3.805235e+01	-7.160342e+01
1.600000e-07	-5.465910e-06	-1.069700e-09	-3.800970e+01	-7.156988e+01
1.700000e-07	-5.459354e-06	-1.027569e-09	-3.796411e+01	-7.153266e+01
1.800000e-07	-5.452410e-06	-1.070615e-09	-3.791582e+01	-7.149136e+01
1.900000e-07	-5.445115e-06	-1.098674e-09	-3.786509e+01	-7.144564e+01
2.000000e-07	-5.437519e-06	-1.065358e-09	-3.781227e+01	-7.139518e+01
2.100000e-07	-5.429656e-06	-1.049614e-09	-3.775759e+01	-7.133972e+01
2.200000e-07	-5.421588e-06	-1.090341e-09	-3.770149e+01	-7.127901e+01
2.300000e-07	-5.413243e-06	-1.122145e-09	-3.764346e+01	-7.121286e+01
2.400000e-07	-5.404394e-06	-1.086801e-09	-3.758192e+01	-7.114114e+01
2.500000e-07	-5.394886e-06	-1.073079e-09	-3.751580e+01	-7.106376e+01
2.600000e-07	-5.384713e-06	-1.079463e-09	-3.744506e+01	-7.098070e+01
2.700000e-07	-5.373959e-06	-1.078326e-09	-3.737028e+01	-7.089197e+01
2.800000e-07	-5.362660e-06	-1.063201e-09	-3.729171e+01	-7.079766e+01
2.900000e-07	-5.350952e-06	-1.075078e-09	-3.721028e+01	-7.069790e+01
3.000000e-07	-5.338904e-06	-1.071698e-09	-3.712651e+01	-7.059290e+01
3.100000e-07	-5.326441e-06	-1.066190e-09	-3.703984e+01	-7.048290e+01
3.200000e-07	-5.313571e-06	-1.075778e-09	-3.695034e+01	-7.036820e+01
3.300000e-07	-5.300314e-06	-1.080205e-09	-3.685815e+01	-7.024913e+01
3.400000e-07	-5.286663e-06	-1.056513e-09	-3.676323e+01	-7.012609e+01
3.500000e-07	-5.272655e-06	-1.056137e-09	-3.666582e+01	-6.999951e+01
3.600000e-07	-5.258252e-06	-1.065717e-09	-3.656566e+01	-6.986983e+01
3.700000e-07	-5.243415e-06	-1.051324e-09	-3.646248e+01	-6.973753e+01
3.800000e-07	-5.228074e-06	-1.052685e-09	-3.635580e+01	-6.960314e+01
3.900000e-07	-5.212184e-06	-1.068946e-09	-3.624530e+01	-6.946714e+01
4.000000e-07	-5.195772e-06	-1.039393e-09	-3.613117e+01	-6.933007e+01
4.100000e-07	-5.178970e-06	-1.022914e-09	-3.601433e+01	-6.919244e+01
4.200000e-07	-5.161907e-06	-1.064410e-09	-3.589568e+01	-6.905476e+01
4.300000e-07	-5.144538e-06	-1.057116e-09	-3.577490e+01	-6.891753e+01
4.400000e-07	-5.126775e-06	-1.009391e-09	-3.565137e+01	-6.878121e+01
4.500000e-07	-5.108671e-06	-1.039831e-09	-3.552547e+01	-6.864625e+01
4.600000e-07	-5.090221e-06	-1.070012e-09	-3.539718e+01	-6.851305e+01
4.700000e-07	-5.071273e-06	-1.004028e-09	-3.526541e+01	-6.838198e+01
4.800000e-07	-5.051891e-06	-1.001265e-09	-3.513063e+01	-6.825335e+01
4.900000e-07	-5.032265e-06	-1.069572e-09	-3.499415e+01	-6.812744e+01
5.000000e-07	-5.012489e-06	-1.045940e-09	-3.485663e+01	-6.800447e+01
5.100000e-07	-4.992524e-06	-9.959282e-10	-3.471779e+01	-6.788460e+01
5.200000e-07	-4.972319e-06	-1.045881e-09	-3.457729e+01	-6.776793e+01
5.300000e-07	-4.951743e-06	-1.054172e-09	-3.443420e+01	-6.765452e+01
5.400000e-07	-4.930699e-06	-9.956121e-10	-3.428787e+01	-6.754435e+01
5.500000e-07	-4.909296e-06	-1.011294e-09	-3.413903e+01	-6.743736e+01
5.600000e-07	-4.887589e-06	-1.046275e-09	-3.398808e+01	-6.733344e+01
5.700000e-07	-4.865569e-06	-9.970375e-10	-3.383495e+01	-6.723241e+01
5.800000e-07	-4.843210e-06	-9.907251e-10	-3.367947e+01	-6.713405e+01
5.900000e-07	-4.820481e-06	-1.036293e-09	-3.352142e+01	-6.703811e+01
6.000000e-07	-4.797381e-06	-1.014256e-09	-3.336078e+01	-6.694427e+01
6.100000e-07	-4.773970e-06	-9.779495e-10	-3.319798e+01	-6.685222e+01
6.200000e-07	-4.750282e-06	-1.008762e-09	-3.303325e+01	-6.676157e+01
6.300000e-07	-4.726355e-06	-1.013957e-09	-3.286687e+01	-6.667196e+01
6.400000e-07	-4.702267e-06	-9.834448e-10	-3.269936e+01	-6.658298e+01
6.500000e-07	-4.677812e-06	-9.928379e-10	-3.252930e+01	-6.649421e+01
6.600000e-07	-4.652851e-06	-1.007773e-09	-3.235573e+01	-6.640525e+01
6.700000e-07	-4.627481e-06	-9.859270e-10	-3.217930e+01	-6.631569e+01
6.800000e-07	-4.601595e-06	-9.807521e-10	-3.199929e+01	-6.622512e+01
6.900000e-07	-4.575044e-06	-9.987475e-10	-3.181466e+01	-6.613316e+01
7.000000e-07	-4.547956e-06	-9.922397e-10	-3.162629e+01	-6.603944e+01
7.100000e-07	-4.520547e-06	-9.754236e-10	-3.143569e+01	-6.594362e+01
7.200000e-07	-4.492934e-06	-9.786548e-10	-3.124367e+01	-6.584538e+01
7.300000e-07	-4.465187e-06	-9.840851e-10	-3.105071e+01	-6.574443e+01
7.400000e-07	-4.437340e-06	-9.732257e-10	-3.085707e+01	-6.564054e+01
7.500000e-07	-4.409250e-06	-9.694696e-10	-3.066173e+01	-6.553349e+01
7.600000e-07	-4.380792e-06	-9.738099e-10	-3.046384e+01	-6.542310e+01
7.700000e-07	-4.351984e-06	-9.685185e-10	-3.026351e+01	-6.530925e+01
7.800000e-07	-4.322817e-06	-9.600583e-10	-3.006068e+01	-6.519183e+01
7.900000e-07	-4.293310e-06	-9.655455e-10	-2.985549e+01	-6.507079e+01
8.000000e-07	-4.263580e-06	-9.656510e-10	-2.964875e+01	-6.494612e+01
8.100000e-07	-4.233613e-06	-9.575736e-10	-2.944036e+01	-6.481782e+01
8.200000e-07	-4.203378e-06	-9.564049e-10	-2.923011e+01	-6.468595e+01
8.300000e-07	-4.172871e-06	-9.604754e-10	-2.901796e+01	-6.455059e+01
8.400000e-07	-4.142016e-06	-9.564146e-10	-2.880340e+01	-6.441185e+01
8.500000e-07	-4.110857e-06	-9.571620e-10	-2.858672e+01	-6.426985e+01
8.600000e-07	-4.079474e-06	-9.593948e-10	-2.836848e+01	-6.412475e+01
8.700000e-07	-4.047903e-06	-9.518688e-10	-2.814894e+01	-6.397671e+01
8.800000e-07	-4.016131e-06	-9.433167e-10	-2.792800e+01	-6.382592e+01
8.900000e-07	-3.984200e-06	-9.426056e-10	-2.770596e+01	-6.367255e+01
9.000000e-07	-3.952105e-06	-9.373150e-10	-2.748277e+01	-6.351681e+01
9.100000e-07	-3.919648e-06	-9.350784e-10	-2.725706e+01	-6.335887e+01
9.200000e-07	-3.886806e-06	-9.389407e-10	-2.702868e+01	-6.319893e+01
9.300000e-07	-3.853598e-06	-9.381675e-10	-2.679775e+01	-6.303716e+01
9.400000e-07	-3.819920e-06	-9.313111e-10	-2.656356e+01	-6.287374e+01
9.500000e-07	-3.785760e-06	-9.275697e-10	-2.632601e+01	-6.270882e+01
9.600000e-07	-3.751173e-06	-9.199769e-10	-2.608550e+01	-6.254253e+01
9.700000e-07	-3.716205e-06	-9.074804e-10	-2.584233e+01	-6.237500e+01
9.800000e-07	-3.680932e-06	-9.061302e-10	-2.559704e+01	-6.220634e+01
9.900000e-07	-3.645469e-06	-9.110740e-10	-2.535043e+01	-6.203660e+01
1.000000e-06	-3.609849e-06	-9.077491e-10	-2.510273e+01	-6.186587e+01
1.010000e-06	-3.574104e-06	-9.039384e-10	-2.485416e+01	-6.169415e+01
1.020000e-06	-3.538180e-06	-9.064502e-10	-2.460435e+01	-6.152147e+01
1.030000e-06	-3.502082e-06	-9.031766e-10	-2.435332e+01	-6.134781e+01
1.040000e-06	-3.465825e-06	-8.966913e-10	-2.410120e+01	-6.117312e+01
1.050000e-06	-3.429310e-06	-8.937813e-10	-2.384728e+01	-6.099735e+01
1.060000e-06	-3.392531e-06	-8.895582e-10	-2.359151e+01	-6.082039e+01
1.070000e-06	-3.355547e-06	-8.810837e-10	-2.333433e+01	-6.064215e+01
1.080000e-06	-3.318287e-06	-8.799813e-10	-2.307522e+01	-6.046249e+01
1.090000e-06	-3.280674e-06	-8.811111e-10	-2.281367e+01	-6.028126e+01
1.100000e-06	-3.242808e-06	-8.762689e-10	-2.255034e+01	-6.009829e+01
1.110000e-06	-3.204773e-06	-8.739006e-10	-2.228585e+01	-5.991339e+01
1.120000e-06	-3.166523e-06	-8.777642e-10	-2.201986e+01	-5.972635e+01
1.130000e-06	-3.128013e-06	-8.740931e-10	-2.175206e+01	-5.953696e+01
1.140000e-06	-3.089243e-06	-8.669162e-10	-2.148246e+01	-5.934499e+01
1.150000e-06	-3.050302e-06	-8.628102e-10	-2.121167e+01	-5.915018e+01
1.160000e-06	-3.011252e-06	-8.563229e-10	-2.094011e+01	-5.895228e+01
1.170000e-06	-2.971988e-06	-8.462453e-10	-2.066707e+01	-5.875104e+01
1.180000e-06	-2.932498e-06	-8.441329e-10	-2.039246e+01	-5.854618e+01
1.190000e-06	-2.892858e-06	-8.462916e-10	-2.011681e+01	-5.833742e+01
1.200000e-06	-2.853103e-06	-8.421162e-10	-1.984035e+01	-5.812449e+01
1.210000e-06	-2.813281e-06	-8.355128e-10	-1.956344e+01	-5.790711e+01
1.220000e-06	-2.773387e-06	-8.316386e-10	-1.928601e+01	-5.768500e+01
1.230000e-06	-2.733328e-06	-8.251101e-10	-1.900744e+01	-5.745788e+01
1.240000e-06	-2.693063e-06	-8.170898e-10	-1.872744e+01	-5.722547e+01
1.250000e-06	-2.652614e-06	-8.158027e-10	-1.844616e+01	-5.698751e+01
1.260000e-06	-2.611943e-06	-8.158713e-10	-1.816334e+01	-5.674374e+01
1.270000e-06	-2.570990e-06	-8.113651e-10	-1.787855e+01	-5.649389e+01
1.280000e-06	-2.529690e-06	-8.079911e-10	-1.759135e+01	-5.623773e+01
1.290000e-06	-2.488120e-06	-8.064444e-10	-1.730228e+01	-5.597504e+01
1.300000e-06	-2.446278e-06	-7.996333e-10	-1.701131e+01	-5.570558e+01
1.310000e-06	-2.404113e-06	-7.929814e-10	-1.671809e+01	-5.542916e+01
1.320000e-06	-2.361679e-06	-7.901521e-10	-1.642301e+01	-5.514561e+01
1.330000e-06	-2.318932e-06	-7.859178e-10	-1.612575e+01	-5.485475e+01
1.340000e-06	-2.275958e-06	-7.813497e-10	-1.582691e+01	-5.455644e+01
1.350000e-06	-2.232810e-06	-7.801120e-10	-1.552686e+01	-5.425056e+01
1.360000e-06	-2.189455e-06	-7.769072e-10	-1.522537e+01	-5.393699e+01
1.370000e-06	-2.145909e-06	-7.695616e-10	-1.492255e+01	-5.361567e+01
1.380000e-06	-2.102239e-06	-7.617237e-10	-1.461888e+01	-5.328652e+01
1.390000e-06	-2.058521e-06	-7.562595e-10	-1.431486e+01	-5.294950e+01
1.400000e-06	-2.014756e-06	-7.497736e-10	-1.401052e+01	-5.260458e+01
1.410000e-06	-1.970907e-06	-7.424214e-10	-1.370560e+01	-5.225177e+01
1.420000e-06	-1.926965e-06	-7.383943e-10	-1.340003e+01	-5.189106e+01
1.430000e-06	-1.882955e-06	-7.351596e-10	-1.309398e+01	-5.152247e+01
1.440000e-06	-1.838858e-06	-7.297931e-10	-1.278734e+01	-5.114603e+01
1.450000e-06	-1.794680e-06	-7.228590e-10	-1.248013e+01	-5.076177e+01
1.460000e-06	-1.750346e-06	-7.147398e-10	-1.217183e+01	-5.036971e+01
1.470000e-06	-1.705740e-06	-7.052905e-10	-1.186164e+01	-4.996990e+01
1.480000e-06	-1.661102e-06	-6.975932e-10	-1.155123e+01	-4.956233e+01
1.490000e-06	-1.616450e-06	-6.927224e-10	-1.124072e+01	-4.914702e+01
1.500000e-06	-1.571572e-06	-6.872387e-10	-1.092864e+01	-4.872394e+01
1.510000e-06	-1.526543e-06	-6.815913e-10	-1.061551e+01	-4.829304e+01
1.520000e-06	-1.481432e-06	-6.783461e-10	-1.030181e+01	-4.785425e+01
1.530000e-06	-1.436181e-06	-6.737523e-10	-9.987143e+00	-4.740743e+01
1.540000e-06	-1.390833e-06	-6.645938e-10	-9.671790e+00	-4.695242e+01
1.550000e-06	-1.345436e-06	-6.551985e-10	-9.356104e+00	-4.648900e+01
1.560000e-06	-1.299886e-06	-6.448002e-10	-9.039353e+00	-4.601688e+01
1.570000e-06	-1.254229e-06	-6.345529e-10	-8.721855e+00	-4.553574e+01
1.580000e-06	-1.208518e-06	-6.280028e-10	-8.403978e+00	-4.504514e+01
1.590000e-06	-1.162766e-06	-6.264089e-10	-8.085821e+00	-4.454462e+01
1.600000e-06	-1.116947e-06	-6.247013e-10	-7.767200e+00	-4.403362e+01
1.610000e-06	-1.071007e-06	-6.186576e-10	-7.447738e+00	-4.351150e+01
1.620000e-06	-1.025008e-06	-6.114581e-10	-7.127861e+00	-4.297756e+01
1.630000e-06	-9.788790e-07	-6.027981e-10	-6.807082e+00	-4.243100e+01
1.640000e-06	-9.326870e-07	-5.929658e-10	-6.485865e+00	-4.187097e+01
1.650000e-06	-8.865016e-07	-5.835426e-10	-6.164693e+00	-4.129652e+01
1.660000e-06	-8.402229e-07	-5.729905e-10	-5.842874e+00	-4.070664e+01
1.670000e-06	-7.938938e-07	-5.609961e-10	-5.520703e+00	-4.010027e+01
1.680000e-06	-7.475307e-07	-5.492248e-10	-5.198296e+00	-3.947627e+01
1.690000e-06	-7.011958e-07	-5.375287e-10	-4.876085e+00	-3.883347e+01
1.700000e-06	-6.548603e-07	-5.260666e-10	-4.553870e+00	-3.817064e+01
1.710000e-06	-6.084330e-07	-5.165649e-10	-4.231017e+00	-3.748652e+01
1.720000e-06	-5.619740e-07	-5.098122e-10	-3.907943e+00	-3.677985e+01
1.730000e-06	-5.154548e-07	-5.012839e-10	-3.584450e+00	-3.604934e+01
1.740000e-06	-4.688519e-07	-4.890108e-10	-3.260376e+00	-3.529371e+01
1.750000e-06	-4.221676e-07	-4.742928e-10	-2.935735e+00	-3.451172e+01
1.760000e-06	-3.753691e-07	-4.587888e-10	-2.610300e+00	-3.370212e+01
1.770000e-06	-3.285871e-07	-4.459957e-10	-2.284980e+00	-3.286375e+01
1.780000e-06	-2.817695e-07	-4.347662e-10	-1.959413e+00	-3.199548e+01
1.790000e-06	-2.348806e-07	-4.229157e-10	-1.633349e+00	-3.109628e+01
1.800000e-06	-1.880917e-07	-4.113208e-10	-1.307981e+00	-3.016519e+01
1.810000e-06	-1.413452e-07	-3.982791e-10	-9.829086e-01	-2.920137e+01
1.820000e-06	-9.455231e-08	-3.848050e-10	-6.575126e-01	-2.820408e+01
1.830000e-06	-4.776487e-08	-3.710101e-10	-3.321548e-01	-2.717273e+01
1.840000e-06	-1.027906e-09	-3.559328e-10	-7.148014e-03	-2.610686e+01
1.850000e-06	4.571678e-08	-3.383289e-10	3.179125e-01	-2.500615e+01
1.860000e-06	9.248915e-08	-3.193983e-10	6.431655e-01	-2.387046e+01
1.870000e-06	1.392889e-07	-3.017520e-10	9.686086e-01	-2.269979e+01
1.880000e-06	1.861289e-07	-2.871934e-10	1.294332e+00	-2.149433e+01
1.890000e-06	2.329515e-07	-2.743218e-10	1.619935e+00	-2.025445e+01
1.900000e-06	2.797155e-07	-2.590874e-10	1.945130e+00	-1.898068e+01
1.910000e-06	3.264566e-07	-2.423326e-10	2.270165e+00	-1.767374e+01
1.920000e-06	3.732170e-07	-2.246124e-10	2.595335e+00	-1.633452e+01
1.930000e-06	4.199369e-07	-2.030416e-10	2.920223e+00	-1.496408e+01
1.940000e-06	4.666024e-07	-1.790949e-10	3.244733e+00	-1.356366e+01
1.950000e-06	5.132291e-07	-1.566486e-10	3.568973e+00	-1.213466e+01
1.960000e-06	5.597847e-07	-1.381540e-10	3.892718e+00	-1.067862e+01
1.970000e-06	6.063180e-07	-1.220530e-10	4.216309e+00	-9.197224e+00
1.980000e-06	6.527864e-07	-1.059821e-10	4.539448e+00	-7.692308e+00
1.990000e-06	6.991304e-07	-8.728674e-11	4.861722e+00	-6.165810e+00
2.000000e-06	7.453991e-07	-6.181401e-11	5.183472e+00	-4.619783e+00
2.010000e-06	7.916486e-07	-3.327378e-11	5.505090e+00	-3.056369e+00
2.020000e-06	8.379107e-07	-7.009731e-12	5.826794e+00	-1.477790e+00
2.030000e-06	8.841060e-07	1.471898e-11	6.148034e+00	1.136686e-01
2.040000e-06	9.302092e-07	3.167310e-11	6.468634e+00	1.715675e+00
2.050000e-06	9.762746e-07	4.788672e-11	6.788971e+00	3.325864e+00
2.060000e-06	1.022280e-06	6.679937e-11	7.108893e+00	4.941854e+00
2.070000e-06	1.068180e-06	8.729471e-11	7.428079e+00	6.561263e+00
2.080000e-06	1.114002e-06	1.116870e-10	7.746718e+00	8.181721e+00
2.090000e-06	1.159779e-06	1.389735e-10	8.065049e+00	9.800884e+00
2.100000e-06	1.205449e-06	1.653613e-10	8.382642e+00	1.141645e+01
2.110000e-06	1.251031e-06	1.879701e-10	8.699614e+00	1.302617e+01
2.120000e-06	1.296568e-06	2.067783e-10	9.016274e+00	1.462786e+01
2.130000e-06	1.342092e-06	2.240380e-10	9.332846e+00	1.621941e+01
2.140000e-06	1.387584e-06	2.404206e-10	9.649200e+00	1.779878e+01
2.150000e-06	1.432921e-06	2.592340e-10	9.964473e+00	1.936406e+01
2.160000e-06	1.478069e-06	2.827033e-10	1.027843e+01	2.091339e+01
2.170000e-06	1.523091e-06	3.075396e-10	1.059151e+01	2.244505e+01
2.180000e-06	1.568017e-06	3.308907e-10	1.090392e+01	2.395741e+01
2.190000e-06	1.612800e-06	3.532025e-10	1.121534e+01	2.544896e+01
2.200000e-06	1.657414e-06	3.732176e-10	1.152559e+01	2.691830e+01
2.210000e-06	1.701908e-06	3.881956e-10	1.183499e+01	2.836416e+01
2.220000e-06	1.746298e-06	4.008463e-10	1.214368e+01	2.978536e+01
2.230000e-06	1.790511e-06	4.166793e-10	1.245113e+01	3.118085e+01
2.240000e-06	1.834605e-06	4.347882e-10	1.275776e+01	3.254969e+01
2.250000e-06	1.878646e-06	4.535699e-10	1.306403e+01	3.389105e+01
2.260000e-06	1.922595e-06	4.750040e-10	1.336964e+01	3.520422e+01
2.270000e-06	1.966499e-06	4.968100e-10	1.367495e+01	3.648857e+01
2.280000e-06	2.010369e-06	5.163955e-10	1.398002e+01	3.774358e+01
2.290000e-06	2.054146e-06	5.340663e-10	1.428444e+01	3.896886e+01
2.300000e-06	2.097835e-06	5.489209e-10	1.458825e+01	4.016405e+01
2.310000e-06	2.141470e-06	5.612058e-10	1.489169e+01	4.132893e+01
2.320000e-06	2.185047e-06	5.744819e-10	1.519472e+01	4.246335e+01
2.330000e-06	2.228582e-06	5.902545e-10	1.549746e+01	4.356722e+01
2.340000e-06	2.271910e-06	6.066470e-10	1.579877e+01	4.464054e+01
2.350000e-06	2.314913e-06	6.240873e-10	1.609780e+01	4.568340e+01
2.360000e-06	2.357721e-06	6.420376e-10	1.639549e+01	4.669591e+01
2.370000e-06	2.400263e-06	6.557860e-10	1.669133e+01	4.767829e+01
2.380000e-06	2.442469e-06	6.661891e-10	1.698482e+01	4.863080e+01
2.390000e-06	2.484374e-06	6.760399e-10	1.727623e+01	4.955373e+01
2.400000e-06	2.525999e-06	6.858760e-10	1.756568e+01	5.044746e+01
2.410000e-06	2.567248e-06	6.982139e-10	1.785253e+01	5.131241e+01
2.420000e-06	2.608161e-06	7.121514e-10	1.813704e+01	5.214902e+01
2.430000e-06	2.648858e-06	7.259276e-10	1.842004e+01	5.295780e+01
2.440000e-06	2.689260e-06	7.382246e-10	1.870100e+01	5.373928e+01
2.450000e-06	2.729433e-06	7.490492e-10	1.898036e+01	5.449404e+01
2.460000e-06	2.769550e-06	7.589017e-10	1.925933e+01	5.522269e+01
2.470000e-06	2.809578e-06	7.685043e-10	1.953769e+01	5.592585e+01
2.480000e-06	2.849427e-06	7.795992e-10	1.981479e+01	5.660420e+01
2.490000e-06	2.889139e-06	7.917746e-10	2.009094e+01	5.725841e+01
2.500000e-06	2.928723e-06	8.029651e-10	2.036621e+01	5.788919e+01
2.510000e-06	2.968248e-06	8.122212e-10	2.064107e+01	5.849726e+01
2.520000e-06	3.007616e-06	8.191760e-10	2.091483e+01	5.908335e+01
2.530000e-06	3.046724e-06	8.268790e-10	2.118679e+01	5.964821e+01
2.540000e-06	3.085591e-06	8.369823e-10	2.145706e+01	6.019259e+01
2.550000e-06	3.124089e-06	8.466478e-10	2.172478e+01	6.071723e+01
2.560000e-06	3.162305e-06	8.545676e-10	2.199053e+01	6.122288e+01
2.570000e-06	3.200386e-06	8.606770e-10	2.225534e+01	6.171029e+01
2.580000e-06	3.238335e-06	8.664386e-10	2.251924e+01	6.218018e+01
2.590000e-06	3.276144e-06	8.728858e-10	2.278217e+01	6.263329e+01
2.600000e-06	3.313770e-06	8.797514e-10	2.304381e+01	6.307029e+01
2.610000e-06	3.351080e-06	8.859092e-10	2.330327e+01	6.349189e+01
2.620000e-06	3.388055e-06	8.911139e-10	2.356038e+01	6.389874e+01
2.630000e-06	3.424787e-06	8.962396e-10	2.381582e+01	6.429146e+01
2.640000e-06	3.461326e-06	9.007605e-10	2.406991e+01	6.467066e+01
2.650000e-06	3.497693e-06	9.061902e-10	2.432281e+01	6.503691e+01
2.660000e-06	3.533837e-06	9.126162e-10	2.457415e+01	6.539075e+01
2.670000e-06	3.569765e-06	9.177235e-10	2.482399e+01	6.573267e+01
2.680000e-06	3.605562e-06	9.223314e-10	2.507292e+01	6.606314e+01
2.690000e-06	3.641228e-06	9.280025e-10	2.532094e+01	6.638259e+01
2.700000e-06	3.676790e-06	9.344837e-10	2.556824e+01	6.669142e+01
2.710000e-06	3.712233e-06	9.410325e-10	2.581471e+01	6.698997e+01
2.720000e-06	3.747399e-06	9.473648e-10	2.605925e+01	6.727857e+01
2.730000e-06	3.782184e-06	9.524466e-10	2.630114e+01	6.755751e+01
2.740000e-06	3.816489e-06	9.571915e-10	2.653970e+01	6.782704e+01
2.750000e-06	3.850276e-06	9.630029e-10	2.677465e+01	6.808739e+01
2.760000e-06	3.883564e-06	9.687440e-10	2.700613e+01	6.833876e+01
2.770000e-06	3.916285e-06	9.721859e-10	2.723367e+01	6.858132e+01
2.780000e-06	3.948610e-06	9.752027e-10	2.745846e+01	6.881523e+01
2.790000e-06	3.980779e-06	9.809560e-10	2.768216e+01	6.904064e+01
2.800000e-06	4.012793e-06	9.862447e-10	2.790478e+01	6.925766e+01
2.810000e-06	4.044606e-06	9.881831e-10	2.812601e+01	6.946642e+01
2.820000e-06	4.076258e-06	9.905144e-10	2.834612e+01	6.966702e+01
2.830000e-06	4.107741e-06	9.943405e-10	2.856505e+01	6.985957e+01
2.840000e-06	4.139047e-06	9.983056e-10	2.878275e+01	7.004419e+01
2.850000e-06	4.170082e-06	1.001678e-09	2.899857e+01	7.022098e+01
2.860000e-06	4.200726e-06	1.005369e-09	2.921167e+01	7.039008e+01
2.870000e-06	4.231072e-06	1.009406e-09	2.942269e+01	7.055161e+01
2.880000e-06	4.261116e-06	1.013742e-09	2.963161e+01	7.070572e+01
2.890000e-06	4.290792e-06	1.018491e-09	2.983798e+01	7.085257e+01
2.900000e-06	4.320153e-06	1.021595e-09	3.004215e+01	7.099234e+01
