# Temperatura_=_-4.14
# Concentracion g/m^3_=_1620.0
# C_Vs_to_Am_M_A/Vsm_=_65563218390.804596
# pendiente_HvsI_1/m_=_3716.3
# ordenada_HvsI_A/m_=_1297.0
# frecuencia_Hz_=_135108.26266943966

Tiempo_(s)	Campo_(V.s)	Magnetizacion_(V.s)	Campo_(kA/m)	Magnetizacion_(A/m)
0.000000e+00	-5.537936e-06	-1.163058e-09	-3.837004e+01	-7.805601e+01
1.000000e-08	-5.537977e-06	-1.161448e-09	-3.837033e+01	-7.802195e+01
2.000000e-08	-5.537742e-06	-1.159674e-09	-3.836870e+01	-7.799275e+01
3.000000e-08	-5.537084e-06	-1.160755e-09	-3.836414e+01	-7.796890e+01
4.000000e-08	-5.535954e-06	-1.161925e-09	-3.835631e+01	-7.795083e+01
5.000000e-08	-5.534345e-06	-1.164410e-09	-3.834516e+01	-7.793890e+01
6.000000e-08	-5.532145e-06	-1.172311e-09	-3.832992e+01	-7.793336e+01
7.000000e-08	-5.529299e-06	-1.154394e-09	-3.831021e+01	-7.793441e+01
8.000000e-08	-5.525888e-06	-1.101723e-09	-3.828657e+01	-7.794212e+01
9.000000e-08	-5.522044e-06	-1.143901e-09	-3.825994e+01	-7.795647e+01
1.000000e-07	-5.517796e-06	-1.283478e-09	-3.823050e+01	-7.797731e+01
1.100000e-07	-5.513202e-06	-1.239500e-09	-3.819867e+01	-7.800440e+01
1.200000e-07	-5.508462e-06	-1.072567e-09	-3.816583e+01	-7.803738e+01
1.300000e-07	-5.503528e-06	-1.061652e-09	-3.813165e+01	-7.807578e+01
1.400000e-07	-5.498120e-06	-1.236835e-09	-3.809417e+01	-7.811903e+01
1.500000e-07	-5.492211e-06	-1.267646e-09	-3.805323e+01	-7.816647e+01
1.600000e-07	-5.485967e-06	-1.089522e-09	-3.800997e+01	-7.821732e+01
1.700000e-07	-5.479434e-06	-1.075987e-09	-3.796471e+01	-7.827075e+01
1.800000e-07	-5.472467e-06	-1.238068e-09	-3.791644e+01	-7.832586e+01
1.900000e-07	-5.465080e-06	-1.292989e-09	-3.786526e+01	-7.838167e+01
2.000000e-07	-5.457464e-06	-1.155790e-09	-3.781249e+01	-7.843720e+01
2.100000e-07	-5.449626e-06	-1.121106e-09	-3.775818e+01	-7.849142e+01
2.200000e-07	-5.441374e-06	-1.218544e-09	-3.770101e+01	-7.854330e+01
2.300000e-07	-5.432764e-06	-1.280601e-09	-3.764136e+01	-7.859181e+01
2.400000e-07	-5.423843e-06	-1.210902e-09	-3.757954e+01	-7.863598e+01
2.500000e-07	-5.414244e-06	-1.183208e-09	-3.751303e+01	-7.867484e+01
2.600000e-07	-5.403693e-06	-1.219817e-09	-3.743993e+01	-7.870751e+01
2.700000e-07	-5.392669e-06	-1.242955e-09	-3.736355e+01	-7.873317e+01
2.800000e-07	-5.381359e-06	-1.203981e-09	-3.728519e+01	-7.875110e+01
2.900000e-07	-5.369557e-06	-1.189539e-09	-3.720342e+01	-7.876067e+01
3.000000e-07	-5.357378e-06	-1.228501e-09	-3.711903e+01	-7.876135e+01
3.100000e-07	-5.344873e-06	-1.255579e-09	-3.703239e+01	-7.875275e+01
3.200000e-07	-5.331959e-06	-1.221270e-09	-3.694292e+01	-7.873457e+01
3.300000e-07	-5.318574e-06	-1.177100e-09	-3.685018e+01	-7.870668e+01
3.400000e-07	-5.304920e-06	-1.222506e-09	-3.675558e+01	-7.866903e+01
3.500000e-07	-5.290847e-06	-1.240549e-09	-3.665807e+01	-7.862171e+01
3.600000e-07	-5.276081e-06	-1.181484e-09	-3.655576e+01	-7.856494e+01
3.700000e-07	-5.260962e-06	-1.180039e-09	-3.645101e+01	-7.849904e+01
3.800000e-07	-5.245542e-06	-1.261085e-09	-3.634417e+01	-7.842444e+01
3.900000e-07	-5.229456e-06	-1.199524e-09	-3.623272e+01	-7.834165e+01
4.000000e-07	-5.212811e-06	-1.131601e-09	-3.611739e+01	-7.825127e+01
4.100000e-07	-5.195883e-06	-1.233481e-09	-3.600011e+01	-7.815396e+01
4.200000e-07	-5.178705e-06	-1.267306e-09	-3.588108e+01	-7.805044e+01
4.300000e-07	-5.161131e-06	-1.115225e-09	-3.575932e+01	-7.794145e+01
4.400000e-07	-5.143171e-06	-1.151568e-09	-3.563488e+01	-7.782776e+01
4.500000e-07	-5.124922e-06	-1.285117e-09	-3.550844e+01	-7.771012e+01
4.600000e-07	-5.106192e-06	-1.176435e-09	-3.537867e+01	-7.758929e+01
4.700000e-07	-5.086972e-06	-1.076486e-09	-3.524551e+01	-7.746598e+01
4.800000e-07	-5.067502e-06	-1.224374e-09	-3.511060e+01	-7.734086e+01
4.900000e-07	-5.047799e-06	-1.225420e-09	-3.497409e+01	-7.721455e+01
5.000000e-07	-5.027852e-06	-1.093457e-09	-3.483589e+01	-7.708759e+01
5.100000e-07	-5.007703e-06	-1.179890e-09	-3.469629e+01	-7.696044e+01
5.200000e-07	-4.987256e-06	-1.254543e-09	-3.455461e+01	-7.683347e+01
5.300000e-07	-4.966402e-06	-1.109007e-09	-3.441013e+01	-7.670697e+01
5.400000e-07	-4.945233e-06	-1.117631e-09	-3.426345e+01	-7.658112e+01
5.500000e-07	-4.923813e-06	-1.241413e-09	-3.411505e+01	-7.645601e+01
5.600000e-07	-4.902051e-06	-1.146837e-09	-3.396427e+01	-7.633163e+01
5.700000e-07	-4.879871e-06	-1.075444e-09	-3.381059e+01	-7.620790e+01
5.800000e-07	-4.857301e-06	-1.199618e-09	-3.365421e+01	-7.608462e+01
5.900000e-07	-4.834296e-06	-1.194138e-09	-3.349482e+01	-7.596156e+01
6.000000e-07	-4.811034e-06	-1.093507e-09	-3.333365e+01	-7.583837e+01
6.100000e-07	-4.787626e-06	-1.156541e-09	-3.317146e+01	-7.571469e+01
6.200000e-07	-4.763919e-06	-1.192483e-09	-3.300720e+01	-7.559010e+01
6.300000e-07	-4.739908e-06	-1.109149e-09	-3.284084e+01	-7.546414e+01
6.400000e-07	-4.715660e-06	-1.123117e-09	-3.267284e+01	-7.533636e+01
6.500000e-07	-4.691033e-06	-1.181136e-09	-3.250221e+01	-7.520628e+01
6.600000e-07	-4.665812e-06	-1.129702e-09	-3.232746e+01	-7.507346e+01
6.700000e-07	-4.640110e-06	-1.116320e-09	-3.214938e+01	-7.493746e+01
6.800000e-07	-4.613907e-06	-1.162277e-09	-3.196784e+01	-7.479790e+01
6.900000e-07	-4.587123e-06	-1.142790e-09	-3.178226e+01	-7.465444e+01
7.000000e-07	-4.559869e-06	-1.109813e-09	-3.159343e+01	-7.450678e+01
7.100000e-07	-4.532316e-06	-1.137514e-09	-3.140252e+01	-7.435472e+01
7.200000e-07	-4.504560e-06	-1.131170e-09	-3.121021e+01	-7.419810e+01
7.300000e-07	-4.476644e-06	-1.105603e-09	-3.101679e+01	-7.403686e+01
7.400000e-07	-4.448581e-06	-1.117494e-09	-3.082236e+01	-7.387100e+01
7.500000e-07	-4.420269e-06	-1.123904e-09	-3.062620e+01	-7.370060e+01
7.600000e-07	-4.391691e-06	-1.099903e-09	-3.042819e+01	-7.352582e+01
7.700000e-07	-4.362873e-06	-1.100846e-09	-3.022852e+01	-7.334688e+01
7.800000e-07	-4.333751e-06	-1.103967e-09	-3.002675e+01	-7.316406e+01
7.900000e-07	-4.304248e-06	-1.088828e-09	-2.982234e+01	-7.297771e+01
8.000000e-07	-4.274375e-06	-1.088189e-09	-2.961536e+01	-7.278821e+01
8.100000e-07	-4.244255e-06	-1.101780e-09	-2.940667e+01	-7.259597e+01
8.200000e-07	-4.213941e-06	-1.088259e-09	-2.919664e+01	-7.240144e+01
8.300000e-07	-4.183336e-06	-1.080396e-09	-2.898459e+01	-7.220504e+01
8.400000e-07	-4.152371e-06	-1.092842e-09	-2.877004e+01	-7.200723e+01
8.500000e-07	-4.121098e-06	-1.087977e-09	-2.855336e+01	-7.180842e+01
8.600000e-07	-4.089549e-06	-1.070720e-09	-2.833477e+01	-7.160900e+01
8.700000e-07	-4.057810e-06	-1.074959e-09	-2.811487e+01	-7.140932e+01
8.800000e-07	-4.025912e-06	-1.077604e-09	-2.789387e+01	-7.120966e+01
8.900000e-07	-3.993833e-06	-1.061151e-09	-2.767160e+01	-7.101027e+01
9.000000e-07	-3.961519e-06	-1.061133e-09	-2.744771e+01	-7.081131e+01
9.100000e-07	-3.928938e-06	-1.066692e-09	-2.722197e+01	-7.061285e+01
9.200000e-07	-3.895963e-06	-1.052924e-09	-2.699350e+01	-7.041491e+01
9.300000e-07	-3.862568e-06	-1.045481e-09	-2.676212e+01	-7.021741e+01
9.400000e-07	-3.828811e-06	-1.055596e-09	-2.652823e+01	-7.002019e+01
9.500000e-07	-3.794444e-06	-1.044717e-09	-2.629012e+01	-6.982302e+01
9.600000e-07	-3.759563e-06	-1.024181e-09	-2.604844e+01	-6.962559e+01
9.700000e-07	-3.724422e-06	-1.021036e-09	-2.580496e+01	-6.942753e+01
9.800000e-07	-3.689031e-06	-1.020231e-09	-2.555975e+01	-6.922839e+01
9.900000e-07	-3.653417e-06	-1.005149e-09	-2.531300e+01	-6.902770e+01
1.000000e-06	-3.617661e-06	-1.005994e-09	-2.506526e+01	-6.882493e+01
1.010000e-06	-3.581761e-06	-1.014880e-09	-2.481653e+01	-6.861953e+01
1.020000e-06	-3.545688e-06	-1.010864e-09	-2.456659e+01	-6.841095e+01
1.030000e-06	-3.509416e-06	-1.004449e-09	-2.431528e+01	-6.819862e+01
1.040000e-06	-3.472947e-06	-1.007877e-09	-2.406260e+01	-6.798200e+01
1.050000e-06	-3.436216e-06	-9.981596e-10	-2.380810e+01	-6.776057e+01
1.060000e-06	-3.399212e-06	-9.836094e-10	-2.355172e+01	-6.753385e+01
1.070000e-06	-3.361989e-06	-9.824128e-10	-2.329382e+01	-6.730142e+01
1.080000e-06	-3.324509e-06	-9.845541e-10	-2.303414e+01	-6.706292e+01
1.090000e-06	-3.286773e-06	-9.789547e-10	-2.277268e+01	-6.681805e+01
1.100000e-06	-3.248837e-06	-9.776901e-10	-2.250984e+01	-6.656660e+01
1.110000e-06	-3.210689e-06	-9.770146e-10	-2.224552e+01	-6.630844e+01
1.120000e-06	-3.172257e-06	-9.678391e-10	-2.197924e+01	-6.604351e+01
1.130000e-06	-3.133557e-06	-9.572912e-10	-2.171111e+01	-6.577187e+01
1.140000e-06	-3.094648e-06	-9.560021e-10	-2.144152e+01	-6.549363e+01
1.150000e-06	-3.055539e-06	-9.516461e-10	-2.117056e+01	-6.520901e+01
1.160000e-06	-3.016270e-06	-9.433910e-10	-2.089847e+01	-6.491827e+01
1.170000e-06	-2.976914e-06	-9.394150e-10	-2.062580e+01	-6.462178e+01
1.180000e-06	-2.937399e-06	-9.358844e-10	-2.035201e+01	-6.431993e+01
1.190000e-06	-2.897672e-06	-9.291881e-10	-2.007676e+01	-6.401319e+01
1.200000e-06	-2.857780e-06	-9.228911e-10	-1.980036e+01	-6.370203e+01
1.210000e-06	-2.817761e-06	-9.195429e-10	-1.952309e+01	-6.338697e+01
1.220000e-06	-2.777643e-06	-9.129552e-10	-1.924513e+01	-6.306851e+01
1.230000e-06	-2.737430e-06	-9.079981e-10	-1.896651e+01	-6.274718e+01
1.240000e-06	-2.697036e-06	-9.034218e-10	-1.868664e+01	-6.242345e+01
1.250000e-06	-2.656308e-06	-9.001958e-10	-1.840445e+01	-6.209777e+01
1.260000e-06	-2.615307e-06	-8.955108e-10	-1.812037e+01	-6.177055e+01
1.270000e-06	-2.574049e-06	-8.918667e-10	-1.783451e+01	-6.144213e+01
1.280000e-06	-2.532441e-06	-8.889346e-10	-1.754623e+01	-6.111277e+01
1.290000e-06	-2.490507e-06	-8.823998e-10	-1.725568e+01	-6.078268e+01
1.300000e-06	-2.448303e-06	-8.725832e-10	-1.696327e+01	-6.045196e+01
1.310000e-06	-2.405757e-06	-8.681603e-10	-1.666848e+01	-6.012062e+01
1.320000e-06	-2.362847e-06	-8.630229e-10	-1.637118e+01	-5.978858e+01
1.330000e-06	-2.319758e-06	-8.577184e-10	-1.607263e+01	-5.945567e+01
1.340000e-06	-2.276539e-06	-8.560869e-10	-1.577319e+01	-5.912162e+01
1.350000e-06	-2.233160e-06	-8.544824e-10	-1.547264e+01	-5.878606e+01
1.360000e-06	-2.189588e-06	-8.476242e-10	-1.517074e+01	-5.844857e+01
1.370000e-06	-2.145831e-06	-8.404561e-10	-1.486757e+01	-5.810861e+01
1.380000e-06	-2.101981e-06	-8.332322e-10	-1.456375e+01	-5.776561e+01
1.390000e-06	-2.058102e-06	-8.251142e-10	-1.425973e+01	-5.741892e+01
1.400000e-06	-2.014202e-06	-8.208809e-10	-1.395556e+01	-5.706786e+01
1.410000e-06	-1.970231e-06	-8.207727e-10	-1.365091e+01	-5.671170e+01
1.420000e-06	-1.926155e-06	-8.189429e-10	-1.334552e+01	-5.634971e+01
1.430000e-06	-1.881973e-06	-8.135330e-10	-1.303940e+01	-5.598114e+01
1.440000e-06	-1.837634e-06	-8.075537e-10	-1.273220e+01	-5.560525e+01
1.450000e-06	-1.793227e-06	-7.984241e-10	-1.242452e+01	-5.522131e+01
1.460000e-06	-1.748780e-06	-7.859364e-10	-1.211656e+01	-5.482863e+01
1.470000e-06	-1.704199e-06	-7.759975e-10	-1.180768e+01	-5.442655e+01
1.480000e-06	-1.659439e-06	-7.699063e-10	-1.149756e+01	-5.401445e+01
1.490000e-06	-1.614478e-06	-7.643342e-10	-1.118605e+01	-5.359178e+01
1.500000e-06	-1.569388e-06	-7.573401e-10	-1.087363e+01	-5.315801e+01
1.510000e-06	-1.524177e-06	-7.503233e-10	-1.056038e+01	-5.271270e+01
1.520000e-06	-1.478846e-06	-7.434511e-10	-1.024631e+01	-5.225545e+01
1.530000e-06	-1.433425e-06	-7.343821e-10	-9.931600e+00	-5.178592e+01
1.540000e-06	-1.387926e-06	-7.235498e-10	-9.616356e+00	-5.130380e+01
1.550000e-06	-1.342327e-06	-7.090979e-10	-9.300425e+00	-5.080885e+01
1.560000e-06	-1.296667e-06	-6.960006e-10	-8.984065e+00	-5.030084e+01
1.570000e-06	-1.250993e-06	-6.857535e-10	-8.667610e+00	-4.977956e+01
1.580000e-06	-1.205171e-06	-6.792154e-10	-8.350128e+00	-4.924483e+01
1.590000e-06	-1.159193e-06	-6.773992e-10	-8.031561e+00	-4.869645e+01
1.600000e-06	-1.113152e-06	-6.743278e-10	-7.712563e+00	-4.813421e+01
1.610000e-06	-1.067074e-06	-6.660215e-10	-7.393310e+00	-4.755787e+01
1.620000e-06	-1.020967e-06	-6.591430e-10	-7.073857e+00	-4.696714e+01
1.630000e-06	-9.747833e-07	-6.521561e-10	-6.753866e+00	-4.636168e+01
1.640000e-06	-9.284552e-07	-6.428584e-10	-6.432879e+00	-4.574107e+01
1.650000e-06	-8.820155e-07	-6.298343e-10	-6.111117e+00	-4.510482e+01
1.660000e-06	-8.355624e-07	-6.172168e-10	-5.789263e+00	-4.445235e+01
1.670000e-06	-7.891014e-07	-6.069123e-10	-5.467354e+00	-4.378298e+01
1.680000e-06	-7.426104e-07	-5.961527e-10	-5.145237e+00	-4.309594e+01
1.690000e-06	-6.960521e-07	-5.855229e-10	-4.822654e+00	-4.239033e+01
1.700000e-06	-6.493852e-07	-5.714847e-10	-4.499319e+00	-4.166517e+01
1.710000e-06	-6.026518e-07	-5.578010e-10	-4.175523e+00	-4.091938e+01
1.720000e-06	-5.558861e-07	-5.466448e-10	-3.851502e+00	-4.015180e+01
1.730000e-06	-5.090543e-07	-5.356498e-10	-3.527025e+00	-3.936115e+01
1.740000e-06	-4.621768e-07	-5.239139e-10	-3.202230e+00	-3.854613e+01
1.750000e-06	-4.152644e-07	-5.103737e-10	-2.877194e+00	-3.770536e+01
1.760000e-06	-3.682930e-07	-4.945854e-10	-2.551748e+00	-3.683742e+01
1.770000e-06	-3.212999e-07	-4.805186e-10	-2.226153e+00	-3.594089e+01
1.780000e-06	-2.743463e-07	-4.674426e-10	-1.900831e+00	-3.501436e+01
1.790000e-06	-2.273804e-07	-4.550347e-10	-1.575424e+00	-3.405644e+01
1.800000e-06	-1.803764e-07	-4.421922e-10	-1.249753e+00	-3.306581e+01
1.810000e-06	-1.333235e-07	-4.267569e-10	-9.237431e-01	-3.204121e+01
1.820000e-06	-8.617392e-08	-4.115192e-10	-5.970631e-01	-3.098153e+01
1.830000e-06	-3.906003e-08	-3.991219e-10	-2.706306e-01	-2.988574e+01
1.840000e-06	7.952591e-09	-3.862576e-10	5.510018e-02	-2.875300e+01
1.850000e-06	5.491812e-08	-3.709880e-10	3.805047e-01	-2.758266e+01
1.860000e-06	1.018994e-07	-3.524723e-10	7.060186e-01	-2.637423e+01
1.870000e-06	1.489522e-07	-3.325286e-10	1.032028e+00	-2.512748e+01
1.880000e-06	1.960189e-07	-3.131567e-10	1.358133e+00	-2.384240e+01
1.890000e-06	2.430206e-07	-2.943034e-10	1.683788e+00	-2.251921e+01
1.900000e-06	2.899399e-07	-2.747033e-10	2.008872e+00	-2.115841e+01
1.910000e-06	3.368371e-07	-2.564603e-10	2.333803e+00	-1.976076e+01
1.920000e-06	3.837438e-07	-2.405098e-10	2.658801e+00	-1.832726e+01
1.930000e-06	4.306318e-07	-2.225705e-10	2.983668e+00	-1.685921e+01
1.940000e-06	4.774432e-07	-2.018563e-10	3.308004e+00	-1.535812e+01
1.950000e-06	5.241500e-07	-1.794741e-10	3.631616e+00	-1.382579e+01
1.960000e-06	5.708527e-07	-1.574908e-10	3.955200e+00	-1.226421e+01
1.970000e-06	6.175655e-07	-1.357515e-10	4.278854e+00	-1.067561e+01
1.980000e-06	6.641323e-07	-1.151290e-10	4.601496e+00	-9.062397e+00
1.990000e-06	7.105591e-07	-9.411169e-11	4.923167e+00	-7.427164e+00
2.000000e-06	7.569635e-07	-7.076130e-11	5.244684e+00	-5.772639e+00
2.010000e-06	8.033864e-07	-4.600933e-11	5.566329e+00	-4.101668e+00
2.020000e-06	8.497182e-07	-2.219985e-11	5.887343e+00	-2.417185e+00
2.030000e-06	8.959414e-07	5.381912e-13	6.207604e+00	-7.221839e-01
2.040000e-06	9.422062e-07	2.199189e-11	6.528153e+00	9.803150e-01
2.050000e-06	9.885052e-07	4.454567e-11	6.848939e+00	2.687292e+00
2.060000e-06	1.034783e-06	6.857212e-11	7.169580e+00	4.395760e+00
2.070000e-06	1.080975e-06	9.273085e-11	7.489624e+00	6.102792e+00
2.080000e-06	1.126945e-06	1.176468e-10	7.808130e+00	7.805545e+00
2.090000e-06	1.172755e-06	1.435731e-10	8.125530e+00	9.501289e+00
2.100000e-06	1.218512e-06	1.668469e-10	8.442564e+00	1.118743e+01
2.110000e-06	1.264189e-06	1.876013e-10	8.759034e+00	1.286151e+01
2.120000e-06	1.309799e-06	2.084162e-10	9.075050e+00	1.452127e+01
2.130000e-06	1.355323e-06	2.281445e-10	9.390464e+00	1.616461e+01
2.140000e-06	1.400789e-06	2.478003e-10	9.705481e+00	1.778962e+01
2.150000e-06	1.446245e-06	2.699217e-10	1.002043e+01	1.939460e+01
2.160000e-06	1.491587e-06	2.944521e-10	1.033458e+01	2.097804e+01
2.170000e-06	1.536783e-06	3.186544e-10	1.064772e+01	2.253863e+01
2.180000e-06	1.581839e-06	3.406549e-10	1.095990e+01	2.407528e+01
2.190000e-06	1.626719e-06	3.615226e-10	1.127085e+01	2.558706e+01
2.200000e-06	1.671455e-06	3.800898e-10	1.158081e+01	2.707322e+01
2.210000e-06	1.716101e-06	3.955531e-10	1.189015e+01	2.853321e+01
2.220000e-06	1.760608e-06	4.125417e-10	1.219852e+01	2.996660e+01
2.230000e-06	1.804949e-06	4.302245e-10	1.250574e+01	3.137312e+01
2.240000e-06	1.849129e-06	4.475441e-10	1.281184e+01	3.275263e+01
2.250000e-06	1.893173e-06	4.674825e-10	1.311700e+01	3.410507e+01
2.260000e-06	1.937123e-06	4.908955e-10	1.342152e+01	3.543049e+01
2.270000e-06	1.981008e-06	5.145942e-10	1.372558e+01	3.672902e+01
2.280000e-06	2.024860e-06	5.358329e-10	1.402941e+01	3.800081e+01
2.290000e-06	2.068666e-06	5.537790e-10	1.433292e+01	3.924608e+01
2.300000e-06	2.112425e-06	5.672689e-10	1.463611e+01	4.046506e+01
2.310000e-06	2.156161e-06	5.780660e-10	1.493914e+01	4.165800e+01
2.320000e-06	2.199854e-06	5.915965e-10	1.524187e+01	4.282513e+01
2.330000e-06	2.243446e-06	6.087695e-10	1.554390e+01	4.396668e+01
2.340000e-06	2.286904e-06	6.276246e-10	1.584501e+01	4.508287e+01
2.350000e-06	2.330247e-06	6.471339e-10	1.614531e+01	4.617386e+01
2.360000e-06	2.373338e-06	6.636576e-10	1.644387e+01	4.723981e+01
2.370000e-06	2.416094e-06	6.769324e-10	1.674010e+01	4.828084e+01
2.380000e-06	2.458618e-06	6.899658e-10	1.703474e+01	4.929704e+01
2.390000e-06	2.500769e-06	7.010476e-10	1.732678e+01	5.028846e+01
2.400000e-06	2.542509e-06	7.115294e-10	1.761598e+01	5.125514e+01
2.410000e-06	2.583903e-06	7.246712e-10	1.790278e+01	5.219710e+01
2.420000e-06	2.624906e-06	7.402138e-10	1.818688e+01	5.311432e+01
2.430000e-06	2.665645e-06	7.561202e-10	1.846914e+01	5.400680e+01
2.440000e-06	2.706169e-06	7.708659e-10	1.874991e+01	5.487454e+01
2.450000e-06	2.746467e-06	7.820607e-10	1.902912e+01	5.571755e+01
2.460000e-06	2.786633e-06	7.900554e-10	1.930742e+01	5.653584e+01
2.470000e-06	2.826671e-06	7.985188e-10	1.958482e+01	5.732947e+01
2.480000e-06	2.866582e-06	8.096524e-10	1.986135e+01	5.809853e+01
2.490000e-06	2.906372e-06	8.231548e-10	2.013703e+01	5.884315e+01
2.500000e-06	2.946024e-06	8.369777e-10	2.041177e+01	5.956351e+01
2.510000e-06	2.985563e-06	8.486613e-10	2.068572e+01	6.025985e+01
2.520000e-06	3.024976e-06	8.585456e-10	2.095880e+01	6.093246e+01
2.530000e-06	3.064173e-06	8.674145e-10	2.123037e+01	6.158169e+01
2.540000e-06	3.103191e-06	8.742337e-10	2.150071e+01	6.220797e+01
2.550000e-06	3.141999e-06	8.806126e-10	2.176960e+01	6.281176e+01
2.560000e-06	3.180438e-06	8.884564e-10	2.203593e+01	6.339359e+01
2.570000e-06	3.218599e-06	8.986781e-10	2.230033e+01	6.395407e+01
2.580000e-06	3.256571e-06	9.090177e-10	2.256342e+01	6.449383e+01
2.590000e-06	3.294371e-06	9.179838e-10	2.282532e+01	6.501355e+01
2.600000e-06	3.332019e-06	9.259627e-10	2.308617e+01	6.551396e+01
2.610000e-06	3.369450e-06	9.318780e-10	2.334551e+01	6.599580e+01
2.620000e-06	3.406646e-06	9.362402e-10	2.360323e+01	6.645984e+01
2.630000e-06	3.443581e-06	9.409122e-10	2.385913e+01	6.690687e+01
2.640000e-06	3.480226e-06	9.459357e-10	2.411303e+01	6.733767e+01
2.650000e-06	3.516576e-06	9.521265e-10	2.436489e+01	6.775301e+01
2.660000e-06	3.552648e-06	9.607931e-10	2.461482e+01	6.815366e+01
2.670000e-06	3.588553e-06	9.687599e-10	2.486358e+01	6.854036e+01
2.680000e-06	3.624381e-06	9.735960e-10	2.511182e+01	6.891380e+01
2.690000e-06	3.660131e-06	9.771100e-10	2.535952e+01	6.927466e+01
2.700000e-06	3.695767e-06	9.799176e-10	2.560642e+01	6.962356e+01
2.710000e-06	3.731265e-06	9.825754e-10	2.585238e+01	6.996108e+01
2.720000e-06	3.766481e-06	9.864153e-10	2.609637e+01	7.028774e+01
2.730000e-06	3.801193e-06	9.922089e-10	2.633688e+01	7.060402e+01
2.740000e-06	3.835435e-06	9.996438e-10	2.657413e+01	7.091032e+01
2.750000e-06	3.869239e-06	1.007429e-09	2.680834e+01	7.120703e+01
2.760000e-06	3.902585e-06	1.013053e-09	2.703938e+01	7.149444e+01
2.770000e-06	3.935492e-06	1.016587e-09	2.726738e+01	7.177284e+01
2.780000e-06	3.967966e-06	1.019783e-09	2.749238e+01	7.204245e+01
2.790000e-06	4.000143e-06	1.023822e-09	2.771532e+01	7.230346e+01
2.800000e-06	4.032175e-06	1.028594e-09	2.793726e+01	7.255602e+01
2.810000e-06	4.064078e-06	1.032870e-09	2.815830e+01	7.280027e+01
2.820000e-06	4.095819e-06	1.038050e-09	2.837822e+01	7.303632e+01
2.830000e-06	4.127319e-06	1.043687e-09	2.859647e+01	7.326427e+01
2.840000e-06	4.158530e-06	1.047837e-09	2.881272e+01	7.348422e+01
2.850000e-06	4.189460e-06	1.050421e-09	2.902702e+01	7.369627e+01
2.860000e-06	4.220074e-06	1.052727e-09	2.923913e+01	7.390053e+01
2.870000e-06	4.250322e-06	1.056111e-09	2.944871e+01	7.409712e+01
2.880000e-06	4.280306e-06	1.060534e-09	2.965645e+01	7.428619e+01
2.890000e-06	4.310049e-06	1.066555e-09	2.986253e+01	7.446790e+01
2.900000e-06	4.339484e-06	1.073826e-09	3.006647e+01	7.464245e+01
