# Temperatura_=_-5.05
# Concentracion g/m^3_=_1620.0
# C_Vs_to_Am_M_A/Vsm_=_65563218390.804596
# pendiente_HvsI_1/m_=_3716.3
# ordenada_HvsI_A/m_=_1297.0
# frecuencia_Hz_=_135106.9912677422

Tiempo_(s)	Campo_(V.s)	Magnetizacion_(V.s)	Campo_(kA/m)	Magnetizacion_(A/m)
0.000000e+00	-5.531821e-06	-1.087135e-09	-3.835931e+01	-7.430959e+01
1.000000e-08	-5.531958e-06	-1.084886e-09	-3.836026e+01	-7.427325e+01
2.000000e-08	-5.531883e-06	-1.078832e-09	-3.835974e+01	-7.423962e+01
3.000000e-08	-5.531434e-06	-1.071488e-09	-3.835663e+01	-7.420945e+01
4.000000e-08	-5.530508e-06	-1.068567e-09	-3.835020e+01	-7.418351e+01
5.000000e-08	-5.529082e-06	-1.067826e-09	-3.834031e+01	-7.416247e+01
6.000000e-08	-5.527122e-06	-1.070271e-09	-3.832673e+01	-7.414701e+01
7.000000e-08	-5.524567e-06	-1.076706e-09	-3.830901e+01	-7.413767e+01
8.000000e-08	-5.521461e-06	-1.057510e-09	-3.828747e+01	-7.413495e+01
9.000000e-08	-5.517850e-06	-1.041154e-09	-3.826243e+01	-7.413921e+01
1.000000e-07	-5.513795e-06	-1.116646e-09	-3.823431e+01	-7.415072e+01
1.100000e-07	-5.509358e-06	-1.181589e-09	-3.820355e+01	-7.416959e+01
1.200000e-07	-5.504694e-06	-1.043443e-09	-3.817120e+01	-7.419580e+01
1.300000e-07	-5.499880e-06	-9.701550e-10	-3.813782e+01	-7.422921e+01
1.400000e-07	-5.494755e-06	-1.047360e-09	-3.810229e+01	-7.426950e+01
1.500000e-07	-5.489201e-06	-1.177061e-09	-3.806377e+01	-7.431622e+01
1.600000e-07	-5.483218e-06	-1.083116e-09	-3.802228e+01	-7.436876e+01
1.700000e-07	-5.476905e-06	-9.661894e-10	-3.797850e+01	-7.442639e+01
1.800000e-07	-5.470106e-06	-1.082472e-09	-3.793136e+01	-7.448824e+01
1.900000e-07	-5.462789e-06	-1.200791e-09	-3.788062e+01	-7.455333e+01
2.000000e-07	-5.455169e-06	-1.135839e-09	-3.782778e+01	-7.462058e+01
2.100000e-07	-5.447339e-06	-9.935812e-10	-3.777348e+01	-7.468881e+01
2.200000e-07	-5.439279e-06	-1.055306e-09	-3.771759e+01	-7.475678e+01
2.300000e-07	-5.430968e-06	-1.146824e-09	-3.765996e+01	-7.482322e+01
2.400000e-07	-5.422259e-06	-1.154129e-09	-3.759957e+01	-7.488681e+01
2.500000e-07	-5.412984e-06	-1.080412e-09	-3.753526e+01	-7.494627e+01
2.600000e-07	-5.402992e-06	-1.113497e-09	-3.746597e+01	-7.500030e+01
2.700000e-07	-5.392230e-06	-1.143128e-09	-3.739134e+01	-7.504767e+01
2.800000e-07	-5.381007e-06	-1.129339e-09	-3.731352e+01	-7.508722e+01
2.900000e-07	-5.369432e-06	-1.085571e-09	-3.723326e+01	-7.511787e+01
3.000000e-07	-5.357457e-06	-1.123850e-09	-3.715022e+01	-7.513866e+01
3.100000e-07	-5.345146e-06	-1.170130e-09	-3.706485e+01	-7.514875e+01
3.200000e-07	-5.332508e-06	-1.175105e-09	-3.697721e+01	-7.514744e+01
3.300000e-07	-5.319418e-06	-1.133129e-09	-3.688645e+01	-7.513419e+01
3.400000e-07	-5.305881e-06	-1.138005e-09	-3.679257e+01	-7.510863e+01
3.500000e-07	-5.292030e-06	-1.177039e-09	-3.669652e+01	-7.507055e+01
3.600000e-07	-5.277787e-06	-1.141918e-09	-3.659776e+01	-7.501993e+01
3.700000e-07	-5.262961e-06	-1.083686e-09	-3.649496e+01	-7.495690e+01
3.800000e-07	-5.247592e-06	-1.134756e-09	-3.638838e+01	-7.488177e+01
3.900000e-07	-5.231751e-06	-1.189142e-09	-3.627853e+01	-7.479503e+01
4.000000e-07	-5.215361e-06	-1.107034e-09	-3.616488e+01	-7.469731e+01
4.100000e-07	-5.198577e-06	-1.105660e-09	-3.604850e+01	-7.458936e+01
4.200000e-07	-5.181504e-06	-1.193584e-09	-3.593011e+01	-7.447208e+01
4.300000e-07	-5.164073e-06	-1.138644e-09	-3.580924e+01	-7.434647e+01
4.400000e-07	-5.146371e-06	-1.031913e-09	-3.568648e+01	-7.421361e+01
4.500000e-07	-5.128373e-06	-1.147543e-09	-3.556168e+01	-7.407464e+01
4.600000e-07	-5.109863e-06	-1.187122e-09	-3.543333e+01	-7.393076e+01
4.700000e-07	-5.090853e-06	-1.050461e-09	-3.530150e+01	-7.378318e+01
4.800000e-07	-5.071537e-06	-1.064559e-09	-3.516756e+01	-7.363308e+01
4.900000e-07	-5.052025e-06	-1.195023e-09	-3.503226e+01	-7.348166e+01
5.000000e-07	-5.032268e-06	-1.098036e-09	-3.489526e+01	-7.333005e+01
5.100000e-07	-5.012246e-06	-1.043917e-09	-3.475642e+01	-7.317929e+01
5.200000e-07	-4.992005e-06	-1.157922e-09	-3.461607e+01	-7.303038e+01
5.300000e-07	-4.971397e-06	-1.129780e-09	-3.447316e+01	-7.288418e+01
5.400000e-07	-4.950296e-06	-1.015381e-09	-3.432684e+01	-7.274144e+01
5.500000e-07	-4.928820e-06	-1.122349e-09	-3.417792e+01	-7.260280e+01
5.600000e-07	-4.907093e-06	-1.159609e-09	-3.402726e+01	-7.246875e+01
5.700000e-07	-4.885077e-06	-1.023501e-09	-3.387459e+01	-7.233964e+01
5.800000e-07	-4.862746e-06	-1.047132e-09	-3.371974e+01	-7.221568e+01
5.900000e-07	-4.840045e-06	-1.153473e-09	-3.356233e+01	-7.209695e+01
6.000000e-07	-4.816983e-06	-1.069424e-09	-3.340241e+01	-7.198337e+01
6.100000e-07	-4.793688e-06	-1.032223e-09	-3.324087e+01	-7.187475e+01
6.200000e-07	-4.770121e-06	-1.122945e-09	-3.307745e+01	-7.177077e+01
6.300000e-07	-4.746242e-06	-1.092108e-09	-3.291187e+01	-7.167101e+01
6.400000e-07	-4.722151e-06	-1.023465e-09	-3.274481e+01	-7.157493e+01
6.500000e-07	-4.697808e-06	-1.079821e-09	-3.257602e+01	-7.148194e+01
6.600000e-07	-4.673012e-06	-1.095580e-09	-3.240407e+01	-7.139138e+01
6.700000e-07	-4.647708e-06	-1.036567e-09	-3.222861e+01	-7.130253e+01
6.800000e-07	-4.621819e-06	-1.063601e-09	-3.204908e+01	-7.121466e+01
6.900000e-07	-4.595341e-06	-1.094982e-09	-3.186548e+01	-7.112702e+01
7.000000e-07	-4.568408e-06	-1.057545e-09	-3.167871e+01	-7.103886e+01
7.100000e-07	-4.541086e-06	-1.048796e-09	-3.148925e+01	-7.094948e+01
7.200000e-07	-4.513468e-06	-1.074936e-09	-3.129774e+01	-7.085820e+01
7.300000e-07	-4.485661e-06	-1.048529e-09	-3.110492e+01	-7.076439e+01
7.400000e-07	-4.457747e-06	-1.038443e-09	-3.091136e+01	-7.066750e+01
7.500000e-07	-4.429629e-06	-1.060660e-09	-3.071638e+01	-7.056705e+01
7.600000e-07	-4.401206e-06	-1.061439e-09	-3.051928e+01	-7.046264e+01
7.700000e-07	-4.372473e-06	-1.040168e-09	-3.032005e+01	-7.035395e+01
7.800000e-07	-4.343442e-06	-1.048296e-09	-3.011873e+01	-7.024077e+01
7.900000e-07	-4.314082e-06	-1.042818e-09	-2.991514e+01	-7.012296e+01
8.000000e-07	-4.284414e-06	-1.029501e-09	-2.970942e+01	-7.000048e+01
8.100000e-07	-4.254485e-06	-1.032235e-09	-2.950188e+01	-6.987337e+01
8.200000e-07	-4.224224e-06	-1.040248e-09	-2.929204e+01	-6.974174e+01
8.300000e-07	-4.193666e-06	-1.026261e-09	-2.908014e+01	-6.960579e+01
8.400000e-07	-4.162801e-06	-1.030046e-09	-2.886611e+01	-6.946576e+01
8.500000e-07	-4.131602e-06	-1.039200e-09	-2.864977e+01	-6.932194e+01
8.600000e-07	-4.100175e-06	-1.027838e-09	-2.843184e+01	-6.917466e+01
8.700000e-07	-4.068587e-06	-1.016689e-09	-2.821281e+01	-6.902426e+01
8.800000e-07	-4.036820e-06	-1.027372e-09	-2.799252e+01	-6.887112e+01
8.900000e-07	-4.004863e-06	-1.022132e-09	-2.777092e+01	-6.871557e+01
9.000000e-07	-3.972764e-06	-1.010916e-09	-2.754834e+01	-6.855796e+01
9.100000e-07	-3.940421e-06	-1.019014e-09	-2.732406e+01	-6.839860e+01
9.200000e-07	-3.907603e-06	-1.019918e-09	-2.709650e+01	-6.823776e+01
9.300000e-07	-3.874294e-06	-1.005482e-09	-2.686552e+01	-6.807566e+01
9.400000e-07	-3.840680e-06	-1.007160e-09	-2.663243e+01	-6.791246e+01
9.500000e-07	-3.806666e-06	-1.014028e-09	-2.639657e+01	-6.774828e+01
9.600000e-07	-3.772056e-06	-9.981095e-10	-2.615657e+01	-6.758314e+01
9.700000e-07	-3.737004e-06	-9.879836e-10	-2.591351e+01	-6.741702e+01
9.800000e-07	-3.701649e-06	-9.903703e-10	-2.566835e+01	-6.724982e+01
9.900000e-07	-3.666053e-06	-9.826126e-10	-2.542152e+01	-6.708137e+01
1.000000e-06	-3.630335e-06	-9.715779e-10	-2.517384e+01	-6.691146e+01
1.010000e-06	-3.594553e-06	-9.820051e-10	-2.492571e+01	-6.673979e+01
1.020000e-06	-3.558690e-06	-9.860121e-10	-2.467703e+01	-6.656604e+01
1.030000e-06	-3.522660e-06	-9.781074e-10	-2.442719e+01	-6.638984e+01
1.040000e-06	-3.486377e-06	-9.747567e-10	-2.417559e+01	-6.621078e+01
1.050000e-06	-3.449813e-06	-9.771476e-10	-2.392204e+01	-6.602843e+01
1.060000e-06	-3.412978e-06	-9.626803e-10	-2.366662e+01	-6.584238e+01
1.070000e-06	-3.375899e-06	-9.554168e-10	-2.340950e+01	-6.565218e+01
1.080000e-06	-3.338590e-06	-9.596251e-10	-2.315078e+01	-6.545742e+01
1.090000e-06	-3.301005e-06	-9.618290e-10	-2.289016e+01	-6.525771e+01
1.100000e-06	-3.263170e-06	-9.568184e-10	-2.262780e+01	-6.505269e+01
1.110000e-06	-3.225138e-06	-9.598671e-10	-2.236408e+01	-6.484204e+01
1.120000e-06	-3.186847e-06	-9.585551e-10	-2.209855e+01	-6.462551e+01
1.130000e-06	-3.148373e-06	-9.475391e-10	-2.183176e+01	-6.440288e+01
1.140000e-06	-3.109715e-06	-9.392238e-10	-2.156370e+01	-6.417401e+01
1.150000e-06	-3.070754e-06	-9.347588e-10	-2.129353e+01	-6.393882e+01
1.160000e-06	-3.031601e-06	-9.231648e-10	-2.102203e+01	-6.369730e+01
1.170000e-06	-2.992300e-06	-9.154095e-10	-2.074951e+01	-6.344950e+01
1.180000e-06	-2.952781e-06	-9.149996e-10	-2.047547e+01	-6.319554e+01
1.190000e-06	-2.913103e-06	-9.128137e-10	-2.020033e+01	-6.293558e+01
1.200000e-06	-2.873312e-06	-9.071823e-10	-1.992441e+01	-6.266987e+01
1.210000e-06	-2.833437e-06	-9.041967e-10	-1.964791e+01	-6.239866e+01
1.220000e-06	-2.793425e-06	-8.991789e-10	-1.937045e+01	-6.212228e+01
1.230000e-06	-2.753197e-06	-8.895960e-10	-1.909150e+01	-6.184105e+01
1.240000e-06	-2.712811e-06	-8.856450e-10	-1.881145e+01	-6.155534e+01
1.250000e-06	-2.672310e-06	-8.839839e-10	-1.853060e+01	-6.126548e+01
1.260000e-06	-2.631607e-06	-8.809765e-10	-1.824836e+01	-6.097185e+01
1.270000e-06	-2.590559e-06	-8.756581e-10	-1.796372e+01	-6.067477e+01
1.280000e-06	-2.549173e-06	-8.734993e-10	-1.767673e+01	-6.037455e+01
1.290000e-06	-2.507498e-06	-8.694436e-10	-1.738774e+01	-6.007146e+01
1.300000e-06	-2.465521e-06	-8.611180e-10	-1.709666e+01	-5.976572e+01
1.310000e-06	-2.423151e-06	-8.527864e-10	-1.680285e+01	-5.945748e+01
1.320000e-06	-2.380466e-06	-8.458760e-10	-1.650687e+01	-5.914685e+01
1.330000e-06	-2.337625e-06	-8.380384e-10	-1.620979e+01	-5.883387e+01
1.340000e-06	-2.294518e-06	-8.378580e-10	-1.591088e+01	-5.851848e+01
1.350000e-06	-2.251136e-06	-8.386248e-10	-1.561005e+01	-5.820058e+01
1.360000e-06	-2.207645e-06	-8.346010e-10	-1.530847e+01	-5.787998e+01
1.370000e-06	-2.164052e-06	-8.251169e-10	-1.500619e+01	-5.755640e+01
1.380000e-06	-2.120331e-06	-8.167419e-10	-1.470302e+01	-5.722952e+01
1.390000e-06	-2.076511e-06	-8.078550e-10	-1.439915e+01	-5.689893e+01
1.400000e-06	-2.032615e-06	-8.011169e-10	-1.409476e+01	-5.656417e+01
1.410000e-06	-1.988655e-06	-7.970774e-10	-1.378993e+01	-5.622473e+01
1.420000e-06	-1.944633e-06	-7.950516e-10	-1.348467e+01	-5.588004e+01
1.430000e-06	-1.900500e-06	-7.920917e-10	-1.317864e+01	-5.552950e+01
1.440000e-06	-1.856239e-06	-7.896441e-10	-1.287172e+01	-5.517249e+01
1.450000e-06	-1.811879e-06	-7.851693e-10	-1.256411e+01	-5.480837e+01
1.460000e-06	-1.767408e-06	-7.764230e-10	-1.225574e+01	-5.443647e+01
1.470000e-06	-1.722801e-06	-7.653377e-10	-1.194642e+01	-5.405616e+01
1.480000e-06	-1.678029e-06	-7.575180e-10	-1.163596e+01	-5.366677e+01
1.490000e-06	-1.633056e-06	-7.528050e-10	-1.132410e+01	-5.326768e+01
1.500000e-06	-1.587961e-06	-7.474383e-10	-1.101140e+01	-5.285829e+01
1.510000e-06	-1.542791e-06	-7.419571e-10	-1.069818e+01	-5.243801e+01
1.520000e-06	-1.497498e-06	-7.370558e-10	-1.038410e+01	-5.200629e+01
1.530000e-06	-1.452080e-06	-7.317747e-10	-1.006916e+01	-5.156262e+01
1.540000e-06	-1.406540e-06	-7.242759e-10	-9.753370e+00	-5.110650e+01
1.550000e-06	-1.360928e-06	-7.151131e-10	-9.437085e+00	-5.063750e+01
1.560000e-06	-1.315262e-06	-7.058950e-10	-9.120424e+00	-5.015518e+01
1.570000e-06	-1.269511e-06	-6.981057e-10	-8.803168e+00	-4.965915e+01
1.580000e-06	-1.223710e-06	-6.901113e-10	-8.485573e+00	-4.914903e+01
1.590000e-06	-1.177863e-06	-6.866902e-10	-8.167659e+00	-4.862446e+01
1.600000e-06	-1.131883e-06	-6.830383e-10	-7.848820e+00	-4.808509e+01
1.610000e-06	-1.085823e-06	-6.764732e-10	-7.529425e+00	-4.753055e+01
1.620000e-06	-1.039741e-06	-6.681580e-10	-7.209879e+00	-4.696047e+01
1.630000e-06	-9.935840e-07	-6.598506e-10	-6.889810e+00	-4.637446e+01
1.640000e-06	-9.473273e-07	-6.491571e-10	-6.569052e+00	-4.577210e+01
1.650000e-06	-9.009421e-07	-6.369099e-10	-6.247403e+00	-4.515293e+01
1.660000e-06	-8.545127e-07	-6.239547e-10	-5.925448e+00	-4.451644e+01
1.670000e-06	-8.080855e-07	-6.113920e-10	-5.603508e+00	-4.386209e+01
1.680000e-06	-7.616009e-07	-5.992989e-10	-5.281169e+00	-4.318926e+01
1.690000e-06	-7.150645e-07	-5.883048e-10	-4.958472e+00	-4.249727e+01
1.700000e-06	-6.684678e-07	-5.770479e-10	-4.635357e+00	-4.178540e+01
1.710000e-06	-6.218220e-07	-5.677176e-10	-4.311900e+00	-4.105283e+01
1.720000e-06	-5.750847e-07	-5.593031e-10	-3.987810e+00	-4.029872e+01
1.730000e-06	-5.282501e-07	-5.491376e-10	-3.663045e+00	-3.952214e+01
1.740000e-06	-4.814821e-07	-5.371947e-10	-3.338741e+00	-3.872213e+01
1.750000e-06	-4.347717e-07	-5.228893e-10	-3.014837e+00	-3.789768e+01
1.760000e-06	-3.879874e-07	-5.069940e-10	-2.690421e+00	-3.704775e+01
1.770000e-06	-3.410929e-07	-4.936446e-10	-2.365241e+00	-3.617129e+01
1.780000e-06	-2.941330e-07	-4.832551e-10	-2.039607e+00	-3.526723e+01
1.790000e-06	-2.472911e-07	-4.725399e-10	-1.714791e+00	-3.433452e+01
1.800000e-06	-2.004419e-07	-4.593478e-10	-1.389924e+00	-3.337215e+01
1.810000e-06	-1.534857e-07	-4.446402e-10	-1.064316e+00	-3.237913e+01
1.820000e-06	-1.065605e-07	-4.293416e-10	-7.389225e-01	-3.135457e+01
1.830000e-06	-5.961638e-08	-4.128410e-10	-4.133979e-01	-3.029764e+01
1.840000e-06	-1.262873e-08	-3.973082e-10	-8.757143e-02	-2.920761e+01
1.850000e-06	3.434097e-08	-3.815967e-10	2.381306e-01	-2.808389e+01
1.860000e-06	8.134243e-08	-3.656194e-10	5.640529e-01	-2.692603e+01
1.870000e-06	1.283437e-07	-3.485511e-10	8.899740e-01	-2.573370e+01
1.880000e-06	1.752572e-07	-3.303790e-10	1.215286e+00	-2.450680e+01
1.890000e-06	2.221370e-07	-3.127677e-10	1.540365e+00	-2.324535e+01
1.900000e-06	2.690491e-07	-2.958811e-10	1.865668e+00	-2.194960e+01
1.910000e-06	3.159386e-07	-2.787459e-10	2.190813e+00	-2.062000e+01
1.920000e-06	3.627735e-07	-2.618695e-10	2.515581e+00	-1.925719e+01
1.930000e-06	4.096265e-07	-2.434264e-10	2.840473e+00	-1.786203e+01
1.940000e-06	4.564487e-07	-2.228944e-10	3.165153e+00	-1.643560e+01
1.950000e-06	5.032463e-07	-1.998795e-10	3.489661e+00	-1.497916e+01
1.960000e-06	5.499908e-07	-1.792299e-10	3.813801e+00	-1.349418e+01
1.970000e-06	5.966476e-07	-1.589468e-10	4.137334e+00	-1.198234e+01
1.980000e-06	6.432112e-07	-1.378732e-10	4.460220e+00	-1.044549e+01
1.990000e-06	6.896431e-07	-1.167766e-10	4.782192e+00	-8.885636e+00
2.000000e-06	7.360614e-07	-9.241937e-11	5.104071e+00	-7.304947e+00
2.010000e-06	7.824861e-07	-6.549492e-11	5.425994e+00	-5.705722e+00
2.020000e-06	8.288335e-07	-3.921571e-11	5.747380e+00	-4.090377e+00
2.030000e-06	8.750898e-07	-1.637805e-11	6.068136e+00	-2.461420e+00
2.040000e-06	9.212859e-07	3.497964e-12	6.388474e+00	-8.214301e-01
2.050000e-06	9.674336e-07	2.414916e-11	6.708475e+00	8.269620e-01
2.060000e-06	1.013557e-06	4.584661e-11	7.028309e+00	2.481099e+00
2.070000e-06	1.059598e-06	6.802112e-11	7.347571e+00	4.138318e+00
2.080000e-06	1.105540e-06	9.284808e-11	7.666147e+00	5.795972e+00
2.090000e-06	1.151443e-06	1.195811e-10	7.984453e+00	7.451452e+00
2.100000e-06	1.197291e-06	1.445989e-10	8.302373e+00	9.102205e+00
2.110000e-06	1.243094e-06	1.664006e-10	8.619989e+00	1.074575e+01
2.120000e-06	1.288817e-06	1.877002e-10	8.937044e+00	1.237971e+01
2.130000e-06	1.334377e-06	2.070117e-10	9.252968e+00	1.400180e+01
2.140000e-06	1.379814e-06	2.235792e-10	9.568044e+00	1.560986e+01
2.150000e-06	1.425173e-06	2.432675e-10	9.882575e+00	1.720185e+01
2.160000e-06	1.470371e-06	2.679917e-10	1.019600e+01	1.877589e+01
2.170000e-06	1.515549e-06	2.922446e-10	1.050927e+01	2.033022e+01
2.180000e-06	1.560721e-06	3.152041e-10	1.082251e+01	2.186325e+01
2.190000e-06	1.605738e-06	3.376092e-10	1.113467e+01	2.337351e+01
2.200000e-06	1.650623e-06	3.569993e-10	1.144592e+01	2.485971e+01
2.210000e-06	1.695364e-06	3.724553e-10	1.175616e+01	2.632070e+01
2.220000e-06	1.739935e-06	3.865178e-10	1.206523e+01	2.775545e+01
2.230000e-06	1.784384e-06	4.017158e-10	1.237346e+01	2.916311e+01
2.240000e-06	1.828690e-06	4.181961e-10	1.268068e+01	3.054294e+01
2.250000e-06	1.872904e-06	4.354022e-10	1.298728e+01	3.189432e+01
2.260000e-06	1.917078e-06	4.565177e-10	1.329359e+01	3.321677e+01
2.270000e-06	1.961132e-06	4.796582e-10	1.359908e+01	3.450989e+01
2.280000e-06	2.005078e-06	5.018522e-10	1.390381e+01	3.577341e+01
2.290000e-06	2.048948e-06	5.216514e-10	1.420802e+01	3.700715e+01
2.300000e-06	2.092761e-06	5.372239e-10	1.451184e+01	3.821099e+01
2.310000e-06	2.136492e-06	5.493527e-10	1.481508e+01	3.938492e+01
2.320000e-06	2.180150e-06	5.624853e-10	1.511781e+01	4.052897e+01
2.330000e-06	2.223710e-06	5.781216e-10	1.541988e+01	4.164325e+01
2.340000e-06	2.267116e-06	5.960622e-10	1.572086e+01	4.272792e+01
2.350000e-06	2.310366e-06	6.155769e-10	1.602078e+01	4.378320e+01
2.360000e-06	2.353492e-06	6.330381e-10	1.631982e+01	4.480932e+01
2.370000e-06	2.396413e-06	6.455610e-10	1.661745e+01	4.580660e+01
2.380000e-06	2.438989e-06	6.559180e-10	1.691268e+01	4.677537e+01
2.390000e-06	2.481190e-06	6.666671e-10	1.720532e+01	4.771601e+01
2.400000e-06	2.523068e-06	6.774883e-10	1.749571e+01	4.862890e+01
2.410000e-06	2.564605e-06	6.899841e-10	1.778374e+01	4.951450e+01
2.420000e-06	2.605818e-06	7.040247e-10	1.806952e+01	5.037327e+01
2.430000e-06	2.646698e-06	7.181314e-10	1.835300e+01	5.120572e+01
2.440000e-06	2.687316e-06	7.311116e-10	1.863465e+01	5.201236e+01
2.450000e-06	2.727789e-06	7.422783e-10	1.891531e+01	5.279376e+01
2.460000e-06	2.768113e-06	7.504393e-10	1.919493e+01	5.355051e+01
2.470000e-06	2.808295e-06	7.576604e-10	1.947356e+01	5.428322e+01
2.480000e-06	2.848270e-06	7.671769e-10	1.975076e+01	5.499252e+01
2.490000e-06	2.888099e-06	7.809185e-10	2.002695e+01	5.567908e+01
2.500000e-06	2.927864e-06	7.949894e-10	2.030269e+01	5.634358e+01
2.510000e-06	2.967446e-06	8.060163e-10	2.057716e+01	5.698673e+01
2.520000e-06	3.006811e-06	8.140527e-10	2.085013e+01	5.760924e+01
2.530000e-06	3.046066e-06	8.211004e-10	2.112234e+01	5.821183e+01
2.540000e-06	3.085153e-06	8.263470e-10	2.139338e+01	5.879524e+01
2.550000e-06	3.123976e-06	8.317217e-10	2.166259e+01	5.936020e+01
2.560000e-06	3.162424e-06	8.408686e-10	2.192920e+01	5.990743e+01
2.570000e-06	3.200569e-06	8.530141e-10	2.219371e+01	6.043766e+01
2.580000e-06	3.238606e-06	8.640856e-10	2.245747e+01	6.095159e+01
2.590000e-06	3.276538e-06	8.706203e-10	2.272050e+01	6.144989e+01
2.600000e-06	3.314323e-06	8.748726e-10	2.298251e+01	6.193321e+01
2.610000e-06	3.351817e-06	8.765624e-10	2.324251e+01	6.240217e+01
2.620000e-06	3.388994e-06	8.794925e-10	2.350031e+01	6.285735e+01
2.630000e-06	3.425921e-06	8.863548e-10	2.375636e+01	6.329929e+01
2.640000e-06	3.462619e-06	8.966718e-10	2.401084e+01	6.372848e+01
2.650000e-06	3.499090e-06	9.085963e-10	2.426374e+01	6.414535e+01
2.660000e-06	3.535347e-06	9.174092e-10	2.451516e+01	6.455031e+01
2.670000e-06	3.571404e-06	9.206435e-10	2.476519e+01	6.494368e+01
2.680000e-06	3.607286e-06	9.208756e-10	2.501400e+01	6.532577e+01
2.690000e-06	3.643043e-06	9.216498e-10	2.526195e+01	6.569681e+01
2.700000e-06	3.678665e-06	9.242848e-10	2.550897e+01	6.605699e+01
2.710000e-06	3.714174e-06	9.296712e-10	2.575520e+01	6.640646e+01
2.720000e-06	3.749409e-06	9.392742e-10	2.599953e+01	6.674535e+01
2.730000e-06	3.784302e-06	9.500999e-10	2.624149e+01	6.707371e+01
2.740000e-06	3.818881e-06	9.577171e-10	2.648127e+01	6.739162e+01
2.750000e-06	3.852966e-06	9.619537e-10	2.671762e+01	6.769910e+01
2.760000e-06	3.886382e-06	9.637153e-10	2.694934e+01	6.799618e+01
2.770000e-06	3.919269e-06	9.649882e-10	2.717739e+01	6.828288e+01
2.780000e-06	3.951880e-06	9.673728e-10	2.740353e+01	6.855921e+01
2.790000e-06	3.984214e-06	9.730374e-10	2.762774e+01	6.882521e+01
2.800000e-06	4.016281e-06	9.819389e-10	2.785010e+01	6.908094e+01
2.810000e-06	4.048157e-06	9.890871e-10	2.807114e+01	6.932648e+01
2.820000e-06	4.079884e-06	9.934991e-10	2.829114e+01	6.956193e+01
2.830000e-06	4.111478e-06	9.968523e-10	2.851022e+01	6.978746e+01
2.840000e-06	4.142867e-06	9.980621e-10	2.872789e+01	7.000325e+01
2.850000e-06	4.173925e-06	9.980556e-10	2.894325e+01	7.020954e+01
2.860000e-06	4.204667e-06	9.992124e-10	2.915643e+01	7.040661e+01
2.870000e-06	4.235088e-06	1.002446e-09	2.936737e+01	7.059480e+01
2.880000e-06	4.265172e-06	1.007769e-09	2.957598e+01	7.077449e+01
2.890000e-06	4.294996e-06	1.015549e-09	2.978280e+01	7.094609e+01
2.900000e-06	4.324549e-06	1.022560e-09	2.998773e+01	7.111007e+01
