# Temperatura_=_-8.2
# Concentracion g/m^3_=_1620.0
# C_Vs_to_Am_M_A/Vsm_=_65563218390.804596
# pendiente_HvsI_1/m_=_3716.3
# ordenada_HvsI_A/m_=_1297.0
# frecuencia_Hz_=_135110.90339826743

Tiempo_(s)	Campo_(V.s)	Magnetizacion_(V.s)	Campo_(kA/m)	Magnetizacion_(A/m)
0.000000e+00	-5.506126e-06	-1.009633e-09	-3.836179e+01	-6.852848e+01
1.000000e-08	-5.506270e-06	-1.009902e-09	-3.836279e+01	-6.852863e+01
2.000000e-08	-5.506152e-06	-1.010042e-09	-3.836197e+01	-6.852820e+01
3.000000e-08	-5.505607e-06	-1.009176e-09	-3.835817e+01	-6.852702e+01
4.000000e-08	-5.504622e-06	-1.008337e-09	-3.835131e+01	-6.852494e+01
5.000000e-08	-5.503106e-06	-1.007241e-09	-3.834075e+01	-6.852179e+01
6.000000e-08	-5.501033e-06	-1.016778e-09	-3.832631e+01	-6.851746e+01
7.000000e-08	-5.498523e-06	-1.046956e-09	-3.830882e+01	-6.851180e+01
8.000000e-08	-5.495459e-06	-1.026644e-09	-3.828747e+01	-6.850470e+01
9.000000e-08	-5.491788e-06	-9.188820e-10	-3.826190e+01	-6.849604e+01
1.000000e-07	-5.487709e-06	-8.891529e-10	-3.823348e+01	-6.848570e+01
1.100000e-07	-5.483392e-06	-1.034459e-09	-3.820340e+01	-6.847355e+01
1.200000e-07	-5.478796e-06	-1.079438e-09	-3.817138e+01	-6.845947e+01
1.300000e-07	-5.473850e-06	-1.009015e-09	-3.813692e+01	-6.844331e+01
1.400000e-07	-5.468560e-06	-9.077049e-10	-3.810006e+01	-6.842493e+01
1.500000e-07	-5.463014e-06	-1.040922e-09	-3.806142e+01	-6.840416e+01
1.600000e-07	-5.457093e-06	-1.110901e-09	-3.802017e+01	-6.838081e+01
1.700000e-07	-5.450752e-06	-1.003194e-09	-3.797599e+01	-6.835470e+01
1.800000e-07	-5.444026e-06	-8.930596e-10	-3.792913e+01	-6.832561e+01
1.900000e-07	-5.436930e-06	-9.772814e-10	-3.787969e+01	-6.829333e+01
2.000000e-07	-5.429499e-06	-1.086620e-09	-3.782792e+01	-6.825763e+01
2.100000e-07	-5.421714e-06	-1.043642e-09	-3.777369e+01	-6.821826e+01
2.200000e-07	-5.413697e-06	-9.818527e-10	-3.771783e+01	-6.817499e+01
2.300000e-07	-5.405450e-06	-1.006977e-09	-3.766037e+01	-6.812758e+01
2.400000e-07	-5.396706e-06	-1.063871e-09	-3.759945e+01	-6.807581e+01
2.500000e-07	-5.387282e-06	-1.025693e-09	-3.753379e+01	-6.801945e+01
2.600000e-07	-5.377284e-06	-1.002765e-09	-3.746413e+01	-6.795832e+01
2.700000e-07	-5.366716e-06	-9.949783e-10	-3.739050e+01	-6.789224e+01
2.800000e-07	-5.355553e-06	-1.036351e-09	-3.731273e+01	-6.782108e+01
2.900000e-07	-5.343982e-06	-1.008967e-09	-3.723211e+01	-6.774474e+01
3.000000e-07	-5.332085e-06	-9.896638e-10	-3.714923e+01	-6.766317e+01
3.100000e-07	-5.319749e-06	-9.823338e-10	-3.706328e+01	-6.757637e+01
3.200000e-07	-5.306958e-06	-1.054283e-09	-3.697417e+01	-6.748439e+01
3.300000e-07	-5.293768e-06	-1.033893e-09	-3.688227e+01	-6.738733e+01
3.400000e-07	-5.280173e-06	-9.929930e-10	-3.678755e+01	-6.728537e+01
3.500000e-07	-5.266174e-06	-9.979138e-10	-3.669002e+01	-6.717874e+01
3.600000e-07	-5.251838e-06	-1.056323e-09	-3.659014e+01	-6.706772e+01
3.700000e-07	-5.236994e-06	-9.961858e-10	-3.648672e+01	-6.695268e+01
3.800000e-07	-5.221554e-06	-9.849714e-10	-3.637914e+01	-6.683400e+01
3.900000e-07	-5.205620e-06	-1.033270e-09	-3.626813e+01	-6.671216e+01
4.000000e-07	-5.189328e-06	-1.003437e-09	-3.615462e+01	-6.658766e+01
4.100000e-07	-5.172602e-06	-9.298058e-10	-3.603809e+01	-6.646104e+01
4.200000e-07	-5.155487e-06	-1.005526e-09	-3.591885e+01	-6.633288e+01
4.300000e-07	-5.138165e-06	-1.054400e-09	-3.579816e+01	-6.620378e+01
4.400000e-07	-5.120519e-06	-9.418683e-10	-3.567523e+01	-6.607435e+01
4.500000e-07	-5.102527e-06	-9.404792e-10	-3.554987e+01	-6.594521e+01
4.600000e-07	-5.084117e-06	-1.039973e-09	-3.542161e+01	-6.581696e+01
4.700000e-07	-5.065280e-06	-9.889053e-10	-3.529036e+01	-6.569019e+01
4.800000e-07	-5.046144e-06	-9.045913e-10	-3.515704e+01	-6.556546e+01
4.900000e-07	-5.026676e-06	-9.977073e-10	-3.502141e+01	-6.544328e+01
5.000000e-07	-5.006940e-06	-1.002042e-09	-3.488391e+01	-6.532413e+01
5.100000e-07	-4.986989e-06	-9.220449e-10	-3.474490e+01	-6.520841e+01
5.200000e-07	-4.966720e-06	-9.714342e-10	-3.460369e+01	-6.509645e+01
5.300000e-07	-4.946158e-06	-1.036169e-09	-3.446043e+01	-6.498853e+01
5.400000e-07	-4.925265e-06	-9.268805e-10	-3.431487e+01	-6.488483e+01
5.500000e-07	-4.903963e-06	-9.215498e-10	-3.416645e+01	-6.478545e+01
5.600000e-07	-4.882338e-06	-1.009728e-09	-3.401579e+01	-6.469040e+01
5.700000e-07	-4.860440e-06	-9.737503e-10	-3.386322e+01	-6.459961e+01
5.800000e-07	-4.838201e-06	-9.079354e-10	-3.370829e+01	-6.451294e+01
5.900000e-07	-4.815548e-06	-9.813196e-10	-3.355046e+01	-6.443014e+01
6.000000e-07	-4.792518e-06	-9.773968e-10	-3.339000e+01	-6.435090e+01
6.100000e-07	-4.769229e-06	-9.142962e-10	-3.322775e+01	-6.427484e+01
6.200000e-07	-4.745687e-06	-9.433982e-10	-3.306373e+01	-6.420150e+01
6.300000e-07	-4.721878e-06	-9.834544e-10	-3.289785e+01	-6.413041e+01
6.400000e-07	-4.697809e-06	-9.325215e-10	-3.273016e+01	-6.406101e+01
6.500000e-07	-4.673456e-06	-9.390803e-10	-3.256048e+01	-6.399274e+01
6.600000e-07	-4.648721e-06	-9.730554e-10	-3.238816e+01	-6.392502e+01
6.700000e-07	-4.623413e-06	-9.433491e-10	-3.221183e+01	-6.385724e+01
6.800000e-07	-4.597563e-06	-9.248952e-10	-3.203173e+01	-6.378882e+01
6.900000e-07	-4.571206e-06	-9.584776e-10	-3.184810e+01	-6.371920e+01
7.000000e-07	-4.544370e-06	-9.460878e-10	-3.166113e+01	-6.364784e+01
7.100000e-07	-4.517143e-06	-9.179961e-10	-3.147144e+01	-6.357425e+01
7.200000e-07	-4.489575e-06	-9.345289e-10	-3.127937e+01	-6.349797e+01
7.300000e-07	-4.461795e-06	-9.378644e-10	-3.108582e+01	-6.341864e+01
7.400000e-07	-4.433834e-06	-9.175291e-10	-3.089101e+01	-6.333594e+01
7.500000e-07	-4.405749e-06	-9.234689e-10	-3.069534e+01	-6.324962e+01
7.600000e-07	-4.377445e-06	-9.359571e-10	-3.049814e+01	-6.315952e+01
7.700000e-07	-4.348809e-06	-9.196641e-10	-3.029863e+01	-6.306556e+01
7.800000e-07	-4.319907e-06	-9.181626e-10	-3.009727e+01	-6.296773e+01
7.900000e-07	-4.290624e-06	-9.167700e-10	-2.989325e+01	-6.286611e+01
8.000000e-07	-4.260950e-06	-9.008749e-10	-2.968651e+01	-6.276083e+01
8.100000e-07	-4.231012e-06	-8.915574e-10	-2.947793e+01	-6.265211e+01
8.200000e-07	-4.200847e-06	-9.121406e-10	-2.926777e+01	-6.254023e+01
8.300000e-07	-4.170390e-06	-9.098697e-10	-2.905557e+01	-6.242551e+01
8.400000e-07	-4.139603e-06	-9.050623e-10	-2.884107e+01	-6.230833e+01
8.500000e-07	-4.108491e-06	-9.128536e-10	-2.862431e+01	-6.218907e+01
8.600000e-07	-4.077128e-06	-9.150420e-10	-2.840580e+01	-6.206816e+01
8.700000e-07	-4.045598e-06	-8.935616e-10	-2.818613e+01	-6.194603e+01
8.800000e-07	-4.013874e-06	-8.928539e-10	-2.796510e+01	-6.182311e+01
8.900000e-07	-3.981952e-06	-8.924846e-10	-2.774270e+01	-6.169980e+01
9.000000e-07	-3.949794e-06	-8.827379e-10	-2.751865e+01	-6.157648e+01
9.100000e-07	-3.917431e-06	-8.806650e-10	-2.729318e+01	-6.145351e+01
9.200000e-07	-3.884787e-06	-8.942615e-10	-2.706574e+01	-6.133116e+01
9.300000e-07	-3.851677e-06	-8.874000e-10	-2.683506e+01	-6.120969e+01
9.400000e-07	-3.818049e-06	-8.809288e-10	-2.660077e+01	-6.108926e+01
9.500000e-07	-3.784060e-06	-8.872427e-10	-2.636397e+01	-6.096999e+01
9.600000e-07	-3.749757e-06	-8.849491e-10	-2.612497e+01	-6.085190e+01
9.700000e-07	-3.714990e-06	-8.691533e-10	-2.588274e+01	-6.073496e+01
9.800000e-07	-3.679815e-06	-8.694856e-10	-2.563768e+01	-6.061904e+01
9.900000e-07	-3.644381e-06	-8.745208e-10	-2.539081e+01	-6.050396e+01
1.000000e-06	-3.608750e-06	-8.657107e-10	-2.514256e+01	-6.038946e+01
1.010000e-06	-3.572988e-06	-8.630408e-10	-2.489340e+01	-6.027523e+01
1.020000e-06	-3.537141e-06	-8.712730e-10	-2.464365e+01	-6.016087e+01
1.030000e-06	-3.501176e-06	-8.697173e-10	-2.439308e+01	-6.004596e+01
1.040000e-06	-3.464991e-06	-8.612958e-10	-2.414098e+01	-5.993005e+01
1.050000e-06	-3.428559e-06	-8.635165e-10	-2.388715e+01	-5.981263e+01
1.060000e-06	-3.391836e-06	-8.598653e-10	-2.363130e+01	-5.969319e+01
1.070000e-06	-3.354830e-06	-8.527857e-10	-2.337347e+01	-5.957123e+01
1.080000e-06	-3.317564e-06	-8.536623e-10	-2.311384e+01	-5.944622e+01
1.090000e-06	-3.280047e-06	-8.587291e-10	-2.285245e+01	-5.931769e+01
1.100000e-06	-3.242318e-06	-8.514244e-10	-2.258959e+01	-5.918516e+01
1.110000e-06	-3.204391e-06	-8.487799e-10	-2.232535e+01	-5.904822e+01
1.120000e-06	-3.166191e-06	-8.493892e-10	-2.205921e+01	-5.890649e+01
1.130000e-06	-3.127746e-06	-8.446685e-10	-2.179135e+01	-5.875964e+01
1.140000e-06	-3.089162e-06	-8.359518e-10	-2.152254e+01	-5.860742e+01
1.150000e-06	-3.050380e-06	-8.380832e-10	-2.125234e+01	-5.844963e+01
1.160000e-06	-3.011376e-06	-8.375655e-10	-2.098059e+01	-5.828615e+01
1.170000e-06	-2.972121e-06	-8.333405e-10	-2.070710e+01	-5.811693e+01
1.180000e-06	-2.932686e-06	-8.315303e-10	-2.043235e+01	-5.794198e+01
1.190000e-06	-2.893145e-06	-8.316860e-10	-2.015686e+01	-5.776139e+01
1.200000e-06	-2.853438e-06	-8.227733e-10	-1.988022e+01	-5.757528e+01
1.210000e-06	-2.813619e-06	-8.157434e-10	-1.960279e+01	-5.738387e+01
1.220000e-06	-2.773799e-06	-8.109332e-10	-1.932536e+01	-5.718740e+01
1.230000e-06	-2.733878e-06	-8.081155e-10	-1.904723e+01	-5.698615e+01
1.240000e-06	-2.693674e-06	-8.068452e-10	-1.876713e+01	-5.678043e+01
1.250000e-06	-2.653189e-06	-8.128288e-10	-1.848506e+01	-5.657058e+01
1.260000e-06	-2.612598e-06	-8.178008e-10	-1.820226e+01	-5.635691e+01
1.270000e-06	-2.571894e-06	-8.156430e-10	-1.791867e+01	-5.613978e+01
1.280000e-06	-2.530831e-06	-8.111965e-10	-1.763258e+01	-5.591947e+01
1.290000e-06	-2.489414e-06	-8.056870e-10	-1.734402e+01	-5.569628e+01
1.300000e-06	-2.447718e-06	-7.962741e-10	-1.705352e+01	-5.547044e+01
1.310000e-06	-2.405699e-06	-7.875969e-10	-1.676077e+01	-5.524214e+01
1.320000e-06	-2.363315e-06	-7.862803e-10	-1.646548e+01	-5.501150e+01
1.330000e-06	-2.320628e-06	-7.851738e-10	-1.616807e+01	-5.477860e+01
1.340000e-06	-2.277673e-06	-7.837994e-10	-1.586880e+01	-5.454343e+01
1.350000e-06	-2.234485e-06	-7.836411e-10	-1.556791e+01	-5.430588e+01
1.360000e-06	-2.191139e-06	-7.820026e-10	-1.526591e+01	-5.406580e+01
1.370000e-06	-2.147603e-06	-7.758924e-10	-1.496259e+01	-5.382293e+01
1.380000e-06	-2.103944e-06	-7.701861e-10	-1.465841e+01	-5.357695e+01
1.390000e-06	-2.060200e-06	-7.638800e-10	-1.435364e+01	-5.332746e+01
1.400000e-06	-2.016410e-06	-7.585206e-10	-1.404855e+01	-5.307397e+01
1.410000e-06	-1.972613e-06	-7.548989e-10	-1.374342e+01	-5.281594e+01
1.420000e-06	-1.928780e-06	-7.575822e-10	-1.343802e+01	-5.255279e+01
1.430000e-06	-1.884821e-06	-7.577242e-10	-1.313176e+01	-5.228384e+01
1.440000e-06	-1.840753e-06	-7.550331e-10	-1.282473e+01	-5.200843e+01
1.450000e-06	-1.796627e-06	-7.496842e-10	-1.251730e+01	-5.172581e+01
1.460000e-06	-1.752434e-06	-7.423453e-10	-1.220940e+01	-5.143526e+01
1.470000e-06	-1.708162e-06	-7.310596e-10	-1.190095e+01	-5.113603e+01
1.480000e-06	-1.663761e-06	-7.225220e-10	-1.159161e+01	-5.082738e+01
1.490000e-06	-1.619183e-06	-7.162360e-10	-1.128103e+01	-5.050855e+01
1.500000e-06	-1.574447e-06	-7.103419e-10	-1.096935e+01	-5.017885e+01
1.510000e-06	-1.529567e-06	-7.044894e-10	-1.065667e+01	-4.983758e+01
1.520000e-06	-1.484546e-06	-6.999171e-10	-1.034300e+01	-4.948410e+01
1.530000e-06	-1.439482e-06	-6.960011e-10	-1.002903e+01	-4.911779e+01
1.540000e-06	-1.394295e-06	-6.903777e-10	-9.714210e+00	-4.873809e+01
1.550000e-06	-1.348957e-06	-6.823798e-10	-9.398334e+00	-4.834447e+01
1.560000e-06	-1.303589e-06	-6.726420e-10	-9.082250e+00	-4.793646e+01
1.570000e-06	-1.258113e-06	-6.629500e-10	-8.765411e+00	-4.751364e+01
1.580000e-06	-1.212450e-06	-6.549308e-10	-8.447274e+00	-4.707559e+01
1.590000e-06	-1.166728e-06	-6.521974e-10	-8.128724e+00	-4.662199e+01
1.600000e-06	-1.120912e-06	-6.501869e-10	-7.809520e+00	-4.615249e+01
1.610000e-06	-1.074961e-06	-6.434965e-10	-7.489371e+00	-4.566679e+01
1.620000e-06	-1.029012e-06	-6.330103e-10	-7.169241e+00	-4.516461e+01
1.630000e-06	-9.829634e-07	-6.221213e-10	-6.848415e+00	-4.464566e+01
1.640000e-06	-9.368329e-07	-6.130754e-10	-6.527018e+00	-4.410963e+01
1.650000e-06	-8.907367e-07	-6.062438e-10	-6.205861e+00	-4.355623e+01
1.660000e-06	-8.446150e-07	-5.984221e-10	-5.884527e+00	-4.298511e+01
1.670000e-06	-7.984392e-07	-5.896714e-10	-5.562814e+00	-4.239589e+01
1.680000e-06	-7.522165e-07	-5.783126e-10	-5.240776e+00	-4.178816e+01
1.690000e-06	-7.059634e-07	-5.661878e-10	-4.918525e+00	-4.116144e+01
1.700000e-06	-6.596711e-07	-5.536646e-10	-4.596002e+00	-4.051519e+01
1.710000e-06	-6.133241e-07	-5.416763e-10	-4.273097e+00	-3.984884e+01
1.720000e-06	-5.669005e-07	-5.313101e-10	-3.949659e+00	-3.916170e+01
1.730000e-06	-5.204080e-07	-5.220208e-10	-3.625740e+00	-3.845306e+01
1.740000e-06	-4.739275e-07	-5.135919e-10	-3.301906e+00	-3.772213e+01
1.750000e-06	-4.274324e-07	-5.040187e-10	-2.977969e+00	-3.696804e+01
1.760000e-06	-3.808570e-07	-4.901506e-10	-2.653473e+00	-3.618991e+01
1.770000e-06	-3.342865e-07	-4.767185e-10	-2.329011e+00	-3.538678e+01
1.780000e-06	-2.877010e-07	-4.643567e-10	-2.004445e+00	-3.455768e+01
1.790000e-06	-2.410557e-07	-4.522409e-10	-1.679462e+00	-3.370161e+01
1.800000e-06	-1.944275e-07	-4.397184e-10	-1.354598e+00	-3.281756e+01
1.810000e-06	-1.477740e-07	-4.264070e-10	-1.029558e+00	-3.190456e+01
1.820000e-06	-1.010360e-07	-4.122280e-10	-7.039288e-01	-3.096164e+01
1.830000e-06	-5.427768e-08	-3.980219e-10	-3.781586e-01	-2.998790e+01
1.840000e-06	-7.502921e-09	-3.855411e-10	-5.227368e-02	-2.898252e+01
1.850000e-06	3.924537e-08	-3.730406e-10	2.734268e-01	-2.794474e+01
1.860000e-06	8.596960e-08	-3.597095e-10	5.989598e-01	-2.687395e+01
1.870000e-06	1.326887e-07	-3.462587e-10	9.244567e-01	-2.576965e+01
1.880000e-06	1.793659e-07	-3.325797e-10	1.249662e+00	-2.463148e+01
1.890000e-06	2.260227e-07	-3.170766e-10	1.574725e+00	-2.345927e+01
1.900000e-06	2.726588e-07	-2.992926e-10	1.899644e+00	-2.225301e+01
1.910000e-06	3.192674e-07	-2.817775e-10	2.224371e+00	-2.101291e+01
1.920000e-06	3.658103e-07	-2.651266e-10	2.548641e+00	-1.973935e+01
1.930000e-06	4.122947e-07	-2.462023e-10	2.872503e+00	-1.843295e+01
1.940000e-06	4.587854e-07	-2.272381e-10	3.196408e+00	-1.709454e+01
1.950000e-06	5.052452e-07	-2.087128e-10	3.520100e+00	-1.572516e+01
1.960000e-06	5.517498e-07	-1.920869e-10	3.844102e+00	-1.432608e+01
1.970000e-06	5.982831e-07	-1.756526e-10	4.168305e+00	-1.289875e+01
1.980000e-06	6.447116e-07	-1.579286e-10	4.491777e+00	-1.144487e+01
1.990000e-06	6.910828e-07	-1.380317e-10	4.814851e+00	-9.966293e+00
2.000000e-06	7.373626e-07	-1.131409e-10	5.137287e+00	-8.465067e+00
2.010000e-06	7.835825e-07	-8.577676e-11	5.459306e+00	-6.943397e+00
2.020000e-06	8.297847e-07	-6.123152e-11	5.781202e+00	-5.403626e+00
2.030000e-06	8.759555e-07	-4.114868e-11	6.102879e+00	-3.848221e+00
2.040000e-06	9.220564e-07	-2.332920e-11	6.424069e+00	-2.279741e+00
2.050000e-06	9.680515e-07	-4.116742e-12	6.744522e+00	-7.008214e-01
2.060000e-06	1.013961e-06	1.590652e-11	7.064379e+00	8.858597e-01
2.070000e-06	1.059830e-06	3.501671e-11	7.383951e+00	2.477601e+00
2.080000e-06	1.105612e-06	5.718363e-11	7.702919e+00	4.071707e+00
2.090000e-06	1.151260e-06	8.408950e-11	8.020955e+00	5.665511e+00
2.100000e-06	1.196833e-06	1.121733e-10	8.338468e+00	7.256400e+00
2.110000e-06	1.242400e-06	1.377141e-10	8.655941e+00	8.841840e+00
2.120000e-06	1.287962e-06	1.594409e-10	8.973376e+00	1.041939e+01
2.130000e-06	1.333358e-06	1.774683e-10	9.289652e+00	1.198673e+01
2.140000e-06	1.378617e-06	1.934058e-10	9.604979e+00	1.354167e+01
2.150000e-06	1.423769e-06	2.117695e-10	9.919559e+00	1.508217e+01
2.160000e-06	1.468743e-06	2.342942e-10	1.023290e+01	1.660635e+01
2.170000e-06	1.513545e-06	2.579935e-10	1.054503e+01	1.811248e+01
2.180000e-06	1.558244e-06	2.809410e-10	1.085646e+01	1.959903e+01
2.190000e-06	1.602864e-06	3.036857e-10	1.116733e+01	2.106463e+01
2.200000e-06	1.647356e-06	3.250085e-10	1.147731e+01	2.250806e+01
2.210000e-06	1.691795e-06	3.429428e-10	1.178692e+01	2.392832e+01
2.220000e-06	1.736158e-06	3.591168e-10	1.209601e+01	2.532453e+01
2.230000e-06	1.780380e-06	3.752905e-10	1.240410e+01	2.669598e+01
2.240000e-06	1.824493e-06	3.904968e-10	1.271144e+01	2.804212e+01
2.250000e-06	1.868470e-06	4.054796e-10	1.301784e+01	2.936252e+01
2.260000e-06	1.912366e-06	4.239220e-10	1.332366e+01	3.065686e+01
2.270000e-06	1.956217e-06	4.448437e-10	1.362918e+01	3.192495e+01
2.280000e-06	2.000046e-06	4.642470e-10	1.393454e+01	3.316666e+01
2.290000e-06	2.043848e-06	4.813171e-10	1.423972e+01	3.438198e+01
2.300000e-06	2.087530e-06	4.970311e-10	1.454405e+01	3.557091e+01
2.310000e-06	2.131134e-06	5.107662e-10	1.484785e+01	3.673353e+01
2.320000e-06	2.174639e-06	5.255412e-10	1.515095e+01	3.786994e+01
2.330000e-06	2.217996e-06	5.425008e-10	1.545302e+01	3.898025e+01
2.340000e-06	2.261171e-06	5.584783e-10	1.575383e+01	4.006458e+01
2.350000e-06	2.304099e-06	5.730755e-10	1.605291e+01	4.112307e+01
2.360000e-06	2.346746e-06	5.873952e-10	1.635004e+01	4.215582e+01
2.370000e-06	2.389105e-06	5.995536e-10	1.664516e+01	4.316292e+01
2.380000e-06	2.431178e-06	6.112591e-10	1.693829e+01	4.414444e+01
2.390000e-06	2.473040e-06	6.234700e-10	1.722994e+01	4.510044e+01
2.400000e-06	2.514646e-06	6.349259e-10	1.751982e+01	4.603093e+01
2.410000e-06	2.555866e-06	6.484984e-10	1.780700e+01	4.693592e+01
2.420000e-06	2.596767e-06	6.650439e-10	1.809196e+01	4.781539e+01
2.430000e-06	2.637395e-06	6.827485e-10	1.837502e+01	4.866931e+01
2.440000e-06	2.677791e-06	6.974513e-10	1.865647e+01	4.949763e+01
2.450000e-06	2.718047e-06	7.082594e-10	1.893693e+01	5.030032e+01
2.460000e-06	2.758181e-06	7.154712e-10	1.921655e+01	5.107735e+01
2.470000e-06	2.798157e-06	7.209580e-10	1.949507e+01	5.182869e+01
2.480000e-06	2.837983e-06	7.280393e-10	1.977254e+01	5.255435e+01
2.490000e-06	2.877676e-06	7.380709e-10	2.004909e+01	5.325438e+01
2.500000e-06	2.917198e-06	7.495795e-10	2.032444e+01	5.392886e+01
2.510000e-06	2.956565e-06	7.606079e-10	2.059872e+01	5.457793e+01
2.520000e-06	2.995785e-06	7.708595e-10	2.087196e+01	5.520179e+01
2.530000e-06	3.034788e-06	7.812523e-10	2.114370e+01	5.580068e+01
2.540000e-06	3.073565e-06	7.898369e-10	2.141387e+01	5.637494e+01
2.550000e-06	3.112115e-06	7.943302e-10	2.168245e+01	5.692496e+01
2.560000e-06	3.150427e-06	7.975177e-10	2.194937e+01	5.745122e+01
2.570000e-06	3.188512e-06	8.014094e-10	2.221471e+01	5.795426e+01
2.580000e-06	3.226356e-06	8.070856e-10	2.247838e+01	5.843470e+01
2.590000e-06	3.263968e-06	8.153886e-10	2.274042e+01	5.889324e+01
2.600000e-06	3.301435e-06	8.246494e-10	2.300146e+01	5.933062e+01
2.610000e-06	3.338715e-06	8.337553e-10	2.326120e+01	5.974765e+01
2.620000e-06	3.375700e-06	8.424323e-10	2.351888e+01	6.014519e+01
2.630000e-06	3.412490e-06	8.484633e-10	2.377520e+01	6.052416e+01
2.640000e-06	3.449046e-06	8.509959e-10	2.402989e+01	6.088548e+01
2.650000e-06	3.485302e-06	8.524262e-10	2.428248e+01	6.123011e+01
2.660000e-06	3.521371e-06	8.539433e-10	2.453378e+01	6.155903e+01
2.670000e-06	3.557294e-06	8.556742e-10	2.478406e+01	6.187321e+01
2.680000e-06	3.593082e-06	8.605261e-10	2.503340e+01	6.217360e+01
2.690000e-06	3.628719e-06	8.690666e-10	2.528169e+01	6.246115e+01
2.700000e-06	3.664167e-06	8.769987e-10	2.552866e+01	6.273676e+01
2.710000e-06	3.699423e-06	8.824962e-10	2.577429e+01	6.300130e+01
2.720000e-06	3.734362e-06	8.884496e-10	2.601771e+01	6.325560e+01
2.730000e-06	3.768850e-06	8.933804e-10	2.625800e+01	6.350041e+01
2.740000e-06	3.802995e-06	8.970182e-10	2.649589e+01	6.373644e+01
2.750000e-06	3.836758e-06	9.008620e-10	2.673112e+01	6.396432e+01
2.760000e-06	3.869946e-06	9.037468e-10	2.696234e+01	6.418461e+01
2.770000e-06	3.902708e-06	9.061836e-10	2.719060e+01	6.439782e+01
2.780000e-06	3.935221e-06	9.100286e-10	2.741712e+01	6.460437e+01
2.790000e-06	3.967422e-06	9.149104e-10	2.764147e+01	6.480462e+01
2.800000e-06	3.999385e-06	9.189596e-10	2.786416e+01	6.499887e+01
2.810000e-06	4.031200e-06	9.219255e-10	2.808582e+01	6.518733e+01
2.820000e-06	4.062786e-06	9.258308e-10	2.830588e+01	6.537020e+01
2.830000e-06	4.094182e-06	9.309987e-10	2.852462e+01	6.554759e+01
2.840000e-06	4.125325e-06	9.353130e-10	2.874160e+01	6.571960e+01
2.850000e-06	4.156152e-06	9.388387e-10	2.895637e+01	6.588628e+01
2.860000e-06	4.186711e-06	9.411414e-10	2.916928e+01	6.604765e+01
2.870000e-06	4.216986e-06	9.412624e-10	2.938021e+01	6.620373e+01
2.880000e-06	4.246983e-06	9.420634e-10	2.958920e+01	6.635452e+01
2.890000e-06	4.276687e-06	9.455600e-10	2.979615e+01	6.650002e+01
2.900000e-06	4.306134e-06	9.511981e-10	3.000131e+01	6.664023e+01
