# Temperatura_=_-7.2
# Concentracion g/m^3_=_1620.0
# C_Vs_to_Am_M_A/Vsm_=_65563218390.804596
# pendiente_HvsI_1/m_=_3716.3
# ordenada_HvsI_A/m_=_1297.0
# frecuencia_Hz_=_135107.6682655625

Tiempo_(s)	Campo_(V.s)	Magnetizacion_(V.s)	Campo_(kA/m)	Magnetizacion_(A/m)
0.000000e+00	-5.513626e-06	-1.057858e-09	-3.836852e+01	-7.131118e+01
1.000000e-08	-5.513811e-06	-1.057908e-09	-3.836981e+01	-7.129403e+01
2.000000e-08	-5.513737e-06	-1.058333e-09	-3.836929e+01	-7.127942e+01
3.000000e-08	-5.513411e-06	-1.058154e-09	-3.836703e+01	-7.126689e+01
4.000000e-08	-5.512707e-06	-1.056438e-09	-3.836212e+01	-7.125588e+01
5.000000e-08	-5.511436e-06	-1.050769e-09	-3.835328e+01	-7.124578e+01
6.000000e-08	-5.509554e-06	-1.043627e-09	-3.834019e+01	-7.123591e+01
7.000000e-08	-5.507075e-06	-1.050935e-09	-3.832293e+01	-7.122557e+01
8.000000e-08	-5.503998e-06	-1.071843e-09	-3.830152e+01	-7.121400e+01
9.000000e-08	-5.500367e-06	-1.069802e-09	-3.827625e+01	-7.120043e+01
1.000000e-07	-5.496335e-06	-1.033201e-09	-3.824820e+01	-7.118406e+01
1.100000e-07	-5.491984e-06	-1.040610e-09	-3.821792e+01	-7.116411e+01
1.200000e-07	-5.487400e-06	-1.063022e-09	-3.818602e+01	-7.113981e+01
1.300000e-07	-5.482622e-06	-1.071828e-09	-3.815277e+01	-7.111039e+01
1.400000e-07	-5.477461e-06	-1.024075e-09	-3.811686e+01	-7.107515e+01
1.500000e-07	-5.471899e-06	-1.029230e-09	-3.807815e+01	-7.103343e+01
1.600000e-07	-5.466018e-06	-1.080723e-09	-3.803722e+01	-7.098462e+01
1.700000e-07	-5.459735e-06	-1.097046e-09	-3.799350e+01	-7.092819e+01
1.800000e-07	-5.452977e-06	-1.059937e-09	-3.794648e+01	-7.086370e+01
1.900000e-07	-5.445794e-06	-1.055645e-09	-3.789649e+01	-7.079077e+01
2.000000e-07	-5.438319e-06	-1.092584e-09	-3.784447e+01	-7.070915e+01
2.100000e-07	-5.430605e-06	-1.084328e-09	-3.779079e+01	-7.061866e+01
2.200000e-07	-5.422648e-06	-1.054425e-09	-3.773542e+01	-7.051926e+01
2.300000e-07	-5.414454e-06	-1.044597e-09	-3.767840e+01	-7.041098e+01
2.400000e-07	-5.405909e-06	-1.082290e-09	-3.761894e+01	-7.029398e+01
2.500000e-07	-5.396766e-06	-1.082786e-09	-3.755531e+01	-7.016852e+01
2.600000e-07	-5.386977e-06	-1.064425e-09	-3.748719e+01	-7.003497e+01
2.700000e-07	-5.376605e-06	-1.032640e-09	-3.741501e+01	-6.989377e+01
2.800000e-07	-5.365627e-06	-1.041079e-09	-3.733862e+01	-6.974550e+01
2.900000e-07	-5.354089e-06	-1.043039e-09	-3.725833e+01	-6.959077e+01
3.000000e-07	-5.342175e-06	-1.031432e-09	-3.717542e+01	-6.943031e+01
3.100000e-07	-5.329926e-06	-1.009075e-09	-3.709018e+01	-6.926487e+01
3.200000e-07	-5.317239e-06	-1.041253e-09	-3.700189e+01	-6.909530e+01
3.300000e-07	-5.304136e-06	-1.064483e-09	-3.691071e+01	-6.892244e+01
3.400000e-07	-5.290715e-06	-1.043993e-09	-3.681731e+01	-6.874720e+01
3.500000e-07	-5.276996e-06	-1.019717e-09	-3.672185e+01	-6.857047e+01
3.600000e-07	-5.262836e-06	-1.040478e-09	-3.662331e+01	-6.839317e+01
3.700000e-07	-5.248218e-06	-1.035839e-09	-3.652159e+01	-6.821617e+01
3.800000e-07	-5.233099e-06	-1.003753e-09	-3.641637e+01	-6.804034e+01
3.900000e-07	-5.217289e-06	-1.014865e-09	-3.630636e+01	-6.786651e+01
4.000000e-07	-5.201022e-06	-1.037458e-09	-3.619316e+01	-6.769544e+01
4.100000e-07	-5.184398e-06	-1.013414e-09	-3.607747e+01	-6.752784e+01
4.200000e-07	-5.167317e-06	-1.000237e-09	-3.595861e+01	-6.736434e+01
4.300000e-07	-5.149948e-06	-1.037746e-09	-3.583774e+01	-6.720550e+01
4.400000e-07	-5.132344e-06	-1.021830e-09	-3.571523e+01	-6.705177e+01
4.500000e-07	-5.114373e-06	-9.834290e-10	-3.559018e+01	-6.690354e+01
4.600000e-07	-5.096047e-06	-9.982728e-10	-3.546265e+01	-6.676106e+01
4.700000e-07	-5.077390e-06	-1.018755e-09	-3.533282e+01	-6.662453e+01
4.800000e-07	-5.058306e-06	-9.796759e-10	-3.520002e+01	-6.649399e+01
4.900000e-07	-5.038825e-06	-9.855470e-10	-3.506445e+01	-6.636943e+01
5.000000e-07	-5.019102e-06	-1.017965e-09	-3.492720e+01	-6.625073e+01
5.100000e-07	-4.999208e-06	-9.998604e-10	-3.478876e+01	-6.613767e+01
5.200000e-07	-4.979020e-06	-9.764945e-10	-3.464828e+01	-6.602994e+01
5.300000e-07	-4.958442e-06	-1.011987e-09	-3.450508e+01	-6.592717e+01
5.400000e-07	-4.937534e-06	-1.000788e-09	-3.435958e+01	-6.582891e+01
5.500000e-07	-4.916345e-06	-9.585095e-10	-3.421213e+01	-6.573465e+01
5.600000e-07	-4.894794e-06	-9.705711e-10	-3.406216e+01	-6.564384e+01
5.700000e-07	-4.872891e-06	-9.944102e-10	-3.390974e+01	-6.555587e+01
5.800000e-07	-4.850643e-06	-9.624917e-10	-3.375492e+01	-6.547013e+01
5.900000e-07	-4.828032e-06	-9.616447e-10	-3.359757e+01	-6.538597e+01
6.000000e-07	-4.805135e-06	-9.916703e-10	-3.343823e+01	-6.530277e+01
6.100000e-07	-4.781957e-06	-9.761230e-10	-3.327694e+01	-6.521988e+01
6.200000e-07	-4.758460e-06	-9.516715e-10	-3.311343e+01	-6.513669e+01
6.300000e-07	-4.734673e-06	-9.735795e-10	-3.294790e+01	-6.505263e+01
6.400000e-07	-4.710650e-06	-9.753024e-10	-3.278073e+01	-6.496715e+01
6.500000e-07	-4.686389e-06	-9.521045e-10	-3.261190e+01	-6.487975e+01
6.600000e-07	-4.661738e-06	-9.629802e-10	-3.244036e+01	-6.479000e+01
6.700000e-07	-4.636594e-06	-9.744662e-10	-3.226538e+01	-6.469751e+01
6.800000e-07	-4.610934e-06	-9.537670e-10	-3.208682e+01	-6.460199e+01
6.900000e-07	-4.584753e-06	-9.522239e-10	-3.190463e+01	-6.450317e+01
7.000000e-07	-4.558068e-06	-9.689569e-10	-3.171893e+01	-6.440089e+01
7.100000e-07	-4.530909e-06	-9.523811e-10	-3.152994e+01	-6.429505e+01
7.200000e-07	-4.503394e-06	-9.404059e-10	-3.133846e+01	-6.418561e+01
7.300000e-07	-4.475693e-06	-9.538244e-10	-3.114570e+01	-6.407261e+01
7.400000e-07	-4.447861e-06	-9.518736e-10	-3.095202e+01	-6.395616e+01
7.500000e-07	-4.419785e-06	-9.354650e-10	-3.075664e+01	-6.383639e+01
7.600000e-07	-4.391465e-06	-9.447194e-10	-3.055956e+01	-6.371353e+01
7.700000e-07	-4.362895e-06	-9.464646e-10	-3.036075e+01	-6.358782e+01
7.800000e-07	-4.334043e-06	-9.317772e-10	-3.015997e+01	-6.345955e+01
7.900000e-07	-4.304861e-06	-9.311512e-10	-2.995690e+01	-6.332905e+01
8.000000e-07	-4.275336e-06	-9.378424e-10	-2.975144e+01	-6.319664e+01
8.100000e-07	-4.245525e-06	-9.238706e-10	-2.954399e+01	-6.306267e+01
8.200000e-07	-4.215418e-06	-9.222383e-10	-2.933448e+01	-6.292749e+01
8.300000e-07	-4.185008e-06	-9.316741e-10	-2.912286e+01	-6.279143e+01
8.400000e-07	-4.154345e-06	-9.272634e-10	-2.890948e+01	-6.265483e+01
8.500000e-07	-4.123413e-06	-9.197880e-10	-2.869423e+01	-6.251797e+01
8.600000e-07	-4.092193e-06	-9.283180e-10	-2.847698e+01	-6.238112e+01
8.700000e-07	-4.060748e-06	-9.231800e-10	-2.825815e+01	-6.224451e+01
8.800000e-07	-4.029089e-06	-9.098337e-10	-2.803785e+01	-6.210831e+01
8.900000e-07	-3.997222e-06	-9.092999e-10	-2.781609e+01	-6.197267e+01
9.000000e-07	-3.965188e-06	-9.103821e-10	-2.759317e+01	-6.183766e+01
9.100000e-07	-3.932968e-06	-9.020284e-10	-2.736895e+01	-6.170332e+01
9.200000e-07	-3.900482e-06	-9.031998e-10	-2.714289e+01	-6.156960e+01
9.300000e-07	-3.867637e-06	-9.083819e-10	-2.691432e+01	-6.143644e+01
9.400000e-07	-3.834314e-06	-9.011332e-10	-2.668244e+01	-6.130369e+01
9.500000e-07	-3.800542e-06	-8.940541e-10	-2.644742e+01	-6.117117e+01
9.600000e-07	-3.766287e-06	-8.933046e-10	-2.620904e+01	-6.103864e+01
9.700000e-07	-3.731543e-06	-8.842762e-10	-2.596726e+01	-6.090582e+01
9.800000e-07	-3.696517e-06	-8.736836e-10	-2.572352e+01	-6.077240e+01
9.900000e-07	-3.661281e-06	-8.758059e-10	-2.547832e+01	-6.063803e+01
1.000000e-06	-3.625769e-06	-8.748012e-10	-2.523120e+01	-6.050233e+01
1.010000e-06	-3.590005e-06	-8.676724e-10	-2.498232e+01	-6.036491e+01
1.020000e-06	-3.554118e-06	-8.681063e-10	-2.473259e+01	-6.022537e+01
1.030000e-06	-3.518113e-06	-8.721112e-10	-2.448204e+01	-6.008330e+01
1.040000e-06	-3.481892e-06	-8.649702e-10	-2.422998e+01	-5.993829e+01
1.050000e-06	-3.445421e-06	-8.584014e-10	-2.397618e+01	-5.978994e+01
1.060000e-06	-3.408714e-06	-8.541583e-10	-2.372074e+01	-5.963788e+01
1.070000e-06	-3.371765e-06	-8.459887e-10	-2.346362e+01	-5.948174e+01
1.080000e-06	-3.334509e-06	-8.400692e-10	-2.320436e+01	-5.932119e+01
1.090000e-06	-3.297029e-06	-8.440476e-10	-2.294354e+01	-5.915593e+01
1.100000e-06	-3.259367e-06	-8.431680e-10	-2.268146e+01	-5.898569e+01
1.110000e-06	-3.221400e-06	-8.397486e-10	-2.241726e+01	-5.881024e+01
1.120000e-06	-3.183217e-06	-8.405176e-10	-2.215154e+01	-5.862939e+01
1.130000e-06	-3.144891e-06	-8.390579e-10	-2.188484e+01	-5.844300e+01
1.140000e-06	-3.106381e-06	-8.302695e-10	-2.161685e+01	-5.825095e+01
1.150000e-06	-3.067606e-06	-8.242761e-10	-2.134703e+01	-5.805317e+01
1.160000e-06	-3.028575e-06	-8.205589e-10	-2.107541e+01	-5.784965e+01
1.170000e-06	-2.989408e-06	-8.134491e-10	-2.080286e+01	-5.764037e+01
1.180000e-06	-2.950011e-06	-8.070147e-10	-2.052870e+01	-5.742539e+01
1.190000e-06	-2.910411e-06	-8.070294e-10	-2.025313e+01	-5.720476e+01
1.200000e-06	-2.870673e-06	-8.041236e-10	-1.997660e+01	-5.697859e+01
1.210000e-06	-2.830765e-06	-8.001111e-10	-1.969888e+01	-5.674697e+01
1.220000e-06	-2.790747e-06	-7.986442e-10	-1.942041e+01	-5.651006e+01
1.230000e-06	-2.750619e-06	-7.943008e-10	-1.914116e+01	-5.626797e+01
1.240000e-06	-2.710330e-06	-7.866066e-10	-1.886079e+01	-5.602085e+01
1.250000e-06	-2.669853e-06	-7.815978e-10	-1.857912e+01	-5.576886e+01
1.260000e-06	-2.629217e-06	-7.811666e-10	-1.829634e+01	-5.551212e+01
1.270000e-06	-2.588465e-06	-7.787323e-10	-1.801275e+01	-5.525077e+01
1.280000e-06	-2.547508e-06	-7.767267e-10	-1.772774e+01	-5.498493e+01
1.290000e-06	-2.506204e-06	-7.769627e-10	-1.744031e+01	-5.471469e+01
1.300000e-06	-2.464535e-06	-7.749943e-10	-1.715034e+01	-5.444015e+01
1.310000e-06	-2.422542e-06	-7.660665e-10	-1.685812e+01	-5.416137e+01
1.320000e-06	-2.380226e-06	-7.572513e-10	-1.656365e+01	-5.387838e+01
1.330000e-06	-2.337729e-06	-7.508846e-10	-1.626791e+01	-5.359119e+01
1.340000e-06	-2.295069e-06	-7.467784e-10	-1.597105e+01	-5.329980e+01
1.350000e-06	-2.252048e-06	-7.457924e-10	-1.567168e+01	-5.300417e+01
1.360000e-06	-2.208731e-06	-7.465682e-10	-1.537024e+01	-5.270424e+01
1.370000e-06	-2.165246e-06	-7.447180e-10	-1.506763e+01	-5.239992e+01
1.380000e-06	-2.121699e-06	-7.400779e-10	-1.476459e+01	-5.209111e+01
1.390000e-06	-2.078117e-06	-7.323020e-10	-1.446131e+01	-5.177768e+01
1.400000e-06	-2.034379e-06	-7.233972e-10	-1.415695e+01	-5.145948e+01
1.410000e-06	-1.990479e-06	-7.142097e-10	-1.385146e+01	-5.113634e+01
1.420000e-06	-1.946506e-06	-7.088802e-10	-1.354546e+01	-5.080808e+01
1.430000e-06	-1.902484e-06	-7.074876e-10	-1.323911e+01	-5.047451e+01
1.440000e-06	-1.858409e-06	-7.063949e-10	-1.293239e+01	-5.013542e+01
1.450000e-06	-1.814233e-06	-7.021375e-10	-1.262499e+01	-4.979058e+01
1.460000e-06	-1.769909e-06	-6.955804e-10	-1.231654e+01	-4.943977e+01
1.470000e-06	-1.725474e-06	-6.866681e-10	-1.200732e+01	-4.908273e+01
1.480000e-06	-1.680896e-06	-6.762131e-10	-1.169711e+01	-4.871923e+01
1.490000e-06	-1.636203e-06	-6.671497e-10	-1.138610e+01	-4.834898e+01
1.500000e-06	-1.591474e-06	-6.599710e-10	-1.107484e+01	-4.797171e+01
1.510000e-06	-1.546653e-06	-6.545840e-10	-1.076293e+01	-4.758711e+01
1.520000e-06	-1.501637e-06	-6.524436e-10	-1.044967e+01	-4.719488e+01
1.530000e-06	-1.456473e-06	-6.527051e-10	-1.013539e+01	-4.679468e+01
1.540000e-06	-1.411221e-06	-6.491341e-10	-9.820480e+00	-4.638614e+01
1.550000e-06	-1.365847e-06	-6.406480e-10	-9.504733e+00	-4.596886e+01
1.560000e-06	-1.320427e-06	-6.290606e-10	-9.188658e+00	-4.554243e+01
1.570000e-06	-1.274985e-06	-6.158288e-10	-8.872435e+00	-4.510638e+01
1.580000e-06	-1.229419e-06	-6.040265e-10	-8.555351e+00	-4.466020e+01
1.590000e-06	-1.183759e-06	-5.975228e-10	-8.237605e+00	-4.420335e+01
1.600000e-06	-1.138015e-06	-5.955954e-10	-7.919281e+00	-4.373520e+01
1.610000e-06	-1.092166e-06	-5.935518e-10	-7.600224e+00	-4.325512e+01
1.620000e-06	-1.046229e-06	-5.881021e-10	-7.280555e+00	-4.276237e+01
1.630000e-06	-1.000244e-06	-5.809373e-10	-6.960553e+00	-4.225619e+01
1.640000e-06	-9.542440e-07	-5.712445e-10	-6.640445e+00	-4.173574e+01
1.650000e-06	-9.081470e-07	-5.595236e-10	-6.319663e+00	-4.120013e+01
1.660000e-06	-8.619204e-07	-5.475378e-10	-5.997979e+00	-4.064838e+01
1.670000e-06	-8.156513e-07	-5.375911e-10	-5.675999e+00	-4.007950e+01
1.680000e-06	-7.694094e-07	-5.277776e-10	-5.354208e+00	-3.949239e+01
1.690000e-06	-7.231138e-07	-5.181109e-10	-5.032043e+00	-3.888594e+01
1.700000e-06	-6.766817e-07	-5.091375e-10	-4.708929e+00	-3.825898e+01
1.710000e-06	-6.301831e-07	-4.999780e-10	-4.385353e+00	-3.761029e+01
1.720000e-06	-5.837265e-07	-4.901037e-10	-4.062068e+00	-3.693864e+01
1.730000e-06	-5.372794e-07	-4.792027e-10	-3.738849e+00	-3.624277e+01
1.740000e-06	-4.907215e-07	-4.665215e-10	-3.414860e+00	-3.552142e+01
1.750000e-06	-4.440566e-07	-4.523557e-10	-3.090125e+00	-3.477331e+01
1.760000e-06	-3.974238e-07	-4.376602e-10	-2.765614e+00	-3.399722e+01
1.770000e-06	-3.508254e-07	-4.234886e-10	-2.441343e+00	-3.319192e+01
1.780000e-06	-3.041883e-07	-4.100235e-10	-2.116802e+00	-3.235624e+01
1.790000e-06	-2.575293e-07	-3.979916e-10	-1.792109e+00	-3.148909e+01
1.800000e-06	-2.109180e-07	-3.875497e-10	-1.467748e+00	-3.058944e+01
1.810000e-06	-1.643439e-07	-3.764934e-10	-1.143646e+00	-2.965635e+01
1.820000e-06	-1.177359e-07	-3.643282e-10	-8.193068e-01	-2.868900e+01
1.830000e-06	-7.105708e-08	-3.512966e-10	-4.944759e-01	-2.768668e+01
1.840000e-06	-2.426080e-08	-3.377918e-10	-1.688274e-01	-2.664884e+01
1.850000e-06	2.250329e-08	-3.235366e-10	1.565971e-01	-2.557505e+01
1.860000e-06	6.915596e-08	-3.077500e-10	4.812462e-01	-2.446507e+01
1.870000e-06	1.158229e-07	-2.911975e-10	8.059948e-01	-2.331883e+01
1.880000e-06	1.625337e-07	-2.747358e-10	1.131048e+00	-2.213642e+01
1.890000e-06	2.091963e-07	-2.587329e-10	1.455767e+00	-2.091815e+01
1.900000e-06	2.558026e-07	-2.427645e-10	1.780093e+00	-1.966451e+01
1.910000e-06	3.024869e-07	-2.252601e-10	2.104962e+00	-1.837618e+01
1.920000e-06	3.492080e-07	-2.083673e-10	2.430088e+00	-1.705406e+01
1.930000e-06	3.958139e-07	-1.904398e-10	2.754411e+00	-1.569924e+01
1.940000e-06	4.423629e-07	-1.694693e-10	3.078339e+00	-1.431299e+01
1.950000e-06	4.889315e-07	-1.479654e-10	3.402403e+00	-1.289681e+01
1.960000e-06	5.354804e-07	-1.293594e-10	3.726330e+00	-1.145233e+01
1.970000e-06	5.820954e-07	-1.135914e-10	4.050717e+00	-9.981388e+00
1.980000e-06	6.286431e-07	-9.776655e-11	4.374636e+00	-8.485974e+00
1.990000e-06	6.750187e-07	-7.946728e-11	4.697357e+00	-6.968223e+00
2.000000e-06	7.213359e-07	-5.874338e-11	5.019672e+00	-5.430398e+00
2.010000e-06	7.676167e-07	-3.482326e-11	5.341733e+00	-3.874880e+00
2.020000e-06	8.138875e-07	-9.595066e-12	5.663724e+00	-2.304144e+00
2.030000e-06	8.601251e-07	1.322431e-11	5.985486e+00	-7.207434e-01
2.040000e-06	9.062994e-07	3.335513e-11	6.306806e+00	8.727142e-01
2.050000e-06	9.524171e-07	5.240594e-11	6.627732e+00	2.473583e+00
2.060000e-06	9.984169e-07	7.140495e-11	6.947838e+00	4.079204e+00
2.070000e-06	1.044291e-06	9.136065e-11	7.267069e+00	5.686921e+00
2.080000e-06	1.090119e-06	1.144466e-10	7.585978e+00	7.294104e+00
2.090000e-06	1.135902e-06	1.397374e-10	7.904579e+00	8.898169e+00
2.100000e-06	1.181601e-06	1.639162e-10	8.222592e+00	1.049660e+01
2.110000e-06	1.227256e-06	1.860445e-10	8.540294e+00	1.208695e+01
2.120000e-06	1.272858e-06	2.067294e-10	8.857635e+00	1.366688e+01
2.130000e-06	1.318303e-06	2.250789e-10	9.173880e+00	1.523417e+01
2.140000e-06	1.363600e-06	2.416774e-10	9.489092e+00	1.678671e+01
2.150000e-06	1.408809e-06	2.594577e-10	9.803696e+00	1.832254e+01
2.160000e-06	1.454003e-06	2.805261e-10	1.011819e+01	1.983984e+01
2.170000e-06	1.499109e-06	3.040813e-10	1.043208e+01	2.133696e+01
2.180000e-06	1.544100e-06	3.255518e-10	1.074516e+01	2.281238e+01
2.190000e-06	1.588894e-06	3.440616e-10	1.105688e+01	2.426477e+01
2.200000e-06	1.633503e-06	3.622328e-10	1.136731e+01	2.569295e+01
2.210000e-06	1.678034e-06	3.798290e-10	1.167719e+01	2.709592e+01
2.220000e-06	1.722413e-06	3.974721e-10	1.198602e+01	2.847282e+01
2.230000e-06	1.766687e-06	4.147461e-10	1.229412e+01	2.982295e+01
2.240000e-06	1.810854e-06	4.316563e-10	1.260147e+01	3.114578e+01
2.250000e-06	1.854938e-06	4.478553e-10	1.290824e+01	3.244089e+01
2.260000e-06	1.899006e-06	4.649860e-10	1.321491e+01	3.370803e+01
2.270000e-06	1.943031e-06	4.838167e-10	1.352127e+01	3.494704e+01
2.280000e-06	1.987000e-06	5.030220e-10	1.382724e+01	3.615791e+01
2.290000e-06	2.030930e-06	5.220208e-10	1.413294e+01	3.734069e+01
2.300000e-06	2.074759e-06	5.392048e-10	1.443795e+01	3.849555e+01
2.310000e-06	2.118431e-06	5.547309e-10	1.474185e+01	3.962272e+01
2.320000e-06	2.162003e-06	5.698186e-10	1.504506e+01	4.072250e+01
2.330000e-06	2.205463e-06	5.832126e-10	1.534750e+01	4.179525e+01
2.340000e-06	2.248709e-06	5.963678e-10	1.564844e+01	4.284136e+01
2.350000e-06	2.291774e-06	6.101325e-10	1.594812e+01	4.386125e+01
2.360000e-06	2.334699e-06	6.232963e-10	1.624683e+01	4.485537e+01
2.370000e-06	2.377353e-06	6.357173e-10	1.654366e+01	4.582417e+01
2.380000e-06	2.419577e-06	6.488174e-10	1.683749e+01	4.676809e+01
2.390000e-06	2.461383e-06	6.632236e-10	1.712841e+01	4.768757e+01
2.400000e-06	2.502870e-06	6.772885e-10	1.741711e+01	4.858306e+01
2.410000e-06	2.544054e-06	6.904414e-10	1.770370e+01	4.945496e+01
2.420000e-06	2.584952e-06	7.023111e-10	1.798831e+01	5.030366e+01
2.430000e-06	2.625616e-06	7.131373e-10	1.827128e+01	5.112952e+01
2.440000e-06	2.666124e-06	7.228815e-10	1.855317e+01	5.193287e+01
2.450000e-06	2.706448e-06	7.324005e-10	1.883378e+01	5.271402e+01
2.460000e-06	2.746616e-06	7.423128e-10	1.911330e+01	5.347325e+01
2.470000e-06	2.786682e-06	7.529765e-10	1.939211e+01	5.421080e+01
2.480000e-06	2.826614e-06	7.645658e-10	1.966999e+01	5.492692e+01
2.490000e-06	2.866518e-06	7.756802e-10	1.994768e+01	5.562180e+01
2.500000e-06	2.906293e-06	7.853512e-10	2.022447e+01	5.629563e+01
2.510000e-06	2.945818e-06	7.949615e-10	2.049952e+01	5.694860e+01
2.520000e-06	2.985167e-06	8.031920e-10	2.077334e+01	5.758088e+01
2.530000e-06	3.024253e-06	8.108967e-10	2.104534e+01	5.819263e+01
2.540000e-06	3.063086e-06	8.198574e-10	2.131557e+01	5.878403e+01
2.550000e-06	3.101780e-06	8.290164e-10	2.158483e+01	5.935524e+01
2.560000e-06	3.140274e-06	8.369121e-10	2.185271e+01	5.990647e+01
2.570000e-06	3.178501e-06	8.421704e-10	2.211872e+01	6.043792e+01
2.580000e-06	3.216458e-06	8.474079e-10	2.238286e+01	6.094981e+01
2.590000e-06	3.254235e-06	8.530836e-10	2.264574e+01	6.144239e+01
2.600000e-06	3.291838e-06	8.597696e-10	2.290742e+01	6.191595e+01
2.610000e-06	3.329179e-06	8.668673e-10	2.316728e+01	6.237079e+01
2.620000e-06	3.366243e-06	8.740419e-10	2.342519e+01	6.280724e+01
2.630000e-06	3.403079e-06	8.807543e-10	2.368153e+01	6.322568e+01
2.640000e-06	3.439681e-06	8.846149e-10	2.393624e+01	6.362652e+01
2.650000e-06	3.476021e-06	8.863181e-10	2.418912e+01	6.401017e+01
2.660000e-06	3.512160e-06	8.898824e-10	2.444061e+01	6.437712e+01
2.670000e-06	3.548150e-06	8.959215e-10	2.469106e+01	6.472784e+01
2.680000e-06	3.584084e-06	9.013380e-10	2.494112e+01	6.506287e+01
2.690000e-06	3.619961e-06	9.053737e-10	2.519078e+01	6.538275e+01
2.700000e-06	3.655619e-06	9.091955e-10	2.543892e+01	6.568803e+01
2.710000e-06	3.690998e-06	9.122937e-10	2.568512e+01	6.597930e+01
2.720000e-06	3.726175e-06	9.142521e-10	2.592991e+01	6.625715e+01
2.730000e-06	3.760988e-06	9.194572e-10	2.617217e+01	6.652217e+01
2.740000e-06	3.795341e-06	9.267785e-10	2.641123e+01	6.677496e+01
2.750000e-06	3.829127e-06	9.345368e-10	2.664634e+01	6.701612e+01
2.760000e-06	3.862353e-06	9.399385e-10	2.687756e+01	6.724626e+01
2.770000e-06	3.895217e-06	9.406961e-10	2.710625e+01	6.746594e+01
2.780000e-06	3.927746e-06	9.402101e-10	2.733261e+01	6.767573e+01
2.790000e-06	3.960087e-06	9.416766e-10	2.755767e+01	6.787620e+01
2.800000e-06	3.992229e-06	9.462746e-10	2.778134e+01	6.806785e+01
2.810000e-06	4.024092e-06	9.529672e-10	2.800307e+01	6.825122e+01
2.820000e-06	4.055802e-06	9.604390e-10	2.822373e+01	6.842676e+01
2.830000e-06	4.087398e-06	9.671689e-10	2.844361e+01	6.859494e+01
2.840000e-06	4.118756e-06	9.702082e-10	2.866183e+01	6.875617e+01
2.850000e-06	4.149794e-06	9.714823e-10	2.887781e+01	6.891086e+01
2.860000e-06	4.180527e-06	9.725567e-10	2.909168e+01	6.905937e+01
2.870000e-06	4.210948e-06	9.747278e-10	2.930337e+01	6.920203e+01
2.880000e-06	4.241066e-06	9.793889e-10	2.951296e+01	6.933916e+01
2.890000e-06	4.270890e-06	9.849068e-10	2.972050e+01	6.947103e+01
2.900000e-06	4.300361e-06	9.927048e-10	2.992559e+01	6.959790e+01
