# Temperatura_=_-5.58
# Concentracion g/m^3_=_1620.0
# C_Vs_to_Am_M_A/Vsm_=_65563218390.804596
# pendiente_HvsI_1/m_=_3716.3
# ordenada_HvsI_A/m_=_1297.0
# frecuencia_Hz_=_135106.98504015568

Tiempo_(s)	Campo_(V.s)	Magnetizacion_(V.s)	Campo_(kA/m)	Magnetizacion_(A/m)
0.000000e+00	-5.526783e-06	-1.072993e-09	-3.837056e+01	-7.310383e+01
1.000000e-08	-5.526917e-06	-1.071652e-09	-3.837149e+01	-7.308498e+01
2.000000e-08	-5.526924e-06	-1.070607e-09	-3.837154e+01	-7.306573e+01
3.000000e-08	-5.526598e-06	-1.069980e-09	-3.836928e+01	-7.304676e+01
4.000000e-08	-5.525816e-06	-1.069777e-09	-3.836384e+01	-7.302873e+01
5.000000e-08	-5.524535e-06	-1.065617e-09	-3.835495e+01	-7.301230e+01
6.000000e-08	-5.522675e-06	-1.057467e-09	-3.834204e+01	-7.299809e+01
7.000000e-08	-5.520124e-06	-1.044045e-09	-3.832433e+01	-7.298665e+01
8.000000e-08	-5.516868e-06	-1.029482e-09	-3.830172e+01	-7.297851e+01
9.000000e-08	-5.513134e-06	-1.076079e-09	-3.827580e+01	-7.297407e+01
1.000000e-07	-5.509074e-06	-1.135824e-09	-3.824761e+01	-7.297368e+01
1.100000e-07	-5.504708e-06	-1.056949e-09	-3.821730e+01	-7.297758e+01
1.200000e-07	-5.500189e-06	-9.708038e-10	-3.818592e+01	-7.298588e+01
1.300000e-07	-5.495487e-06	-1.023587e-09	-3.815328e+01	-7.299859e+01
1.400000e-07	-5.490253e-06	-1.112580e-09	-3.811695e+01	-7.301561e+01
1.500000e-07	-5.484486e-06	-1.097263e-09	-3.807690e+01	-7.303669e+01
1.600000e-07	-5.478421e-06	-9.806562e-10	-3.803480e+01	-7.306147e+01
1.700000e-07	-5.472066e-06	-1.052517e-09	-3.799068e+01	-7.308950e+01
1.800000e-07	-5.465200e-06	-1.122626e-09	-3.794301e+01	-7.312020e+01
1.900000e-07	-5.457953e-06	-1.125681e-09	-3.789269e+01	-7.315288e+01
2.000000e-07	-5.450470e-06	-1.017912e-09	-3.784075e+01	-7.318679e+01
2.100000e-07	-5.442755e-06	-1.049561e-09	-3.778718e+01	-7.322108e+01
2.200000e-07	-5.434766e-06	-1.112937e-09	-3.773172e+01	-7.325486e+01
2.300000e-07	-5.426430e-06	-1.137334e-09	-3.767385e+01	-7.328721e+01
2.400000e-07	-5.417725e-06	-1.083064e-09	-3.761341e+01	-7.331717e+01
2.500000e-07	-5.408437e-06	-1.087993e-09	-3.754892e+01	-7.334378e+01
2.600000e-07	-5.398389e-06	-1.130647e-09	-3.747916e+01	-7.336610e+01
2.700000e-07	-5.387676e-06	-1.116969e-09	-3.740478e+01	-7.338323e+01
2.800000e-07	-5.376455e-06	-1.079884e-09	-3.732688e+01	-7.339434e+01
2.900000e-07	-5.364807e-06	-1.081451e-09	-3.724602e+01	-7.339865e+01
3.000000e-07	-5.352842e-06	-1.144688e-09	-3.716295e+01	-7.339548e+01
3.100000e-07	-5.340564e-06	-1.131017e-09	-3.707771e+01	-7.338426e+01
3.200000e-07	-5.327801e-06	-1.124632e-09	-3.698909e+01	-7.336454e+01
3.300000e-07	-5.314539e-06	-1.118450e-09	-3.689702e+01	-7.333598e+01
3.400000e-07	-5.301010e-06	-1.174808e-09	-3.680309e+01	-7.329840e+01
3.500000e-07	-5.287201e-06	-1.128410e-09	-3.670723e+01	-7.325176e+01
3.600000e-07	-5.272922e-06	-1.101567e-09	-3.660809e+01	-7.319614e+01
3.700000e-07	-5.258224e-06	-1.110838e-09	-3.650605e+01	-7.313178e+01
3.800000e-07	-5.243105e-06	-1.156134e-09	-3.640108e+01	-7.305906e+01
3.900000e-07	-5.227261e-06	-1.087487e-09	-3.629108e+01	-7.297847e+01
4.000000e-07	-5.210916e-06	-1.089991e-09	-3.617761e+01	-7.289066e+01
4.100000e-07	-5.194351e-06	-1.145369e-09	-3.606260e+01	-7.279635e+01
4.200000e-07	-5.177402e-06	-1.127508e-09	-3.594493e+01	-7.269636e+01
4.300000e-07	-5.160029e-06	-1.048963e-09	-3.582431e+01	-7.259162e+01
4.400000e-07	-5.142420e-06	-1.117907e-09	-3.570206e+01	-7.248307e+01
4.500000e-07	-5.124555e-06	-1.152777e-09	-3.557803e+01	-7.237173e+01
4.600000e-07	-5.106128e-06	-1.062369e-09	-3.545009e+01	-7.225862e+01
4.700000e-07	-5.087178e-06	-1.050624e-09	-3.531853e+01	-7.214476e+01
4.800000e-07	-5.067940e-06	-1.138127e-09	-3.518497e+01	-7.203115e+01
4.900000e-07	-5.048387e-06	-1.093704e-09	-3.504922e+01	-7.191875e+01
5.000000e-07	-5.028562e-06	-1.050351e-09	-3.491158e+01	-7.180845e+01
5.100000e-07	-5.008588e-06	-1.128737e-09	-3.477291e+01	-7.170106e+01
5.200000e-07	-4.988348e-06	-1.116432e-09	-3.463239e+01	-7.159731e+01
5.300000e-07	-4.967660e-06	-1.037559e-09	-3.448876e+01	-7.149782e+01
5.400000e-07	-4.946620e-06	-1.095424e-09	-3.434268e+01	-7.140305e+01
5.500000e-07	-4.925256e-06	-1.137462e-09	-3.419436e+01	-7.131339e+01
5.600000e-07	-4.903538e-06	-1.040460e-09	-3.404359e+01	-7.122904e+01
5.700000e-07	-4.881602e-06	-1.046793e-09	-3.389129e+01	-7.115010e+01
5.800000e-07	-4.859400e-06	-1.118117e-09	-3.373715e+01	-7.107650e+01
5.900000e-07	-4.836831e-06	-1.075071e-09	-3.358046e+01	-7.100804e+01
6.000000e-07	-4.813860e-06	-1.035177e-09	-3.342098e+01	-7.094441e+01
6.100000e-07	-4.790590e-06	-1.101978e-09	-3.325943e+01	-7.088514e+01
6.200000e-07	-4.767088e-06	-1.083302e-09	-3.309626e+01	-7.082968e+01
6.300000e-07	-4.743328e-06	-1.040503e-09	-3.293130e+01	-7.077734e+01
6.400000e-07	-4.719372e-06	-1.075073e-09	-3.276498e+01	-7.072738e+01
6.500000e-07	-4.695114e-06	-1.096099e-09	-3.259657e+01	-7.067896e+01
6.600000e-07	-4.670396e-06	-1.048531e-09	-3.242496e+01	-7.063122e+01
6.700000e-07	-4.645149e-06	-1.066198e-09	-3.224968e+01	-7.058323e+01
6.800000e-07	-4.619263e-06	-1.081056e-09	-3.206996e+01	-7.053407e+01
6.900000e-07	-4.592846e-06	-1.055265e-09	-3.188655e+01	-7.048280e+01
7.000000e-07	-4.566140e-06	-1.047372e-09	-3.170115e+01	-7.042852e+01
7.100000e-07	-4.539045e-06	-1.071558e-09	-3.151303e+01	-7.037035e+01
7.200000e-07	-4.511491e-06	-1.048066e-09	-3.132173e+01	-7.030747e+01
7.300000e-07	-4.483745e-06	-1.039678e-09	-3.112910e+01	-7.023915e+01
7.400000e-07	-4.455896e-06	-1.054970e-09	-3.093576e+01	-7.016471e+01
7.500000e-07	-4.427836e-06	-1.053740e-09	-3.074095e+01	-7.008357e+01
7.600000e-07	-4.399483e-06	-1.037682e-09	-3.054410e+01	-6.999526e+01
7.700000e-07	-4.370773e-06	-1.043266e-09	-3.034478e+01	-6.989942e+01
7.800000e-07	-4.341731e-06	-1.034642e-09	-3.014315e+01	-6.979578e+01
7.900000e-07	-4.312367e-06	-1.018732e-09	-2.993929e+01	-6.968420e+01
8.000000e-07	-4.282719e-06	-1.024337e-09	-2.973345e+01	-6.956465e+01
8.100000e-07	-4.252848e-06	-1.027319e-09	-2.952607e+01	-6.943719e+01
8.200000e-07	-4.222714e-06	-1.014240e-09	-2.931685e+01	-6.930201e+01
8.300000e-07	-4.192343e-06	-1.016066e-09	-2.910600e+01	-6.915937e+01
8.400000e-07	-4.161610e-06	-1.026658e-09	-2.889263e+01	-6.900963e+01
8.500000e-07	-4.130486e-06	-1.014210e-09	-2.867655e+01	-6.885320e+01
8.600000e-07	-4.099080e-06	-1.007780e-09	-2.845851e+01	-6.869058e+01
8.700000e-07	-4.067478e-06	-1.011258e-09	-2.823911e+01	-6.852231e+01
8.800000e-07	-4.035773e-06	-1.006473e-09	-2.801899e+01	-6.834894e+01
8.900000e-07	-4.003872e-06	-9.937038e-10	-2.779751e+01	-6.817109e+01
9.000000e-07	-3.971725e-06	-1.002471e-09	-2.757432e+01	-6.798933e+01
9.100000e-07	-3.939407e-06	-1.001238e-09	-2.734995e+01	-6.780427e+01
9.200000e-07	-3.906837e-06	-9.930178e-10	-2.712383e+01	-6.761647e+01
9.300000e-07	-3.873856e-06	-9.941866e-10	-2.689485e+01	-6.742649e+01
9.400000e-07	-3.840407e-06	-1.002877e-09	-2.666263e+01	-6.723482e+01
9.500000e-07	-3.806429e-06	-9.894170e-10	-2.642673e+01	-6.704192e+01
9.600000e-07	-3.771904e-06	-9.824401e-10	-2.618704e+01	-6.684818e+01
9.700000e-07	-3.736982e-06	-9.809901e-10	-2.594459e+01	-6.665395e+01
9.800000e-07	-3.701727e-06	-9.742686e-10	-2.569982e+01	-6.645950e+01
9.900000e-07	-3.666156e-06	-9.622198e-10	-2.545286e+01	-6.626503e+01
1.000000e-06	-3.630438e-06	-9.695594e-10	-2.520489e+01	-6.607068e+01
1.010000e-06	-3.594617e-06	-9.699759e-10	-2.495619e+01	-6.587653e+01
1.020000e-06	-3.558702e-06	-9.652344e-10	-2.470685e+01	-6.568260e+01
1.030000e-06	-3.522676e-06	-9.672138e-10	-2.445673e+01	-6.548883e+01
1.040000e-06	-3.486432e-06	-9.729355e-10	-2.420510e+01	-6.529514e+01
1.050000e-06	-3.449910e-06	-9.623851e-10	-2.395154e+01	-6.510140e+01
1.060000e-06	-3.413122e-06	-9.543649e-10	-2.369614e+01	-6.490742e+01
1.070000e-06	-3.376084e-06	-9.527523e-10	-2.343899e+01	-6.471301e+01
1.080000e-06	-3.338783e-06	-9.498908e-10	-2.318003e+01	-6.451795e+01
1.090000e-06	-3.301236e-06	-9.536449e-10	-2.291935e+01	-6.432201e+01
1.100000e-06	-3.263459e-06	-9.607262e-10	-2.265708e+01	-6.412494e+01
1.110000e-06	-3.225420e-06	-9.622718e-10	-2.239298e+01	-6.392653e+01
1.120000e-06	-3.187137e-06	-9.533341e-10	-2.212720e+01	-6.372654e+01
1.130000e-06	-3.148669e-06	-9.512700e-10	-2.186013e+01	-6.352478e+01
1.140000e-06	-3.110016e-06	-9.491896e-10	-2.159177e+01	-6.332107e+01
1.150000e-06	-3.071107e-06	-9.436398e-10	-2.132164e+01	-6.311524e+01
1.160000e-06	-3.031938e-06	-9.383689e-10	-2.104971e+01	-6.290717e+01
1.170000e-06	-2.992596e-06	-9.367549e-10	-2.077657e+01	-6.269675e+01
1.180000e-06	-2.953146e-06	-9.306908e-10	-2.050268e+01	-6.248390e+01
1.190000e-06	-2.913605e-06	-9.270513e-10	-2.022816e+01	-6.226858e+01
1.200000e-06	-2.873895e-06	-9.230471e-10	-1.995246e+01	-6.205074e+01
1.210000e-06	-2.833980e-06	-9.192286e-10	-1.967535e+01	-6.183038e+01
1.220000e-06	-2.793945e-06	-9.135896e-10	-1.939741e+01	-6.160749e+01
1.230000e-06	-2.753814e-06	-9.123767e-10	-1.911879e+01	-6.138208e+01
1.240000e-06	-2.713516e-06	-9.104464e-10	-1.883901e+01	-6.115415e+01
1.250000e-06	-2.672977e-06	-9.102119e-10	-1.855756e+01	-6.092370e+01
1.260000e-06	-2.632184e-06	-9.067590e-10	-1.827435e+01	-6.069070e+01
1.270000e-06	-2.591144e-06	-9.037173e-10	-1.798943e+01	-6.045511e+01
1.280000e-06	-2.549815e-06	-8.986460e-10	-1.770249e+01	-6.021687e+01
1.290000e-06	-2.508170e-06	-8.954348e-10	-1.741336e+01	-5.997586e+01
1.300000e-06	-2.466284e-06	-8.920819e-10	-1.712256e+01	-5.973195e+01
1.310000e-06	-2.424150e-06	-8.855573e-10	-1.683004e+01	-5.948494e+01
1.320000e-06	-2.381629e-06	-8.775757e-10	-1.653483e+01	-5.923460e+01
1.330000e-06	-2.338777e-06	-8.710443e-10	-1.623732e+01	-5.898063e+01
1.340000e-06	-2.295707e-06	-8.682750e-10	-1.593831e+01	-5.872271e+01
1.350000e-06	-2.252470e-06	-8.667178e-10	-1.563813e+01	-5.846045e+01
1.360000e-06	-2.209082e-06	-8.630990e-10	-1.533690e+01	-5.819340e+01
1.370000e-06	-2.165544e-06	-8.569704e-10	-1.503463e+01	-5.792108e+01
1.380000e-06	-2.121917e-06	-8.496377e-10	-1.473174e+01	-5.764298e+01
1.390000e-06	-2.078183e-06	-8.406542e-10	-1.442811e+01	-5.735853e+01
1.400000e-06	-2.034311e-06	-8.324908e-10	-1.412353e+01	-5.706714e+01
1.410000e-06	-1.990368e-06	-8.250013e-10	-1.381845e+01	-5.676821e+01
1.420000e-06	-1.946395e-06	-8.204647e-10	-1.351315e+01	-5.646111e+01
1.430000e-06	-1.902393e-06	-8.190042e-10	-1.320766e+01	-5.614522e+01
1.440000e-06	-1.858340e-06	-8.200224e-10	-1.290182e+01	-5.581991e+01
1.450000e-06	-1.814148e-06	-8.163526e-10	-1.259501e+01	-5.548455e+01
1.460000e-06	-1.769762e-06	-8.077364e-10	-1.228685e+01	-5.513857e+01
1.470000e-06	-1.725191e-06	-7.945383e-10	-1.197741e+01	-5.478137e+01
1.480000e-06	-1.680493e-06	-7.823210e-10	-1.166709e+01	-5.441243e+01
1.490000e-06	-1.635688e-06	-7.731851e-10	-1.135602e+01	-5.403125e+01
1.500000e-06	-1.590687e-06	-7.679849e-10	-1.104359e+01	-5.363736e+01
1.510000e-06	-1.545565e-06	-7.642610e-10	-1.073033e+01	-5.323034e+01
1.520000e-06	-1.500419e-06	-7.612719e-10	-1.041690e+01	-5.280984e+01
1.530000e-06	-1.455174e-06	-7.560260e-10	-1.010278e+01	-5.237551e+01
1.540000e-06	-1.409870e-06	-7.448307e-10	-9.788242e+00	-5.192709e+01
1.550000e-06	-1.364472e-06	-7.293837e-10	-9.473060e+00	-5.146432e+01
1.560000e-06	-1.318975e-06	-7.165738e-10	-9.157194e+00	-5.098701e+01
1.570000e-06	-1.273438e-06	-7.069997e-10	-8.841045e+00	-5.049496e+01
1.580000e-06	-1.227776e-06	-7.001400e-10	-8.524027e+00	-4.998803e+01
1.590000e-06	-1.181935e-06	-6.967868e-10	-8.205772e+00	-4.946606e+01
1.600000e-06	-1.135995e-06	-6.953718e-10	-7.886825e+00	-4.892890e+01
1.610000e-06	-1.089989e-06	-6.899619e-10	-7.567421e+00	-4.837642e+01
1.620000e-06	-1.043859e-06	-6.813165e-10	-7.247154e+00	-4.780842e+01
1.630000e-06	-9.977044e-07	-6.723525e-10	-6.926719e+00	-4.722472e+01
1.640000e-06	-9.514951e-07	-6.628097e-10	-6.605904e+00	-4.662506e+01
1.650000e-06	-9.052171e-07	-6.531945e-10	-6.284612e+00	-4.600916e+01
1.660000e-06	-8.589227e-07	-6.434008e-10	-5.963206e+00	-4.537667e+01
1.670000e-06	-8.125382e-07	-6.326497e-10	-5.641174e+00	-4.472717e+01
1.680000e-06	-7.661251e-07	-6.208663e-10	-5.318944e+00	-4.406018e+01
1.690000e-06	-7.196487e-07	-6.095670e-10	-4.996274e+00	-4.337514e+01
1.700000e-06	-6.730722e-07	-5.983615e-10	-4.672910e+00	-4.267140e+01
1.710000e-06	-6.264793e-07	-5.881865e-10	-4.349431e+00	-4.194825e+01
1.720000e-06	-5.799270e-07	-5.798852e-10	-4.026234e+00	-4.120488e+01
1.730000e-06	-5.333525e-07	-5.718395e-10	-3.702883e+00	-4.044043e+01
1.740000e-06	-4.866751e-07	-5.611245e-10	-3.378818e+00	-3.965397e+01
1.750000e-06	-4.399324e-07	-5.485573e-10	-3.054300e+00	-3.884449e+01
1.760000e-06	-3.931580e-07	-5.338994e-10	-2.729561e+00	-3.801095e+01
1.770000e-06	-3.463467e-07	-5.183229e-10	-2.404567e+00	-3.715229e+01
1.780000e-06	-2.994590e-07	-5.034754e-10	-2.079041e+00	-3.626739e+01
1.790000e-06	-2.525631e-07	-4.902080e-10	-1.753459e+00	-3.535517e+01
1.800000e-06	-2.056709e-07	-4.775821e-10	-1.427903e+00	-3.441454e+01
1.810000e-06	-1.587395e-07	-4.639824e-10	-1.102074e+00	-3.344446e+01
1.820000e-06	-1.118426e-07	-4.496958e-10	-7.764851e-01	-3.244391e+01
1.830000e-06	-6.498139e-08	-4.369119e-10	-4.511435e-01	-3.141199e+01
1.840000e-06	-1.812624e-08	-4.231834e-10	-1.258442e-01	-3.034786e+01
1.850000e-06	2.869380e-08	-4.072862e-10	1.992112e-01	-2.925080e+01
1.860000e-06	7.546055e-08	-3.885260e-10	5.238967e-01	-2.812023e+01
1.870000e-06	1.222651e-07	-3.691049e-10	8.488446e-01	-2.695570e+01
1.880000e-06	1.692391e-07	-3.497478e-10	1.174969e+00	-2.575695e+01
1.890000e-06	2.162327e-07	-3.328316e-10	1.501230e+00	-2.452388e+01
1.900000e-06	2.630250e-07	-3.150704e-10	1.826092e+00	-2.325657e+01
1.910000e-06	3.097195e-07	-2.960661e-10	2.150276e+00	-2.195534e+01
1.920000e-06	3.565048e-07	-2.783527e-10	2.475091e+00	-2.062067e+01
1.930000e-06	4.033307e-07	-2.602522e-10	2.800187e+00	-1.925328e+01
1.940000e-06	4.500619e-07	-2.398404e-10	3.124626e+00	-1.785410e+01
1.950000e-06	4.966745e-07	-2.165511e-10	3.448241e+00	-1.642426e+01
1.960000e-06	5.432713e-07	-1.949585e-10	3.771746e+00	-1.496511e+01
1.970000e-06	5.898569e-07	-1.750023e-10	4.095174e+00	-1.347817e+01
1.980000e-06	6.363645e-07	-1.542662e-10	4.418060e+00	-1.196519e+01
1.990000e-06	6.828254e-07	-1.319560e-10	4.740623e+00	-1.042807e+01
2.000000e-06	7.292059e-07	-1.051929e-10	5.062626e+00	-8.868859e+00
2.010000e-06	7.754881e-07	-7.659065e-11	5.383948e+00	-7.289783e+00
2.020000e-06	8.217628e-07	-5.079676e-11	5.705218e+00	-5.693171e+00
2.030000e-06	8.679975e-07	-2.836050e-11	6.026209e+00	-4.081463e+00
2.040000e-06	9.141677e-07	-9.658669e-12	6.346753e+00	-2.457179e+00
2.050000e-06	9.603019e-07	1.116710e-11	6.667047e+00	-8.229055e-01
2.060000e-06	1.006387e-06	3.422750e-11	6.987003e+00	8.187357e-01
2.070000e-06	1.052450e-06	5.915297e-11	7.306798e+00	2.465105e+00
2.080000e-06	1.098419e-06	8.626409e-11	7.625946e+00	4.113567e+00
2.090000e-06	1.144264e-06	1.147946e-10	7.944233e+00	5.761514e+00
2.100000e-06	1.190154e-06	1.411078e-10	8.262834e+00	7.406385e+00
2.110000e-06	1.236064e-06	1.644150e-10	8.581571e+00	9.045683e+00
2.120000e-06	1.281786e-06	1.832207e-10	8.899001e+00	1.067700e+01
2.130000e-06	1.327304e-06	1.992798e-10	9.215017e+00	1.229801e+01
2.140000e-06	1.372702e-06	2.168628e-10	9.530200e+00	1.390651e+01
2.150000e-06	1.418012e-06	2.391355e-10	9.844773e+00	1.550043e+01
2.160000e-06	1.463264e-06	2.655092e-10	1.015894e+01	1.707782e+01
2.170000e-06	1.508404e-06	2.917957e-10	1.047233e+01	1.863685e+01
2.180000e-06	1.553449e-06	3.144815e-10	1.078506e+01	2.017588e+01
2.190000e-06	1.598382e-06	3.345324e-10	1.109702e+01	2.169337e+01
2.200000e-06	1.643161e-06	3.530026e-10	1.140790e+01	2.318795e+01
2.210000e-06	1.687848e-06	3.695623e-10	1.171815e+01	2.465839e+01
2.220000e-06	1.732375e-06	3.856643e-10	1.202729e+01	2.610360e+01
2.230000e-06	1.776754e-06	4.034957e-10	1.233540e+01	2.752263e+01
2.240000e-06	1.821011e-06	4.227764e-10	1.264266e+01	2.891466e+01
2.250000e-06	1.865142e-06	4.410684e-10	1.294904e+01	3.027899e+01
2.260000e-06	1.909183e-06	4.594499e-10	1.325480e+01	3.161505e+01
2.270000e-06	1.953160e-06	4.777631e-10	1.356012e+01	3.292236e+01
2.280000e-06	1.997070e-06	4.945118e-10	1.386497e+01	3.420055e+01
2.290000e-06	2.040919e-06	5.106489e-10	1.416940e+01	3.544933e+01
2.300000e-06	2.084713e-06	5.275436e-10	1.447344e+01	3.666850e+01
2.310000e-06	2.128469e-06	5.438843e-10	1.477723e+01	3.785794e+01
2.320000e-06	2.172156e-06	5.598399e-10	1.508054e+01	3.901758e+01
2.330000e-06	2.215723e-06	5.735516e-10	1.538300e+01	4.014741e+01
2.340000e-06	2.259104e-06	5.859161e-10	1.568418e+01	4.124748e+01
2.350000e-06	2.302243e-06	5.975871e-10	1.598368e+01	4.231788e+01
2.360000e-06	2.345255e-06	6.096944e-10	1.628230e+01	4.335873e+01
2.370000e-06	2.388081e-06	6.216940e-10	1.657963e+01	4.437022e+01
2.380000e-06	2.430524e-06	6.345431e-10	1.687430e+01	4.535254e+01
2.390000e-06	2.472533e-06	6.482154e-10	1.716595e+01	4.630593e+01
2.400000e-06	2.514261e-06	6.618550e-10	1.745565e+01	4.723065e+01
2.410000e-06	2.555844e-06	6.741696e-10	1.774435e+01	4.812701e+01
2.420000e-06	2.597143e-06	6.853451e-10	1.803107e+01	4.899533e+01
2.430000e-06	2.638025e-06	6.972030e-10	1.831490e+01	4.983596e+01
2.440000e-06	2.678554e-06	7.084065e-10	1.859628e+01	5.064930e+01
2.450000e-06	2.718848e-06	7.174857e-10	1.887603e+01	5.143577e+01
2.460000e-06	2.759018e-06	7.260195e-10	1.915491e+01	5.219582e+01
2.470000e-06	2.799160e-06	7.352866e-10	1.943360e+01	5.292994e+01
2.480000e-06	2.839164e-06	7.459734e-10	1.971134e+01	5.363867e+01
2.490000e-06	2.878982e-06	7.597323e-10	1.998779e+01	5.432255e+01
2.500000e-06	2.918689e-06	7.749988e-10	2.026345e+01	5.498218e+01
2.510000e-06	2.958263e-06	7.883129e-10	2.053821e+01	5.561819e+01
2.520000e-06	2.997651e-06	7.972252e-10	2.081166e+01	5.623124e+01
2.530000e-06	3.036784e-06	8.035138e-10	2.108335e+01	5.682201e+01
2.540000e-06	3.075694e-06	8.078297e-10	2.135349e+01	5.739121e+01
2.550000e-06	3.114368e-06	8.111125e-10	2.162199e+01	5.793959e+01
2.560000e-06	3.152815e-06	8.174539e-10	2.188891e+01	5.846791e+01
2.570000e-06	3.191130e-06	8.271782e-10	2.215492e+01	5.897693e+01
2.580000e-06	3.229251e-06	8.374131e-10	2.241958e+01	5.946744e+01
2.590000e-06	3.267128e-06	8.476251e-10	2.268255e+01	5.994021e+01
2.600000e-06	3.304802e-06	8.561806e-10	2.294411e+01	6.039603e+01
2.610000e-06	3.342267e-06	8.633079e-10	2.320421e+01	6.083567e+01
2.620000e-06	3.379484e-06	8.685674e-10	2.346260e+01	6.125990e+01
2.630000e-06	3.416436e-06	8.729784e-10	2.371914e+01	6.166945e+01
2.640000e-06	3.453107e-06	8.778129e-10	2.397374e+01	6.206503e+01
2.650000e-06	3.489497e-06	8.827310e-10	2.422638e+01	6.244734e+01
2.660000e-06	3.525635e-06	8.882211e-10	2.447727e+01	6.281701e+01
2.670000e-06	3.561573e-06	8.940777e-10	2.472678e+01	6.317467e+01
2.680000e-06	3.597432e-06	9.005946e-10	2.497574e+01	6.352089e+01
2.690000e-06	3.633250e-06	9.073428e-10	2.522441e+01	6.385619e+01
2.700000e-06	3.668863e-06	9.134434e-10	2.547165e+01	6.418106e+01
2.710000e-06	3.704231e-06	9.187184e-10	2.571721e+01	6.449593e+01
2.720000e-06	3.739333e-06	9.243268e-10	2.596091e+01	6.480121e+01
2.730000e-06	3.774126e-06	9.300140e-10	2.620246e+01	6.509726e+01
2.740000e-06	3.808542e-06	9.340095e-10	2.644140e+01	6.538438e+01
2.750000e-06	3.842510e-06	9.372908e-10	2.667723e+01	6.566285e+01
2.760000e-06	3.876027e-06	9.414077e-10	2.690992e+01	6.593292e+01
2.770000e-06	3.909109e-06	9.466360e-10	2.713960e+01	6.619481e+01
2.780000e-06	3.941789e-06	9.526423e-10	2.736649e+01	6.644871e+01
2.790000e-06	3.974080e-06	9.584987e-10	2.759067e+01	6.669479e+01
2.800000e-06	4.006110e-06	9.643903e-10	2.781305e+01	6.693322e+01
2.810000e-06	4.037996e-06	9.687152e-10	2.803442e+01	6.716415e+01
2.820000e-06	4.069783e-06	9.720895e-10	2.825510e+01	6.738773e+01
2.830000e-06	4.101434e-06	9.755067e-10	2.847485e+01	6.760410e+01
2.840000e-06	4.132822e-06	9.769965e-10	2.869276e+01	6.781343e+01
2.850000e-06	4.163877e-06	9.784914e-10	2.890837e+01	6.801587e+01
2.860000e-06	4.194608e-06	9.820739e-10	2.912172e+01	6.821160e+01
2.870000e-06	4.225018e-06	9.871142e-10	2.933285e+01	6.840081e+01
2.880000e-06	4.255071e-06	9.920695e-10	2.954150e+01	6.858370e+01
2.890000e-06	4.284870e-06	9.963011e-10	2.974838e+01	6.876049e+01
2.900000e-06	4.314480e-06	9.991531e-10	2.995395e+01	6.893140e+01
