# Temperatura_=_-6.49
# Concentracion g/m^3_=_1620.0
# C_Vs_to_Am_M_A/Vsm_=_65563218390.804596
# pendiente_HvsI_1/m_=_3716.3
# ordenada_HvsI_A/m_=_1297.0
# frecuencia_Hz_=_135108.63503895677

Tiempo_(s)	Campo_(V.s)	Magnetizacion_(V.s)	Campo_(kA/m)	Magnetizacion_(A/m)
0.000000e+00	-5.526077e-06	-1.127783e-09	-3.836340e+01	-7.556474e+01
1.000000e-08	-5.526057e-06	-1.128260e-09	-3.836327e+01	-7.560939e+01
2.000000e-08	-5.525727e-06	-1.129679e-09	-3.836097e+01	-7.565618e+01
3.000000e-08	-5.524962e-06	-1.130218e-09	-3.835566e+01	-7.570432e+01
4.000000e-08	-5.523721e-06	-1.128890e-09	-3.834704e+01	-7.575299e+01
5.000000e-08	-5.521981e-06	-1.121604e-09	-3.833497e+01	-7.580132e+01
6.000000e-08	-5.519748e-06	-1.114266e-09	-3.831946e+01	-7.584839e+01
7.000000e-08	-5.516904e-06	-1.119708e-09	-3.829972e+01	-7.589327e+01
8.000000e-08	-5.513488e-06	-1.146521e-09	-3.827601e+01	-7.593504e+01
9.000000e-08	-5.509645e-06	-1.173075e-09	-3.824933e+01	-7.597276e+01
1.000000e-07	-5.505422e-06	-1.131912e-09	-3.822001e+01	-7.600553e+01
1.100000e-07	-5.500949e-06	-1.051087e-09	-3.818896e+01	-7.603248e+01
1.200000e-07	-5.496290e-06	-1.092981e-09	-3.815662e+01	-7.605276e+01
1.300000e-07	-5.491279e-06	-1.155839e-09	-3.812183e+01	-7.606560e+01
1.400000e-07	-5.485750e-06	-1.130897e-09	-3.808344e+01	-7.607031e+01
1.500000e-07	-5.479899e-06	-1.054554e-09	-3.804283e+01	-7.606624e+01
1.600000e-07	-5.473820e-06	-1.091507e-09	-3.800062e+01	-7.605285e+01
1.700000e-07	-5.467243e-06	-1.218681e-09	-3.795496e+01	-7.602969e+01
1.800000e-07	-5.460195e-06	-1.186665e-09	-3.790603e+01	-7.599642e+01
1.900000e-07	-5.452895e-06	-1.110534e-09	-3.785535e+01	-7.595279e+01
2.000000e-07	-5.445290e-06	-1.079964e-09	-3.780256e+01	-7.589867e+01
2.100000e-07	-5.437375e-06	-1.154300e-09	-3.774761e+01	-7.583403e+01
2.200000e-07	-5.429173e-06	-1.139969e-09	-3.769067e+01	-7.575896e+01
2.300000e-07	-5.420739e-06	-1.105055e-09	-3.763212e+01	-7.567366e+01
2.400000e-07	-5.411849e-06	-1.094087e-09	-3.757040e+01	-7.557842e+01
2.500000e-07	-5.402088e-06	-1.141229e-09	-3.750264e+01	-7.547364e+01
2.600000e-07	-5.391664e-06	-1.116700e-09	-3.743028e+01	-7.535983e+01
2.700000e-07	-5.380823e-06	-1.064421e-09	-3.735501e+01	-7.523757e+01
2.800000e-07	-5.369441e-06	-1.060377e-09	-3.727600e+01	-7.510751e+01
2.900000e-07	-5.357692e-06	-1.100912e-09	-3.719443e+01	-7.497038e+01
3.000000e-07	-5.345720e-06	-1.094327e-09	-3.711132e+01	-7.482698e+01
3.100000e-07	-5.333303e-06	-1.047599e-09	-3.702512e+01	-7.467812e+01
3.200000e-07	-5.320300e-06	-1.069924e-09	-3.693485e+01	-7.452468e+01
3.300000e-07	-5.306891e-06	-1.100666e-09	-3.684176e+01	-7.436755e+01
3.400000e-07	-5.293263e-06	-1.087199e-09	-3.674715e+01	-7.420761e+01
3.500000e-07	-5.279239e-06	-1.027215e-09	-3.664979e+01	-7.404577e+01
3.600000e-07	-5.264668e-06	-1.059221e-09	-3.654864e+01	-7.388289e+01
3.700000e-07	-5.249672e-06	-1.090048e-09	-3.644453e+01	-7.371984e+01
3.800000e-07	-5.234175e-06	-1.069847e-09	-3.633695e+01	-7.355741e+01
3.900000e-07	-5.218020e-06	-1.037932e-09	-3.622480e+01	-7.339638e+01
4.000000e-07	-5.201516e-06	-1.093591e-09	-3.611022e+01	-7.323745e+01
4.100000e-07	-5.184715e-06	-1.081017e-09	-3.599358e+01	-7.308127e+01
4.200000e-07	-5.167506e-06	-1.028723e-09	-3.587411e+01	-7.292841e+01
4.300000e-07	-5.150050e-06	-1.055766e-09	-3.575293e+01	-7.277936e+01
4.400000e-07	-5.132313e-06	-1.119527e-09	-3.562979e+01	-7.263452e+01
4.500000e-07	-5.113959e-06	-1.050622e-09	-3.550238e+01	-7.249424e+01
4.600000e-07	-5.095061e-06	-1.024871e-09	-3.537119e+01	-7.235876e+01
4.700000e-07	-5.075982e-06	-1.093176e-09	-3.523873e+01	-7.222822e+01
4.800000e-07	-5.056635e-06	-1.088047e-09	-3.510442e+01	-7.210270e+01
4.900000e-07	-5.036966e-06	-1.018337e-09	-3.496787e+01	-7.198220e+01
5.000000e-07	-5.017079e-06	-1.069595e-09	-3.482981e+01	-7.186663e+01
5.100000e-07	-4.996943e-06	-1.095785e-09	-3.469002e+01	-7.175582e+01
5.200000e-07	-4.976485e-06	-1.029209e-09	-3.454800e+01	-7.164954e+01
5.300000e-07	-4.955770e-06	-1.047625e-09	-3.440419e+01	-7.154752e+01
5.400000e-07	-4.934742e-06	-1.107076e-09	-3.425821e+01	-7.144940e+01
5.500000e-07	-4.913225e-06	-1.034690e-09	-3.410883e+01	-7.135479e+01
5.600000e-07	-4.891327e-06	-9.958001e-10	-3.395681e+01	-7.126328e+01
5.700000e-07	-4.869244e-06	-1.074025e-09	-3.380350e+01	-7.117439e+01
5.800000e-07	-4.846831e-06	-1.066483e-09	-3.364791e+01	-7.108766e+01
5.900000e-07	-4.823958e-06	-1.008768e-09	-3.348912e+01	-7.100258e+01
6.000000e-07	-4.800771e-06	-1.050991e-09	-3.332815e+01	-7.091866e+01
6.100000e-07	-4.777295e-06	-1.072854e-09	-3.316517e+01	-7.083540e+01
6.200000e-07	-4.753513e-06	-1.011155e-09	-3.300007e+01	-7.075231e+01
6.300000e-07	-4.729540e-06	-1.025794e-09	-3.283364e+01	-7.066893e+01
6.400000e-07	-4.705313e-06	-1.059586e-09	-3.266545e+01	-7.058479e+01
6.500000e-07	-4.680685e-06	-1.026220e-09	-3.249448e+01	-7.049947e+01
6.600000e-07	-4.655655e-06	-1.016731e-09	-3.232071e+01	-7.041257e+01
6.700000e-07	-4.630191e-06	-1.056486e-09	-3.214394e+01	-7.032373e+01
6.800000e-07	-4.604147e-06	-1.034068e-09	-3.196314e+01	-7.023262e+01
6.900000e-07	-4.577513e-06	-1.018688e-09	-3.177824e+01	-7.013895e+01
7.000000e-07	-4.550522e-06	-1.040202e-09	-3.159086e+01	-7.004246e+01
7.100000e-07	-4.523228e-06	-1.032499e-09	-3.140138e+01	-6.994295e+01
7.200000e-07	-4.495631e-06	-1.003089e-09	-3.120979e+01	-6.984022e+01
7.300000e-07	-4.467864e-06	-1.026829e-09	-3.101703e+01	-6.973414e+01
7.400000e-07	-4.439918e-06	-1.034647e-09	-3.082302e+01	-6.962460e+01
7.500000e-07	-4.411688e-06	-1.018002e-09	-3.062703e+01	-6.951151e+01
7.600000e-07	-4.383111e-06	-1.020941e-09	-3.042865e+01	-6.939484e+01
7.700000e-07	-4.354247e-06	-1.030207e-09	-3.022826e+01	-6.927455e+01
7.800000e-07	-4.325056e-06	-1.010533e-09	-3.002561e+01	-6.915065e+01
7.900000e-07	-4.295524e-06	-1.011185e-09	-2.982060e+01	-6.902315e+01
8.000000e-07	-4.265752e-06	-1.019783e-09	-2.961391e+01	-6.889208e+01
8.100000e-07	-4.235748e-06	-1.006559e-09	-2.940561e+01	-6.875750e+01
8.200000e-07	-4.205474e-06	-1.000423e-09	-2.919545e+01	-6.861944e+01
8.300000e-07	-4.174873e-06	-1.016158e-09	-2.898301e+01	-6.847798e+01
8.400000e-07	-4.143923e-06	-1.010515e-09	-2.876815e+01	-6.833317e+01
8.500000e-07	-4.112666e-06	-9.962888e-10	-2.855116e+01	-6.818508e+01
8.600000e-07	-4.081156e-06	-1.003166e-09	-2.833240e+01	-6.803377e+01
8.700000e-07	-4.049518e-06	-9.999018e-10	-2.811276e+01	-6.787930e+01
8.800000e-07	-4.017760e-06	-9.828241e-10	-2.789229e+01	-6.772174e+01
8.900000e-07	-3.985689e-06	-9.835998e-10	-2.766964e+01	-6.756114e+01
9.000000e-07	-3.953338e-06	-9.900456e-10	-2.744506e+01	-6.739754e+01
9.100000e-07	-3.920736e-06	-9.761219e-10	-2.721873e+01	-6.723100e+01
9.200000e-07	-3.887790e-06	-9.758892e-10	-2.699000e+01	-6.706155e+01
9.300000e-07	-3.854424e-06	-9.850409e-10	-2.675837e+01	-6.688924e+01
9.400000e-07	-3.820474e-06	-9.746205e-10	-2.652268e+01	-6.671409e+01
9.500000e-07	-3.785952e-06	-9.568161e-10	-2.628302e+01	-6.653615e+01
9.600000e-07	-3.751034e-06	-9.586678e-10	-2.604061e+01	-6.635544e+01
9.700000e-07	-3.715828e-06	-9.504378e-10	-2.579620e+01	-6.617201e+01
9.800000e-07	-3.680452e-06	-9.381641e-10	-2.555062e+01	-6.598587e+01
9.900000e-07	-3.644955e-06	-9.404174e-10	-2.530418e+01	-6.579708e+01
1.000000e-06	-3.609304e-06	-9.471883e-10	-2.505669e+01	-6.560567e+01
1.010000e-06	-3.573496e-06	-9.371422e-10	-2.480810e+01	-6.541167e+01
1.020000e-06	-3.537488e-06	-9.361924e-10	-2.455812e+01	-6.521514e+01
1.030000e-06	-3.501294e-06	-9.410336e-10	-2.430685e+01	-6.501613e+01
1.040000e-06	-3.464874e-06	-9.362836e-10	-2.405402e+01	-6.481467e+01
1.050000e-06	-3.428162e-06	-9.278153e-10	-2.379915e+01	-6.461083e+01
1.060000e-06	-3.391221e-06	-9.301039e-10	-2.354270e+01	-6.440466e+01
1.070000e-06	-3.354016e-06	-9.283051e-10	-2.328441e+01	-6.419621e+01
1.080000e-06	-3.316519e-06	-9.243639e-10	-2.302410e+01	-6.398554e+01
1.090000e-06	-3.278760e-06	-9.238834e-10	-2.276197e+01	-6.377268e+01
1.100000e-06	-3.240762e-06	-9.212328e-10	-2.249818e+01	-6.355768e+01
1.110000e-06	-3.202631e-06	-9.110691e-10	-2.223346e+01	-6.334057e+01
1.120000e-06	-3.164309e-06	-9.089860e-10	-2.196742e+01	-6.312138e+01
1.130000e-06	-3.125687e-06	-9.124901e-10	-2.169930e+01	-6.290011e+01
1.140000e-06	-3.086800e-06	-9.078613e-10	-2.142934e+01	-6.267677e+01
1.150000e-06	-3.047713e-06	-9.014646e-10	-2.115798e+01	-6.245134e+01
1.160000e-06	-3.008436e-06	-8.976421e-10	-2.088531e+01	-6.222376e+01
1.170000e-06	-2.968981e-06	-8.906456e-10	-2.061141e+01	-6.199400e+01
1.180000e-06	-2.929375e-06	-8.841629e-10	-2.033645e+01	-6.176195e+01
1.190000e-06	-2.889623e-06	-8.861176e-10	-2.006049e+01	-6.152754e+01
1.200000e-06	-2.849755e-06	-8.850212e-10	-1.978371e+01	-6.129062e+01
1.210000e-06	-2.809774e-06	-8.811058e-10	-1.950615e+01	-6.105106e+01
1.220000e-06	-2.769622e-06	-8.795334e-10	-1.922741e+01	-6.080867e+01
1.230000e-06	-2.729233e-06	-8.785529e-10	-1.894702e+01	-6.056328e+01
1.240000e-06	-2.688623e-06	-8.722895e-10	-1.866509e+01	-6.031467e+01
1.250000e-06	-2.647844e-06	-8.706081e-10	-1.838199e+01	-6.006261e+01
1.260000e-06	-2.606799e-06	-8.689933e-10	-1.809704e+01	-5.980684e+01
1.270000e-06	-2.565490e-06	-8.646506e-10	-1.781027e+01	-5.954712e+01
1.280000e-06	-2.524030e-06	-8.597120e-10	-1.752244e+01	-5.928317e+01
1.290000e-06	-2.482359e-06	-8.576302e-10	-1.723315e+01	-5.901470e+01
1.300000e-06	-2.440241e-06	-8.520348e-10	-1.694076e+01	-5.874144e+01
1.310000e-06	-2.397718e-06	-8.462328e-10	-1.664556e+01	-5.846310e+01
1.320000e-06	-2.354987e-06	-8.422374e-10	-1.634890e+01	-5.817939e+01
1.330000e-06	-2.312017e-06	-8.380313e-10	-1.605060e+01	-5.789004e+01
1.340000e-06	-2.268878e-06	-8.311483e-10	-1.575112e+01	-5.759477e+01
1.350000e-06	-2.225527e-06	-8.263354e-10	-1.545016e+01	-5.729334e+01
1.360000e-06	-2.181981e-06	-8.227453e-10	-1.514786e+01	-5.698548e+01
1.370000e-06	-2.138386e-06	-8.176479e-10	-1.484521e+01	-5.667098e+01
1.380000e-06	-2.094735e-06	-8.117611e-10	-1.454217e+01	-5.634962e+01
1.390000e-06	-2.050998e-06	-8.083195e-10	-1.423854e+01	-5.602120e+01
1.400000e-06	-2.007185e-06	-8.052699e-10	-1.393438e+01	-5.568556e+01
1.410000e-06	-1.963284e-06	-7.999770e-10	-1.362961e+01	-5.534252e+01
1.420000e-06	-1.919271e-06	-7.947245e-10	-1.332406e+01	-5.499195e+01
1.430000e-06	-1.875203e-06	-7.891761e-10	-1.301813e+01	-5.463371e+01
1.440000e-06	-1.831074e-06	-7.809984e-10	-1.271177e+01	-5.426769e+01
1.450000e-06	-1.786826e-06	-7.713701e-10	-1.240459e+01	-5.389377e+01
1.460000e-06	-1.742342e-06	-7.625496e-10	-1.209577e+01	-5.351185e+01
1.470000e-06	-1.697639e-06	-7.544548e-10	-1.178543e+01	-5.312181e+01
1.480000e-06	-1.652860e-06	-7.489451e-10	-1.147457e+01	-5.272354e+01
1.490000e-06	-1.607972e-06	-7.426461e-10	-1.116294e+01	-5.231691e+01
1.500000e-06	-1.562885e-06	-7.355002e-10	-1.084994e+01	-5.190175e+01
1.510000e-06	-1.517641e-06	-7.292993e-10	-1.053584e+01	-5.147791e+01
1.520000e-06	-1.472307e-06	-7.240732e-10	-1.022112e+01	-5.104516e+01
1.530000e-06	-1.426906e-06	-7.178343e-10	-9.905934e+00	-5.060325e+01
1.540000e-06	-1.381464e-06	-7.081094e-10	-9.590467e+00	-5.015191e+01
1.550000e-06	-1.335971e-06	-6.958697e-10	-9.274646e+00	-4.969077e+01
1.560000e-06	-1.290359e-06	-6.846239e-10	-8.957992e+00	-4.921943e+01
1.570000e-06	-1.244630e-06	-6.741472e-10	-8.640534e+00	-4.873744e+01
1.580000e-06	-1.198833e-06	-6.651512e-10	-8.322600e+00	-4.824427e+01
1.590000e-06	-1.152952e-06	-6.589527e-10	-8.004083e+00	-4.773931e+01
1.600000e-06	-1.106932e-06	-6.525801e-10	-7.684598e+00	-4.722190e+01
1.610000e-06	-1.060844e-06	-6.437716e-10	-7.364645e+00	-4.669130e+01
1.620000e-06	-1.014726e-06	-6.355816e-10	-7.044484e+00	-4.614669e+01
1.630000e-06	-9.685598e-07	-6.273466e-10	-6.723983e+00	-4.558719e+01
1.640000e-06	-9.224000e-07	-6.184789e-10	-6.403530e+00	-4.501186e+01
1.650000e-06	-8.761561e-07	-6.070679e-10	-6.082494e+00	-4.441968e+01
1.660000e-06	-8.297874e-07	-5.928596e-10	-5.760591e+00	-4.380958e+01
1.670000e-06	-7.834314e-07	-5.785540e-10	-5.438776e+00	-4.318045e+01
1.680000e-06	-7.370998e-07	-5.682895e-10	-5.117130e+00	-4.253112e+01
1.690000e-06	-6.906609e-07	-5.601827e-10	-4.794740e+00	-4.186040e+01
1.700000e-06	-6.441547e-07	-5.519640e-10	-4.471883e+00	-4.116706e+01
1.710000e-06	-5.976396e-07	-5.418367e-10	-4.148963e+00	-4.044988e+01
1.720000e-06	-5.511182e-07	-5.300484e-10	-3.826000e+00	-3.970764e+01
1.730000e-06	-5.046120e-07	-5.166235e-10	-3.503142e+00	-3.893911e+01
1.740000e-06	-4.580343e-07	-5.015007e-10	-3.179788e+00	-3.814311e+01
1.750000e-06	-4.112895e-07	-4.852060e-10	-2.855274e+00	-3.731849e+01
1.760000e-06	-3.643929e-07	-4.699345e-10	-2.529707e+00	-3.646417e+01
1.770000e-06	-3.174446e-07	-4.589227e-10	-2.203780e+00	-3.557911e+01
1.780000e-06	-2.705114e-07	-4.496865e-10	-1.877957e+00	-3.466239e+01
1.790000e-06	-2.235518e-07	-4.398301e-10	-1.551952e+00	-3.371316e+01
1.800000e-06	-1.765920e-07	-4.278965e-10	-1.225946e+00	-3.273069e+01
1.810000e-06	-1.297182e-07	-4.128483e-10	-9.005357e-01	-3.171435e+01
1.820000e-06	-8.284090e-08	-3.965569e-10	-5.751021e-01	-3.066366e+01
1.830000e-06	-3.589627e-08	-3.815959e-10	-2.492008e-01	-2.957830e+01
1.840000e-06	1.109803e-08	-3.676500e-10	7.704528e-02	-2.845805e+01
1.850000e-06	5.805921e-08	-3.532699e-10	4.030615e-01	-2.730288e+01
1.860000e-06	1.049526e-07	-3.368508e-10	7.286068e-01	-2.611292e+01
1.870000e-06	1.518565e-07	-3.194616e-10	1.054226e+00	-2.488846e+01
1.880000e-06	1.987200e-07	-3.019450e-10	1.379564e+00	-2.362996e+01
1.890000e-06	2.456394e-07	-2.863206e-10	1.705290e+00	-2.233803e+01
1.900000e-06	2.926363e-07	-2.696470e-10	2.031554e+00	-2.101349e+01
1.910000e-06	3.396229e-07	-2.500250e-10	2.357747e+00	-1.965727e+01
1.920000e-06	3.865664e-07	-2.302165e-10	2.683640e+00	-1.827050e+01
1.930000e-06	4.333727e-07	-2.104301e-10	3.008581e+00	-1.685446e+01
1.940000e-06	4.801031e-07	-1.889586e-10	3.332995e+00	-1.541056e+01
1.950000e-06	5.267640e-07	-1.671349e-10	3.656927e+00	-1.394035e+01
1.960000e-06	5.733845e-07	-1.472801e-10	3.980578e+00	-1.244552e+01
1.970000e-06	6.199833e-07	-1.285502e-10	4.304078e+00	-1.092786e+01
1.980000e-06	6.664908e-07	-1.097778e-10	4.626945e+00	-9.389289e+00
1.990000e-06	7.129725e-07	-9.063621e-11	4.949633e+00	-7.831787e+00
2.000000e-06	7.593707e-07	-6.823438e-11	5.271741e+00	-6.257429e+00
2.010000e-06	8.057022e-07	-4.243919e-11	5.593385e+00	-4.668350e+00
2.020000e-06	8.520396e-07	-1.772259e-11	5.915071e+00	-3.066730e+00
2.030000e-06	8.983258e-07	2.883521e-12	6.236401e+00	-1.454789e+00
2.040000e-06	9.445028e-07	2.111940e-11	6.556974e+00	1.652384e-01
2.050000e-06	9.905955e-07	4.144816e-11	6.876961e+00	1.791108e+00
2.060000e-06	1.036707e-06	6.319167e-11	7.197077e+00	3.420584e+00
2.070000e-06	1.082712e-06	8.558143e-11	7.516454e+00	5.051454e+00
2.080000e-06	1.128584e-06	1.106217e-10	7.834914e+00	6.681536e+00
2.090000e-06	1.174450e-06	1.370062e-10	8.153326e+00	8.308694e+00
2.100000e-06	1.220243e-06	1.614021e-10	8.471230e+00	9.930849e+00
2.110000e-06	1.265923e-06	1.831240e-10	8.788350e+00	1.154599e+01
2.120000e-06	1.311528e-06	2.026603e-10	9.104953e+00	1.315216e+01
2.130000e-06	1.357011e-06	2.202703e-10	9.420711e+00	1.474753e+01
2.140000e-06	1.402385e-06	2.385201e-10	9.735709e+00	1.633030e+01
2.150000e-06	1.447703e-06	2.600428e-10	1.005031e+01	1.789881e+01
2.160000e-06	1.492933e-06	2.834214e-10	1.036431e+01	1.945149e+01
2.170000e-06	1.538069e-06	3.069948e-10	1.067765e+01	2.098684e+01
2.180000e-06	1.583079e-06	3.293694e-10	1.099013e+01	2.250349e+01
2.190000e-06	1.627973e-06	3.498075e-10	1.130180e+01	2.400018e+01
2.200000e-06	1.672799e-06	3.683401e-10	1.161299e+01	2.547574e+01
2.210000e-06	1.717475e-06	3.860306e-10	1.192314e+01	2.692910e+01
2.220000e-06	1.761896e-06	4.041287e-10	1.223152e+01	2.835930e+01
2.230000e-06	1.806137e-06	4.233539e-10	1.253865e+01	2.976548e+01
2.240000e-06	1.850290e-06	4.432581e-10	1.284517e+01	3.114686e+01
2.250000e-06	1.894370e-06	4.635526e-10	1.315119e+01	3.250278e+01
2.260000e-06	1.938407e-06	4.841810e-10	1.345691e+01	3.383264e+01
2.270000e-06	1.982361e-06	5.035926e-10	1.376204e+01	3.513595e+01
2.280000e-06	2.026216e-06	5.210704e-10	1.406650e+01	3.641228e+01
2.290000e-06	2.069964e-06	5.366406e-10	1.437021e+01	3.766129e+01
2.300000e-06	2.113636e-06	5.525210e-10	1.467339e+01	3.888270e+01
2.310000e-06	2.157276e-06	5.684233e-10	1.497635e+01	4.007630e+01
2.320000e-06	2.200827e-06	5.830365e-10	1.527869e+01	4.124194e+01
2.330000e-06	2.244237e-06	5.989811e-10	1.558005e+01	4.237955e+01
2.340000e-06	2.287485e-06	6.140266e-10	1.588029e+01	4.348908e+01
2.350000e-06	2.330591e-06	6.296143e-10	1.617955e+01	4.457054e+01
2.360000e-06	2.373375e-06	6.444678e-10	1.647656e+01	4.562401e+01
2.370000e-06	2.415764e-06	6.571724e-10	1.677084e+01	4.664958e+01
2.380000e-06	2.457913e-06	6.698138e-10	1.706345e+01	4.764739e+01
2.390000e-06	2.499792e-06	6.822121e-10	1.735418e+01	4.861763e+01
2.400000e-06	2.541257e-06	6.958785e-10	1.764204e+01	4.956052e+01
2.410000e-06	2.582339e-06	7.101027e-10	1.792724e+01	5.047631e+01
2.420000e-06	2.623235e-06	7.245521e-10	1.821115e+01	5.136527e+01
2.430000e-06	2.663975e-06	7.372318e-10	1.849398e+01	5.222771e+01
2.440000e-06	2.704460e-06	7.483220e-10	1.877504e+01	5.306398e+01
2.450000e-06	2.744750e-06	7.582393e-10	1.905474e+01	5.387444e+01
2.460000e-06	2.784887e-06	7.690081e-10	1.933338e+01	5.465947e+01
2.470000e-06	2.824808e-06	7.800796e-10	1.961052e+01	5.541949e+01
2.480000e-06	2.864603e-06	7.902762e-10	1.988679e+01	5.615493e+01
2.490000e-06	2.904363e-06	8.006016e-10	2.016281e+01	5.686626e+01
2.500000e-06	2.944019e-06	8.099913e-10	2.043811e+01	5.755395e+01
2.510000e-06	2.983506e-06	8.179730e-10	2.071224e+01	5.821851e+01
2.520000e-06	3.022828e-06	8.258293e-10	2.098523e+01	5.886044e+01
2.530000e-06	3.061974e-06	8.351855e-10	2.125699e+01	5.948030e+01
2.540000e-06	3.100891e-06	8.458994e-10	2.152716e+01	6.007861e+01
2.550000e-06	3.139510e-06	8.551780e-10	2.179526e+01	6.065595e+01
2.560000e-06	3.177861e-06	8.636939e-10	2.206150e+01	6.121290e+01
2.570000e-06	3.216013e-06	8.692039e-10	2.232636e+01	6.175004e+01
2.580000e-06	3.253974e-06	8.739786e-10	2.258990e+01	6.226796e+01
2.590000e-06	3.291682e-06	8.802896e-10	2.285168e+01	6.276726e+01
2.600000e-06	3.329169e-06	8.861763e-10	2.311192e+01	6.324855e+01
2.610000e-06	3.366497e-06	8.912308e-10	2.337106e+01	6.371243e+01
2.620000e-06	3.403566e-06	8.952934e-10	2.362840e+01	6.415950e+01
2.630000e-06	3.440344e-06	9.000646e-10	2.388372e+01	6.459036e+01
2.640000e-06	3.476868e-06	9.045635e-10	2.413728e+01	6.500560e+01
2.650000e-06	3.513151e-06	9.099226e-10	2.438917e+01	6.540581e+01
2.660000e-06	3.549249e-06	9.159636e-10	2.463977e+01	6.579156e+01
2.670000e-06	3.585193e-06	9.208863e-10	2.488930e+01	6.616340e+01
2.680000e-06	3.620998e-06	9.259491e-10	2.513787e+01	6.652189e+01
2.690000e-06	3.656724e-06	9.312315e-10	2.538589e+01	6.686754e+01
2.700000e-06	3.692342e-06	9.345321e-10	2.563315e+01	6.720087e+01
2.710000e-06	3.727738e-06	9.369571e-10	2.587889e+01	6.752236e+01
2.720000e-06	3.762761e-06	9.415017e-10	2.612202e+01	6.783248e+01
2.730000e-06	3.797349e-06	9.480500e-10	2.636214e+01	6.813168e+01
2.740000e-06	3.831502e-06	9.549565e-10	2.659924e+01	6.842037e+01
2.750000e-06	3.865243e-06	9.615413e-10	2.683348e+01	6.869897e+01
2.760000e-06	3.898533e-06	9.666035e-10	2.706459e+01	6.896784e+01
2.770000e-06	3.931348e-06	9.700279e-10	2.729239e+01	6.922734e+01
2.780000e-06	3.963826e-06	9.729643e-10	2.751787e+01	6.947781e+01
2.790000e-06	3.996030e-06	9.774460e-10	2.774144e+01	6.971956e+01
2.800000e-06	4.028007e-06	9.816700e-10	2.796343e+01	6.995289e+01
2.810000e-06	4.059813e-06	9.853294e-10	2.818423e+01	7.017808e+01
2.820000e-06	4.091423e-06	9.904103e-10	2.840368e+01	7.039538e+01
2.830000e-06	4.122804e-06	9.970089e-10	2.862153e+01	7.060506e+01
2.840000e-06	4.153980e-06	1.002397e-09	2.883797e+01	7.080735e+01
2.850000e-06	4.184881e-06	1.006242e-09	2.905249e+01	7.100248e+01
2.860000e-06	4.215359e-06	1.009563e-09	2.926407e+01	7.119067e+01
2.870000e-06	4.245522e-06	1.012760e-09	2.947347e+01	7.137215e+01
2.880000e-06	4.275414e-06	1.016999e-09	2.968099e+01	7.154713e+01
2.890000e-06	4.304978e-06	1.021327e-09	2.988623e+01	7.171582e+01
2.900000e-06	4.334359e-06	1.023199e-09	3.009020e+01	7.187845e+01
