# Temperatura_=_13.4
# Concentracion g/m^3_=_1620.0
# C_Vs_to_Am_M_A/Vsm_=_65563218390.804596
# pendiente_HvsI_1/m_=_3716.3
# ordenada_HvsI_A/m_=_1297.0
# frecuencia_Hz_=_135101.8153029433

Tiempo_(s)	Campo_(V.s)	Magnetizacion_(V.s)	Campo_(kA/m)	Magnetizacion_(A/m)
0.000000e+00	-5.527583e-06	-1.510245e-09	-3.837442e+01	-1.010706e+02
1.000000e-08	-5.527923e-06	-1.509590e-09	-3.837679e+01	-1.010392e+02
2.000000e-08	-5.528008e-06	-1.507305e-09	-3.837737e+01	-1.010062e+02
3.000000e-08	-5.527813e-06	-1.503194e-09	-3.837602e+01	-1.009720e+02
4.000000e-08	-5.527170e-06	-1.497488e-09	-3.837156e+01	-1.009368e+02
5.000000e-08	-5.526056e-06	-1.490489e-09	-3.836382e+01	-1.009007e+02
6.000000e-08	-5.524357e-06	-1.486307e-09	-3.835203e+01	-1.008641e+02
7.000000e-08	-5.522004e-06	-1.496375e-09	-3.833570e+01	-1.008270e+02
8.000000e-08	-5.519115e-06	-1.504510e-09	-3.831563e+01	-1.007895e+02
9.000000e-08	-5.515662e-06	-1.477494e-09	-3.829166e+01	-1.007518e+02
1.000000e-07	-5.511772e-06	-1.432805e-09	-3.826466e+01	-1.007138e+02
1.100000e-07	-5.507559e-06	-1.474872e-09	-3.823541e+01	-1.006755e+02
1.200000e-07	-5.503061e-06	-1.530431e-09	-3.820419e+01	-1.006368e+02
1.300000e-07	-5.498336e-06	-1.498310e-09	-3.817138e+01	-1.005975e+02
1.400000e-07	-5.493314e-06	-1.421881e-09	-3.813652e+01	-1.005574e+02
1.500000e-07	-5.487955e-06	-1.452785e-09	-3.809931e+01	-1.005163e+02
1.600000e-07	-5.482260e-06	-1.529518e-09	-3.805978e+01	-1.004737e+02
1.700000e-07	-5.476138e-06	-1.525688e-09	-3.801728e+01	-1.004293e+02
1.800000e-07	-5.469515e-06	-1.421770e-09	-3.797130e+01	-1.003827e+02
1.900000e-07	-5.462409e-06	-1.446060e-09	-3.792196e+01	-1.003333e+02
2.000000e-07	-5.454941e-06	-1.513075e-09	-3.787012e+01	-1.002806e+02
2.100000e-07	-5.447292e-06	-1.533683e-09	-3.781701e+01	-1.002241e+02
2.200000e-07	-5.439452e-06	-1.475207e-09	-3.776259e+01	-1.001633e+02
2.300000e-07	-5.431282e-06	-1.481078e-09	-3.770587e+01	-1.000975e+02
2.400000e-07	-5.422746e-06	-1.531330e-09	-3.764661e+01	-1.000263e+02
2.500000e-07	-5.413702e-06	-1.537250e-09	-3.758383e+01	-9.994895e+01
2.600000e-07	-5.403929e-06	-1.506766e-09	-3.751598e+01	-9.986509e+01
2.700000e-07	-5.393553e-06	-1.489060e-09	-3.744394e+01	-9.977418e+01
2.800000e-07	-5.382713e-06	-1.512066e-09	-3.736869e+01	-9.967581e+01
2.900000e-07	-5.371402e-06	-1.516386e-09	-3.729016e+01	-9.956959e+01
3.000000e-07	-5.359669e-06	-1.505346e-09	-3.720871e+01	-9.945524e+01
3.100000e-07	-5.347519e-06	-1.477472e-09	-3.712436e+01	-9.933251e+01
3.200000e-07	-5.334947e-06	-1.519384e-09	-3.703708e+01	-9.920125e+01
3.300000e-07	-5.321923e-06	-1.532568e-09	-3.694666e+01	-9.906141e+01
3.400000e-07	-5.308524e-06	-1.508635e-09	-3.685364e+01	-9.891300e+01
3.500000e-07	-5.294756e-06	-1.466025e-09	-3.675806e+01	-9.875614e+01
3.600000e-07	-5.280574e-06	-1.514968e-09	-3.665961e+01	-9.859102e+01
3.700000e-07	-5.265950e-06	-1.511709e-09	-3.655808e+01	-9.841795e+01
3.800000e-07	-5.250787e-06	-1.479062e-09	-3.645281e+01	-9.823729e+01
3.900000e-07	-5.235171e-06	-1.482216e-09	-3.634440e+01	-9.804948e+01
4.000000e-07	-5.219169e-06	-1.511976e-09	-3.623331e+01	-9.785505e+01
4.100000e-07	-5.202679e-06	-1.459143e-09	-3.611883e+01	-9.765457e+01
4.200000e-07	-5.185809e-06	-1.459045e-09	-3.600171e+01	-9.744866e+01
4.300000e-07	-5.168632e-06	-1.518246e-09	-3.588246e+01	-9.723800e+01
4.400000e-07	-5.151133e-06	-1.489537e-09	-3.576098e+01	-9.702327e+01
4.500000e-07	-5.133339e-06	-1.417981e-09	-3.563744e+01	-9.680518e+01
4.600000e-07	-5.115150e-06	-1.470757e-09	-3.551117e+01	-9.658442e+01
4.700000e-07	-5.096468e-06	-1.494533e-09	-3.538147e+01	-9.636170e+01
4.800000e-07	-5.077427e-06	-1.416179e-09	-3.524928e+01	-9.613766e+01
4.900000e-07	-5.058093e-06	-1.427538e-09	-3.511506e+01	-9.591294e+01
5.000000e-07	-5.038431e-06	-1.494938e-09	-3.497856e+01	-9.568810e+01
5.100000e-07	-5.018521e-06	-1.440984e-09	-3.484034e+01	-9.546366e+01
5.200000e-07	-4.998348e-06	-1.404715e-09	-3.470029e+01	-9.524004e+01
5.300000e-07	-4.977836e-06	-1.476473e-09	-3.455789e+01	-9.501761e+01
5.400000e-07	-4.957003e-06	-1.449654e-09	-3.441326e+01	-9.479664e+01
5.500000e-07	-4.935862e-06	-1.372493e-09	-3.426649e+01	-9.457729e+01
5.600000e-07	-4.914363e-06	-1.420013e-09	-3.411724e+01	-9.435965e+01
5.700000e-07	-4.892518e-06	-1.464002e-09	-3.396558e+01	-9.414371e+01
5.800000e-07	-4.870344e-06	-1.395254e-09	-3.381164e+01	-9.392936e+01
5.900000e-07	-4.847802e-06	-1.402571e-09	-3.365515e+01	-9.371639e+01
6.000000e-07	-4.824901e-06	-1.451925e-09	-3.349616e+01	-9.350453e+01
6.100000e-07	-4.801667e-06	-1.409610e-09	-3.333486e+01	-9.329339e+01
6.200000e-07	-4.778197e-06	-1.371307e-09	-3.317192e+01	-9.308254e+01
6.300000e-07	-4.754488e-06	-1.417253e-09	-3.300733e+01	-9.287147e+01
6.400000e-07	-4.730505e-06	-1.406545e-09	-3.284083e+01	-9.265963e+01
6.500000e-07	-4.706224e-06	-1.374206e-09	-3.267226e+01	-9.244642e+01
6.600000e-07	-4.681494e-06	-1.394683e-09	-3.250057e+01	-9.223122e+01
6.700000e-07	-4.656373e-06	-1.406393e-09	-3.232618e+01	-9.201339e+01
6.800000e-07	-4.630824e-06	-1.367009e-09	-3.214881e+01	-9.179230e+01
6.900000e-07	-4.604728e-06	-1.371984e-09	-3.196764e+01	-9.156731e+01
7.000000e-07	-4.578071e-06	-1.383784e-09	-3.178258e+01	-9.133782e+01
7.100000e-07	-4.550829e-06	-1.359953e-09	-3.159346e+01	-9.110327e+01
7.200000e-07	-4.523214e-06	-1.346862e-09	-3.140174e+01	-9.086313e+01
7.300000e-07	-4.495506e-06	-1.365833e-09	-3.120939e+01	-9.061695e+01
7.400000e-07	-4.467690e-06	-1.357756e-09	-3.101628e+01	-9.036433e+01
7.500000e-07	-4.439613e-06	-1.341153e-09	-3.082136e+01	-9.010494e+01
7.600000e-07	-4.411311e-06	-1.343478e-09	-3.062487e+01	-8.983855e+01
7.700000e-07	-4.382821e-06	-1.340810e-09	-3.042709e+01	-8.956498e+01
7.800000e-07	-4.353996e-06	-1.323581e-09	-3.022697e+01	-8.928415e+01
7.900000e-07	-4.324801e-06	-1.319918e-09	-3.002429e+01	-8.899606e+01
8.000000e-07	-4.295282e-06	-1.319366e-09	-2.981936e+01	-8.870080e+01
8.100000e-07	-4.265524e-06	-1.307041e-09	-2.961277e+01	-8.839853e+01
8.200000e-07	-4.235526e-06	-1.304958e-09	-2.940451e+01	-8.808946e+01
8.300000e-07	-4.205223e-06	-1.309173e-09	-2.919414e+01	-8.777391e+01
8.400000e-07	-4.174602e-06	-1.301611e-09	-2.898156e+01	-8.745220e+01
8.500000e-07	-4.143687e-06	-1.292055e-09	-2.876693e+01	-8.712475e+01
8.600000e-07	-4.112521e-06	-1.294803e-09	-2.855057e+01	-8.679199e+01
8.700000e-07	-4.081092e-06	-1.285470e-09	-2.833238e+01	-8.645437e+01
8.800000e-07	-4.049431e-06	-1.274799e-09	-2.811258e+01	-8.611237e+01
8.900000e-07	-4.017589e-06	-1.271927e-09	-2.789151e+01	-8.576647e+01
9.000000e-07	-3.985546e-06	-1.268947e-09	-2.766906e+01	-8.541714e+01
9.100000e-07	-3.953198e-06	-1.254031e-09	-2.744449e+01	-8.506483e+01
9.200000e-07	-3.920475e-06	-1.257033e-09	-2.721731e+01	-8.470997e+01
9.300000e-07	-3.887397e-06	-1.260089e-09	-2.698768e+01	-8.435294e+01
9.400000e-07	-3.853994e-06	-1.249477e-09	-2.675579e+01	-8.399409e+01
9.500000e-07	-3.820121e-06	-1.239111e-09	-2.652062e+01	-8.363371e+01
9.600000e-07	-3.785761e-06	-1.236587e-09	-2.628208e+01	-8.327203e+01
9.700000e-07	-3.750990e-06	-1.219799e-09	-2.604069e+01	-8.290923e+01
9.800000e-07	-3.715849e-06	-1.206713e-09	-2.579673e+01	-8.254541e+01
9.900000e-07	-3.680497e-06	-1.207054e-09	-2.555130e+01	-8.218062e+01
1.000000e-06	-3.644997e-06	-1.204576e-09	-2.530485e+01	-8.181485e+01
1.010000e-06	-3.609282e-06	-1.194455e-09	-2.505690e+01	-8.144800e+01
1.020000e-06	-3.573365e-06	-1.196611e-09	-2.480755e+01	-8.107995e+01
1.030000e-06	-3.537355e-06	-1.198298e-09	-2.455756e+01	-8.071051e+01
1.040000e-06	-3.501172e-06	-1.186796e-09	-2.430637e+01	-8.033942e+01
1.050000e-06	-3.464680e-06	-1.175767e-09	-2.405303e+01	-7.996643e+01
1.060000e-06	-3.427921e-06	-1.171728e-09	-2.379783e+01	-7.959121e+01
1.070000e-06	-3.390964e-06	-1.161809e-09	-2.354127e+01	-7.921343e+01
1.080000e-06	-3.353736e-06	-1.155080e-09	-2.328281e+01	-7.883274e+01
1.090000e-06	-3.316232e-06	-1.157578e-09	-2.302245e+01	-7.844877e+01
1.100000e-06	-3.278524e-06	-1.151657e-09	-2.276067e+01	-7.806116e+01
1.110000e-06	-3.240596e-06	-1.140656e-09	-2.249736e+01	-7.766957e+01
1.120000e-06	-3.202409e-06	-1.136099e-09	-2.223225e+01	-7.727366e+01
1.130000e-06	-3.163944e-06	-1.131691e-09	-2.196522e+01	-7.687311e+01
1.140000e-06	-3.125275e-06	-1.117644e-09	-2.169676e+01	-7.646764e+01
1.150000e-06	-3.086466e-06	-1.108796e-09	-2.142733e+01	-7.605699e+01
1.160000e-06	-3.047427e-06	-1.105475e-09	-2.115631e+01	-7.564094e+01
1.170000e-06	-3.008134e-06	-1.097847e-09	-2.088352e+01	-7.521931e+01
1.180000e-06	-2.968698e-06	-1.088055e-09	-2.060975e+01	-7.479196e+01
1.190000e-06	-2.929178e-06	-1.085287e-09	-2.033538e+01	-7.435879e+01
1.200000e-06	-2.889533e-06	-1.078513e-09	-2.006015e+01	-7.391974e+01
1.210000e-06	-2.849684e-06	-1.066627e-09	-1.978351e+01	-7.347476e+01
1.220000e-06	-2.809712e-06	-1.056809e-09	-1.950601e+01	-7.302386e+01
1.230000e-06	-2.769653e-06	-1.052425e-09	-1.922791e+01	-7.256706e+01
1.240000e-06	-2.729398e-06	-1.046177e-09	-1.894844e+01	-7.210441e+01
1.250000e-06	-2.688828e-06	-1.041109e-09	-1.866679e+01	-7.163597e+01
1.260000e-06	-2.648037e-06	-1.036883e-09	-1.838360e+01	-7.116179e+01
1.270000e-06	-2.607021e-06	-1.028459e-09	-1.809885e+01	-7.068195e+01
1.280000e-06	-2.565813e-06	-1.016311e-09	-1.781278e+01	-7.019651e+01
1.290000e-06	-2.524449e-06	-1.007145e-09	-1.752561e+01	-6.970552e+01
1.300000e-06	-2.482737e-06	-9.972482e-10	-1.723603e+01	-6.920899e+01
1.310000e-06	-2.440688e-06	-9.864909e-10	-1.694411e+01	-6.870693e+01
1.320000e-06	-2.398270e-06	-9.799861e-10	-1.664963e+01	-6.819931e+01
1.330000e-06	-2.355491e-06	-9.767067e-10	-1.635265e+01	-6.768606e+01
1.340000e-06	-2.312428e-06	-9.679940e-10	-1.605369e+01	-6.716708e+01
1.350000e-06	-2.269133e-06	-9.576335e-10	-1.575312e+01	-6.664221e+01
1.360000e-06	-2.225689e-06	-9.474007e-10	-1.545152e+01	-6.611127e+01
1.370000e-06	-2.182116e-06	-9.332071e-10	-1.514902e+01	-6.557401e+01
1.380000e-06	-2.138459e-06	-9.187747e-10	-1.484594e+01	-6.503015e+01
1.390000e-06	-2.094731e-06	-9.084702e-10	-1.454236e+01	-6.447938e+01
1.400000e-06	-2.050924e-06	-9.020334e-10	-1.423823e+01	-6.392133e+01
1.410000e-06	-2.007071e-06	-8.965842e-10	-1.393379e+01	-6.335560e+01
1.420000e-06	-1.963178e-06	-8.905319e-10	-1.362907e+01	-6.278176e+01
1.430000e-06	-1.919193e-06	-8.821680e-10	-1.332371e+01	-6.219935e+01
1.440000e-06	-1.875071e-06	-8.709763e-10	-1.301740e+01	-6.160789e+01
1.450000e-06	-1.830863e-06	-8.585517e-10	-1.271050e+01	-6.100689e+01
1.460000e-06	-1.786558e-06	-8.470529e-10	-1.240291e+01	-6.039585e+01
1.470000e-06	-1.742101e-06	-8.348160e-10	-1.209428e+01	-5.977424e+01
1.480000e-06	-1.697566e-06	-8.238035e-10	-1.178510e+01	-5.914157e+01
1.490000e-06	-1.652871e-06	-8.159576e-10	-1.147481e+01	-5.849732e+01
1.500000e-06	-1.608000e-06	-8.081082e-10	-1.116330e+01	-5.784101e+01
1.510000e-06	-1.563022e-06	-7.981593e-10	-1.085105e+01	-5.717214e+01
1.520000e-06	-1.517909e-06	-7.900733e-10	-1.053786e+01	-5.649025e+01
1.530000e-06	-1.472703e-06	-7.797634e-10	-1.022402e+01	-5.579489e+01
1.540000e-06	-1.427405e-06	-7.673654e-10	-9.909547e+00	-5.508562e+01
1.550000e-06	-1.381958e-06	-7.542492e-10	-9.594039e+00	-5.436203e+01
1.560000e-06	-1.336389e-06	-7.431151e-10	-9.277683e+00	-5.362372e+01
1.570000e-06	-1.290730e-06	-7.306673e-10	-8.960705e+00	-5.287028e+01
1.580000e-06	-1.244986e-06	-7.169604e-10	-8.643129e+00	-5.210135e+01
1.590000e-06	-1.199196e-06	-7.045345e-10	-8.325243e+00	-5.131655e+01
1.600000e-06	-1.153330e-06	-6.949182e-10	-8.006821e+00	-5.051548e+01
1.610000e-06	-1.107408e-06	-6.844561e-10	-7.688013e+00	-4.969777e+01
1.620000e-06	-1.061401e-06	-6.712317e-10	-7.368620e+00	-4.886301e+01
1.630000e-06	-1.015336e-06	-6.574482e-10	-7.048822e+00	-4.801078e+01
1.640000e-06	-9.691551e-07	-6.436604e-10	-6.728216e+00	-4.714063e+01
1.650000e-06	-9.228193e-07	-6.297718e-10	-6.406536e+00	-4.625208e+01
1.660000e-06	-8.764865e-07	-6.161634e-10	-6.084878e+00	-4.534461e+01
1.670000e-06	-8.301825e-07	-6.020567e-10	-5.763419e+00	-4.441765e+01
1.680000e-06	-7.838224e-07	-5.865994e-10	-5.441571e+00	-4.347059e+01
1.690000e-06	-7.373715e-07	-5.711695e-10	-5.119092e+00	-4.250278e+01
1.700000e-06	-6.908577e-07	-5.542334e-10	-4.796177e+00	-4.151349e+01
1.710000e-06	-6.442801e-07	-5.369194e-10	-4.472819e+00	-4.050197e+01
1.720000e-06	-5.977099e-07	-5.213554e-10	-4.149513e+00	-3.946740e+01
1.730000e-06	-5.510892e-07	-5.067674e-10	-3.825855e+00	-3.840894e+01
1.740000e-06	-5.043704e-07	-4.911223e-10	-3.501517e+00	-3.732569e+01
1.750000e-06	-4.575902e-07	-4.735049e-10	-3.176752e+00	-3.621672e+01
1.760000e-06	-4.107286e-07	-4.528997e-10	-2.851423e+00	-3.508109e+01
1.770000e-06	-3.638735e-07	-4.309332e-10	-2.526137e+00	-3.391785e+01
1.780000e-06	-3.170775e-07	-4.106111e-10	-2.201264e+00	-3.272604e+01
1.790000e-06	-2.703076e-07	-3.928258e-10	-1.876571e+00	-3.150473e+01
1.800000e-06	-2.235012e-07	-3.765393e-10	-1.551624e+00	-3.025301e+01
1.810000e-06	-1.766856e-07	-3.603278e-10	-1.226614e+00	-2.897003e+01
1.820000e-06	-1.298226e-07	-3.423650e-10	-9.012738e-01	-2.765501e+01
1.830000e-06	-8.282694e-08	-3.234173e-10	-5.750137e-01	-2.630724e+01
1.840000e-06	-3.585720e-08	-3.035327e-10	-2.489333e-01	-2.492612e+01
1.850000e-06	1.104491e-08	-2.833937e-10	7.667767e-02	-2.351119e+01
1.860000e-06	5.790893e-08	-2.626385e-10	4.020241e-01	-2.206209e+01
1.870000e-06	1.047116e-07	-2.401085e-10	7.269448e-01	-2.057864e+01
1.880000e-06	1.515379e-07	-2.165789e-10	1.052030e+00	-1.906082e+01
1.890000e-06	1.983702e-07	-1.946374e-10	1.377155e+00	-1.750880e+01
1.900000e-06	2.452001e-07	-1.750468e-10	1.702265e+00	-1.592294e+01
1.910000e-06	2.920569e-07	-1.540149e-10	2.027562e+00	-1.430379e+01
1.920000e-06	3.388835e-07	-1.317390e-10	2.352648e+00	-1.265214e+01
1.930000e-06	3.857392e-07	-1.101662e-10	2.677937e+00	-1.096896e+01
1.940000e-06	4.325304e-07	-8.490348e-11	3.002778e+00	-9.255471e+00
1.950000e-06	4.791789e-07	-5.695826e-11	3.326628e+00	-7.513083e+00
1.960000e-06	5.257801e-07	-2.954786e-11	3.650150e+00	-5.743430e+00
1.970000e-06	5.723862e-07	-5.868040e-12	3.973707e+00	-3.948348e+00
1.980000e-06	6.189692e-07	1.586256e-11	4.297102e+00	-2.129870e+00
1.990000e-06	6.654585e-07	3.758761e-11	4.619847e+00	-2.902080e-01
2.000000e-06	7.118689e-07	6.236078e-11	4.942044e+00	1.568256e+00
2.010000e-06	7.582187e-07	9.194409e-11	5.263821e+00	3.442991e+00
2.020000e-06	8.045385e-07	1.236698e-10	5.585389e+00	5.331337e+00
2.030000e-06	8.508819e-07	1.540048e-10	5.907121e+00	7.230523e+00
2.040000e-06	8.971347e-07	1.815585e-10	6.228225e+00	9.137694e+00
2.050000e-06	9.432900e-07	2.056539e-10	6.548651e+00	1.104993e+01
2.060000e-06	9.894163e-07	2.288610e-10	6.868876e+00	1.296428e+01
2.070000e-06	1.035475e-06	2.546699e-10	7.188632e+00	1.487778e+01
2.080000e-06	1.081485e-06	2.800421e-10	7.508051e+00	1.678747e+01
2.090000e-06	1.127447e-06	3.077034e-10	7.827136e+00	1.869045e+01
2.100000e-06	1.173336e-06	3.374873e-10	8.145710e+00	2.058386e+01
2.110000e-06	1.219075e-06	3.645378e-10	8.463247e+00	2.246493e+01
2.120000e-06	1.264716e-06	3.892516e-10	8.780100e+00	2.433102e+01
2.130000e-06	1.310337e-06	4.119763e-10	9.096818e+00	2.617959e+01
2.140000e-06	1.355889e-06	4.318578e-10	9.413059e+00	2.800826e+01
2.150000e-06	1.401325e-06	4.527448e-10	9.728489e+00	2.981481e+01
2.160000e-06	1.446601e-06	4.768735e-10	1.004281e+01	3.159720e+01
2.170000e-06	1.491791e-06	5.025427e-10	1.035654e+01	3.335355e+01
2.180000e-06	1.536965e-06	5.272097e-10	1.067015e+01	3.508221e+01
2.190000e-06	1.581936e-06	5.520852e-10	1.098235e+01	3.678169e+01
2.200000e-06	1.626740e-06	5.758247e-10	1.129340e+01	3.845073e+01
2.210000e-06	1.671410e-06	5.969256e-10	1.160352e+01	4.008825e+01
2.220000e-06	1.715899e-06	6.156493e-10	1.191237e+01	4.169338e+01
2.230000e-06	1.760353e-06	6.325072e-10	1.222099e+01	4.326544e+01
2.240000e-06	1.804676e-06	6.513092e-10	1.252869e+01	4.480392e+01
2.250000e-06	1.848808e-06	6.702497e-10	1.283508e+01	4.630851e+01
2.260000e-06	1.892853e-06	6.887820e-10	1.314085e+01	4.777904e+01
2.270000e-06	1.936818e-06	7.087673e-10	1.344607e+01	4.921551e+01
2.280000e-06	1.980721e-06	7.293365e-10	1.375086e+01	5.061804e+01
2.290000e-06	2.024585e-06	7.504421e-10	1.405538e+01	5.198689e+01
2.300000e-06	2.068393e-06	7.691306e-10	1.435951e+01	5.332241e+01
2.310000e-06	2.112139e-06	7.863365e-10	1.466321e+01	5.462504e+01
2.320000e-06	2.155857e-06	8.029305e-10	1.496672e+01	5.589533e+01
2.330000e-06	2.199485e-06	8.183866e-10	1.526960e+01	5.713385e+01
2.340000e-06	2.242956e-06	8.343461e-10	1.557139e+01	5.834124e+01
2.350000e-06	2.286269e-06	8.506500e-10	1.587209e+01	5.951816e+01
2.360000e-06	2.329395e-06	8.675711e-10	1.617148e+01	6.066529e+01
2.370000e-06	2.372223e-06	8.850056e-10	1.646881e+01	6.178334e+01
2.380000e-06	2.414672e-06	9.016148e-10	1.676350e+01	6.287298e+01
2.390000e-06	2.456781e-06	9.163578e-10	1.705584e+01	6.393490e+01
2.400000e-06	2.498701e-06	9.291525e-10	1.734686e+01	6.496977e+01
2.410000e-06	2.540359e-06	9.419009e-10	1.763606e+01	6.597820e+01
2.420000e-06	2.581695e-06	9.554111e-10	1.792304e+01	6.696081e+01
2.430000e-06	2.622759e-06	9.706736e-10	1.820812e+01	6.791818e+01
2.440000e-06	2.663490e-06	9.820616e-10	1.849089e+01	6.885085e+01
2.450000e-06	2.703962e-06	9.923007e-10	1.877185e+01	6.975933e+01
2.460000e-06	2.744247e-06	1.001673e-09	1.905153e+01	7.064409e+01
2.470000e-06	2.784356e-06	1.010973e-09	1.932998e+01	7.150558e+01
2.480000e-06	2.824301e-06	1.023358e-09	1.960729e+01	7.234422e+01
2.490000e-06	2.864160e-06	1.036478e-09	1.988400e+01	7.316041e+01
2.500000e-06	2.903894e-06	1.051280e-09	2.015985e+01	7.395454e+01
2.510000e-06	2.943510e-06	1.065372e-09	2.043488e+01	7.472697e+01
2.520000e-06	2.983004e-06	1.076845e-09	2.070906e+01	7.547805e+01
2.530000e-06	3.022258e-06	1.085364e-09	2.098158e+01	7.620814e+01
2.540000e-06	3.061273e-06	1.092568e-09	2.125243e+01	7.691760e+01
2.550000e-06	3.100087e-06	1.102679e-09	2.152189e+01	7.760679e+01
2.560000e-06	3.138648e-06	1.111959e-09	2.178960e+01	7.827608e+01
2.570000e-06	3.176979e-06	1.120333e-09	2.205571e+01	7.892586e+01
2.580000e-06	3.215126e-06	1.130330e-09	2.232053e+01	7.955653e+01
2.590000e-06	3.253122e-06	1.138669e-09	2.258432e+01	8.016852e+01
2.600000e-06	3.290931e-06	1.145717e-09	2.284680e+01	8.076226e+01
2.610000e-06	3.328493e-06	1.152816e-09	2.310757e+01	8.133823e+01
2.620000e-06	3.365830e-06	1.161402e-09	2.336678e+01	8.189691e+01
2.630000e-06	3.402908e-06	1.169510e-09	2.362419e+01	8.243882e+01
2.640000e-06	3.439662e-06	1.176803e-09	2.387934e+01	8.296447e+01
2.650000e-06	3.476077e-06	1.182548e-09	2.413215e+01	8.347442e+01
2.660000e-06	3.512283e-06	1.189235e-09	2.438350e+01	8.396923e+01
2.670000e-06	3.548352e-06	1.197393e-09	2.463391e+01	8.444947e+01
2.680000e-06	3.584257e-06	1.204864e-09	2.488317e+01	8.491574e+01
2.690000e-06	3.620040e-06	1.210626e-09	2.513159e+01	8.536861e+01
2.700000e-06	3.655721e-06	1.217165e-09	2.537930e+01	8.580870e+01
2.710000e-06	3.691222e-06	1.223527e-09	2.562576e+01	8.623658e+01
2.720000e-06	3.726516e-06	1.228648e-09	2.587079e+01	8.665285e+01
2.730000e-06	3.761591e-06	1.234040e-09	2.611429e+01	8.705807e+01
2.740000e-06	3.796231e-06	1.238749e-09	2.635477e+01	8.745282e+01
2.750000e-06	3.830400e-06	1.243979e-09	2.659198e+01	8.783764e+01
2.760000e-06	3.864094e-06	1.251647e-09	2.682590e+01	8.821306e+01
2.770000e-06	3.897226e-06	1.258545e-09	2.705591e+01	8.857958e+01
2.780000e-06	3.929992e-06	1.262924e-09	2.728339e+01	8.893769e+01
2.790000e-06	3.962475e-06	1.267507e-09	2.750890e+01	8.928784e+01
2.800000e-06	3.994648e-06	1.274161e-09	2.773225e+01	8.963047e+01
2.810000e-06	4.026585e-06	1.280084e-09	2.795397e+01	8.996596e+01
2.820000e-06	4.058327e-06	1.285503e-09	2.817433e+01	9.029470e+01
2.830000e-06	4.089980e-06	1.292184e-09	2.839408e+01	9.061702e+01
2.840000e-06	4.121489e-06	1.299362e-09	2.861282e+01	9.093324e+01
2.850000e-06	4.152690e-06	1.305623e-09	2.882944e+01	9.124364e+01
2.860000e-06	4.183530e-06	1.310746e-09	2.904353e+01	9.154849e+01
2.870000e-06	4.214042e-06	1.316822e-09	2.925536e+01	9.184802e+01
2.880000e-06	4.244267e-06	1.321982e-09	2.946520e+01	9.214242e+01
2.890000e-06	4.274226e-06	1.327310e-09	2.967318e+01	9.243189e+01
2.900000e-06	4.303931e-06	1.332555e-09	2.987940e+01	9.271658e+01
