# Temperatura_=_-8.94
# Concentracion g/m^3_=_1620.0
# C_Vs_to_Am_M_A/Vsm_=_65563218390.804596
# pendiente_HvsI_1/m_=_3716.3
# ordenada_HvsI_A/m_=_1297.0
# frecuencia_Hz_=_135111.00604403683

Tiempo_(s)	Campo_(V.s)	Magnetizacion_(V.s)	Campo_(kA/m)	Magnetizacion_(A/m)
0.000000e+00	-5.522980e-06	-1.008870e-09	-3.836281e+01	-6.840889e+01
1.000000e-08	-5.523068e-06	-1.005044e-09	-3.836343e+01	-6.842679e+01
2.000000e-08	-5.522934e-06	-1.001339e-09	-3.836250e+01	-6.844632e+01
3.000000e-08	-5.522550e-06	-9.987221e-10	-3.835983e+01	-6.846686e+01
4.000000e-08	-5.521761e-06	-9.971808e-10	-3.835435e+01	-6.848778e+01
5.000000e-08	-5.520372e-06	-9.961075e-10	-3.834470e+01	-6.850842e+01
6.000000e-08	-5.518308e-06	-9.937749e-10	-3.833036e+01	-6.852812e+01
7.000000e-08	-5.515630e-06	-9.912396e-10	-3.831176e+01	-6.854622e+01
8.000000e-08	-5.512424e-06	-9.841190e-10	-3.828949e+01	-6.856206e+01
9.000000e-08	-5.508813e-06	-9.991788e-10	-3.826441e+01	-6.857502e+01
1.000000e-07	-5.504808e-06	-1.046434e-09	-3.823659e+01	-6.858448e+01
1.100000e-07	-5.500368e-06	-1.054660e-09	-3.820575e+01	-6.858986e+01
1.200000e-07	-5.495769e-06	-9.777713e-10	-3.817381e+01	-6.859060e+01
1.300000e-07	-5.491072e-06	-9.552510e-10	-3.814118e+01	-6.858622e+01
1.400000e-07	-5.485976e-06	-9.850293e-10	-3.810579e+01	-6.857625e+01
1.500000e-07	-5.480430e-06	-1.032036e-09	-3.806726e+01	-6.856027e+01
1.600000e-07	-5.474526e-06	-9.769487e-10	-3.802625e+01	-6.853794e+01
1.700000e-07	-5.468201e-06	-9.753004e-10	-3.798232e+01	-6.850895e+01
1.800000e-07	-5.461366e-06	-1.047215e-09	-3.793484e+01	-6.847305e+01
1.900000e-07	-5.454108e-06	-1.079440e-09	-3.788442e+01	-6.843007e+01
2.000000e-07	-5.446623e-06	-1.017020e-09	-3.783244e+01	-6.837987e+01
2.100000e-07	-5.438884e-06	-9.672652e-10	-3.777868e+01	-6.832239e+01
2.200000e-07	-5.430804e-06	-1.008951e-09	-3.772255e+01	-6.825761e+01
2.300000e-07	-5.422515e-06	-1.035171e-09	-3.766498e+01	-6.818559e+01
2.400000e-07	-5.413867e-06	-1.018892e-09	-3.760491e+01	-6.810643e+01
2.500000e-07	-5.404522e-06	-1.000991e-09	-3.754000e+01	-6.802028e+01
2.600000e-07	-5.394358e-06	-1.020736e-09	-3.746940e+01	-6.792736e+01
2.700000e-07	-5.383589e-06	-1.000166e-09	-3.739460e+01	-6.782792e+01
2.800000e-07	-5.372465e-06	-9.811655e-10	-3.731734e+01	-6.772227e+01
2.900000e-07	-5.360897e-06	-9.711679e-10	-3.723698e+01	-6.761074e+01
3.000000e-07	-5.348919e-06	-9.971248e-10	-3.715378e+01	-6.749374e+01
3.100000e-07	-5.336628e-06	-9.871179e-10	-3.706841e+01	-6.737166e+01
3.200000e-07	-5.323876e-06	-9.933545e-10	-3.697983e+01	-6.724497e+01
3.300000e-07	-5.310611e-06	-9.893412e-10	-3.688770e+01	-6.711415e+01
3.400000e-07	-5.297030e-06	-9.953846e-10	-3.679336e+01	-6.697969e+01
3.500000e-07	-5.283175e-06	-9.756212e-10	-3.669712e+01	-6.684212e+01
3.600000e-07	-5.268884e-06	-9.632902e-10	-3.659786e+01	-6.670197e+01
3.700000e-07	-5.254131e-06	-9.570602e-10	-3.649538e+01	-6.655979e+01
3.800000e-07	-5.238911e-06	-9.854546e-10	-3.638966e+01	-6.641612e+01
3.900000e-07	-5.222956e-06	-9.855029e-10	-3.627883e+01	-6.627152e+01
4.000000e-07	-5.206399e-06	-9.661136e-10	-3.616383e+01	-6.612653e+01
4.100000e-07	-5.189598e-06	-9.752557e-10	-3.604713e+01	-6.598170e+01
4.200000e-07	-5.172463e-06	-9.962108e-10	-3.592811e+01	-6.583754e+01
4.300000e-07	-5.155012e-06	-9.674845e-10	-3.580690e+01	-6.569458e+01
4.400000e-07	-5.137323e-06	-9.475258e-10	-3.568403e+01	-6.555328e+01
4.500000e-07	-5.119323e-06	-9.883479e-10	-3.555900e+01	-6.541413e+01
4.600000e-07	-5.100869e-06	-9.826652e-10	-3.543082e+01	-6.527754e+01
4.700000e-07	-5.081947e-06	-9.417046e-10	-3.529938e+01	-6.514392e+01
4.800000e-07	-5.062775e-06	-9.583632e-10	-3.516621e+01	-6.501362e+01
4.900000e-07	-5.043300e-06	-9.966199e-10	-3.503094e+01	-6.488697e+01
5.000000e-07	-5.023504e-06	-9.614450e-10	-3.489344e+01	-6.476424e+01
5.100000e-07	-5.003574e-06	-9.558420e-10	-3.475500e+01	-6.464567e+01
5.200000e-07	-4.983440e-06	-9.786827e-10	-3.461515e+01	-6.453145e+01
5.300000e-07	-4.962910e-06	-9.642426e-10	-3.447255e+01	-6.442170e+01
5.400000e-07	-4.941983e-06	-9.437805e-10	-3.432719e+01	-6.431651e+01
5.500000e-07	-4.920655e-06	-9.735214e-10	-3.417904e+01	-6.421593e+01
5.600000e-07	-4.898952e-06	-9.575671e-10	-3.402829e+01	-6.411994e+01
5.700000e-07	-4.876990e-06	-9.265403e-10	-3.387574e+01	-6.402848e+01
5.800000e-07	-4.854702e-06	-9.482994e-10	-3.372094e+01	-6.394144e+01
5.900000e-07	-4.831986e-06	-9.728243e-10	-3.356314e+01	-6.385867e+01
6.000000e-07	-4.808929e-06	-9.440520e-10	-3.340299e+01	-6.377996e+01
6.100000e-07	-4.785586e-06	-9.470611e-10	-3.324085e+01	-6.370508e+01
6.200000e-07	-4.761919e-06	-9.592671e-10	-3.307646e+01	-6.363376e+01
6.300000e-07	-4.738028e-06	-9.419083e-10	-3.291051e+01	-6.356569e+01
6.400000e-07	-4.713989e-06	-9.338640e-10	-3.274354e+01	-6.350053e+01
6.500000e-07	-4.689676e-06	-9.512315e-10	-3.257465e+01	-6.343793e+01
6.600000e-07	-4.664887e-06	-9.448451e-10	-3.240247e+01	-6.337750e+01
6.700000e-07	-4.639609e-06	-9.401780e-10	-3.222689e+01	-6.331884e+01
6.800000e-07	-4.613793e-06	-9.527697e-10	-3.204757e+01	-6.326156e+01
6.900000e-07	-4.587394e-06	-9.522324e-10	-3.186420e+01	-6.320524e+01
7.000000e-07	-4.560486e-06	-9.432266e-10	-3.167730e+01	-6.314948e+01
7.100000e-07	-4.533210e-06	-9.438048e-10	-3.148784e+01	-6.309386e+01
7.200000e-07	-4.505690e-06	-9.360816e-10	-3.129669e+01	-6.303800e+01
7.300000e-07	-4.477947e-06	-9.275187e-10	-3.110398e+01	-6.298149e+01
7.400000e-07	-4.450025e-06	-9.358470e-10	-3.091003e+01	-6.292398e+01
7.500000e-07	-4.421915e-06	-9.417874e-10	-3.071478e+01	-6.286511e+01
7.600000e-07	-4.393574e-06	-9.386641e-10	-3.051792e+01	-6.280455e+01
7.700000e-07	-4.364998e-06	-9.357777e-10	-3.031943e+01	-6.274199e+01
7.800000e-07	-4.336023e-06	-9.340086e-10	-3.011817e+01	-6.267714e+01
7.900000e-07	-4.306555e-06	-9.237075e-10	-2.991348e+01	-6.260976e+01
8.000000e-07	-4.276842e-06	-9.244558e-10	-2.970710e+01	-6.253960e+01
8.100000e-07	-4.246988e-06	-9.248920e-10	-2.949973e+01	-6.246647e+01
8.200000e-07	-4.216826e-06	-9.231247e-10	-2.929022e+01	-6.239016e+01
8.300000e-07	-4.186308e-06	-9.225103e-10	-2.907825e+01	-6.231053e+01
8.400000e-07	-4.155517e-06	-9.274687e-10	-2.886437e+01	-6.222744e+01
8.500000e-07	-4.124473e-06	-9.228545e-10	-2.864874e+01	-6.214077e+01
8.600000e-07	-4.093162e-06	-9.191400e-10	-2.843125e+01	-6.205041e+01
8.700000e-07	-4.061626e-06	-9.170662e-10	-2.821220e+01	-6.195629e+01
8.800000e-07	-4.029937e-06	-9.145566e-10	-2.799209e+01	-6.185833e+01
8.900000e-07	-3.998093e-06	-9.067243e-10	-2.777090e+01	-6.175647e+01
9.000000e-07	-3.966022e-06	-9.072206e-10	-2.754813e+01	-6.165065e+01
9.100000e-07	-3.933709e-06	-9.065796e-10	-2.732368e+01	-6.154084e+01
9.200000e-07	-3.901031e-06	-9.024430e-10	-2.709670e+01	-6.142699e+01
9.300000e-07	-3.867875e-06	-9.003023e-10	-2.686640e+01	-6.130906e+01
9.400000e-07	-3.834324e-06	-9.024259e-10	-2.663335e+01	-6.118702e+01
9.500000e-07	-3.800353e-06	-8.974932e-10	-2.639738e+01	-6.106083e+01
9.600000e-07	-3.765895e-06	-8.881330e-10	-2.615804e+01	-6.093045e+01
9.700000e-07	-3.731024e-06	-8.791987e-10	-2.591583e+01	-6.079585e+01
9.800000e-07	-3.695869e-06	-8.723226e-10	-2.567164e+01	-6.065699e+01
9.900000e-07	-3.660463e-06	-8.673713e-10	-2.542571e+01	-6.051385e+01
1.000000e-06	-3.624840e-06	-8.691623e-10	-2.517827e+01	-6.036639e+01
1.010000e-06	-3.589053e-06	-8.735745e-10	-2.492969e+01	-6.021459e+01
1.020000e-06	-3.553124e-06	-8.739005e-10	-2.468012e+01	-6.005843e+01
1.030000e-06	-3.517090e-06	-8.728497e-10	-2.442983e+01	-5.989789e+01
1.040000e-06	-3.480887e-06	-8.702125e-10	-2.417836e+01	-5.973297e+01
1.050000e-06	-3.444377e-06	-8.643960e-10	-2.392477e+01	-5.956369e+01
1.060000e-06	-3.407528e-06	-8.547760e-10	-2.366881e+01	-5.939007e+01
1.070000e-06	-3.370455e-06	-8.501213e-10	-2.341130e+01	-5.921215e+01
1.080000e-06	-3.333153e-06	-8.504132e-10	-2.315220e+01	-5.902998e+01
1.090000e-06	-3.295597e-06	-8.546531e-10	-2.289134e+01	-5.884365e+01
1.100000e-06	-3.257868e-06	-8.553149e-10	-2.262927e+01	-5.865326e+01
1.110000e-06	-3.219922e-06	-8.526844e-10	-2.236569e+01	-5.845892e+01
1.120000e-06	-3.181717e-06	-8.473693e-10	-2.210032e+01	-5.826077e+01
1.130000e-06	-3.143332e-06	-8.427872e-10	-2.183370e+01	-5.805897e+01
1.140000e-06	-3.104686e-06	-8.369268e-10	-2.156526e+01	-5.785370e+01
1.150000e-06	-3.065765e-06	-8.330478e-10	-2.129491e+01	-5.764516e+01
1.160000e-06	-3.026650e-06	-8.295435e-10	-2.102322e+01	-5.743355e+01
1.170000e-06	-2.987415e-06	-8.268203e-10	-2.075069e+01	-5.721909e+01
1.180000e-06	-2.948022e-06	-8.237162e-10	-2.047706e+01	-5.700201e+01
1.190000e-06	-2.908367e-06	-8.241900e-10	-2.020162e+01	-5.678253e+01
1.200000e-06	-2.868624e-06	-8.225927e-10	-1.992556e+01	-5.656090e+01
1.210000e-06	-2.828786e-06	-8.173882e-10	-1.964885e+01	-5.633732e+01
1.220000e-06	-2.788798e-06	-8.121521e-10	-1.937109e+01	-5.611201e+01
1.230000e-06	-2.748673e-06	-8.098649e-10	-1.909238e+01	-5.588516e+01
1.240000e-06	-2.708338e-06	-8.069316e-10	-1.881221e+01	-5.565694e+01
1.250000e-06	-2.667796e-06	-8.051619e-10	-1.853061e+01	-5.542748e+01
1.260000e-06	-2.627021e-06	-8.043997e-10	-1.824738e+01	-5.519689e+01
1.270000e-06	-2.585993e-06	-8.011957e-10	-1.796240e+01	-5.496524e+01
1.280000e-06	-2.544641e-06	-7.967561e-10	-1.767517e+01	-5.473255e+01
1.290000e-06	-2.502995e-06	-7.938522e-10	-1.738589e+01	-5.449880e+01
1.300000e-06	-2.461159e-06	-7.883971e-10	-1.709530e+01	-5.426392e+01
1.310000e-06	-2.419145e-06	-7.808138e-10	-1.680346e+01	-5.402779e+01
1.320000e-06	-2.376853e-06	-7.761842e-10	-1.650971e+01	-5.379022e+01
1.330000e-06	-2.334147e-06	-7.729837e-10	-1.621307e+01	-5.355099e+01
1.340000e-06	-2.291167e-06	-7.711063e-10	-1.591453e+01	-5.330982e+01
1.350000e-06	-2.247998e-06	-7.691216e-10	-1.561467e+01	-5.306638e+01
1.360000e-06	-2.204584e-06	-7.646391e-10	-1.531312e+01	-5.282028e+01
1.370000e-06	-2.160977e-06	-7.567585e-10	-1.501022e+01	-5.257110e+01
1.380000e-06	-2.117242e-06	-7.492223e-10	-1.470644e+01	-5.231837e+01
1.390000e-06	-2.073454e-06	-7.426385e-10	-1.440229e+01	-5.206159e+01
1.400000e-06	-2.029635e-06	-7.392453e-10	-1.409791e+01	-5.180022e+01
1.410000e-06	-1.985772e-06	-7.381730e-10	-1.379325e+01	-5.153372e+01
1.420000e-06	-1.941829e-06	-7.375682e-10	-1.348801e+01	-5.126150e+01
1.430000e-06	-1.897787e-06	-7.345855e-10	-1.318209e+01	-5.098299e+01
1.440000e-06	-1.853639e-06	-7.294462e-10	-1.287544e+01	-5.069759e+01
1.450000e-06	-1.809407e-06	-7.204732e-10	-1.256821e+01	-5.040471e+01
1.460000e-06	-1.765088e-06	-7.118752e-10	-1.226036e+01	-5.010377e+01
1.470000e-06	-1.720619e-06	-7.033691e-10	-1.195148e+01	-4.979421e+01
1.480000e-06	-1.675997e-06	-6.985325e-10	-1.164153e+01	-4.947549e+01
1.490000e-06	-1.631213e-06	-6.935095e-10	-1.133046e+01	-4.914707e+01
1.500000e-06	-1.586319e-06	-6.901868e-10	-1.101863e+01	-4.880846e+01
1.510000e-06	-1.541316e-06	-6.889674e-10	-1.070604e+01	-4.845919e+01
1.520000e-06	-1.496163e-06	-6.865843e-10	-1.039240e+01	-4.809880e+01
1.530000e-06	-1.450913e-06	-6.827433e-10	-1.007809e+01	-4.772690e+01
1.540000e-06	-1.405567e-06	-6.720504e-10	-9.763118e+00	-4.734309e+01
1.550000e-06	-1.360107e-06	-6.597483e-10	-9.447349e+00	-4.694700e+01
1.560000e-06	-1.314580e-06	-6.499269e-10	-9.131116e+00	-4.653828e+01
1.570000e-06	-1.268987e-06	-6.414555e-10	-8.814426e+00	-4.611662e+01
1.580000e-06	-1.223284e-06	-6.325228e-10	-8.496972e+00	-4.568168e+01
1.590000e-06	-1.177442e-06	-6.275016e-10	-8.178555e+00	-4.523315e+01
1.600000e-06	-1.131469e-06	-6.231894e-10	-7.859221e+00	-4.477069e+01
1.610000e-06	-1.085462e-06	-6.160905e-10	-7.539660e+00	-4.429397e+01
1.620000e-06	-1.039440e-06	-6.055983e-10	-7.219989e+00	-4.380263e+01
1.630000e-06	-9.932998e-07	-5.938843e-10	-6.899496e+00	-4.329626e+01
1.640000e-06	-9.470619e-07	-5.834966e-10	-6.578326e+00	-4.277444e+01
1.650000e-06	-9.008290e-07	-5.737618e-10	-6.257190e+00	-4.223669e+01
1.660000e-06	-8.546546e-07	-5.659414e-10	-5.936461e+00	-4.168247e+01
1.670000e-06	-8.084346e-07	-5.588476e-10	-5.615415e+00	-4.111119e+01
1.680000e-06	-7.620551e-07	-5.489665e-10	-5.293262e+00	-4.052219e+01
1.690000e-06	-7.155799e-07	-5.394378e-10	-4.970443e+00	-3.991476e+01
1.700000e-06	-6.691135e-07	-5.283503e-10	-4.647686e+00	-3.928810e+01
1.710000e-06	-6.226533e-07	-5.160228e-10	-4.324972e+00	-3.864136e+01
1.720000e-06	-5.761038e-07	-5.056651e-10	-4.001638e+00	-3.797359e+01
1.730000e-06	-5.294410e-07	-4.982545e-10	-3.677516e+00	-3.728383e+01
1.740000e-06	-4.828017e-07	-4.897237e-10	-3.353558e+00	-3.657102e+01
1.750000e-06	-4.361307e-07	-4.776106e-10	-3.029379e+00	-3.583408e+01
1.760000e-06	-3.893797e-07	-4.646134e-10	-2.704645e+00	-3.507187e+01
1.770000e-06	-3.426923e-07	-4.523484e-10	-2.380353e+00	-3.428324e+01
1.780000e-06	-2.960133e-07	-4.408921e-10	-2.056119e+00	-3.346704e+01
1.790000e-06	-2.492655e-07	-4.302743e-10	-1.731407e+00	-3.262210e+01
1.800000e-06	-2.024735e-07	-4.196879e-10	-1.406388e+00	-3.174729e+01
1.810000e-06	-1.556339e-07	-4.073409e-10	-1.081039e+00	-3.084152e+01
1.820000e-06	-1.087377e-07	-3.957856e-10	-7.552956e-01	-2.990375e+01
1.830000e-06	-6.182308e-08	-3.814079e-10	-4.294253e-01	-2.893303e+01
1.840000e-06	-1.496539e-08	-3.674236e-10	-1.039501e-01	-2.792850e+01
1.850000e-06	3.186792e-08	-3.539559e-10	2.213557e-01	-2.688943e+01
1.860000e-06	7.874224e-08	-3.380556e-10	5.469464e-01	-2.581521e+01
1.870000e-06	1.256012e-07	-3.184787e-10	8.724306e-01	-2.470542e+01
1.880000e-06	1.724062e-07	-2.993472e-10	1.197539e+00	-2.355977e+01
1.890000e-06	2.191805e-07	-2.834933e-10	1.522436e+00	-2.237820e+01
1.900000e-06	2.660506e-07	-2.684284e-10	1.847997e+00	-2.116081e+01
1.910000e-06	3.129180e-07	-2.549583e-10	2.173540e+00	-1.990794e+01
1.920000e-06	3.596622e-07	-2.412548e-10	2.498226e+00	-1.862014e+01
1.930000e-06	4.063376e-07	-2.238975e-10	2.822436e+00	-1.729819e+01
1.940000e-06	4.529414e-07	-2.021907e-10	3.146147e+00	-1.594309e+01
1.950000e-06	4.994661e-07	-1.787448e-10	3.469309e+00	-1.455608e+01
1.960000e-06	5.459579e-07	-1.583717e-10	3.792243e+00	-1.313862e+01
1.970000e-06	5.924536e-07	-1.398196e-10	4.115204e+00	-1.169236e+01
1.980000e-06	6.389615e-07	-1.227605e-10	4.438250e+00	-1.021920e+01
1.990000e-06	6.854217e-07	-1.063766e-10	4.760963e+00	-8.721201e+00
2.000000e-06	7.317782e-07	-8.560526e-11	5.082957e+00	-7.200621e+00
2.010000e-06	7.781031e-07	-6.012560e-11	5.404731e+00	-5.659869e+00
2.020000e-06	8.243828e-07	-3.296380e-11	5.726192e+00	-4.101493e+00
2.030000e-06	8.705660e-07	-9.256211e-12	6.046982e+00	-2.528160e+00
2.040000e-06	9.167468e-07	1.034451e-11	6.367756e+00	-9.426287e-01
2.050000e-06	9.629360e-07	3.034324e-11	6.688587e+00	6.522767e-01
2.060000e-06	1.009083e-06	5.228478e-11	7.009126e+00	2.253691e+00
2.070000e-06	1.055169e-06	7.396610e-11	7.329238e+00	3.858734e+00
2.080000e-06	1.101135e-06	9.616232e-11	7.648521e+00	5.464542e+00
2.090000e-06	1.146984e-06	1.186263e-10	7.966993e+00	7.068287e+00
2.100000e-06	1.192713e-06	1.398415e-10	8.284628e+00	8.667208e+00
2.110000e-06	1.238334e-06	1.597991e-10	8.601512e+00	1.025863e+01
2.120000e-06	1.283959e-06	1.802731e-10	8.918427e+00	1.184000e+01
2.130000e-06	1.329535e-06	2.004412e-10	9.235000e+00	1.340887e+01
2.140000e-06	1.374974e-06	2.208521e-10	9.550615e+00	1.496297e+01
2.150000e-06	1.420379e-06	2.425387e-10	9.866003e+00	1.650018e+01
2.160000e-06	1.465685e-06	2.656790e-10	1.018070e+01	1.801857e+01
2.170000e-06	1.510814e-06	2.874986e-10	1.049417e+01	1.951637e+01
2.180000e-06	1.555821e-06	3.062435e-10	1.080679e+01	2.099203e+01
2.190000e-06	1.600721e-06	3.241261e-10	1.111866e+01	2.244419e+01
2.200000e-06	1.645472e-06	3.427291e-10	1.142950e+01	2.387168e+01
2.210000e-06	1.690095e-06	3.627464e-10	1.173946e+01	2.527352e+01
2.220000e-06	1.734606e-06	3.834760e-10	1.204864e+01	2.664894e+01
2.230000e-06	1.779042e-06	4.032367e-10	1.235729e+01	2.799734e+01
2.240000e-06	1.823322e-06	4.207614e-10	1.266486e+01	2.931827e+01
2.250000e-06	1.867453e-06	4.342521e-10	1.297140e+01	3.061148e+01
2.260000e-06	1.911507e-06	4.485439e-10	1.327739e+01	3.187683e+01
2.270000e-06	1.955452e-06	4.662950e-10	1.358264e+01	3.311432e+01
2.280000e-06	1.999362e-06	4.849868e-10	1.388764e+01	3.432405e+01
2.290000e-06	2.043296e-06	5.043692e-10	1.419280e+01	3.550624e+01
2.300000e-06	2.087199e-06	5.221342e-10	1.449776e+01	3.666115e+01
2.310000e-06	2.130973e-06	5.369558e-10	1.480181e+01	3.778913e+01
2.320000e-06	2.174580e-06	5.494517e-10	1.510471e+01	3.889056e+01
2.330000e-06	2.218030e-06	5.612942e-10	1.540652e+01	3.996583e+01
2.340000e-06	2.261348e-06	5.732447e-10	1.570740e+01	4.101536e+01
2.350000e-06	2.304486e-06	5.855698e-10	1.600704e+01	4.203955e+01
2.360000e-06	2.347368e-06	5.985043e-10	1.630490e+01	4.303879e+01
2.370000e-06	2.389973e-06	6.106361e-10	1.660084e+01	4.401344e+01
2.380000e-06	2.432236e-06	6.231722e-10	1.689440e+01	4.496384e+01
2.390000e-06	2.474203e-06	6.375687e-10	1.718590e+01	4.589026e+01
2.400000e-06	2.515908e-06	6.513992e-10	1.747559e+01	4.679294e+01
2.410000e-06	2.557280e-06	6.645963e-10	1.776296e+01	4.767208e+01
2.420000e-06	2.598306e-06	6.756392e-10	1.804793e+01	4.852782e+01
2.430000e-06	2.639081e-06	6.850468e-10	1.833115e+01	4.936026e+01
2.440000e-06	2.679673e-06	6.937933e-10	1.861310e+01	5.016946e+01
2.450000e-06	2.720017e-06	7.021401e-10	1.889334e+01	5.095544e+01
2.460000e-06	2.760201e-06	7.119862e-10	1.917245e+01	5.171821e+01
2.470000e-06	2.800229e-06	7.246324e-10	1.945049e+01	5.245773e+01
2.480000e-06	2.840146e-06	7.380402e-10	1.972775e+01	5.317399e+01
2.490000e-06	2.879987e-06	7.504819e-10	2.000449e+01	5.386695e+01
2.500000e-06	2.919660e-06	7.614279e-10	2.028006e+01	5.453659e+01
2.510000e-06	2.959172e-06	7.688131e-10	2.055451e+01	5.518291e+01
2.520000e-06	2.998517e-06	7.737130e-10	2.082780e+01	5.580596e+01
2.530000e-06	3.037617e-06	7.782835e-10	2.109940e+01	5.640580e+01
2.540000e-06	3.076465e-06	7.841439e-10	2.136924e+01	5.698257e+01
2.550000e-06	3.115162e-06	7.917064e-10	2.163803e+01	5.753644e+01
2.560000e-06	3.153620e-06	8.009197e-10	2.190515e+01	5.806766e+01
2.570000e-06	3.191824e-06	8.111091e-10	2.217052e+01	5.857654e+01
2.580000e-06	3.229886e-06	8.188804e-10	2.243490e+01	5.906348e+01
2.590000e-06	3.267763e-06	8.247756e-10	2.269800e+01	5.952893e+01
2.600000e-06	3.305463e-06	8.303105e-10	2.295987e+01	5.997341e+01
2.610000e-06	3.342925e-06	8.338246e-10	2.322007e+01	6.039754e+01
2.620000e-06	3.380136e-06	8.362884e-10	2.347854e+01	6.080198e+01
2.630000e-06	3.417114e-06	8.413396e-10	2.373539e+01	6.118747e+01
2.640000e-06	3.453818e-06	8.490141e-10	2.399034e+01	6.155477e+01
2.650000e-06	3.490244e-06	8.563055e-10	2.424336e+01	6.190473e+01
2.660000e-06	3.526435e-06	8.628376e-10	2.449474e+01	6.223821e+01
2.670000e-06	3.562459e-06	8.689389e-10	2.474497e+01	6.255611e+01
2.680000e-06	3.598299e-06	8.730861e-10	2.499391e+01	6.285933e+01
2.690000e-06	3.634013e-06	8.750841e-10	2.524198e+01	6.314880e+01
2.700000e-06	3.669580e-06	8.765853e-10	2.548904e+01	6.342543e+01
2.710000e-06	3.704984e-06	8.788918e-10	2.573495e+01	6.369010e+01
2.720000e-06	3.740110e-06	8.825510e-10	2.597894e+01	6.394367e+01
2.730000e-06	3.774757e-06	8.867813e-10	2.621959e+01	6.418698e+01
2.740000e-06	3.808996e-06	8.919554e-10	2.645742e+01	6.442081e+01
2.750000e-06	3.842884e-06	8.989055e-10	2.669281e+01	6.464587e+01
2.760000e-06	3.876380e-06	9.048844e-10	2.692547e+01	6.486282e+01
2.770000e-06	3.909364e-06	9.093930e-10	2.715458e+01	6.507226e+01
2.780000e-06	3.941845e-06	9.145998e-10	2.738019e+01	6.527471e+01
2.790000e-06	3.974062e-06	9.205320e-10	2.760398e+01	6.547061e+01
2.800000e-06	4.006127e-06	9.251870e-10	2.782670e+01	6.566033e+01
2.810000e-06	4.038020e-06	9.269739e-10	2.804823e+01	6.584417e+01
2.820000e-06	4.069756e-06	9.291175e-10	2.826867e+01	6.602236e+01
2.830000e-06	4.101314e-06	9.321008e-10	2.848787e+01	6.619506e+01
2.840000e-06	4.132576e-06	9.373939e-10	2.870502e+01	6.636236e+01
2.850000e-06	4.163545e-06	9.421297e-10	2.892013e+01	6.652431e+01
2.860000e-06	4.194239e-06	9.453571e-10	2.913333e+01	6.668091e+01
2.870000e-06	4.224644e-06	9.496265e-10	2.934453e+01	6.683211e+01
2.880000e-06	4.254791e-06	9.539784e-10	2.955393e+01	6.697784e+01
2.890000e-06	4.284666e-06	9.596818e-10	2.976144e+01	6.711802e+01
2.900000e-06	4.314248e-06	9.637673e-10	2.996692e+01	6.725254e+01
