# Temperatura_=_12.94
# Concentracion g/m^3_=_1620.0
# C_Vs_to_Am_M_A/Vsm_=_65563218390.804596
# pendiente_HvsI_1/m_=_3716.3
# ordenada_HvsI_A/m_=_1297.0
# frecuencia_Hz_=_135101.30251451425

Tiempo_(s)	Campo_(V.s)	Magnetizacion_(V.s)	Campo_(kA/m)	Magnetizacion_(A/m)
0.000000e+00	-5.532029e-06	-1.478429e-09	-3.837156e+01	-9.875610e+01
1.000000e-08	-5.532254e-06	-1.479447e-09	-3.837312e+01	-9.876986e+01
2.000000e-08	-5.532200e-06	-1.478624e-09	-3.837275e+01	-9.878160e+01
3.000000e-08	-5.531811e-06	-1.473500e-09	-3.837005e+01	-9.879112e+01
4.000000e-08	-5.530989e-06	-1.467114e-09	-3.836434e+01	-9.879821e+01
5.000000e-08	-5.529626e-06	-1.463571e-09	-3.835489e+01	-9.880263e+01
6.000000e-08	-5.527632e-06	-1.470263e-09	-3.834106e+01	-9.880410e+01
7.000000e-08	-5.524986e-06	-1.473527e-09	-3.832271e+01	-9.880229e+01
8.000000e-08	-5.521877e-06	-1.448608e-09	-3.830114e+01	-9.879688e+01
9.000000e-08	-5.518319e-06	-1.423618e-09	-3.827646e+01	-9.878747e+01
1.000000e-07	-5.514317e-06	-1.467847e-09	-3.824870e+01	-9.877365e+01
1.100000e-07	-5.509891e-06	-1.525426e-09	-3.821800e+01	-9.875498e+01
1.200000e-07	-5.505195e-06	-1.482713e-09	-3.818543e+01	-9.873100e+01
1.300000e-07	-5.500360e-06	-1.416884e-09	-3.815189e+01	-9.870122e+01
1.400000e-07	-5.495192e-06	-1.424596e-09	-3.811605e+01	-9.866515e+01
1.500000e-07	-5.489554e-06	-1.494320e-09	-3.807694e+01	-9.862228e+01
1.600000e-07	-5.483582e-06	-1.492834e-09	-3.803552e+01	-9.857211e+01
1.700000e-07	-5.477250e-06	-1.439057e-09	-3.799159e+01	-9.851414e+01
1.800000e-07	-5.470457e-06	-1.457781e-09	-3.794448e+01	-9.844789e+01
1.900000e-07	-5.463283e-06	-1.507154e-09	-3.789472e+01	-9.837293e+01
2.000000e-07	-5.455771e-06	-1.500761e-09	-3.784261e+01	-9.828882e+01
2.100000e-07	-5.447987e-06	-1.433047e-09	-3.778862e+01	-9.819521e+01
2.200000e-07	-5.439966e-06	-1.435504e-09	-3.773298e+01	-9.809177e+01
2.300000e-07	-5.431653e-06	-1.475870e-09	-3.767532e+01	-9.797825e+01
2.400000e-07	-5.422925e-06	-1.496041e-09	-3.761479e+01	-9.785447e+01
2.500000e-07	-5.413549e-06	-1.471903e-09	-3.754975e+01	-9.772031e+01
2.600000e-07	-5.403503e-06	-1.462798e-09	-3.748007e+01	-9.757574e+01
2.700000e-07	-5.392852e-06	-1.454074e-09	-3.740619e+01	-9.742081e+01
2.800000e-07	-5.381593e-06	-1.444699e-09	-3.732809e+01	-9.725567e+01
2.900000e-07	-5.369891e-06	-1.434708e-09	-3.724693e+01	-9.708055e+01
3.000000e-07	-5.357874e-06	-1.435446e-09	-3.716357e+01	-9.689577e+01
3.100000e-07	-5.345526e-06	-1.447271e-09	-3.707793e+01	-9.670173e+01
3.200000e-07	-5.332766e-06	-1.458298e-09	-3.698942e+01	-9.649892e+01
3.300000e-07	-5.319595e-06	-1.452548e-09	-3.689806e+01	-9.628792e+01
3.400000e-07	-5.306042e-06	-1.432311e-09	-3.680405e+01	-9.606936e+01
3.500000e-07	-5.292081e-06	-1.426042e-09	-3.670722e+01	-9.584396e+01
3.600000e-07	-5.277586e-06	-1.415233e-09	-3.660667e+01	-9.561248e+01
3.700000e-07	-5.262666e-06	-1.406099e-09	-3.650319e+01	-9.537573e+01
3.800000e-07	-5.247339e-06	-1.421071e-09	-3.639688e+01	-9.513456e+01
3.900000e-07	-5.231413e-06	-1.430842e-09	-3.628641e+01	-9.488984e+01
4.000000e-07	-5.215096e-06	-1.399213e-09	-3.617323e+01	-9.464244e+01
4.100000e-07	-5.198428e-06	-1.395609e-09	-3.605762e+01	-9.439325e+01
4.200000e-07	-5.181356e-06	-1.426309e-09	-3.593920e+01	-9.414313e+01
4.300000e-07	-5.163978e-06	-1.412457e-09	-3.581867e+01	-9.389292e+01
4.400000e-07	-5.146303e-06	-1.368174e-09	-3.569607e+01	-9.364341e+01
4.500000e-07	-5.128327e-06	-1.395835e-09	-3.557138e+01	-9.339537e+01
4.600000e-07	-5.109839e-06	-1.414644e-09	-3.544314e+01	-9.314948e+01
4.700000e-07	-5.090893e-06	-1.375956e-09	-3.531172e+01	-9.290635e+01
4.800000e-07	-5.071730e-06	-1.367687e-09	-3.517880e+01	-9.266653e+01
4.900000e-07	-5.052265e-06	-1.411152e-09	-3.504379e+01	-9.243048e+01
5.000000e-07	-5.032534e-06	-1.391071e-09	-3.490693e+01	-9.219855e+01
5.100000e-07	-5.012671e-06	-1.365054e-09	-3.476916e+01	-9.197102e+01
5.200000e-07	-4.992535e-06	-1.390380e-09	-3.462949e+01	-9.174807e+01
5.300000e-07	-4.971975e-06	-1.393091e-09	-3.448688e+01	-9.152976e+01
5.400000e-07	-4.950936e-06	-1.352657e-09	-3.434095e+01	-9.131608e+01
5.500000e-07	-4.929490e-06	-1.361474e-09	-3.419220e+01	-9.110693e+01
5.600000e-07	-4.907757e-06	-1.373409e-09	-3.404145e+01	-9.090209e+01
5.700000e-07	-4.885713e-06	-1.344227e-09	-3.388855e+01	-9.070128e+01
5.800000e-07	-4.863385e-06	-1.340583e-09	-3.373367e+01	-9.050415e+01
5.900000e-07	-4.840758e-06	-1.372371e-09	-3.357673e+01	-9.031027e+01
6.000000e-07	-4.817773e-06	-1.362161e-09	-3.341729e+01	-9.011916e+01
6.100000e-07	-4.794463e-06	-1.336981e-09	-3.325561e+01	-8.993027e+01
6.200000e-07	-4.770903e-06	-1.343439e-09	-3.309219e+01	-8.974304e+01
6.300000e-07	-4.747145e-06	-1.338615e-09	-3.292740e+01	-8.955686e+01
6.400000e-07	-4.723140e-06	-1.317162e-09	-3.276089e+01	-8.937112e+01
6.500000e-07	-4.698725e-06	-1.320103e-09	-3.259155e+01	-8.918519e+01
6.600000e-07	-4.673745e-06	-1.329354e-09	-3.241828e+01	-8.899845e+01
6.700000e-07	-4.648315e-06	-1.317055e-09	-3.224189e+01	-8.881030e+01
6.800000e-07	-4.622468e-06	-1.312764e-09	-3.206261e+01	-8.862013e+01
6.900000e-07	-4.596065e-06	-1.317471e-09	-3.187947e+01	-8.842740e+01
7.000000e-07	-4.569200e-06	-1.309122e-09	-3.169313e+01	-8.823159e+01
7.100000e-07	-4.541948e-06	-1.291910e-09	-3.150410e+01	-8.803220e+01
7.200000e-07	-4.514426e-06	-1.289275e-09	-3.131320e+01	-8.782882e+01
7.300000e-07	-4.486747e-06	-1.290162e-09	-3.112122e+01	-8.762106e+01
7.400000e-07	-4.458868e-06	-1.290411e-09	-3.092784e+01	-8.740858e+01
7.500000e-07	-4.430790e-06	-1.287214e-09	-3.073308e+01	-8.719111e+01
7.600000e-07	-4.402384e-06	-1.286188e-09	-3.053605e+01	-8.696842e+01
7.700000e-07	-4.373593e-06	-1.279337e-09	-3.033635e+01	-8.674034e+01
7.800000e-07	-4.344546e-06	-1.270555e-09	-3.013488e+01	-8.650675e+01
7.900000e-07	-4.315203e-06	-1.260518e-09	-2.993134e+01	-8.626755e+01
8.000000e-07	-4.285537e-06	-1.257794e-09	-2.972557e+01	-8.602272e+01
8.100000e-07	-4.255603e-06	-1.253175e-09	-2.951794e+01	-8.577224e+01
8.200000e-07	-4.225417e-06	-1.250363e-09	-2.930857e+01	-8.551615e+01
8.300000e-07	-4.194957e-06	-1.247899e-09	-2.909729e+01	-8.525448e+01
8.400000e-07	-4.164157e-06	-1.244475e-09	-2.888365e+01	-8.498732e+01
8.500000e-07	-4.133044e-06	-1.237152e-09	-2.866785e+01	-8.471474e+01
8.600000e-07	-4.101719e-06	-1.231279e-09	-2.845057e+01	-8.443684e+01
8.700000e-07	-4.070196e-06	-1.224517e-09	-2.823191e+01	-8.415370e+01
8.800000e-07	-4.038426e-06	-1.218948e-09	-2.801155e+01	-8.386543e+01
8.900000e-07	-4.006509e-06	-1.214615e-09	-2.779016e+01	-8.357210e+01
9.000000e-07	-3.974413e-06	-1.211763e-09	-2.756754e+01	-8.327380e+01
9.100000e-07	-3.941991e-06	-1.209710e-09	-2.734265e+01	-8.297058e+01
9.200000e-07	-3.909188e-06	-1.207143e-09	-2.711512e+01	-8.266251e+01
9.300000e-07	-3.876003e-06	-1.201715e-09	-2.688494e+01	-8.234960e+01
9.400000e-07	-3.842428e-06	-1.193697e-09	-2.665206e+01	-8.203188e+01
9.500000e-07	-3.808272e-06	-1.187090e-09	-2.641514e+01	-8.170937e+01
9.600000e-07	-3.773628e-06	-1.178506e-09	-2.617484e+01	-8.138204e+01
9.700000e-07	-3.738655e-06	-1.166904e-09	-2.593226e+01	-8.104987e+01
9.800000e-07	-3.703337e-06	-1.157612e-09	-2.568729e+01	-8.071285e+01
9.900000e-07	-3.667791e-06	-1.152886e-09	-2.544073e+01	-8.037093e+01
1.000000e-06	-3.632116e-06	-1.145800e-09	-2.519328e+01	-8.002406e+01
1.010000e-06	-3.596331e-06	-1.140149e-09	-2.494507e+01	-7.967222e+01
1.020000e-06	-3.560417e-06	-1.137580e-09	-2.469595e+01	-7.931537e+01
1.030000e-06	-3.524302e-06	-1.137079e-09	-2.444546e+01	-7.895348e+01
1.040000e-06	-3.488009e-06	-1.134065e-09	-2.419371e+01	-7.858652e+01
1.050000e-06	-3.451511e-06	-1.130632e-09	-2.394056e+01	-7.821450e+01
1.060000e-06	-3.414685e-06	-1.122717e-09	-2.368512e+01	-7.783742e+01
1.070000e-06	-3.377576e-06	-1.114249e-09	-2.342773e+01	-7.745531e+01
1.080000e-06	-3.340217e-06	-1.109683e-09	-2.316859e+01	-7.706822e+01
1.090000e-06	-3.302556e-06	-1.108245e-09	-2.290737e+01	-7.667621e+01
1.100000e-06	-3.264627e-06	-1.103056e-09	-2.264428e+01	-7.627937e+01
1.110000e-06	-3.226508e-06	-1.097572e-09	-2.237988e+01	-7.587780e+01
1.120000e-06	-3.188178e-06	-1.092596e-09	-2.211401e+01	-7.547161e+01
1.130000e-06	-3.149649e-06	-1.086448e-09	-2.184677e+01	-7.506094e+01
1.140000e-06	-3.110947e-06	-1.076309e-09	-2.157832e+01	-7.464595e+01
1.150000e-06	-3.072014e-06	-1.068907e-09	-2.130827e+01	-7.422677e+01
1.160000e-06	-3.032918e-06	-1.063171e-09	-2.103709e+01	-7.380356e+01
1.170000e-06	-2.993691e-06	-1.056387e-09	-2.076500e+01	-7.337649e+01
1.180000e-06	-2.954231e-06	-1.050592e-09	-2.049130e+01	-7.294570e+01
1.190000e-06	-2.914574e-06	-1.047427e-09	-2.021622e+01	-7.251133e+01
1.200000e-06	-2.874827e-06	-1.040601e-09	-1.994053e+01	-7.207351e+01
1.210000e-06	-2.835030e-06	-1.029133e-09	-1.966449e+01	-7.163234e+01
1.220000e-06	-2.795073e-06	-1.020779e-09	-1.938734e+01	-7.118790e+01
1.230000e-06	-2.754869e-06	-1.016168e-09	-1.910847e+01	-7.074025e+01
1.240000e-06	-2.714419e-06	-1.012691e-09	-1.882790e+01	-7.028940e+01
1.250000e-06	-2.673766e-06	-1.009608e-09	-1.854592e+01	-6.983533e+01
1.260000e-06	-2.632921e-06	-1.005201e-09	-1.826261e+01	-6.937800e+01
1.270000e-06	-2.591740e-06	-9.953023e-10	-1.797697e+01	-6.891731e+01
1.280000e-06	-2.550226e-06	-9.845770e-10	-1.768901e+01	-6.845312e+01
1.290000e-06	-2.508497e-06	-9.753317e-10	-1.739957e+01	-6.798525e+01
1.300000e-06	-2.466501e-06	-9.655890e-10	-1.710828e+01	-6.751350e+01
1.310000e-06	-2.424181e-06	-9.577187e-10	-1.681473e+01	-6.703760e+01
1.320000e-06	-2.381552e-06	-9.546866e-10	-1.651905e+01	-6.655727e+01
1.330000e-06	-2.338661e-06	-9.476339e-10	-1.622155e+01	-6.607218e+01
1.340000e-06	-2.295565e-06	-9.373161e-10	-1.592262e+01	-6.558198e+01
1.350000e-06	-2.252381e-06	-9.275664e-10	-1.562309e+01	-6.508630e+01
1.360000e-06	-2.209025e-06	-9.178887e-10	-1.532236e+01	-6.458472e+01
1.370000e-06	-2.165439e-06	-9.053234e-10	-1.502003e+01	-6.407685e+01
1.380000e-06	-2.121757e-06	-8.947323e-10	-1.471704e+01	-6.356224e+01
1.390000e-06	-2.078014e-06	-8.858652e-10	-1.441363e+01	-6.304046e+01
1.400000e-06	-2.034224e-06	-8.769726e-10	-1.410990e+01	-6.251109e+01
1.410000e-06	-1.990337e-06	-8.691581e-10	-1.380549e+01	-6.197368e+01
1.420000e-06	-1.946359e-06	-8.617781e-10	-1.350044e+01	-6.142780e+01
1.430000e-06	-1.902287e-06	-8.516474e-10	-1.319474e+01	-6.087304e+01
1.440000e-06	-1.858110e-06	-8.403334e-10	-1.288832e+01	-6.030899e+01
1.450000e-06	-1.813870e-06	-8.298611e-10	-1.258146e+01	-5.973525e+01
1.460000e-06	-1.769495e-06	-8.190141e-10	-1.227366e+01	-5.915143e+01
1.470000e-06	-1.724990e-06	-8.071451e-10	-1.196497e+01	-5.855717e+01
1.480000e-06	-1.680400e-06	-7.968974e-10	-1.165568e+01	-5.795211e+01
1.490000e-06	-1.635637e-06	-7.886667e-10	-1.134520e+01	-5.733590e+01
1.500000e-06	-1.590723e-06	-7.807592e-10	-1.103366e+01	-5.670819e+01
1.510000e-06	-1.545648e-06	-7.732057e-10	-1.072101e+01	-5.606864e+01
1.520000e-06	-1.500375e-06	-7.647419e-10	-1.040698e+01	-5.541690e+01
1.530000e-06	-1.455005e-06	-7.534043e-10	-1.009228e+01	-5.475264e+01
1.540000e-06	-1.409585e-06	-7.410566e-10	-9.777237e+00	-5.407547e+01
1.550000e-06	-1.364083e-06	-7.299902e-10	-9.461623e+00	-5.338501e+01
1.560000e-06	-1.318522e-06	-7.174231e-10	-9.145604e+00	-5.268085e+01
1.570000e-06	-1.272873e-06	-7.046364e-10	-8.828969e+00	-5.196255e+01
1.580000e-06	-1.227070e-06	-6.925153e-10	-8.511271e+00	-5.122962e+01
1.590000e-06	-1.181193e-06	-6.819270e-10	-8.193056e+00	-5.048153e+01
1.600000e-06	-1.135273e-06	-6.719585e-10	-7.874544e+00	-4.971771e+01
1.610000e-06	-1.089327e-06	-6.609667e-10	-7.555845e+00	-4.893751e+01
1.620000e-06	-1.043230e-06	-6.494455e-10	-7.236108e+00	-4.814027e+01
1.630000e-06	-9.970099e-07	-6.377536e-10	-6.915514e+00	-4.732523e+01
1.640000e-06	-9.507649e-07	-6.246770e-10	-6.594746e+00	-4.649158e+01
1.650000e-06	-9.044566e-07	-6.113107e-10	-6.273541e+00	-4.563847e+01
1.660000e-06	-8.581064e-07	-5.972559e-10	-5.952044e+00	-4.476498e+01
1.670000e-06	-8.117241e-07	-5.828325e-10	-5.630325e+00	-4.387014e+01
1.680000e-06	-7.652591e-07	-5.678559e-10	-5.308031e+00	-4.295294e+01
1.690000e-06	-7.187001e-07	-5.515612e-10	-4.985086e+00	-4.201233e+01
1.700000e-06	-6.721102e-07	-5.347460e-10	-4.661927e+00	-4.104722e+01
1.710000e-06	-6.255283e-07	-5.199614e-10	-4.338823e+00	-4.005652e+01
1.720000e-06	-5.789239e-07	-5.064574e-10	-4.015563e+00	-3.903913e+01
1.730000e-06	-5.322336e-07	-4.924339e-10	-3.691708e+00	-3.799393e+01
1.740000e-06	-4.854662e-07	-4.766550e-10	-3.367317e+00	-3.691986e+01
1.750000e-06	-4.386222e-07	-4.596053e-10	-3.042395e+00	-3.581587e+01
1.760000e-06	-3.917957e-07	-4.408835e-10	-2.717594e+00	-3.468096e+01
1.770000e-06	-3.449692e-07	-4.229233e-10	-2.392794e+00	-3.351420e+01
1.780000e-06	-2.980509e-07	-4.059953e-10	-2.067357e+00	-3.231476e+01
1.790000e-06	-2.511009e-07	-3.894626e-10	-1.741700e+00	-3.108187e+01
1.800000e-06	-2.041608e-07	-3.744379e-10	-1.416111e+00	-2.981491e+01
1.810000e-06	-1.572088e-07	-3.589293e-10	-1.090440e+00	-2.851336e+01
1.820000e-06	-1.102777e-07	-3.426490e-10	-7.649140e-01	-2.717686e+01
1.830000e-06	-6.334754e-08	-3.250331e-10	-4.393946e-01	-2.580520e+01
1.840000e-06	-1.641820e-08	-3.067357e-10	-1.138808e-01	-2.439831e+01
1.850000e-06	3.052513e-08	-2.878352e-10	2.117301e-01	-2.295633e+01
1.860000e-06	7.738786e-08	-2.673136e-10	5.367818e-01	-2.147955e+01
1.870000e-06	1.241978e-07	-2.453451e-10	8.614673e-01	-1.996847e+01
1.880000e-06	1.711173e-07	-2.232379e-10	1.186913e+00	-1.842375e+01
1.890000e-06	2.181182e-07	-2.022389e-10	1.512923e+00	-1.684625e+01
1.900000e-06	2.651301e-07	-1.826038e-10	1.839010e+00	-1.523704e+01
1.910000e-06	3.120814e-07	-1.614003e-10	2.164676e+00	-1.359734e+01
1.920000e-06	3.589703e-07	-1.390795e-10	2.489909e+00	-1.192856e+01
1.930000e-06	4.057644e-07	-1.155221e-10	2.814485e+00	-1.023230e+01
1.940000e-06	4.524604e-07	-8.815907e-11	3.138380e+00	-8.510280e+00
1.950000e-06	4.991907e-07	-6.128952e-11	3.462514e+00	-6.764405e+00
1.960000e-06	5.459347e-07	-3.825018e-11	3.786742e+00	-4.996699e+00
1.970000e-06	5.926152e-07	-1.822553e-11	4.110530e+00	-3.209308e+00
1.980000e-06	6.392226e-07	4.457110e-12	4.433811e+00	-1.404486e+00
1.990000e-06	6.856924e-07	3.035881e-11	4.756136e+00	4.154306e-01
2.000000e-06	7.321022e-07	6.010511e-11	5.078047e+00	2.248031e+00
2.010000e-06	7.785837e-07	9.288728e-11	5.400454e+00	4.090853e+00
2.020000e-06	8.250716e-07	1.225700e-10	5.722906e+00	5.941403e+00
2.030000e-06	8.714715e-07	1.471598e-10	6.044748e+00	7.797170e+00
2.040000e-06	9.177909e-07	1.677435e-10	6.366030e+00	9.655644e+00
2.050000e-06	9.639813e-07	1.913024e-10	6.686419e+00	1.151434e+01
2.060000e-06	1.010023e-06	2.193244e-10	7.005777e+00	1.337080e+01
2.070000e-06	1.056011e-06	2.479520e-10	7.324762e+00	1.522261e+01
2.080000e-06	1.101968e-06	2.794296e-10	7.643530e+00	1.706746e+01
2.090000e-06	1.147843e-06	3.102357e-10	7.961730e+00	1.890306e+01
2.100000e-06	1.193645e-06	3.358076e-10	8.279426e+00	2.072727e+01
2.110000e-06	1.239395e-06	3.582059e-10	8.596757e+00	2.253799e+01
2.120000e-06	1.285100e-06	3.790265e-10	8.913782e+00	2.433327e+01
2.130000e-06	1.330690e-06	3.998093e-10	9.230002e+00	2.611127e+01
2.140000e-06	1.376139e-06	4.192602e-10	9.545246e+00	2.787024e+01
2.150000e-06	1.421528e-06	4.423532e-10	9.860076e+00	2.960859e+01
2.160000e-06	1.466862e-06	4.707148e-10	1.017453e+01	3.132483e+01
2.170000e-06	1.512083e-06	4.998112e-10	1.048819e+01	3.301761e+01
2.180000e-06	1.557175e-06	5.249682e-10	1.080096e+01	3.468569e+01
2.190000e-06	1.602063e-06	5.456122e-10	1.111232e+01	3.632798e+01
2.200000e-06	1.646756e-06	5.637018e-10	1.142232e+01	3.794348e+01
2.210000e-06	1.691363e-06	5.792557e-10	1.173173e+01	3.953132e+01
2.220000e-06	1.735875e-06	5.945989e-10	1.204047e+01	4.109076e+01
2.230000e-06	1.780257e-06	6.133993e-10	1.234831e+01	4.262114e+01
2.240000e-06	1.824498e-06	6.356436e-10	1.265518e+01	4.412193e+01
2.250000e-06	1.868654e-06	6.582482e-10	1.296146e+01	4.559266e+01
2.260000e-06	1.912770e-06	6.798777e-10	1.326746e+01	4.703299e+01
2.270000e-06	1.956793e-06	7.007971e-10	1.357282e+01	4.844266e+01
2.280000e-06	2.000695e-06	7.197360e-10	1.387733e+01	4.982145e+01
2.290000e-06	2.044524e-06	7.376079e-10	1.418134e+01	5.116928e+01
2.300000e-06	2.088289e-06	7.534917e-10	1.448490e+01	5.248608e+01
2.310000e-06	2.131978e-06	7.679541e-10	1.478794e+01	5.377188e+01
2.320000e-06	2.175560e-06	7.842652e-10	1.509024e+01	5.502677e+01
2.330000e-06	2.219077e-06	8.015111e-10	1.539208e+01	5.625087e+01
2.340000e-06	2.262531e-06	8.189153e-10	1.569349e+01	5.744438e+01
2.350000e-06	2.305803e-06	8.364846e-10	1.599364e+01	5.860754e+01
2.360000e-06	2.348937e-06	8.529983e-10	1.629282e+01	5.974063e+01
2.370000e-06	2.391882e-06	8.662773e-10	1.659070e+01	6.084399e+01
2.380000e-06	2.434476e-06	8.780489e-10	1.688614e+01	6.191798e+01
2.390000e-06	2.476688e-06	8.906231e-10	1.717893e+01	6.296301e+01
2.400000e-06	2.518638e-06	9.049131e-10	1.746991e+01	6.397953e+01
2.410000e-06	2.560265e-06	9.198395e-10	1.775865e+01	6.496801e+01
2.420000e-06	2.601517e-06	9.352394e-10	1.804478e+01	6.592898e+01
2.430000e-06	2.642489e-06	9.505269e-10	1.832897e+01	6.686297e+01
2.440000e-06	2.683196e-06	9.639804e-10	1.861133e+01	6.777055e+01
2.450000e-06	2.723669e-06	9.741402e-10	1.889206e+01	6.865231e+01
2.460000e-06	2.763956e-06	9.832936e-10	1.917150e+01	6.950886e+01
2.470000e-06	2.804124e-06	9.934015e-10	1.945012e+01	7.034085e+01
2.480000e-06	2.844125e-06	1.004144e-09	1.972757e+01	7.114892e+01
2.490000e-06	2.883958e-06	1.016502e-09	2.000386e+01	7.193372e+01
2.500000e-06	2.923691e-06	1.030403e-09	2.027946e+01	7.269594e+01
2.510000e-06	2.963271e-06	1.043044e-09	2.055400e+01	7.343624e+01
2.520000e-06	3.002626e-06	1.053834e-09	2.082698e+01	7.415530e+01
2.530000e-06	3.041824e-06	1.064404e-09	2.109887e+01	7.485379e+01
2.540000e-06	3.080878e-06	1.072917e-09	2.136975e+01	7.553236e+01
2.550000e-06	3.119639e-06	1.078908e-09	2.163861e+01	7.619169e+01
2.560000e-06	3.158190e-06	1.085061e-09	2.190601e+01	7.683239e+01
2.570000e-06	3.196626e-06	1.092517e-09	2.217261e+01	7.745509e+01
2.580000e-06	3.234833e-06	1.101657e-09	2.243762e+01	7.806038e+01
2.590000e-06	3.272745e-06	1.112367e-09	2.270059e+01	7.864884e+01
2.600000e-06	3.310352e-06	1.122048e-09	2.296144e+01	7.922101e+01
2.610000e-06	3.347732e-06	1.128889e-09	2.322072e+01	7.977741e+01
2.620000e-06	3.384946e-06	1.134330e-09	2.347885e+01	8.031852e+01
2.630000e-06	3.421943e-06	1.140195e-09	2.373547e+01	8.084480e+01
2.640000e-06	3.458585e-06	1.147168e-09	2.398963e+01	8.135668e+01
2.650000e-06	3.494893e-06	1.156880e-09	2.424146e+01	8.185454e+01
2.660000e-06	3.531042e-06	1.167794e-09	2.449220e+01	8.233877e+01
2.670000e-06	3.567040e-06	1.176416e-09	2.474189e+01	8.280970e+01
2.680000e-06	3.602912e-06	1.182005e-09	2.499071e+01	8.326765e+01
2.690000e-06	3.638688e-06	1.187868e-09	2.523886e+01	8.371293e+01
2.700000e-06	3.674281e-06	1.194074e-09	2.548575e+01	8.414580e+01
2.710000e-06	3.709707e-06	1.199592e-09	2.573147e+01	8.456655e+01
2.720000e-06	3.744975e-06	1.206029e-09	2.597610e+01	8.497543e+01
2.730000e-06	3.779898e-06	1.212794e-09	2.621834e+01	8.537269e+01
2.740000e-06	3.814351e-06	1.219489e-09	2.645730e+01	8.575860e+01
2.750000e-06	3.848402e-06	1.227139e-09	2.669350e+01	8.613341e+01
2.760000e-06	3.881988e-06	1.234682e-09	2.692645e+01	8.649740e+01
2.770000e-06	3.915119e-06	1.240657e-09	2.715626e+01	8.685084e+01
2.780000e-06	3.947772e-06	1.245742e-09	2.738275e+01	8.719402e+01
2.790000e-06	3.979999e-06	1.251599e-09	2.760628e+01	8.752726e+01
2.800000e-06	4.012056e-06	1.257656e-09	2.782864e+01	8.785089e+01
2.810000e-06	4.044019e-06	1.263208e-09	2.805035e+01	8.816526e+01
2.820000e-06	4.075866e-06	1.268955e-09	2.827124e+01	8.847074e+01
2.830000e-06	4.107496e-06	1.274042e-09	2.849064e+01	8.876774e+01
2.840000e-06	4.138845e-06	1.278704e-09	2.870808e+01	8.905666e+01
2.850000e-06	4.169930e-06	1.283979e-09	2.892369e+01	8.933794e+01
2.860000e-06	4.200723e-06	1.290766e-09	2.913728e+01	8.961202e+01
2.870000e-06	4.231193e-06	1.296797e-09	2.934863e+01	8.987936e+01
2.880000e-06	4.261268e-06	1.299969e-09	2.955724e+01	9.014043e+01
2.890000e-06	4.290975e-06	1.303233e-09	2.976329e+01	9.039569e+01
2.900000e-06	4.320448e-06	1.307878e-09	2.996773e+01	9.064562e+01
