# Temperatura_=_-7.99
# Concentracion g/m^3_=_1620.0
# C_Vs_to_Am_M_A/Vsm_=_65563218390.804596
# pendiente_HvsI_1/m_=_3716.3
# ordenada_HvsI_A/m_=_1297.0
# frecuencia_Hz_=_135109.04313687686

Tiempo_(s)	Campo_(V.s)	Magnetizacion_(V.s)	Campo_(kA/m)	Magnetizacion_(A/m)
0.000000e+00	-5.523921e-06	-1.040348e-09	-3.835824e+01	-7.044067e+01
1.000000e-08	-5.524170e-06	-1.039615e-09	-3.835996e+01	-7.039353e+01
2.000000e-08	-5.524100e-06	-1.038646e-09	-3.835948e+01	-7.034985e+01
3.000000e-08	-5.523584e-06	-1.037949e-09	-3.835590e+01	-7.030988e+01
4.000000e-08	-5.522488e-06	-1.035977e-09	-3.834829e+01	-7.027383e+01
5.000000e-08	-5.520783e-06	-1.030324e-09	-3.833645e+01	-7.024184e+01
6.000000e-08	-5.518466e-06	-1.016836e-09	-3.832036e+01	-7.021395e+01
7.000000e-08	-5.515556e-06	-1.005994e-09	-3.830015e+01	-7.019012e+01
8.000000e-08	-5.512214e-06	-1.035131e-09	-3.827695e+01	-7.017025e+01
9.000000e-08	-5.508529e-06	-1.084988e-09	-3.825136e+01	-7.015412e+01
1.000000e-07	-5.504375e-06	-1.063146e-09	-3.822251e+01	-7.014145e+01
1.100000e-07	-5.499872e-06	-9.843947e-10	-3.819124e+01	-7.013188e+01
1.200000e-07	-5.495276e-06	-9.745200e-10	-3.815933e+01	-7.012498e+01
1.300000e-07	-5.490438e-06	-1.045469e-09	-3.812573e+01	-7.012023e+01
1.400000e-07	-5.485119e-06	-1.076405e-09	-3.808880e+01	-7.011706e+01
1.500000e-07	-5.479325e-06	-9.864945e-10	-3.804856e+01	-7.011486e+01
1.600000e-07	-5.473322e-06	-9.817173e-10	-3.800688e+01	-7.011297e+01
1.700000e-07	-5.466882e-06	-1.040780e-09	-3.796216e+01	-7.011069e+01
1.800000e-07	-5.459826e-06	-1.096300e-09	-3.791316e+01	-7.010731e+01
1.900000e-07	-5.452495e-06	-1.025551e-09	-3.786225e+01	-7.010210e+01
2.000000e-07	-5.444998e-06	-1.000331e-09	-3.781020e+01	-7.009435e+01
2.100000e-07	-5.437215e-06	-1.042882e-09	-3.775615e+01	-7.008336e+01
2.200000e-07	-5.429139e-06	-1.094206e-09	-3.770007e+01	-7.006845e+01
2.300000e-07	-5.420806e-06	-1.064371e-09	-3.764220e+01	-7.004899e+01
2.400000e-07	-5.412003e-06	-1.030193e-09	-3.758108e+01	-7.002441e+01
2.500000e-07	-5.402423e-06	-1.063490e-09	-3.751455e+01	-6.999417e+01
2.600000e-07	-5.392078e-06	-1.077057e-09	-3.744271e+01	-6.995785e+01
2.700000e-07	-5.381241e-06	-1.045620e-09	-3.736747e+01	-6.991506e+01
2.800000e-07	-5.369994e-06	-1.009321e-09	-3.728937e+01	-6.986552e+01
2.900000e-07	-5.358301e-06	-1.050053e-09	-3.720817e+01	-6.980904e+01
3.000000e-07	-5.346261e-06	-1.057348e-09	-3.712456e+01	-6.974551e+01
3.100000e-07	-5.333867e-06	-1.038778e-09	-3.703850e+01	-6.967493e+01
3.200000e-07	-5.321059e-06	-1.023729e-09	-3.694956e+01	-6.959739e+01
3.300000e-07	-5.307880e-06	-1.071694e-09	-3.685804e+01	-6.951306e+01
3.400000e-07	-5.294409e-06	-1.054874e-09	-3.676450e+01	-6.942221e+01
3.500000e-07	-5.280567e-06	-1.025433e-09	-3.666838e+01	-6.932519e+01
3.600000e-07	-5.266152e-06	-1.019917e-09	-3.656828e+01	-6.922243e+01
3.700000e-07	-5.251227e-06	-1.056849e-09	-3.646465e+01	-6.911441e+01
3.800000e-07	-5.235699e-06	-1.025061e-09	-3.635682e+01	-6.900170e+01
3.900000e-07	-5.219544e-06	-1.014100e-09	-3.624464e+01	-6.888489e+01
4.000000e-07	-5.203066e-06	-1.043317e-09	-3.613021e+01	-6.876461e+01
4.100000e-07	-5.186382e-06	-1.052352e-09	-3.601436e+01	-6.864153e+01
4.200000e-07	-5.169306e-06	-1.004601e-09	-3.589579e+01	-6.851631e+01
4.300000e-07	-5.151876e-06	-1.022556e-09	-3.577475e+01	-6.838963e+01
4.400000e-07	-5.134147e-06	-1.062546e-09	-3.565164e+01	-6.826216e+01
4.500000e-07	-5.115997e-06	-1.028122e-09	-3.552560e+01	-6.813452e+01
4.600000e-07	-5.097402e-06	-9.882658e-10	-3.539648e+01	-6.800731e+01
4.700000e-07	-5.078427e-06	-1.018450e-09	-3.526472e+01	-6.788110e+01
4.800000e-07	-5.059190e-06	-1.024802e-09	-3.513113e+01	-6.775639e+01
4.900000e-07	-5.039756e-06	-9.884091e-10	-3.499619e+01	-6.763361e+01
5.000000e-07	-5.020113e-06	-1.005660e-09	-3.485978e+01	-6.751314e+01
5.100000e-07	-5.000140e-06	-1.025165e-09	-3.472109e+01	-6.739528e+01
5.200000e-07	-4.979784e-06	-9.949806e-10	-3.457974e+01	-6.728025e+01
5.300000e-07	-4.959093e-06	-9.946258e-10	-3.443606e+01	-6.716819e+01
5.400000e-07	-4.938083e-06	-1.030736e-09	-3.429016e+01	-6.705917e+01
5.500000e-07	-4.916696e-06	-9.960957e-10	-3.414165e+01	-6.695318e+01
5.600000e-07	-4.894959e-06	-9.625248e-10	-3.399071e+01	-6.685013e+01
5.700000e-07	-4.872974e-06	-9.898299e-10	-3.383805e+01	-6.674987e+01
5.800000e-07	-4.850696e-06	-1.005536e-09	-3.368335e+01	-6.665217e+01
5.900000e-07	-4.828041e-06	-9.756112e-10	-3.352603e+01	-6.655678e+01
6.000000e-07	-4.805077e-06	-9.890572e-10	-3.336657e+01	-6.646335e+01
6.100000e-07	-4.781824e-06	-1.002804e-09	-3.320510e+01	-6.637154e+01
6.200000e-07	-4.758279e-06	-9.842339e-10	-3.304160e+01	-6.628094e+01
6.300000e-07	-4.734490e-06	-9.750785e-10	-3.287641e+01	-6.619115e+01
6.400000e-07	-4.710406e-06	-9.957554e-10	-3.270917e+01	-6.610173e+01
6.500000e-07	-4.685918e-06	-9.826679e-10	-3.253912e+01	-6.601227e+01
6.600000e-07	-4.660973e-06	-9.744451e-10	-3.236591e+01	-6.592235e+01
6.700000e-07	-4.635578e-06	-9.850640e-10	-3.218956e+01	-6.583157e+01
6.800000e-07	-4.609694e-06	-9.868373e-10	-3.200982e+01	-6.573956e+01
6.900000e-07	-4.583242e-06	-9.741550e-10	-3.182614e+01	-6.564599e+01
7.000000e-07	-4.556295e-06	-9.803063e-10	-3.163902e+01	-6.555054e+01
7.100000e-07	-4.529002e-06	-9.762623e-10	-3.144950e+01	-6.545298e+01
7.200000e-07	-4.501450e-06	-9.654069e-10	-3.125818e+01	-6.535309e+01
7.300000e-07	-4.473731e-06	-9.685702e-10	-3.106570e+01	-6.525072e+01
7.400000e-07	-4.445847e-06	-9.758850e-10	-3.087207e+01	-6.514578e+01
7.500000e-07	-4.417713e-06	-9.683657e-10	-3.067670e+01	-6.503820e+01
7.600000e-07	-4.389247e-06	-9.683701e-10	-3.047904e+01	-6.492799e+01
7.700000e-07	-4.360362e-06	-9.686593e-10	-3.027846e+01	-6.481519e+01
7.800000e-07	-4.331111e-06	-9.572192e-10	-3.007534e+01	-6.469991e+01
7.900000e-07	-4.301634e-06	-9.543829e-10	-2.987065e+01	-6.458226e+01
8.000000e-07	-4.271958e-06	-9.583384e-10	-2.966458e+01	-6.446240e+01
8.100000e-07	-4.241983e-06	-9.508772e-10	-2.945643e+01	-6.434052e+01
8.200000e-07	-4.211725e-06	-9.473591e-10	-2.924632e+01	-6.421683e+01
8.300000e-07	-4.181220e-06	-9.606268e-10	-2.903449e+01	-6.409152e+01
8.400000e-07	-4.150380e-06	-9.588020e-10	-2.882034e+01	-6.396483e+01
8.500000e-07	-4.119203e-06	-9.512118e-10	-2.860385e+01	-6.383694e+01
8.600000e-07	-4.087797e-06	-9.528558e-10	-2.838576e+01	-6.370806e+01
8.700000e-07	-4.056277e-06	-9.517375e-10	-2.816688e+01	-6.357836e+01
8.800000e-07	-4.024612e-06	-9.369205e-10	-2.794700e+01	-6.344796e+01
8.900000e-07	-3.992712e-06	-9.352838e-10	-2.772549e+01	-6.331700e+01
9.000000e-07	-3.960606e-06	-9.356690e-10	-2.750254e+01	-6.318552e+01
9.100000e-07	-3.928191e-06	-9.310843e-10	-2.727745e+01	-6.305357e+01
9.200000e-07	-3.895262e-06	-9.304289e-10	-2.704879e+01	-6.292111e+01
9.300000e-07	-3.861873e-06	-9.399046e-10	-2.681694e+01	-6.278808e+01
9.400000e-07	-3.828049e-06	-9.355087e-10	-2.658206e+01	-6.265437e+01
9.500000e-07	-3.793720e-06	-9.280940e-10	-2.634368e+01	-6.251981e+01
9.600000e-07	-3.759031e-06	-9.251254e-10	-2.610280e+01	-6.238420e+01
9.700000e-07	-3.724043e-06	-9.205687e-10	-2.585984e+01	-6.224728e+01
9.800000e-07	-3.688738e-06	-9.077581e-10	-2.561468e+01	-6.210878e+01
9.900000e-07	-3.653250e-06	-9.056639e-10	-2.536826e+01	-6.196837e+01
1.000000e-06	-3.617635e-06	-9.075693e-10	-2.512094e+01	-6.182572e+01
1.010000e-06	-3.581905e-06	-9.051817e-10	-2.487283e+01	-6.168047e+01
1.020000e-06	-3.546073e-06	-9.062270e-10	-2.462402e+01	-6.153223e+01
1.030000e-06	-3.510060e-06	-9.127868e-10	-2.437394e+01	-6.138065e+01
1.040000e-06	-3.473788e-06	-9.116783e-10	-2.412206e+01	-6.122535e+01
1.050000e-06	-3.437260e-06	-9.049117e-10	-2.386841e+01	-6.106597e+01
1.060000e-06	-3.400447e-06	-8.999106e-10	-2.361278e+01	-6.090217e+01
1.070000e-06	-3.363262e-06	-8.929727e-10	-2.335457e+01	-6.073365e+01
1.080000e-06	-3.325785e-06	-8.857783e-10	-2.309433e+01	-6.056013e+01
1.090000e-06	-3.288102e-06	-8.848330e-10	-2.283266e+01	-6.038136e+01
1.100000e-06	-3.250245e-06	-8.857614e-10	-2.256978e+01	-6.019717e+01
1.110000e-06	-3.212226e-06	-8.836621e-10	-2.230577e+01	-6.000740e+01
1.120000e-06	-3.173949e-06	-8.835512e-10	-2.203997e+01	-5.981197e+01
1.130000e-06	-3.135448e-06	-8.823025e-10	-2.177263e+01	-5.961082e+01
1.140000e-06	-3.096798e-06	-8.791083e-10	-2.150424e+01	-5.940397e+01
1.150000e-06	-3.057930e-06	-8.725102e-10	-2.123434e+01	-5.919149e+01
1.160000e-06	-3.018792e-06	-8.647037e-10	-2.096256e+01	-5.897349e+01
1.170000e-06	-2.979410e-06	-8.528296e-10	-2.068910e+01	-5.875013e+01
1.180000e-06	-2.939905e-06	-8.471902e-10	-2.041477e+01	-5.852161e+01
1.190000e-06	-2.900324e-06	-8.472471e-10	-2.013992e+01	-5.828817e+01
1.200000e-06	-2.860632e-06	-8.466886e-10	-1.986430e+01	-5.805008e+01
1.210000e-06	-2.820821e-06	-8.446435e-10	-1.958785e+01	-5.780764e+01
1.220000e-06	-2.780870e-06	-8.458600e-10	-1.931042e+01	-5.756116e+01
1.230000e-06	-2.740712e-06	-8.429830e-10	-1.903157e+01	-5.731096e+01
1.240000e-06	-2.700346e-06	-8.359430e-10	-1.875127e+01	-5.705735e+01
1.250000e-06	-2.659742e-06	-8.308043e-10	-1.846931e+01	-5.680066e+01
1.260000e-06	-2.618868e-06	-8.300485e-10	-1.818548e+01	-5.654118e+01
1.270000e-06	-2.577743e-06	-8.271122e-10	-1.789991e+01	-5.627919e+01
1.280000e-06	-2.536324e-06	-8.241717e-10	-1.761230e+01	-5.601493e+01
1.290000e-06	-2.494561e-06	-8.217020e-10	-1.732229e+01	-5.574860e+01
1.300000e-06	-2.452451e-06	-8.168741e-10	-1.702988e+01	-5.548039e+01
1.310000e-06	-2.410070e-06	-8.100152e-10	-1.673558e+01	-5.521041e+01
1.320000e-06	-2.367444e-06	-8.055553e-10	-1.643959e+01	-5.493872e+01
1.330000e-06	-2.324600e-06	-8.029121e-10	-1.614208e+01	-5.466535e+01
1.340000e-06	-2.281548e-06	-8.020358e-10	-1.584312e+01	-5.439024e+01
1.350000e-06	-2.238292e-06	-8.016134e-10	-1.554276e+01	-5.411330e+01
1.360000e-06	-2.194853e-06	-7.972203e-10	-1.524111e+01	-5.383438e+01
1.370000e-06	-2.151307e-06	-7.900101e-10	-1.493873e+01	-5.355327e+01
1.380000e-06	-2.107669e-06	-7.817086e-10	-1.463570e+01	-5.326969e+01
1.390000e-06	-2.063937e-06	-7.753788e-10	-1.433203e+01	-5.298333e+01
1.400000e-06	-2.020181e-06	-7.711737e-10	-1.402819e+01	-5.269383e+01
1.410000e-06	-1.976389e-06	-7.693107e-10	-1.372409e+01	-5.240078e+01
1.420000e-06	-1.932471e-06	-7.691862e-10	-1.341913e+01	-5.210374e+01
1.430000e-06	-1.888463e-06	-7.671106e-10	-1.311353e+01	-5.180222e+01
1.440000e-06	-1.844383e-06	-7.624176e-10	-1.280744e+01	-5.149572e+01
1.450000e-06	-1.800146e-06	-7.560319e-10	-1.250026e+01	-5.118370e+01
1.460000e-06	-1.755750e-06	-7.470911e-10	-1.219197e+01	-5.086562e+01
1.470000e-06	-1.711186e-06	-7.356259e-10	-1.188251e+01	-5.054091e+01
1.480000e-06	-1.666421e-06	-7.267175e-10	-1.157166e+01	-5.020899e+01
1.490000e-06	-1.621534e-06	-7.218105e-10	-1.125997e+01	-4.986928e+01
1.500000e-06	-1.576585e-06	-7.176523e-10	-1.094784e+01	-4.952121e+01
1.510000e-06	-1.531547e-06	-7.151359e-10	-1.063510e+01	-4.916417e+01
1.520000e-06	-1.486337e-06	-7.122945e-10	-1.032116e+01	-4.879759e+01
1.530000e-06	-1.440967e-06	-7.087335e-10	-1.000611e+01	-4.842088e+01
1.540000e-06	-1.395560e-06	-7.014890e-10	-9.690804e+00	-4.803347e+01
1.550000e-06	-1.350083e-06	-6.929993e-10	-9.375008e+00	-4.763475e+01
1.560000e-06	-1.304478e-06	-6.831996e-10	-9.058323e+00	-4.722416e+01
1.570000e-06	-1.258789e-06	-6.734497e-10	-8.741060e+00	-4.680110e+01
1.580000e-06	-1.213054e-06	-6.638748e-10	-8.423478e+00	-4.636498e+01
1.590000e-06	-1.167197e-06	-6.577814e-10	-8.105044e+00	-4.591519e+01
1.600000e-06	-1.121301e-06	-6.548000e-10	-7.786340e+00	-4.545111e+01
1.610000e-06	-1.075384e-06	-6.513529e-10	-7.467489e+00	-4.497212e+01
1.620000e-06	-1.029346e-06	-6.455404e-10	-7.147802e+00	-4.447754e+01
1.630000e-06	-9.832251e-07	-6.364215e-10	-6.827539e+00	-4.396671e+01
1.640000e-06	-9.370127e-07	-6.247553e-10	-6.506638e+00	-4.343891e+01
1.650000e-06	-8.907429e-07	-6.118305e-10	-6.185340e+00	-4.289341e+01
1.660000e-06	-8.444569e-07	-5.986759e-10	-5.863929e+00	-4.232943e+01
1.670000e-06	-7.981085e-07	-5.865350e-10	-5.542084e+00	-4.174617e+01
1.680000e-06	-7.516575e-07	-5.757097e-10	-5.219528e+00	-4.114279e+01
1.690000e-06	-7.052044e-07	-5.642337e-10	-4.896956e+00	-4.051841e+01
1.700000e-06	-6.587781e-07	-5.525729e-10	-4.574571e+00	-3.987213e+01
1.710000e-06	-6.122245e-07	-5.421640e-10	-4.251302e+00	-3.920303e+01
1.720000e-06	-5.655439e-07	-5.341236e-10	-3.927150e+00	-3.851014e+01
1.730000e-06	-5.188442e-07	-5.243278e-10	-3.602866e+00	-3.779249e+01
1.740000e-06	-4.721658e-07	-5.109813e-10	-3.278730e+00	-3.704910e+01
1.750000e-06	-4.255042e-07	-4.949799e-10	-2.954712e+00	-3.627898e+01
1.760000e-06	-3.788143e-07	-4.800183e-10	-2.630495e+00	-3.548116e+01
1.770000e-06	-3.320949e-07	-4.688091e-10	-2.306075e+00	-3.465466e+01
1.780000e-06	-2.852935e-07	-4.585651e-10	-1.981085e+00	-3.379856e+01
1.790000e-06	-2.384160e-07	-4.475274e-10	-1.655567e+00	-3.291197e+01
1.800000e-06	-1.915563e-07	-4.357780e-10	-1.330172e+00	-3.199405e+01
1.810000e-06	-1.446977e-07	-4.211510e-10	-1.004784e+00	-3.104404e+01
1.820000e-06	-9.785627e-08	-4.065738e-10	-6.795163e-01	-3.006125e+01
1.830000e-06	-5.105240e-08	-3.935202e-10	-3.545091e-01	-2.904508e+01
1.840000e-06	-4.229352e-09	-3.818791e-10	-2.936872e-02	-2.799507e+01
1.850000e-06	4.264028e-08	-3.690023e-10	2.960951e-01	-2.691084e+01
1.860000e-06	8.956045e-08	-3.531512e-10	6.219099e-01	-2.579216e+01
1.870000e-06	1.364867e-07	-3.334979e-10	9.477668e-01	-2.463896e+01
1.880000e-06	1.834145e-07	-3.135738e-10	1.273635e+00	-2.345130e+01
1.890000e-06	2.303228e-07	-2.958661e-10	1.599367e+00	-2.222942e+01
1.900000e-06	2.771343e-07	-2.780765e-10	1.924427e+00	-2.097372e+01
1.910000e-06	3.239159e-07	-2.612366e-10	2.249280e+00	-1.968477e+01
1.920000e-06	3.707183e-07	-2.453240e-10	2.574277e+00	-1.836334e+01
1.930000e-06	4.174852e-07	-2.286073e-10	2.899027e+00	-1.701034e+01
1.940000e-06	4.641394e-07	-2.078767e-10	3.222995e+00	-1.562691e+01
1.950000e-06	5.106966e-07	-1.845788e-10	3.546289e+00	-1.421432e+01
1.960000e-06	5.572598e-07	-1.666682e-10	3.869625e+00	-1.277404e+01
1.970000e-06	6.038060e-07	-1.509077e-10	4.192843e+00	-1.130769e+01
1.980000e-06	6.503269e-07	-1.322080e-10	4.515885e+00	-9.817048e+00
1.990000e-06	6.968035e-07	-1.110544e-10	4.838620e+00	-8.304051e+00
2.000000e-06	7.431416e-07	-8.622942e-11	5.160393e+00	-6.770754e+00
2.010000e-06	7.894564e-07	-5.943728e-11	5.482004e+00	-5.219338e+00
2.020000e-06	8.357743e-07	-3.591629e-11	5.803637e+00	-3.652087e+00
2.030000e-06	8.819957e-07	-1.758104e-11	6.124599e+00	-2.071372e+00
2.040000e-06	9.281170e-07	-6.838689e-13	6.444866e+00	-4.796390e-01
2.050000e-06	9.741540e-07	1.958320e-11	6.764549e+00	1.120618e+00
2.060000e-06	1.020200e-06	4.212286e-11	7.084291e+00	2.726868e+00
2.070000e-06	1.066217e-06	6.437382e-11	7.403837e+00	4.336564e+00
2.080000e-06	1.112130e-06	8.993884e-11	7.722660e+00	5.947165e+00
2.090000e-06	1.157952e-06	1.172005e-10	8.040849e+00	7.556148e+00
2.100000e-06	1.203664e-06	1.427690e-10	8.358273e+00	9.161031e+00
2.110000e-06	1.249291e-06	1.641101e-10	8.675105e+00	1.075939e+01
2.120000e-06	1.294845e-06	1.822419e-10	8.991436e+00	1.234887e+01
2.130000e-06	1.340344e-06	1.983916e-10	9.307380e+00	1.392721e+01
2.140000e-06	1.385813e-06	2.149175e-10	9.623119e+00	1.549224e+01
2.150000e-06	1.431198e-06	2.353045e-10	9.938271e+00	1.704191e+01
2.160000e-06	1.476412e-06	2.594129e-10	1.025224e+01	1.857431e+01
2.170000e-06	1.521526e-06	2.834171e-10	1.056551e+01	2.008763e+01
2.180000e-06	1.566591e-06	3.046910e-10	1.087845e+01	2.158023e+01
2.190000e-06	1.611542e-06	3.259682e-10	1.119058e+01	2.305061e+01
2.200000e-06	1.656258e-06	3.461466e-10	1.150109e+01	2.449742e+01
2.210000e-06	1.700683e-06	3.609169e-10	1.180959e+01	2.591944e+01
2.220000e-06	1.744986e-06	3.731168e-10	1.211722e+01	2.731565e+01
2.230000e-06	1.789211e-06	3.863610e-10	1.242432e+01	2.868513e+01
2.240000e-06	1.833256e-06	4.015940e-10	1.273017e+01	3.002715e+01
2.250000e-06	1.877212e-06	4.195108e-10	1.303541e+01	3.134111e+01
2.260000e-06	1.921154e-06	4.418557e-10	1.334054e+01	3.262653e+01
2.270000e-06	1.965040e-06	4.655089e-10	1.364528e+01	3.388310e+01
2.280000e-06	2.008849e-06	4.860746e-10	1.394950e+01	3.511060e+01
2.290000e-06	2.052615e-06	5.040048e-10	1.425341e+01	3.630894e+01
2.300000e-06	2.096341e-06	5.197841e-10	1.455704e+01	3.747814e+01
2.310000e-06	2.139974e-06	5.336540e-10	1.486003e+01	3.861831e+01
2.320000e-06	2.183531e-06	5.471616e-10	1.516249e+01	3.972965e+01
2.330000e-06	2.226971e-06	5.606269e-10	1.546414e+01	4.081244e+01
2.340000e-06	2.270312e-06	5.749289e-10	1.576510e+01	4.186701e+01
2.350000e-06	2.313544e-06	5.920189e-10	1.606530e+01	4.289376e+01
2.360000e-06	2.356578e-06	6.087228e-10	1.636413e+01	4.389314e+01
2.370000e-06	2.399368e-06	6.209474e-10	1.666127e+01	4.486562e+01
2.380000e-06	2.441821e-06	6.325675e-10	1.695606e+01	4.581171e+01
2.390000e-06	2.483902e-06	6.452359e-10	1.724827e+01	4.673192e+01
2.400000e-06	2.525690e-06	6.571830e-10	1.753845e+01	4.762679e+01
2.410000e-06	2.567205e-06	6.692434e-10	1.782673e+01	4.849686e+01
2.420000e-06	2.608318e-06	6.824709e-10	1.811222e+01	4.934265e+01
2.430000e-06	2.649055e-06	6.963010e-10	1.839510e+01	5.016470e+01
2.440000e-06	2.689577e-06	7.077094e-10	1.867648e+01	5.096352e+01
2.450000e-06	2.729900e-06	7.175679e-10	1.895649e+01	5.173959e+01
2.460000e-06	2.770031e-06	7.261095e-10	1.923516e+01	5.249339e+01
2.470000e-06	2.809985e-06	7.359584e-10	1.951260e+01	5.322537e+01
2.480000e-06	2.849825e-06	7.487446e-10	1.978925e+01	5.393595e+01
2.490000e-06	2.889600e-06	7.629907e-10	2.006545e+01	5.462555e+01
2.500000e-06	2.929252e-06	7.770549e-10	2.034079e+01	5.529454e+01
2.510000e-06	2.968766e-06	7.880596e-10	2.061518e+01	5.594327e+01
2.520000e-06	3.008138e-06	7.957146e-10	2.088858e+01	5.657208e+01
2.530000e-06	3.047379e-06	8.009473e-10	2.116107e+01	5.718128e+01
2.540000e-06	3.086454e-06	8.036051e-10	2.143241e+01	5.777115e+01
2.550000e-06	3.125198e-06	8.057332e-10	2.170145e+01	5.834198e+01
2.560000e-06	3.163570e-06	8.106757e-10	2.196790e+01	5.889403e+01
2.570000e-06	3.201665e-06	8.187283e-10	2.223244e+01	5.942755e+01
2.580000e-06	3.239617e-06	8.287524e-10	2.249598e+01	5.994279e+01
2.590000e-06	3.277475e-06	8.388087e-10	2.275886e+01	6.043998e+01
2.600000e-06	3.315159e-06	8.453956e-10	2.302054e+01	6.091937e+01
2.610000e-06	3.352609e-06	8.488222e-10	2.328060e+01	6.138120e+01
2.620000e-06	3.389884e-06	8.513085e-10	2.353944e+01	6.182571e+01
2.630000e-06	3.426909e-06	8.543204e-10	2.379654e+01	6.225317e+01
2.640000e-06	3.463472e-06	8.584158e-10	2.405043e+01	6.266383e+01
2.650000e-06	3.499751e-06	8.632755e-10	2.430236e+01	6.305798e+01
2.660000e-06	3.535933e-06	8.688551e-10	2.455360e+01	6.343591e+01
2.670000e-06	3.571909e-06	8.736326e-10	2.480342e+01	6.379792e+01
2.680000e-06	3.607662e-06	8.783958e-10	2.505169e+01	6.414435e+01
2.690000e-06	3.643309e-06	8.851658e-10	2.529923e+01	6.447556e+01
2.700000e-06	3.678845e-06	8.920231e-10	2.554598e+01	6.479189e+01
2.710000e-06	3.714203e-06	8.969887e-10	2.579151e+01	6.509376e+01
2.720000e-06	3.749396e-06	9.020173e-10	2.603589e+01	6.538156e+01
2.730000e-06	3.784228e-06	9.067224e-10	2.627777e+01	6.565572e+01
2.740000e-06	3.818611e-06	9.110438e-10	2.651653e+01	6.591671e+01
2.750000e-06	3.852531e-06	9.147035e-10	2.675207e+01	6.616497e+01
2.760000e-06	3.885852e-06	9.166468e-10	2.698345e+01	6.640100e+01
2.770000e-06	3.918632e-06	9.203120e-10	2.721107e+01	6.662530e+01
2.780000e-06	3.951055e-06	9.267333e-10	2.743622e+01	6.683837e+01
2.790000e-06	3.983247e-06	9.336085e-10	2.765976e+01	6.704075e+01
2.800000e-06	4.015243e-06	9.398583e-10	2.788195e+01	6.723295e+01
2.810000e-06	4.047093e-06	9.438107e-10	2.810311e+01	6.741551e+01
2.820000e-06	4.078818e-06	9.462424e-10	2.832341e+01	6.758897e+01
2.830000e-06	4.110386e-06	9.476325e-10	2.854262e+01	6.775386e+01
2.840000e-06	4.141718e-06	9.484635e-10	2.876019e+01	6.791072e+01
2.850000e-06	4.172795e-06	9.508237e-10	2.897599e+01	6.806006e+01
2.860000e-06	4.203506e-06	9.559855e-10	2.918925e+01	6.820239e+01
2.870000e-06	4.233769e-06	9.613647e-10	2.939939e+01	6.833821e+01
2.880000e-06	4.263735e-06	9.651930e-10	2.960748e+01	6.846800e+01
2.890000e-06	4.293473e-06	9.695505e-10	2.981398e+01	6.859222e+01
2.900000e-06	4.322948e-06	9.746083e-10	3.001866e+01	6.871131e+01
