# Temperatura_=_-10.01
# Concentracion g/m^3_=_1620.0
# C_Vs_to_Am_M_A/Vsm_=_65563218390.804596
# pendiente_HvsI_1/m_=_3716.3
# ordenada_HvsI_A/m_=_1297.0
# frecuencia_Hz_=_135109.90542655304

Tiempo_(s)	Campo_(V.s)	Magnetizacion_(V.s)	Campo_(kA/m)	Magnetizacion_(A/m)
0.000000e+00	-5.525394e-06	-9.555180e-10	-3.837190e+01	-6.447385e+01
1.000000e-08	-5.525595e-06	-9.530161e-10	-3.837330e+01	-6.447226e+01
2.000000e-08	-5.525641e-06	-9.527569e-10	-3.837361e+01	-6.447124e+01
3.000000e-08	-5.525315e-06	-9.540390e-10	-3.837135e+01	-6.447030e+01
4.000000e-08	-5.524489e-06	-9.540256e-10	-3.836561e+01	-6.446891e+01
5.000000e-08	-5.523233e-06	-9.497531e-10	-3.835689e+01	-6.446650e+01
6.000000e-08	-5.521516e-06	-9.410370e-10	-3.834496e+01	-6.446249e+01
7.000000e-08	-5.519114e-06	-9.311934e-10	-3.832829e+01	-6.445626e+01
8.000000e-08	-5.516109e-06	-9.324097e-10	-3.830742e+01	-6.444721e+01
9.000000e-08	-5.512660e-06	-9.364819e-10	-3.828347e+01	-6.443471e+01
1.000000e-07	-5.508743e-06	-9.512827e-10	-3.825626e+01	-6.441817e+01
1.100000e-07	-5.504447e-06	-9.827965e-10	-3.822643e+01	-6.439701e+01
1.200000e-07	-5.499886e-06	-9.447381e-10	-3.819475e+01	-6.437069e+01
1.300000e-07	-5.495098e-06	-8.684548e-10	-3.816150e+01	-6.433868e+01
1.400000e-07	-5.490024e-06	-8.972530e-10	-3.812626e+01	-6.430055e+01
1.500000e-07	-5.484557e-06	-9.528053e-10	-3.808830e+01	-6.425588e+01
1.600000e-07	-5.478642e-06	-9.733297e-10	-3.804722e+01	-6.420435e+01
1.700000e-07	-5.472298e-06	-8.914798e-10	-3.800316e+01	-6.414570e+01
1.800000e-07	-5.465569e-06	-9.203773e-10	-3.795643e+01	-6.407974e+01
1.900000e-07	-5.458362e-06	-9.903772e-10	-3.790638e+01	-6.400639e+01
2.000000e-07	-5.450782e-06	-9.915606e-10	-3.785375e+01	-6.392562e+01
2.100000e-07	-5.442988e-06	-9.083902e-10	-3.779962e+01	-6.383752e+01
2.200000e-07	-5.435011e-06	-8.972587e-10	-3.774422e+01	-6.374225e+01
2.300000e-07	-5.426772e-06	-9.551315e-10	-3.768700e+01	-6.364006e+01
2.400000e-07	-5.418146e-06	-9.705991e-10	-3.762710e+01	-6.353129e+01
2.500000e-07	-5.408931e-06	-9.430396e-10	-3.756310e+01	-6.341636e+01
2.600000e-07	-5.398990e-06	-9.231983e-10	-3.749406e+01	-6.329576e+01
2.700000e-07	-5.388407e-06	-9.417727e-10	-3.742057e+01	-6.317005e+01
2.800000e-07	-5.377323e-06	-9.201489e-10	-3.734360e+01	-6.303988e+01
2.900000e-07	-5.365886e-06	-9.115503e-10	-3.726417e+01	-6.290590e+01
3.000000e-07	-5.354075e-06	-9.125014e-10	-3.718215e+01	-6.276885e+01
3.100000e-07	-5.341898e-06	-9.387300e-10	-3.709758e+01	-6.262950e+01
3.200000e-07	-5.329340e-06	-9.283052e-10	-3.701037e+01	-6.248861e+01
3.300000e-07	-5.316315e-06	-9.289628e-10	-3.691992e+01	-6.234698e+01
3.400000e-07	-5.302807e-06	-9.095073e-10	-3.682611e+01	-6.220542e+01
3.500000e-07	-5.288899e-06	-9.240079e-10	-3.672952e+01	-6.206471e+01
3.600000e-07	-5.274657e-06	-9.232956e-10	-3.663062e+01	-6.192561e+01
3.700000e-07	-5.259984e-06	-9.139123e-10	-3.652872e+01	-6.178887e+01
3.800000e-07	-5.244736e-06	-9.041429e-10	-3.642282e+01	-6.165518e+01
3.900000e-07	-5.228991e-06	-9.422584e-10	-3.631348e+01	-6.152518e+01
4.000000e-07	-5.212790e-06	-9.210212e-10	-3.620098e+01	-6.139947e+01
4.100000e-07	-5.196081e-06	-8.814026e-10	-3.608493e+01	-6.127857e+01
4.200000e-07	-5.179041e-06	-9.075846e-10	-3.596660e+01	-6.116293e+01
4.300000e-07	-5.161703e-06	-9.396430e-10	-3.584619e+01	-6.105293e+01
4.400000e-07	-5.144003e-06	-8.851883e-10	-3.572327e+01	-6.094886e+01
4.500000e-07	-5.126034e-06	-8.833863e-10	-3.559849e+01	-6.085095e+01
4.600000e-07	-5.107658e-06	-9.492755e-10	-3.547087e+01	-6.075933e+01
4.700000e-07	-5.088774e-06	-9.111290e-10	-3.533973e+01	-6.067404e+01
4.800000e-07	-5.069576e-06	-8.464968e-10	-3.520641e+01	-6.059507e+01
4.900000e-07	-5.050157e-06	-9.023701e-10	-3.507155e+01	-6.052231e+01
5.000000e-07	-5.030506e-06	-9.308596e-10	-3.493508e+01	-6.045558e+01
5.100000e-07	-5.010599e-06	-8.602389e-10	-3.479683e+01	-6.039463e+01
5.200000e-07	-4.990451e-06	-8.820479e-10	-3.465691e+01	-6.033916e+01
5.300000e-07	-4.969998e-06	-9.348107e-10	-3.451487e+01	-6.028880e+01
5.400000e-07	-4.949159e-06	-8.852521e-10	-3.437015e+01	-6.024314e+01
5.500000e-07	-4.927849e-06	-8.645376e-10	-3.422216e+01	-6.020173e+01
5.600000e-07	-4.906116e-06	-9.244535e-10	-3.407123e+01	-6.016407e+01
5.700000e-07	-4.884153e-06	-8.847404e-10	-3.391871e+01	-6.012967e+01
5.800000e-07	-4.861925e-06	-8.383314e-10	-3.376434e+01	-6.009800e+01
5.900000e-07	-4.839355e-06	-8.948388e-10	-3.360760e+01	-6.006852e+01
6.000000e-07	-4.816392e-06	-9.158236e-10	-3.344813e+01	-6.004071e+01
6.100000e-07	-4.793044e-06	-8.587494e-10	-3.328599e+01	-6.001402e+01
6.200000e-07	-4.769448e-06	-8.824222e-10	-3.312212e+01	-5.998796e+01
6.300000e-07	-4.745676e-06	-9.095423e-10	-3.295703e+01	-5.996203e+01
6.400000e-07	-4.721689e-06	-8.696958e-10	-3.279045e+01	-5.993576e+01
6.500000e-07	-4.697385e-06	-8.593581e-10	-3.262167e+01	-5.990872e+01
6.600000e-07	-4.672674e-06	-8.962235e-10	-3.245006e+01	-5.988049e+01
6.700000e-07	-4.647487e-06	-8.796617e-10	-3.227515e+01	-5.985072e+01
6.800000e-07	-4.621789e-06	-8.679847e-10	-3.209668e+01	-5.981907e+01
6.900000e-07	-4.595507e-06	-8.934296e-10	-3.191416e+01	-5.978525e+01
7.000000e-07	-4.568655e-06	-8.929943e-10	-3.172768e+01	-5.974902e+01
7.100000e-07	-4.541473e-06	-8.673439e-10	-3.153891e+01	-5.971015e+01
7.200000e-07	-4.514030e-06	-8.726452e-10	-3.134833e+01	-5.966848e+01
7.300000e-07	-4.486329e-06	-8.725716e-10	-3.115596e+01	-5.962387e+01
7.400000e-07	-4.458485e-06	-8.597539e-10	-3.096259e+01	-5.957621e+01
7.500000e-07	-4.430461e-06	-8.654426e-10	-3.076798e+01	-5.952544e+01
7.600000e-07	-4.402125e-06	-8.753149e-10	-3.057119e+01	-5.947151e+01
7.700000e-07	-4.373483e-06	-8.667700e-10	-3.037228e+01	-5.941441e+01
7.800000e-07	-4.344529e-06	-8.616671e-10	-3.017121e+01	-5.935413e+01
7.900000e-07	-4.315244e-06	-8.658753e-10	-2.996784e+01	-5.929069e+01
8.000000e-07	-4.285703e-06	-8.599697e-10	-2.976269e+01	-5.922414e+01
8.100000e-07	-4.255927e-06	-8.576868e-10	-2.955590e+01	-5.915451e+01
8.200000e-07	-4.225782e-06	-8.609821e-10	-2.934655e+01	-5.908187e+01
8.300000e-07	-4.195293e-06	-8.578666e-10	-2.913482e+01	-5.900628e+01
8.400000e-07	-4.164580e-06	-8.509721e-10	-2.892153e+01	-5.892780e+01
8.500000e-07	-4.133612e-06	-8.579975e-10	-2.870647e+01	-5.884649e+01
8.600000e-07	-4.102388e-06	-8.592654e-10	-2.848963e+01	-5.876243e+01
8.700000e-07	-4.070955e-06	-8.569636e-10	-2.827134e+01	-5.867567e+01
8.800000e-07	-4.039297e-06	-8.584793e-10	-2.805148e+01	-5.858629e+01
8.900000e-07	-4.007413e-06	-8.610866e-10	-2.783006e+01	-5.849434e+01
9.000000e-07	-3.975362e-06	-8.504780e-10	-2.760748e+01	-5.839989e+01
9.100000e-07	-3.943071e-06	-8.492427e-10	-2.738322e+01	-5.830298e+01
9.200000e-07	-3.910444e-06	-8.522845e-10	-2.715664e+01	-5.820368e+01
9.300000e-07	-3.877388e-06	-8.512068e-10	-2.692708e+01	-5.810204e+01
9.400000e-07	-3.843846e-06	-8.484291e-10	-2.669414e+01	-5.799811e+01
9.500000e-07	-3.809852e-06	-8.557616e-10	-2.645807e+01	-5.789196e+01
9.600000e-07	-3.775397e-06	-8.540243e-10	-2.621879e+01	-5.778364e+01
9.700000e-07	-3.740556e-06	-8.444501e-10	-2.597683e+01	-5.767322e+01
9.800000e-07	-3.705390e-06	-8.397403e-10	-2.573261e+01	-5.756077e+01
9.900000e-07	-3.669926e-06	-8.377253e-10	-2.548633e+01	-5.744634e+01
1.000000e-06	-3.634259e-06	-8.303994e-10	-2.523864e+01	-5.733003e+01
1.010000e-06	-3.598433e-06	-8.281149e-10	-2.498984e+01	-5.721191e+01
1.020000e-06	-3.562487e-06	-8.301101e-10	-2.474020e+01	-5.709206e+01
1.030000e-06	-3.526465e-06	-8.297559e-10	-2.449005e+01	-5.697059e+01
1.040000e-06	-3.490292e-06	-8.288925e-10	-2.423883e+01	-5.684756e+01
1.050000e-06	-3.453818e-06	-8.299878e-10	-2.398554e+01	-5.672309e+01
1.060000e-06	-3.417080e-06	-8.250873e-10	-2.373041e+01	-5.659726e+01
1.070000e-06	-3.380153e-06	-8.172216e-10	-2.347396e+01	-5.647016e+01
1.080000e-06	-3.342928e-06	-8.165413e-10	-2.321545e+01	-5.634186e+01
1.090000e-06	-3.305385e-06	-8.186331e-10	-2.295472e+01	-5.621246e+01
1.100000e-06	-3.267590e-06	-8.189127e-10	-2.269225e+01	-5.608201e+01
1.110000e-06	-3.229569e-06	-8.186836e-10	-2.242821e+01	-5.595056e+01
1.120000e-06	-3.191378e-06	-8.194747e-10	-2.216299e+01	-5.581814e+01
1.130000e-06	-3.153011e-06	-8.155417e-10	-2.189654e+01	-5.568478e+01
1.140000e-06	-3.114445e-06	-8.112881e-10	-2.162871e+01	-5.555047e+01
1.150000e-06	-3.075694e-06	-8.083264e-10	-2.135960e+01	-5.541517e+01
1.160000e-06	-3.036751e-06	-8.067749e-10	-2.108916e+01	-5.527882e+01
1.170000e-06	-2.997598e-06	-8.030206e-10	-2.081725e+01	-5.514135e+01
1.180000e-06	-2.958270e-06	-8.032252e-10	-2.054413e+01	-5.500264e+01
1.190000e-06	-2.918770e-06	-8.044351e-10	-2.026982e+01	-5.486254e+01
1.200000e-06	-2.879077e-06	-8.042526e-10	-1.999417e+01	-5.472089e+01
1.210000e-06	-2.839229e-06	-8.011939e-10	-1.971743e+01	-5.457746e+01
1.220000e-06	-2.799260e-06	-7.984717e-10	-1.943987e+01	-5.443205e+01
1.230000e-06	-2.759182e-06	-7.953609e-10	-1.916154e+01	-5.428438e+01
1.240000e-06	-2.718959e-06	-7.942506e-10	-1.888220e+01	-5.413417e+01
1.250000e-06	-2.678569e-06	-7.929805e-10	-1.860171e+01	-5.398112e+01
1.260000e-06	-2.637930e-06	-7.942828e-10	-1.831949e+01	-5.382490e+01
1.270000e-06	-2.596847e-06	-7.938450e-10	-1.803418e+01	-5.366517e+01
1.280000e-06	-2.555449e-06	-7.906235e-10	-1.774668e+01	-5.350158e+01
1.290000e-06	-2.513881e-06	-7.867974e-10	-1.745801e+01	-5.333378e+01
1.300000e-06	-2.472003e-06	-7.824818e-10	-1.716718e+01	-5.316141e+01
1.310000e-06	-2.429778e-06	-7.763291e-10	-1.687394e+01	-5.298410e+01
1.320000e-06	-2.387283e-06	-7.711652e-10	-1.657883e+01	-5.280151e+01
1.330000e-06	-2.344481e-06	-7.681051e-10	-1.628159e+01	-5.261331e+01
1.340000e-06	-2.301414e-06	-7.638279e-10	-1.598250e+01	-5.241916e+01
1.350000e-06	-2.258156e-06	-7.588824e-10	-1.568209e+01	-5.221876e+01
1.360000e-06	-2.214679e-06	-7.555834e-10	-1.538016e+01	-5.201184e+01
1.370000e-06	-2.171073e-06	-7.521619e-10	-1.507733e+01	-5.179813e+01
1.380000e-06	-2.127349e-06	-7.472352e-10	-1.477368e+01	-5.157740e+01
1.390000e-06	-2.083548e-06	-7.422434e-10	-1.446950e+01	-5.134946e+01
1.400000e-06	-2.039758e-06	-7.365469e-10	-1.416539e+01	-5.111412e+01
1.410000e-06	-1.995925e-06	-7.308947e-10	-1.386099e+01	-5.087124e+01
1.420000e-06	-1.951983e-06	-7.248766e-10	-1.355583e+01	-5.062071e+01
1.430000e-06	-1.907933e-06	-7.214852e-10	-1.324991e+01	-5.036242e+01
1.440000e-06	-1.863787e-06	-7.190580e-10	-1.294334e+01	-5.009630e+01
1.450000e-06	-1.819559e-06	-7.156696e-10	-1.263619e+01	-4.982229e+01
1.460000e-06	-1.775269e-06	-7.106080e-10	-1.232862e+01	-4.954035e+01
1.470000e-06	-1.730904e-06	-7.045164e-10	-1.202051e+01	-4.925042e+01
1.480000e-06	-1.686324e-06	-6.975360e-10	-1.171092e+01	-4.895248e+01
1.490000e-06	-1.641507e-06	-6.911522e-10	-1.139968e+01	-4.864648e+01
1.500000e-06	-1.596576e-06	-6.842057e-10	-1.108765e+01	-4.833235e+01
1.510000e-06	-1.551563e-06	-6.778014e-10	-1.077505e+01	-4.801000e+01
1.520000e-06	-1.506438e-06	-6.727883e-10	-1.046168e+01	-4.767934e+01
1.530000e-06	-1.461226e-06	-6.707558e-10	-1.014770e+01	-4.734020e+01
1.540000e-06	-1.415917e-06	-6.683782e-10	-9.833042e+00	-4.699241e+01
1.550000e-06	-1.370438e-06	-6.635054e-10	-9.517208e+00	-4.663571e+01
1.560000e-06	-1.324832e-06	-6.559397e-10	-9.200490e+00	-4.626981e+01
1.570000e-06	-1.279159e-06	-6.465968e-10	-8.883301e+00	-4.589435e+01
1.580000e-06	-1.233437e-06	-6.371956e-10	-8.565782e+00	-4.550889e+01
1.590000e-06	-1.187660e-06	-6.303459e-10	-8.247874e+00	-4.511295e+01
1.600000e-06	-1.141835e-06	-6.270663e-10	-7.929638e+00	-4.470594e+01
1.610000e-06	-1.095991e-06	-6.247554e-10	-7.611266e+00	-4.428720e+01
1.620000e-06	-1.050036e-06	-6.194934e-10	-7.292126e+00	-4.385603e+01
1.630000e-06	-1.003941e-06	-6.122785e-10	-6.972011e+00	-4.341161e+01
1.640000e-06	-9.577749e-07	-6.053116e-10	-6.651406e+00	-4.295306e+01
1.650000e-06	-9.115624e-07	-5.970992e-10	-6.330477e+00	-4.247944e+01
1.660000e-06	-8.652328e-07	-5.876584e-10	-6.008734e+00	-4.198974e+01
1.670000e-06	-8.188364e-07	-5.787555e-10	-5.686528e+00	-4.148289e+01
1.680000e-06	-7.724697e-07	-5.685008e-10	-5.364527e+00	-4.095776e+01
1.690000e-06	-7.260324e-07	-5.576877e-10	-5.042037e+00	-4.041319e+01
1.700000e-06	-6.795903e-07	-5.482601e-10	-4.719513e+00	-3.984798e+01
1.710000e-06	-6.331770e-07	-5.403387e-10	-4.397189e+00	-3.926090e+01
1.720000e-06	-5.866141e-07	-5.335668e-10	-4.073826e+00	-3.865073e+01
1.730000e-06	-5.399722e-07	-5.249755e-10	-3.749915e+00	-3.801624e+01
1.740000e-06	-4.933693e-07	-5.157188e-10	-3.426275e+00	-3.735621e+01
1.750000e-06	-4.466893e-07	-5.047711e-10	-3.102099e+00	-3.666944e+01
1.760000e-06	-3.998956e-07	-4.913290e-10	-2.777133e+00	-3.595480e+01
1.770000e-06	-3.530506e-07	-4.772275e-10	-2.451811e+00	-3.521119e+01
1.780000e-06	-3.061950e-07	-4.654908e-10	-2.126415e+00	-3.443758e+01
1.790000e-06	-2.592551e-07	-4.572763e-10	-1.800434e+00	-3.363303e+01
1.800000e-06	-2.122502e-07	-4.500266e-10	-1.474003e+00	-3.279668e+01
1.810000e-06	-1.653272e-07	-4.384405e-10	-1.148139e+00	-3.192778e+01
1.820000e-06	-1.183679e-07	-4.242624e-10	-8.220229e-01	-3.102570e+01
1.830000e-06	-7.141800e-08	-4.099050e-10	-4.959726e-01	-3.008993e+01
1.840000e-06	-2.457156e-08	-3.959997e-10	-1.706407e-01	-2.912009e+01
1.850000e-06	2.229012e-08	-3.828791e-10	1.547969e-01	-2.811596e+01
1.860000e-06	6.918323e-08	-3.687919e-10	4.804530e-01	-2.707744e+01
1.870000e-06	1.161883e-07	-3.522477e-10	8.068867e-01	-2.600460e+01
1.880000e-06	1.631835e-07	-3.367654e-10	1.133251e+00	-2.489766e+01
1.890000e-06	2.099764e-07	-3.224766e-10	1.458211e+00	-2.375701e+01
1.900000e-06	2.566617e-07	-3.065571e-10	1.782424e+00	-2.258317e+01
1.910000e-06	3.033577e-07	-2.886966e-10	2.106712e+00	-2.137686e+01
1.920000e-06	3.500753e-07	-2.712248e-10	2.431148e+00	-2.013891e+01
1.930000e-06	3.967867e-07	-2.543721e-10	2.755542e+00	-1.887033e+01
1.940000e-06	4.435311e-07	-2.352241e-10	3.080166e+00	-1.757227e+01
1.950000e-06	4.903228e-07	-2.164711e-10	3.405117e+00	-1.624603e+01
1.960000e-06	5.370352e-07	-1.994383e-10	3.729519e+00	-1.489302e+01
1.970000e-06	5.836187e-07	-1.822565e-10	4.053025e+00	-1.351478e+01
1.980000e-06	6.301188e-07	-1.645967e-10	4.375951e+00	-1.211300e+01
1.990000e-06	6.766102e-07	-1.465771e-10	4.698817e+00	-1.068942e+01
2.000000e-06	7.230855e-07	-1.258109e-10	5.021572e+00	-9.245919e+00
2.010000e-06	7.694749e-07	-1.009649e-10	5.343729e+00	-7.784437e+00
2.020000e-06	8.158383e-07	-7.518427e-11	5.665707e+00	-6.306991e+00
2.030000e-06	8.621702e-07	-5.243864e-11	5.987466e+00	-4.815656e+00
2.040000e-06	9.084058e-07	-3.271365e-11	6.308555e+00	-3.312556e+00
2.050000e-06	9.545276e-07	-1.261612e-11	6.628855e+00	-1.799846e+00
2.060000e-06	1.000607e-06	8.856942e-12	6.948860e+00	-2.797049e-01
2.070000e-06	1.046684e-06	2.940375e-11	7.268850e+00	1.245677e+00
2.080000e-06	1.092685e-06	5.052943e-11	7.588310e+00	2.774114e+00
2.090000e-06	1.138533e-06	7.417028e-11	7.906710e+00	4.303430e+00
2.100000e-06	1.184268e-06	9.928915e-11	8.224320e+00	5.831476e+00
2.110000e-06	1.229939e-06	1.234146e-10	8.541489e+00	7.356137e+00
2.120000e-06	1.275565e-06	1.454601e-10	8.858344e+00	8.875343e+00
2.130000e-06	1.321121e-06	1.646383e-10	9.174716e+00	1.038708e+01
2.140000e-06	1.366573e-06	1.817802e-10	9.490361e+00	1.188938e+01
2.150000e-06	1.411932e-06	1.992557e-10	9.805365e+00	1.338038e+01
2.160000e-06	1.457216e-06	2.192295e-10	1.011985e+01	1.485825e+01
2.170000e-06	1.502410e-06	2.423227e-10	1.043371e+01	1.632129e+01
2.180000e-06	1.547486e-06	2.654407e-10	1.074674e+01	1.776786e+01
2.190000e-06	1.592420e-06	2.872695e-10	1.105879e+01	1.919641e+01
2.200000e-06	1.637124e-06	3.074973e-10	1.136924e+01	2.060550e+01
2.210000e-06	1.681708e-06	3.246194e-10	1.167886e+01	2.199380e+01
2.220000e-06	1.726206e-06	3.400960e-10	1.198788e+01	2.336007e+01
2.230000e-06	1.770549e-06	3.551724e-10	1.229583e+01	2.470318e+01
2.240000e-06	1.814816e-06	3.702392e-10	1.260325e+01	2.602210e+01
2.250000e-06	1.858955e-06	3.863778e-10	1.290978e+01	2.731592e+01
2.260000e-06	1.902946e-06	4.052051e-10	1.321528e+01	2.858382e+01
2.270000e-06	1.946857e-06	4.264509e-10	1.352023e+01	2.982510e+01
2.280000e-06	1.990721e-06	4.462585e-10	1.382485e+01	3.103915e+01
2.290000e-06	2.034549e-06	4.635111e-10	1.412922e+01	3.222548e+01
2.300000e-06	2.078353e-06	4.786641e-10	1.443343e+01	3.338367e+01
2.310000e-06	2.122114e-06	4.917564e-10	1.473732e+01	3.451344e+01
2.320000e-06	2.165722e-06	5.041305e-10	1.504017e+01	3.561455e+01
2.330000e-06	2.209218e-06	5.170397e-10	1.534223e+01	3.668688e+01
2.340000e-06	2.252653e-06	5.307893e-10	1.564388e+01	3.773038e+01
2.350000e-06	2.295968e-06	5.461451e-10	1.594468e+01	3.874510e+01
2.360000e-06	2.339101e-06	5.627868e-10	1.624423e+01	3.973113e+01
2.370000e-06	2.381917e-06	5.775757e-10	1.654156e+01	4.068865e+01
2.380000e-06	2.424396e-06	5.889503e-10	1.683657e+01	4.161790e+01
2.390000e-06	2.466499e-06	5.986769e-10	1.712896e+01	4.251918e+01
2.400000e-06	2.508213e-06	6.088145e-10	1.741865e+01	4.339282e+01
2.410000e-06	2.549766e-06	6.202862e-10	1.770722e+01	4.423922e+01
2.420000e-06	2.591060e-06	6.337820e-10	1.799399e+01	4.505882e+01
2.430000e-06	2.631883e-06	6.485574e-10	1.827749e+01	4.585207e+01
2.440000e-06	2.672444e-06	6.615754e-10	1.855918e+01	4.661948e+01
2.450000e-06	2.712866e-06	6.710805e-10	1.883989e+01	4.736155e+01
2.460000e-06	2.753095e-06	6.773890e-10	1.911927e+01	4.807884e+01
2.470000e-06	2.793179e-06	6.840598e-10	1.939764e+01	4.877188e+01
2.480000e-06	2.833134e-06	6.942548e-10	1.967511e+01	4.944125e+01
2.490000e-06	2.872957e-06	7.064575e-10	1.995166e+01	5.008750e+01
2.500000e-06	2.912671e-06	7.185984e-10	2.022747e+01	5.071121e+01
2.510000e-06	2.952220e-06	7.296136e-10	2.050212e+01	5.131294e+01
2.520000e-06	2.991544e-06	7.376317e-10	2.077521e+01	5.189325e+01
2.530000e-06	3.030717e-06	7.435285e-10	2.104725e+01	5.245271e+01
2.540000e-06	3.069743e-06	7.490617e-10	2.131827e+01	5.299185e+01
2.550000e-06	3.108527e-06	7.548909e-10	2.158761e+01	5.351121e+01
2.560000e-06	3.146988e-06	7.627537e-10	2.185471e+01	5.401132e+01
2.570000e-06	3.185184e-06	7.712635e-10	2.211997e+01	5.449270e+01
2.580000e-06	3.223196e-06	7.783145e-10	2.238395e+01	5.495582e+01
2.590000e-06	3.261027e-06	7.841304e-10	2.264667e+01	5.540120e+01
2.600000e-06	3.298708e-06	7.896168e-10	2.290836e+01	5.582929e+01
2.610000e-06	3.336219e-06	7.952108e-10	2.316886e+01	5.624057e+01
2.620000e-06	3.373533e-06	8.004279e-10	2.342799e+01	5.663548e+01
2.630000e-06	3.410591e-06	8.052179e-10	2.368535e+01	5.701447e+01
2.640000e-06	3.447327e-06	8.093887e-10	2.394046e+01	5.737797e+01
2.650000e-06	3.483743e-06	8.136796e-10	2.419336e+01	5.772640e+01
2.660000e-06	3.519888e-06	8.190106e-10	2.444437e+01	5.806020e+01
2.670000e-06	3.555853e-06	8.252632e-10	2.469413e+01	5.837978e+01
2.680000e-06	3.591703e-06	8.314307e-10	2.494310e+01	5.868555e+01
2.690000e-06	3.627474e-06	8.361723e-10	2.519152e+01	5.897794e+01
2.700000e-06	3.663152e-06	8.398141e-10	2.543929e+01	5.925735e+01
2.710000e-06	3.698683e-06	8.433840e-10	2.568604e+01	5.952421e+01
2.720000e-06	3.733947e-06	8.480266e-10	2.593093e+01	5.977894e+01
2.730000e-06	3.768850e-06	8.532361e-10	2.617333e+01	6.002195e+01
2.740000e-06	3.803378e-06	8.588571e-10	2.641311e+01	6.025368e+01
2.750000e-06	3.837477e-06	8.647016e-10	2.664992e+01	6.047455e+01
2.760000e-06	3.871037e-06	8.692898e-10	2.688298e+01	6.068501e+01
2.770000e-06	3.904051e-06	8.708677e-10	2.711225e+01	6.088548e+01
2.780000e-06	3.936694e-06	8.727677e-10	2.733894e+01	6.107641e+01
2.790000e-06	3.969043e-06	8.771867e-10	2.756359e+01	6.125824e+01
2.800000e-06	4.001114e-06	8.819303e-10	2.778631e+01	6.143141e+01
2.810000e-06	4.033018e-06	8.857128e-10	2.800788e+01	6.159636e+01
2.820000e-06	4.064835e-06	8.887369e-10	2.822883e+01	6.175353e+01
2.830000e-06	4.096500e-06	8.927828e-10	2.844874e+01	6.190336e+01
2.840000e-06	4.127903e-06	8.973670e-10	2.866682e+01	6.204627e+01
2.850000e-06	4.159020e-06	9.012123e-10	2.888292e+01	6.218269e+01
2.860000e-06	4.189861e-06	9.042786e-10	2.909709e+01	6.231302e+01
2.870000e-06	4.220337e-06	9.071167e-10	2.930874e+01	6.243767e+01
2.880000e-06	4.250470e-06	9.098354e-10	2.951800e+01	6.255702e+01
2.890000e-06	4.280348e-06	9.127436e-10	2.972550e+01	6.267144e+01
2.900000e-06	4.309947e-06	9.147146e-10	2.993105e+01	6.278129e+01
