# Temperatura_=_-8.9
# Concentracion g/m^3_=_1620.0
# C_Vs_to_Am_M_A/Vsm_=_65563218390.804596
# pendiente_HvsI_1/m_=_3716.3
# ordenada_HvsI_A/m_=_1297.0
# frecuencia_Hz_=_135107.08148352327

Tiempo_(s)	Campo_(V.s)	Magnetizacion_(V.s)	Campo_(kA/m)	Magnetizacion_(A/m)
0.000000e+00	-5.514030e-06	-9.636398e-10	-3.837279e+01	-6.559336e+01
1.000000e-08	-5.514126e-06	-9.594177e-10	-3.837346e+01	-6.560102e+01
2.000000e-08	-5.514065e-06	-9.584626e-10	-3.837304e+01	-6.561005e+01
3.000000e-08	-5.513721e-06	-9.597797e-10	-3.837064e+01	-6.561968e+01
4.000000e-08	-5.512923e-06	-9.620595e-10	-3.836509e+01	-6.562907e+01
5.000000e-08	-5.511489e-06	-9.608568e-10	-3.835511e+01	-6.563734e+01
6.000000e-08	-5.509335e-06	-9.559491e-10	-3.834012e+01	-6.564362e+01
7.000000e-08	-5.506577e-06	-9.464837e-10	-3.832093e+01	-6.564701e+01
8.000000e-08	-5.503308e-06	-9.273026e-10	-3.829818e+01	-6.564660e+01
9.000000e-08	-5.499612e-06	-9.418744e-10	-3.827246e+01	-6.564152e+01
1.000000e-07	-5.495533e-06	-1.018683e-09	-3.824407e+01	-6.563094e+01
1.100000e-07	-5.491117e-06	-1.027406e-09	-3.821334e+01	-6.561404e+01
1.200000e-07	-5.486573e-06	-9.045972e-10	-3.818172e+01	-6.559010e+01
1.300000e-07	-5.481870e-06	-8.683500e-10	-3.814899e+01	-6.555843e+01
1.400000e-07	-5.476682e-06	-9.746009e-10	-3.811289e+01	-6.551846e+01
1.500000e-07	-5.471035e-06	-1.034978e-09	-3.807359e+01	-6.546969e+01
1.600000e-07	-5.465121e-06	-9.266131e-10	-3.803243e+01	-6.541171e+01
1.700000e-07	-5.458848e-06	-8.604371e-10	-3.798877e+01	-6.534424e+01
1.800000e-07	-5.452123e-06	-9.948897e-10	-3.794197e+01	-6.526709e+01
1.900000e-07	-5.444985e-06	-1.064948e-09	-3.789230e+01	-6.518021e+01
2.000000e-07	-5.437563e-06	-9.571420e-10	-3.784065e+01	-6.508363e+01
2.100000e-07	-5.429886e-06	-8.532913e-10	-3.778723e+01	-6.497753e+01
2.200000e-07	-5.421926e-06	-9.293424e-10	-3.773183e+01	-6.486219e+01
2.300000e-07	-5.413636e-06	-1.014463e-09	-3.767414e+01	-6.473799e+01
2.400000e-07	-5.404894e-06	-9.762901e-10	-3.761330e+01	-6.460542e+01
2.500000e-07	-5.395515e-06	-9.154326e-10	-3.754803e+01	-6.446507e+01
2.600000e-07	-5.385367e-06	-9.508031e-10	-3.747741e+01	-6.431762e+01
2.700000e-07	-5.374560e-06	-9.740793e-10	-3.740220e+01	-6.416381e+01
2.800000e-07	-5.363304e-06	-9.263590e-10	-3.732388e+01	-6.400447e+01
2.900000e-07	-5.351687e-06	-8.984988e-10	-3.724303e+01	-6.384046e+01
3.000000e-07	-5.339748e-06	-9.351612e-10	-3.715994e+01	-6.367269e+01
3.100000e-07	-5.327490e-06	-9.543681e-10	-3.707464e+01	-6.350211e+01
3.200000e-07	-5.314742e-06	-9.268551e-10	-3.698593e+01	-6.332966e+01
3.300000e-07	-5.301510e-06	-9.134082e-10	-3.689384e+01	-6.315630e+01
3.400000e-07	-5.287925e-06	-9.393060e-10	-3.679930e+01	-6.298296e+01
3.500000e-07	-5.273979e-06	-9.557808e-10	-3.670225e+01	-6.281057e+01
3.600000e-07	-5.259661e-06	-9.123142e-10	-3.660261e+01	-6.263999e+01
3.700000e-07	-5.244867e-06	-8.933581e-10	-3.649966e+01	-6.247207e+01
3.800000e-07	-5.229512e-06	-9.367337e-10	-3.639280e+01	-6.230756e+01
3.900000e-07	-5.213536e-06	-9.462898e-10	-3.628162e+01	-6.214717e+01
4.000000e-07	-5.197006e-06	-8.916102e-10	-3.616658e+01	-6.199152e+01
4.100000e-07	-5.180202e-06	-9.183045e-10	-3.604965e+01	-6.184116e+01
4.200000e-07	-5.163136e-06	-9.637149e-10	-3.593088e+01	-6.169656e+01
4.300000e-07	-5.145651e-06	-9.038289e-10	-3.580920e+01	-6.155807e+01
4.400000e-07	-5.127885e-06	-8.690936e-10	-3.568556e+01	-6.142599e+01
4.500000e-07	-5.109843e-06	-9.589133e-10	-3.556000e+01	-6.130050e+01
4.600000e-07	-5.091340e-06	-9.496176e-10	-3.543124e+01	-6.118171e+01
4.700000e-07	-5.072395e-06	-8.570144e-10	-3.529940e+01	-6.106962e+01
4.800000e-07	-5.053087e-06	-8.999779e-10	-3.516503e+01	-6.096418e+01
4.900000e-07	-5.033499e-06	-9.660717e-10	-3.502872e+01	-6.086525e+01
5.000000e-07	-5.013728e-06	-8.946521e-10	-3.489113e+01	-6.077261e+01
5.100000e-07	-4.993800e-06	-8.893243e-10	-3.475245e+01	-6.068599e+01
5.200000e-07	-4.973583e-06	-9.575998e-10	-3.461176e+01	-6.060506e+01
5.300000e-07	-4.952964e-06	-9.061916e-10	-3.446827e+01	-6.052945e+01
5.400000e-07	-4.931987e-06	-8.602594e-10	-3.432229e+01	-6.045874e+01
5.500000e-07	-4.910638e-06	-9.414663e-10	-3.417372e+01	-6.039249e+01
5.600000e-07	-4.888926e-06	-9.301373e-10	-3.402262e+01	-6.033025e+01
5.700000e-07	-4.866968e-06	-8.429737e-10	-3.386981e+01	-6.027153e+01
5.800000e-07	-4.844702e-06	-8.904282e-10	-3.371486e+01	-6.021587e+01
5.900000e-07	-4.821998e-06	-9.394952e-10	-3.355686e+01	-6.016279e+01
6.000000e-07	-4.798928e-06	-8.721120e-10	-3.339631e+01	-6.011182e+01
6.100000e-07	-4.775612e-06	-8.688241e-10	-3.323405e+01	-6.006253e+01
6.200000e-07	-4.752020e-06	-9.241290e-10	-3.306987e+01	-6.001449e+01
6.300000e-07	-4.728172e-06	-8.874708e-10	-3.290391e+01	-5.996730e+01
6.400000e-07	-4.704082e-06	-8.588371e-10	-3.273627e+01	-5.992059e+01
6.500000e-07	-4.679685e-06	-8.986087e-10	-3.256649e+01	-5.987403e+01
6.600000e-07	-4.654907e-06	-8.943459e-10	-3.239406e+01	-5.982732e+01
6.700000e-07	-4.629675e-06	-8.634546e-10	-3.221846e+01	-5.978018e+01
6.800000e-07	-4.603958e-06	-8.891163e-10	-3.203949e+01	-5.973237e+01
6.900000e-07	-4.577658e-06	-9.004723e-10	-3.185647e+01	-5.968370e+01
7.000000e-07	-4.550712e-06	-8.773414e-10	-3.166895e+01	-5.963398e+01
7.100000e-07	-4.523296e-06	-8.783841e-10	-3.147815e+01	-5.958307e+01
7.200000e-07	-4.495689e-06	-8.857048e-10	-3.128604e+01	-5.953083e+01
7.300000e-07	-4.467956e-06	-8.660390e-10	-3.109304e+01	-5.947717e+01
7.400000e-07	-4.440097e-06	-8.659663e-10	-3.089916e+01	-5.942199e+01
7.500000e-07	-4.412061e-06	-8.805581e-10	-3.070406e+01	-5.936521e+01
7.600000e-07	-4.383706e-06	-8.780048e-10	-3.050673e+01	-5.930677e+01
7.700000e-07	-4.355015e-06	-8.683141e-10	-3.030707e+01	-5.924660e+01
7.800000e-07	-4.325985e-06	-8.695792e-10	-3.010505e+01	-5.918464e+01
7.900000e-07	-4.296613e-06	-8.645546e-10	-2.990064e+01	-5.912082e+01
8.000000e-07	-4.266960e-06	-8.608190e-10	-2.969429e+01	-5.905508e+01
8.100000e-07	-4.237028e-06	-8.612017e-10	-2.948598e+01	-5.898735e+01
8.200000e-07	-4.206792e-06	-8.567495e-10	-2.927557e+01	-5.891753e+01
8.300000e-07	-4.176307e-06	-8.517155e-10	-2.906342e+01	-5.884555e+01
8.400000e-07	-4.145521e-06	-8.586499e-10	-2.884918e+01	-5.877129e+01
8.500000e-07	-4.114459e-06	-8.608086e-10	-2.863301e+01	-5.869467e+01
8.600000e-07	-4.083141e-06	-8.515436e-10	-2.841507e+01	-5.861556e+01
8.700000e-07	-4.051581e-06	-8.478841e-10	-2.819543e+01	-5.853384e+01
8.800000e-07	-4.019887e-06	-8.486054e-10	-2.797487e+01	-5.844940e+01
8.900000e-07	-3.988078e-06	-8.415026e-10	-2.775351e+01	-5.836211e+01
9.000000e-07	-3.956062e-06	-8.386508e-10	-2.753071e+01	-5.827186e+01
9.100000e-07	-3.923751e-06	-8.437552e-10	-2.730585e+01	-5.817853e+01
9.200000e-07	-3.891055e-06	-8.380693e-10	-2.707832e+01	-5.808202e+01
9.300000e-07	-3.857981e-06	-8.313445e-10	-2.684815e+01	-5.798224e+01
9.400000e-07	-3.824488e-06	-8.351228e-10	-2.661507e+01	-5.787912e+01
9.500000e-07	-3.790462e-06	-8.351093e-10	-2.637828e+01	-5.777261e+01
9.600000e-07	-3.755992e-06	-8.238750e-10	-2.613839e+01	-5.766267e+01
9.700000e-07	-3.721118e-06	-8.201024e-10	-2.589570e+01	-5.754930e+01
9.800000e-07	-3.685906e-06	-8.187752e-10	-2.565066e+01	-5.743253e+01
9.900000e-07	-3.650455e-06	-8.117946e-10	-2.540396e+01	-5.731239e+01
1.000000e-06	-3.614820e-06	-8.082264e-10	-2.515596e+01	-5.718897e+01
1.010000e-06	-3.579072e-06	-8.125020e-10	-2.490719e+01	-5.706237e+01
1.020000e-06	-3.543229e-06	-8.112253e-10	-2.465776e+01	-5.693273e+01
1.030000e-06	-3.507200e-06	-8.104648e-10	-2.440702e+01	-5.680021e+01
1.040000e-06	-3.470935e-06	-8.163252e-10	-2.415465e+01	-5.666499e+01
1.050000e-06	-3.434420e-06	-8.172942e-10	-2.390054e+01	-5.652727e+01
1.060000e-06	-3.397652e-06	-8.062001e-10	-2.364467e+01	-5.638729e+01
1.070000e-06	-3.360597e-06	-8.011304e-10	-2.338680e+01	-5.624526e+01
1.080000e-06	-3.323249e-06	-8.033002e-10	-2.312689e+01	-5.610144e+01
1.090000e-06	-3.285682e-06	-8.039070e-10	-2.286545e+01	-5.595606e+01
1.100000e-06	-3.247951e-06	-8.039688e-10	-2.260288e+01	-5.580936e+01
1.110000e-06	-3.210034e-06	-8.054776e-10	-2.233901e+01	-5.566157e+01
1.120000e-06	-3.171809e-06	-8.029665e-10	-2.207300e+01	-5.551290e+01
1.130000e-06	-3.133354e-06	-7.979144e-10	-2.180539e+01	-5.536354e+01
1.140000e-06	-3.094740e-06	-7.966078e-10	-2.153666e+01	-5.521364e+01
1.150000e-06	-3.055900e-06	-7.953672e-10	-2.126638e+01	-5.506335e+01
1.160000e-06	-3.016752e-06	-7.892991e-10	-2.099394e+01	-5.491273e+01
1.170000e-06	-2.977408e-06	-7.834595e-10	-2.072014e+01	-5.476185e+01
1.180000e-06	-2.938018e-06	-7.810937e-10	-2.044602e+01	-5.461069e+01
1.190000e-06	-2.898494e-06	-7.798017e-10	-2.017097e+01	-5.445920e+01
1.200000e-06	-2.858814e-06	-7.779347e-10	-1.989483e+01	-5.430729e+01
1.210000e-06	-2.818968e-06	-7.746485e-10	-1.961754e+01	-5.415478e+01
1.220000e-06	-2.778985e-06	-7.699789e-10	-1.933929e+01	-5.400148e+01
1.230000e-06	-2.738925e-06	-7.674923e-10	-1.906050e+01	-5.384712e+01
1.240000e-06	-2.698747e-06	-7.667990e-10	-1.878090e+01	-5.369138e+01
1.250000e-06	-2.658400e-06	-7.640355e-10	-1.850012e+01	-5.353391e+01
1.260000e-06	-2.617805e-06	-7.609204e-10	-1.821762e+01	-5.337431e+01
1.270000e-06	-2.576970e-06	-7.559632e-10	-1.793344e+01	-5.321213e+01
1.280000e-06	-2.535965e-06	-7.517404e-10	-1.764808e+01	-5.304689e+01
1.290000e-06	-2.494603e-06	-7.479508e-10	-1.736024e+01	-5.287812e+01
1.300000e-06	-2.452820e-06	-7.433272e-10	-1.706947e+01	-5.270527e+01
1.310000e-06	-2.410666e-06	-7.389623e-10	-1.677611e+01	-5.252782e+01
1.320000e-06	-2.368209e-06	-7.373218e-10	-1.648065e+01	-5.234524e+01
1.330000e-06	-2.325570e-06	-7.357602e-10	-1.618392e+01	-5.215700e+01
1.340000e-06	-2.282658e-06	-7.337245e-10	-1.588529e+01	-5.196257e+01
1.350000e-06	-2.239441e-06	-7.315027e-10	-1.558454e+01	-5.176145e+01
1.360000e-06	-2.196031e-06	-7.262424e-10	-1.528244e+01	-5.155317e+01
1.370000e-06	-2.152519e-06	-7.184387e-10	-1.497963e+01	-5.133727e+01
1.380000e-06	-2.108894e-06	-7.123857e-10	-1.467604e+01	-5.111335e+01
1.390000e-06	-2.065144e-06	-7.084422e-10	-1.437159e+01	-5.088105e+01
1.400000e-06	-2.021379e-06	-7.055575e-10	-1.406702e+01	-5.064003e+01
1.410000e-06	-1.977624e-06	-7.019904e-10	-1.376252e+01	-5.039003e+01
1.420000e-06	-1.933759e-06	-7.003798e-10	-1.345726e+01	-5.013082e+01
1.430000e-06	-1.889776e-06	-6.983642e-10	-1.315117e+01	-4.986223e+01
1.440000e-06	-1.845704e-06	-6.950265e-10	-1.284447e+01	-4.958412e+01
1.450000e-06	-1.801526e-06	-6.884867e-10	-1.253704e+01	-4.929642e+01
1.460000e-06	-1.757314e-06	-6.792844e-10	-1.222936e+01	-4.899908e+01
1.470000e-06	-1.713019e-06	-6.695006e-10	-1.192110e+01	-4.869209e+01
1.480000e-06	-1.668446e-06	-6.633028e-10	-1.161091e+01	-4.837549e+01
1.490000e-06	-1.623644e-06	-6.579085e-10	-1.129913e+01	-4.804932e+01
1.500000e-06	-1.578784e-06	-6.502459e-10	-1.098694e+01	-4.771365e+01
1.510000e-06	-1.533890e-06	-6.462879e-10	-1.067452e+01	-4.736853e+01
1.520000e-06	-1.488919e-06	-6.455077e-10	-1.036157e+01	-4.701403e+01
1.530000e-06	-1.443788e-06	-6.436819e-10	-1.004749e+01	-4.665019e+01
1.540000e-06	-1.398537e-06	-6.372408e-10	-9.732588e+00	-4.627704e+01
1.550000e-06	-1.353192e-06	-6.282504e-10	-9.417024e+00	-4.589457e+01
1.560000e-06	-1.307745e-06	-6.179267e-10	-9.100756e+00	-4.550270e+01
1.570000e-06	-1.262246e-06	-6.078817e-10	-8.784123e+00	-4.510132e+01
1.580000e-06	-1.216625e-06	-6.001078e-10	-8.466639e+00	-4.469025e+01
1.590000e-06	-1.170871e-06	-5.960822e-10	-8.148233e+00	-4.426922e+01
1.600000e-06	-1.124978e-06	-5.944406e-10	-7.828859e+00	-4.383789e+01
1.610000e-06	-1.078971e-06	-5.934909e-10	-7.508690e+00	-4.339583e+01
1.620000e-06	-1.033003e-06	-5.893060e-10	-7.188789e+00	-4.294252e+01
1.630000e-06	-9.870303e-07	-5.820854e-10	-6.868862e+00	-4.247733e+01
1.640000e-06	-9.409922e-07	-5.720280e-10	-6.548477e+00	-4.199954e+01
1.650000e-06	-8.949089e-07	-5.612981e-10	-6.227778e+00	-4.150833e+01
1.660000e-06	-8.487261e-07	-5.501946e-10	-5.906387e+00	-4.100279e+01
1.670000e-06	-8.024908e-07	-5.407887e-10	-5.584629e+00	-4.048190e+01
1.680000e-06	-7.562026e-07	-5.328347e-10	-5.262504e+00	-3.994456e+01
1.690000e-06	-7.098047e-07	-5.252912e-10	-4.939616e+00	-3.938959e+01
1.700000e-06	-6.633946e-07	-5.180672e-10	-4.616643e+00	-3.881574e+01
1.710000e-06	-6.171089e-07	-5.116034e-10	-4.294534e+00	-3.822169e+01
1.720000e-06	-5.707759e-07	-5.058609e-10	-3.972097e+00	-3.760607e+01
1.730000e-06	-5.242252e-07	-4.981127e-10	-3.648146e+00	-3.696749e+01
1.740000e-06	-4.776261e-07	-4.877385e-10	-3.323857e+00	-3.630453e+01
1.750000e-06	-4.309583e-07	-4.742381e-10	-2.999091e+00	-3.561576e+01
1.760000e-06	-3.842393e-07	-4.595473e-10	-2.673967e+00	-3.489977e+01
1.770000e-06	-3.375175e-07	-4.486278e-10	-2.348824e+00	-3.415518e+01
1.780000e-06	-2.907719e-07	-4.401070e-10	-2.023517e+00	-3.338066e+01
1.790000e-06	-2.440210e-07	-4.320464e-10	-1.698172e+00	-3.257493e+01
1.800000e-06	-1.972474e-07	-4.221482e-10	-1.372668e+00	-3.173681e+01
1.810000e-06	-1.505313e-07	-4.072478e-10	-1.047565e+00	-3.086522e+01
1.820000e-06	-1.039036e-07	-3.921122e-10	-7.230776e-01	-2.995920e+01
1.830000e-06	-5.728241e-08	-3.796418e-10	-3.986351e-01	-2.901791e+01
1.840000e-06	-1.065751e-08	-3.692763e-10	-7.416690e-02	-2.804067e+01
1.850000e-06	3.596465e-08	-3.572071e-10	2.502823e-01	-2.702696e+01
1.860000e-06	8.264927e-08	-3.438066e-10	5.751662e-01	-2.597644e+01
1.870000e-06	1.293837e-07	-3.281628e-10	9.003969e-01	-2.488894e+01
1.880000e-06	1.761369e-07	-3.118384e-10	1.225758e+00	-2.376449e+01
1.890000e-06	2.228868e-07	-2.962390e-10	1.551096e+00	-2.260333e+01
1.900000e-06	2.696909e-07	-2.800634e-10	1.876811e+00	-2.140587e+01
1.910000e-06	3.164562e-07	-2.640915e-10	2.202256e+00	-2.017276e+01
1.920000e-06	3.631579e-07	-2.493027e-10	2.527259e+00	-1.890483e+01
1.930000e-06	4.098638e-07	-2.327436e-10	2.852291e+00	-1.760313e+01
1.940000e-06	4.565123e-07	-2.115217e-10	3.176923e+00	-1.626889e+01
1.950000e-06	5.030860e-07	-1.902319e-10	3.501036e+00	-1.490354e+01
1.960000e-06	5.495627e-07	-1.728608e-10	3.824473e+00	-1.350869e+01
1.970000e-06	5.960200e-07	-1.548223e-10	4.147775e+00	-1.208610e+01
1.980000e-06	6.425001e-07	-1.360574e-10	4.471235e+00	-1.063772e+01
1.990000e-06	6.888497e-07	-1.176308e-10	4.793787e+00	-9.165623e+00
2.000000e-06	7.351153e-07	-9.557512e-11	5.115755e+00	-7.672012e+00
2.010000e-06	7.814223e-07	-6.929036e-11	5.438011e+00	-6.159203e+00
2.020000e-06	8.276688e-07	-4.404414e-11	5.759846e+00	-4.629603e+00
2.030000e-06	8.738374e-07	-2.201054e-11	6.081139e+00	-3.085695e+00
2.040000e-06	9.199845e-07	-3.257165e-12	6.402282e+00	-1.530015e+00
2.050000e-06	9.660466e-07	1.650732e-11	6.722834e+00	3.486357e-02
2.060000e-06	1.012033e-06	3.781903e-11	7.042856e+00	1.606351e+00
2.070000e-06	1.057933e-06	5.841813e-11	7.362280e+00	3.181861e+00
2.080000e-06	1.103719e-06	8.194617e-11	7.680915e+00	4.758826e+00
2.090000e-06	1.149432e-06	1.077043e-10	7.999036e+00	6.334720e+00
2.100000e-06	1.195084e-06	1.325779e-10	8.316735e+00	7.907072e+00
2.110000e-06	1.240666e-06	1.539222e-10	8.633942e+00	9.473480e+00
2.120000e-06	1.286162e-06	1.736872e-10	8.950556e+00	1.103163e+01
2.130000e-06	1.331617e-06	1.929269e-10	9.266881e+00	1.257932e+01
2.140000e-06	1.376974e-06	2.105561e-10	9.582529e+00	1.411443e+01
2.150000e-06	1.422204e-06	2.293481e-10	9.897285e+00	1.563499e+01
2.160000e-06	1.467387e-06	2.510810e-10	1.021172e+01	1.713914e+01
2.170000e-06	1.512475e-06	2.737501e-10	1.052549e+01	1.862518e+01
2.180000e-06	1.557398e-06	2.946589e-10	1.083812e+01	2.009152e+01
2.190000e-06	1.602215e-06	3.150400e-10	1.115001e+01	2.153673e+01
2.200000e-06	1.646872e-06	3.350202e-10	1.146078e+01	2.295953e+01
2.210000e-06	1.691323e-06	3.518440e-10	1.177012e+01	2.435878e+01
2.220000e-06	1.735635e-06	3.679164e-10	1.207849e+01	2.573348e+01
2.230000e-06	1.779842e-06	3.857592e-10	1.238614e+01	2.708278e+01
2.240000e-06	1.823952e-06	4.040225e-10	1.269310e+01	2.840594e+01
2.250000e-06	1.867975e-06	4.206027e-10	1.299946e+01	2.970238e+01
2.260000e-06	1.911933e-06	4.392560e-10	1.330537e+01	3.097162e+01
2.270000e-06	1.955819e-06	4.590540e-10	1.361078e+01	3.221330e+01
2.280000e-06	1.999636e-06	4.774988e-10	1.391571e+01	3.342717e+01
2.290000e-06	2.043422e-06	4.948391e-10	1.422042e+01	3.461307e+01
2.300000e-06	2.087187e-06	5.103925e-10	1.452499e+01	3.577092e+01
2.310000e-06	2.130891e-06	5.232673e-10	1.482912e+01	3.690074e+01
2.320000e-06	2.174432e-06	5.357002e-10	1.513213e+01	3.800258e+01
2.330000e-06	2.217785e-06	5.483053e-10	1.543383e+01	3.907657e+01
2.340000e-06	2.261088e-06	5.611021e-10	1.573518e+01	4.012290e+01
2.350000e-06	2.304289e-06	5.750547e-10	1.603583e+01	4.114177e+01
2.360000e-06	2.347161e-06	5.876922e-10	1.633417e+01	4.213342e+01
2.370000e-06	2.389677e-06	5.976743e-10	1.663005e+01	4.309812e+01
2.380000e-06	2.431878e-06	6.086114e-10	1.692373e+01	4.403615e+01
2.390000e-06	2.473776e-06	6.203379e-10	1.721530e+01	4.494781e+01
2.400000e-06	2.515348e-06	6.323504e-10	1.750461e+01	4.583339e+01
2.410000e-06	2.556628e-06	6.456454e-10	1.779188e+01	4.669319e+01
2.420000e-06	2.597619e-06	6.581200e-10	1.807714e+01	4.752749e+01
2.430000e-06	2.638284e-06	6.704974e-10	1.836013e+01	4.833660e+01
2.440000e-06	2.678719e-06	6.810735e-10	1.864153e+01	4.912080e+01
2.450000e-06	2.718966e-06	6.897850e-10	1.892161e+01	4.988036e+01
2.460000e-06	2.759052e-06	6.977144e-10	1.920058e+01	5.061557e+01
2.470000e-06	2.799020e-06	7.058245e-10	1.947872e+01	5.132669e+01
2.480000e-06	2.838928e-06	7.158467e-10	1.975644e+01	5.201399e+01
2.490000e-06	2.878739e-06	7.276406e-10	2.003349e+01	5.267774e+01
2.500000e-06	2.918374e-06	7.400208e-10	2.030931e+01	5.331821e+01
2.510000e-06	2.957862e-06	7.485508e-10	2.058411e+01	5.393568e+01
2.520000e-06	2.997207e-06	7.534084e-10	2.085792e+01	5.453046e+01
2.530000e-06	3.036355e-06	7.577246e-10	2.113036e+01	5.510283e+01
2.540000e-06	3.075260e-06	7.628518e-10	2.140110e+01	5.565312e+01
2.550000e-06	3.113847e-06	7.698810e-10	2.166964e+01	5.618169e+01
2.560000e-06	3.152135e-06	7.776173e-10	2.193608e+01	5.668888e+01
2.570000e-06	3.190241e-06	7.862291e-10	2.220127e+01	5.717512e+01
2.580000e-06	3.228136e-06	7.940033e-10	2.246499e+01	5.764081e+01
2.590000e-06	3.265820e-06	8.003204e-10	2.272723e+01	5.808642e+01
2.600000e-06	3.303347e-06	8.054052e-10	2.298839e+01	5.851243e+01
2.610000e-06	3.340709e-06	8.101411e-10	2.324839e+01	5.891938e+01
2.620000e-06	3.377881e-06	8.142255e-10	2.350708e+01	5.930781e+01
2.630000e-06	3.414762e-06	8.190849e-10	2.376373e+01	5.967832e+01
2.640000e-06	3.451303e-06	8.251501e-10	2.401803e+01	6.003151e+01
2.650000e-06	3.487559e-06	8.315172e-10	2.427034e+01	6.036805e+01
2.660000e-06	3.523623e-06	8.390120e-10	2.452131e+01	6.068859e+01
2.670000e-06	3.559556e-06	8.442020e-10	2.477138e+01	6.099383e+01
2.680000e-06	3.595387e-06	8.462986e-10	2.502073e+01	6.128449e+01
2.690000e-06	3.631110e-06	8.491036e-10	2.526933e+01	6.156127e+01
2.700000e-06	3.666668e-06	8.526389e-10	2.551678e+01	6.182491e+01
2.710000e-06	3.702021e-06	8.568939e-10	2.576280e+01	6.207613e+01
2.720000e-06	3.737068e-06	8.617532e-10	2.600670e+01	6.231567e+01
2.730000e-06	3.771745e-06	8.673312e-10	2.624803e+01	6.254423e+01
2.740000e-06	3.805976e-06	8.727329e-10	2.648624e+01	6.276253e+01
2.750000e-06	3.839708e-06	8.775930e-10	2.672099e+01	6.297123e+01
2.760000e-06	3.872959e-06	8.811704e-10	2.695238e+01	6.317098e+01
2.770000e-06	3.905712e-06	8.843588e-10	2.718032e+01	6.336243e+01
2.780000e-06	3.938154e-06	8.890925e-10	2.740608e+01	6.354614e+01
2.790000e-06	3.970407e-06	8.940209e-10	2.763054e+01	6.372266e+01
2.800000e-06	4.002405e-06	8.986391e-10	2.785321e+01	6.389251e+01
2.810000e-06	4.034191e-06	9.015884e-10	2.807441e+01	6.405614e+01
2.820000e-06	4.065833e-06	9.050212e-10	2.829462e+01	6.421396e+01
2.830000e-06	4.097303e-06	9.083653e-10	2.851362e+01	6.436634e+01
2.840000e-06	4.128502e-06	9.104193e-10	2.873074e+01	6.451359e+01
2.850000e-06	4.159382e-06	9.125685e-10	2.894564e+01	6.465599e+01
2.860000e-06	4.189918e-06	9.173128e-10	2.915814e+01	6.479375e+01
2.870000e-06	4.220117e-06	9.222820e-10	2.936830e+01	6.492706e+01
2.880000e-06	4.250033e-06	9.261294e-10	2.957649e+01	6.505605e+01
2.890000e-06	4.279718e-06	9.323955e-10	2.978307e+01	6.518083e+01
2.900000e-06	4.309186e-06	9.385604e-10	2.998814e+01	6.530145e+01
