# Temperatura_=_13.44
# Concentracion g/m^3_=_1620.0
# C_Vs_to_Am_M_A/Vsm_=_65563218390.804596
# pendiente_HvsI_1/m_=_3716.3
# ordenada_HvsI_A/m_=_1297.0
# frecuencia_Hz_=_135101.34795949567

Tiempo_(s)	Campo_(V.s)	Magnetizacion_(V.s)	Campo_(kA/m)	Magnetizacion_(A/m)
0.000000e+00	-5.527435e-06	-1.458183e-09	-3.837509e+01	-9.918416e+01
1.000000e-08	-5.527682e-06	-1.457639e-09	-3.837681e+01	-9.916637e+01
2.000000e-08	-5.527644e-06	-1.456260e-09	-3.837654e+01	-9.914888e+01
3.000000e-08	-5.527379e-06	-1.452400e-09	-3.837470e+01	-9.913183e+01
4.000000e-08	-5.526705e-06	-1.447790e-09	-3.837003e+01	-9.911528e+01
5.000000e-08	-5.525468e-06	-1.445679e-09	-3.836144e+01	-9.909927e+01
6.000000e-08	-5.523634e-06	-1.446149e-09	-3.834870e+01	-9.908376e+01
7.000000e-08	-5.521170e-06	-1.456319e-09	-3.833160e+01	-9.906865e+01
8.000000e-08	-5.518151e-06	-1.434518e-09	-3.831064e+01	-9.905379e+01
9.000000e-08	-5.514603e-06	-1.394048e-09	-3.828600e+01	-9.903895e+01
1.000000e-07	-5.510619e-06	-1.440022e-09	-3.825835e+01	-9.902382e+01
1.100000e-07	-5.506306e-06	-1.524409e-09	-3.822840e+01	-9.900805e+01
1.200000e-07	-5.501762e-06	-1.473995e-09	-3.819686e+01	-9.899121e+01
1.300000e-07	-5.497032e-06	-1.365992e-09	-3.816401e+01	-9.897279e+01
1.400000e-07	-5.491924e-06	-1.362826e-09	-3.812856e+01	-9.895226e+01
1.500000e-07	-5.486421e-06	-1.495517e-09	-3.809035e+01	-9.892903e+01
1.600000e-07	-5.480492e-06	-1.478303e-09	-3.804918e+01	-9.890245e+01
1.700000e-07	-5.474198e-06	-1.399306e-09	-3.800549e+01	-9.887188e+01
1.800000e-07	-5.467599e-06	-1.396952e-09	-3.795967e+01	-9.883663e+01
1.900000e-07	-5.460530e-06	-1.524649e-09	-3.791060e+01	-9.879601e+01
2.000000e-07	-5.453041e-06	-1.512801e-09	-3.785860e+01	-9.874936e+01
2.100000e-07	-5.445295e-06	-1.426044e-09	-3.780483e+01	-9.869602e+01
2.200000e-07	-5.437364e-06	-1.405427e-09	-3.774976e+01	-9.863537e+01
2.300000e-07	-5.429200e-06	-1.487022e-09	-3.769309e+01	-9.856684e+01
2.400000e-07	-5.420672e-06	-1.513391e-09	-3.763388e+01	-9.848990e+01
2.500000e-07	-5.411639e-06	-1.472630e-09	-3.757116e+01	-9.840413e+01
2.600000e-07	-5.401825e-06	-1.468277e-09	-3.750303e+01	-9.830914e+01
2.700000e-07	-5.391291e-06	-1.479566e-09	-3.742989e+01	-9.820468e+01
2.800000e-07	-5.380290e-06	-1.478205e-09	-3.735352e+01	-9.809058e+01
2.900000e-07	-5.368819e-06	-1.436617e-09	-3.727388e+01	-9.796675e+01
3.000000e-07	-5.356950e-06	-1.448243e-09	-3.719148e+01	-9.783324e+01
3.100000e-07	-5.344751e-06	-1.452576e-09	-3.710678e+01	-9.769020e+01
3.200000e-07	-5.332175e-06	-1.484211e-09	-3.701947e+01	-9.753788e+01
3.300000e-07	-5.319129e-06	-1.454780e-09	-3.692889e+01	-9.737663e+01
3.400000e-07	-5.305612e-06	-1.458164e-09	-3.683505e+01	-9.720693e+01
3.500000e-07	-5.291781e-06	-1.461429e-09	-3.673903e+01	-9.702931e+01
3.600000e-07	-5.277555e-06	-1.472107e-09	-3.664026e+01	-9.684442e+01
3.700000e-07	-5.262827e-06	-1.420250e-09	-3.653801e+01	-9.665297e+01
3.800000e-07	-5.247589e-06	-1.444525e-09	-3.643222e+01	-9.645570e+01
3.900000e-07	-5.231748e-06	-1.468047e-09	-3.632224e+01	-9.625345e+01
4.000000e-07	-5.215396e-06	-1.420663e-09	-3.620871e+01	-9.604704e+01
4.100000e-07	-5.198716e-06	-1.383686e-09	-3.609291e+01	-9.583732e+01
4.200000e-07	-5.181830e-06	-1.465747e-09	-3.597568e+01	-9.562514e+01
4.300000e-07	-5.164567e-06	-1.454525e-09	-3.585583e+01	-9.541133e+01
4.400000e-07	-5.146919e-06	-1.368120e-09	-3.573330e+01	-9.519668e+01
4.500000e-07	-5.128968e-06	-1.411061e-09	-3.560867e+01	-9.498192e+01
4.600000e-07	-5.110593e-06	-1.480264e-09	-3.548110e+01	-9.476773e+01
4.700000e-07	-5.091745e-06	-1.385723e-09	-3.535025e+01	-9.455468e+01
4.800000e-07	-5.072546e-06	-1.351080e-09	-3.521696e+01	-9.434327e+01
4.900000e-07	-5.053103e-06	-1.449144e-09	-3.508197e+01	-9.413389e+01
5.000000e-07	-5.033360e-06	-1.428051e-09	-3.494490e+01	-9.392684e+01
5.100000e-07	-5.013372e-06	-1.356759e-09	-3.480613e+01	-9.372227e+01
5.200000e-07	-4.993136e-06	-1.424261e-09	-3.466564e+01	-9.352023e+01
5.300000e-07	-4.972547e-06	-1.447352e-09	-3.452270e+01	-9.332066e+01
5.400000e-07	-4.951639e-06	-1.352722e-09	-3.437754e+01	-9.312337e+01
5.500000e-07	-4.930466e-06	-1.378915e-09	-3.423055e+01	-9.292807e+01
5.600000e-07	-4.908932e-06	-1.434490e-09	-3.408104e+01	-9.273434e+01
5.700000e-07	-4.886980e-06	-1.363445e-09	-3.392863e+01	-9.254172e+01
5.800000e-07	-4.864808e-06	-1.335917e-09	-3.377470e+01	-9.234961e+01
5.900000e-07	-4.842365e-06	-1.415548e-09	-3.361889e+01	-9.215737e+01
6.000000e-07	-4.819435e-06	-1.387960e-09	-3.345969e+01	-9.196430e+01
6.100000e-07	-4.796186e-06	-1.337701e-09	-3.329828e+01	-9.176967e+01
6.200000e-07	-4.772751e-06	-1.376226e-09	-3.313558e+01	-9.157272e+01
6.300000e-07	-4.749027e-06	-1.386433e-09	-3.297087e+01	-9.137267e+01
6.400000e-07	-4.725016e-06	-1.330021e-09	-3.280418e+01	-9.116880e+01
6.500000e-07	-4.700750e-06	-1.349093e-09	-3.263571e+01	-9.096036e+01
6.600000e-07	-4.676140e-06	-1.369842e-09	-3.246485e+01	-9.074670e+01
6.700000e-07	-4.651014e-06	-1.339929e-09	-3.229040e+01	-9.052718e+01
6.800000e-07	-4.625292e-06	-1.330794e-09	-3.211183e+01	-9.030128e+01
6.900000e-07	-4.599037e-06	-1.357722e-09	-3.192955e+01	-9.006853e+01
7.000000e-07	-4.572265e-06	-1.336224e-09	-3.174367e+01	-8.982858e+01
7.100000e-07	-4.545128e-06	-1.314549e-09	-3.155528e+01	-8.958117e+01
7.200000e-07	-4.517716e-06	-1.316711e-09	-3.136496e+01	-8.932614e+01
7.300000e-07	-4.490010e-06	-1.313720e-09	-3.117260e+01	-8.906345e+01
7.400000e-07	-4.462079e-06	-1.298443e-09	-3.097869e+01	-8.879317e+01
7.500000e-07	-4.433934e-06	-1.305787e-09	-3.078329e+01	-8.851547e+01
7.600000e-07	-4.405592e-06	-1.306153e-09	-3.058652e+01	-8.823062e+01
7.700000e-07	-4.377020e-06	-1.296829e-09	-3.038815e+01	-8.793899e+01
7.800000e-07	-4.348080e-06	-1.292004e-09	-3.018724e+01	-8.764103e+01
7.900000e-07	-4.318784e-06	-1.285334e-09	-2.998384e+01	-8.733726e+01
8.000000e-07	-4.289237e-06	-1.273499e-09	-2.977871e+01	-8.702825e+01
8.100000e-07	-4.259408e-06	-1.265422e-09	-2.957162e+01	-8.671463e+01
8.200000e-07	-4.229229e-06	-1.265505e-09	-2.936209e+01	-8.639704e+01
8.300000e-07	-4.198694e-06	-1.261634e-09	-2.915010e+01	-8.607615e+01
8.400000e-07	-4.167857e-06	-1.262158e-09	-2.893601e+01	-8.575261e+01
8.500000e-07	-4.136814e-06	-1.264232e-09	-2.872049e+01	-8.542705e+01
8.600000e-07	-4.105538e-06	-1.261074e-09	-2.850335e+01	-8.510009e+01
8.700000e-07	-4.073999e-06	-1.248438e-09	-2.828439e+01	-8.477225e+01
8.800000e-07	-4.042293e-06	-1.244304e-09	-2.806426e+01	-8.444404e+01
8.900000e-07	-4.010437e-06	-1.234823e-09	-2.784310e+01	-8.411585e+01
9.000000e-07	-3.978326e-06	-1.227194e-09	-2.762016e+01	-8.378802e+01
9.100000e-07	-3.945978e-06	-1.225772e-09	-2.739558e+01	-8.346077e+01
9.200000e-07	-3.913453e-06	-1.229224e-09	-2.716977e+01	-8.313424e+01
9.300000e-07	-3.880605e-06	-1.221328e-09	-2.694171e+01	-8.280846e+01
9.400000e-07	-3.847282e-06	-1.220901e-09	-2.671037e+01	-8.248336e+01
9.500000e-07	-3.813435e-06	-1.219736e-09	-2.647538e+01	-8.215878e+01
9.600000e-07	-3.779072e-06	-1.210155e-09	-2.623680e+01	-8.183445e+01
9.700000e-07	-3.744220e-06	-1.191487e-09	-2.599484e+01	-8.151003e+01
9.800000e-07	-3.708984e-06	-1.186625e-09	-2.575021e+01	-8.118508e+01
9.900000e-07	-3.673523e-06	-1.182637e-09	-2.550402e+01	-8.085912e+01
1.000000e-06	-3.637898e-06	-1.175732e-09	-2.525668e+01	-8.053158e+01
1.010000e-06	-3.602066e-06	-1.173040e-09	-2.500791e+01	-8.020187e+01
1.020000e-06	-3.566122e-06	-1.174047e-09	-2.475837e+01	-7.986937e+01
1.030000e-06	-3.530071e-06	-1.166072e-09	-2.450808e+01	-7.953344e+01
1.040000e-06	-3.493823e-06	-1.158566e-09	-2.425642e+01	-7.919343e+01
1.050000e-06	-3.457344e-06	-1.155819e-09	-2.400316e+01	-7.884872e+01
1.060000e-06	-3.420622e-06	-1.147829e-09	-2.374821e+01	-7.849872e+01
1.070000e-06	-3.383570e-06	-1.135393e-09	-2.349097e+01	-7.814288e+01
1.080000e-06	-3.346223e-06	-1.131806e-09	-2.323168e+01	-7.778071e+01
1.090000e-06	-3.308669e-06	-1.131981e-09	-2.297096e+01	-7.741176e+01
1.100000e-06	-3.270855e-06	-1.124942e-09	-2.270843e+01	-7.703569e+01
1.110000e-06	-3.232819e-06	-1.117644e-09	-2.244436e+01	-7.665222e+01
1.120000e-06	-3.194560e-06	-1.112115e-09	-2.217874e+01	-7.626115e+01
1.130000e-06	-3.156004e-06	-1.104386e-09	-2.191106e+01	-7.586238e+01
1.140000e-06	-3.117190e-06	-1.095087e-09	-2.164158e+01	-7.545590e+01
1.150000e-06	-3.078324e-06	-1.092158e-09	-2.137175e+01	-7.504176e+01
1.160000e-06	-3.039335e-06	-1.085758e-09	-2.110107e+01	-7.462011e+01
1.170000e-06	-3.000029e-06	-1.076294e-09	-2.082818e+01	-7.419117e+01
1.180000e-06	-2.960483e-06	-1.067582e-09	-2.055362e+01	-7.375522e+01
1.190000e-06	-2.920882e-06	-1.061118e-09	-2.027869e+01	-7.331261e+01
1.200000e-06	-2.881215e-06	-1.049767e-09	-2.000329e+01	-7.286369e+01
1.210000e-06	-2.841369e-06	-1.040277e-09	-1.972666e+01	-7.240890e+01
1.220000e-06	-2.801386e-06	-1.032406e-09	-1.944906e+01	-7.194863e+01
1.230000e-06	-2.761302e-06	-1.026957e-09	-1.917078e+01	-7.148334e+01
1.240000e-06	-2.721027e-06	-1.022196e-09	-1.889116e+01	-7.101342e+01
1.250000e-06	-2.680527e-06	-1.020245e-09	-1.860999e+01	-7.053927e+01
1.260000e-06	-2.639775e-06	-1.015182e-09	-1.832706e+01	-7.006123e+01
1.270000e-06	-2.598800e-06	-1.004601e-09	-1.804258e+01	-6.957961e+01
1.280000e-06	-2.557664e-06	-9.919878e-10	-1.775699e+01	-6.909465e+01
1.290000e-06	-2.516266e-06	-9.835767e-10	-1.746958e+01	-6.860650e+01
1.300000e-06	-2.474513e-06	-9.740546e-10	-1.717970e+01	-6.811526e+01
1.310000e-06	-2.432422e-06	-9.664818e-10	-1.688748e+01	-6.762095e+01
1.320000e-06	-2.390075e-06	-9.621702e-10	-1.659348e+01	-6.712346e+01
1.330000e-06	-2.347466e-06	-9.574594e-10	-1.629766e+01	-6.662265e+01
1.340000e-06	-2.304572e-06	-9.498084e-10	-1.599986e+01	-6.611824e+01
1.350000e-06	-2.261492e-06	-9.436546e-10	-1.570076e+01	-6.560990e+01
1.360000e-06	-2.218244e-06	-9.354940e-10	-1.540051e+01	-6.509722e+01
1.370000e-06	-2.174807e-06	-9.235742e-10	-1.509894e+01	-6.457968e+01
1.380000e-06	-2.131203e-06	-9.123851e-10	-1.479621e+01	-6.405674e+01
1.390000e-06	-2.087450e-06	-9.034715e-10	-1.449245e+01	-6.352779e+01
1.400000e-06	-2.043590e-06	-8.942758e-10	-1.418795e+01	-6.299216e+01
1.410000e-06	-1.999676e-06	-8.845575e-10	-1.388306e+01	-6.244918e+01
1.420000e-06	-1.955720e-06	-8.781796e-10	-1.357790e+01	-6.189812e+01
1.430000e-06	-1.911661e-06	-8.714486e-10	-1.327201e+01	-6.133827e+01
1.440000e-06	-1.867523e-06	-8.627096e-10	-1.296557e+01	-6.076893e+01
1.450000e-06	-1.823308e-06	-8.527732e-10	-1.265860e+01	-6.018938e+01
1.460000e-06	-1.779002e-06	-8.422648e-10	-1.235101e+01	-5.959897e+01
1.470000e-06	-1.734540e-06	-8.286810e-10	-1.204232e+01	-5.899705e+01
1.480000e-06	-1.689880e-06	-8.146992e-10	-1.173226e+01	-5.838303e+01
1.490000e-06	-1.645147e-06	-8.030070e-10	-1.142169e+01	-5.775636e+01
1.500000e-06	-1.600302e-06	-7.932837e-10	-1.111035e+01	-5.711656e+01
1.510000e-06	-1.555304e-06	-7.835651e-10	-1.079794e+01	-5.646318e+01
1.520000e-06	-1.510201e-06	-7.765540e-10	-1.048481e+01	-5.579585e+01
1.530000e-06	-1.464989e-06	-7.678908e-10	-1.017092e+01	-5.511423e+01
1.540000e-06	-1.419703e-06	-7.574726e-10	-9.856513e+00	-5.441806e+01
1.550000e-06	-1.374275e-06	-7.455822e-10	-9.541119e+00	-5.370709e+01
1.560000e-06	-1.328653e-06	-7.346137e-10	-9.224385e+00	-5.298113e+01
1.570000e-06	-1.282975e-06	-7.237576e-10	-8.907257e+00	-5.224000e+01
1.580000e-06	-1.237277e-06	-7.134002e-10	-8.589991e+00	-5.148355e+01
1.590000e-06	-1.191496e-06	-7.028546e-10	-8.272149e+00	-5.071163e+01
1.600000e-06	-1.145654e-06	-6.924073e-10	-7.953887e+00	-4.992406e+01
1.610000e-06	-1.099752e-06	-6.794375e-10	-7.635204e+00	-4.912067e+01
1.620000e-06	-1.053635e-06	-6.648300e-10	-7.315028e+00	-4.830124e+01
1.630000e-06	-1.007392e-06	-6.507502e-10	-6.993981e+00	-4.746550e+01
1.640000e-06	-9.611241e-07	-6.379028e-10	-6.672756e+00	-4.661313e+01
1.650000e-06	-9.148120e-07	-6.261812e-10	-6.351228e+00	-4.574374e+01
1.660000e-06	-8.685172e-07	-6.150194e-10	-6.029819e+00	-4.485686e+01
1.670000e-06	-8.221366e-07	-6.027291e-10	-5.707814e+00	-4.395194e+01
1.680000e-06	-7.756703e-07	-5.850040e-10	-5.385214e+00	-4.302835e+01
1.690000e-06	-7.292371e-07	-5.648270e-10	-5.062844e+00	-4.208534e+01
1.700000e-06	-6.827903e-07	-5.457771e-10	-4.740380e+00	-4.112210e+01
1.710000e-06	-6.362306e-07	-5.301430e-10	-4.417132e+00	-4.013772e+01
1.720000e-06	-5.895876e-07	-5.152492e-10	-4.093306e+00	-3.913122e+01
1.730000e-06	-5.429098e-07	-5.038017e-10	-3.769237e+00	-3.810152e+01
1.740000e-06	-4.962298e-07	-4.942737e-10	-3.445154e+00	-3.704750e+01
1.750000e-06	-4.495129e-07	-4.812891e-10	-3.120814e+00	-3.596799e+01
1.760000e-06	-4.027342e-07	-4.627167e-10	-2.796046e+00	-3.486180e+01
1.770000e-06	-3.559232e-07	-4.396476e-10	-2.471053e+00	-3.372768e+01
1.780000e-06	-3.091227e-07	-4.167836e-10	-2.146134e+00	-3.256445e+01
1.790000e-06	-2.622901e-07	-3.967900e-10	-1.820991e+00	-3.137090e+01
1.800000e-06	-2.153990e-07	-3.805628e-10	-1.495441e+00	-3.014592e+01
1.810000e-06	-1.685132e-07	-3.633839e-10	-1.169930e+00	-2.888843e+01
1.820000e-06	-1.216129e-07	-3.483662e-10	-8.443169e-01	-2.759747e+01
1.830000e-06	-7.472957e-08	-3.349930e-10	-5.188219e-01	-2.627220e+01
1.840000e-06	-2.784325e-08	-3.180363e-10	-1.933062e-01	-2.491192e+01
1.850000e-06	1.903236e-08	-2.974072e-10	1.321352e-01	-2.351607e+01
1.860000e-06	6.587146e-08	-2.722020e-10	4.573230e-01	-2.208431e+01
1.870000e-06	1.127347e-07	-2.450456e-10	7.826788e-01	-2.061646e+01
1.880000e-06	1.595550e-07	-2.197578e-10	1.107736e+00	-1.911258e+01
1.890000e-06	2.064079e-07	-2.008678e-10	1.433020e+00	-1.757295e+01
1.900000e-06	2.533428e-07	-1.870504e-10	1.758873e+00	-1.599806e+01
1.910000e-06	3.001990e-07	-1.712529e-10	2.084179e+00	-1.438867e+01
1.920000e-06	3.470154e-07	-1.537306e-10	2.409209e+00	-1.274577e+01
1.930000e-06	3.938366e-07	-1.337916e-10	2.734273e+00	-1.107058e+01
1.940000e-06	4.405748e-07	-1.054735e-10	3.058760e+00	-9.364565e+00
1.950000e-06	4.872396e-07	-7.207653e-11	3.382738e+00	-7.629414e+00
1.960000e-06	5.339080e-07	-4.073270e-11	3.706741e+00	-5.867032e+00
1.970000e-06	5.805621e-07	-1.746760e-11	4.030644e+00	-4.079523e+00
1.980000e-06	6.270957e-07	6.956053e-13	4.353711e+00	-2.269173e+00
1.990000e-06	6.735928e-07	1.849547e-11	4.676525e+00	-4.384328e-01
2.000000e-06	7.200854e-07	4.013045e-11	4.999307e+00	1.410106e+00
2.010000e-06	7.664902e-07	7.028441e-11	5.321480e+00	3.273735e+00
2.020000e-06	8.128400e-07	1.017995e-10	5.643270e+00	5.149656e+00
2.030000e-06	8.591541e-07	1.314339e-10	5.964813e+00	7.035002e+00
2.040000e-06	9.054338e-07	1.583685e-10	6.286118e+00	8.926868e+00
2.050000e-06	9.516368e-07	1.820809e-10	6.606889e+00	1.082234e+01
2.060000e-06	9.977627e-07	2.046763e-10	6.927126e+00	1.271851e+01
2.070000e-06	1.043818e-06	2.277332e-10	7.246872e+00	1.461251e+01
2.080000e-06	1.089818e-06	2.531705e-10	7.566233e+00	1.650155e+01
2.090000e-06	1.135808e-06	2.812314e-10	7.885528e+00	1.838290e+01
2.100000e-06	1.181721e-06	3.097516e-10	8.204286e+00	2.025394e+01
2.110000e-06	1.227478e-06	3.376845e-10	8.521963e+00	2.211220e+01
2.120000e-06	1.273191e-06	3.637633e-10	8.839329e+00	2.395531e+01
2.130000e-06	1.318783e-06	3.866877e-10	9.155860e+00	2.578107e+01
2.140000e-06	1.364148e-06	4.071563e-10	9.470812e+00	2.758744e+01
2.150000e-06	1.409477e-06	4.276961e-10	9.785515e+00	2.937255e+01
2.160000e-06	1.454808e-06	4.513460e-10	1.010023e+01	3.113468e+01
2.170000e-06	1.499989e-06	4.762485e-10	1.041391e+01	3.287231e+01
2.180000e-06	1.544976e-06	4.995455e-10	1.072624e+01	3.458409e+01
2.190000e-06	1.589897e-06	5.225654e-10	1.103811e+01	3.626881e+01
2.200000e-06	1.634735e-06	5.456800e-10	1.134940e+01	3.792546e+01
2.210000e-06	1.679419e-06	5.675110e-10	1.165963e+01	3.955316e+01
2.220000e-06	1.723945e-06	5.871061e-10	1.196876e+01	4.115120e+01
2.230000e-06	1.768349e-06	6.057887e-10	1.227704e+01	4.271897e+01
2.240000e-06	1.812681e-06	6.247614e-10	1.258483e+01	4.425602e+01
2.250000e-06	1.856893e-06	6.424987e-10	1.289177e+01	4.576200e+01
2.260000e-06	1.901009e-06	6.618445e-10	1.319806e+01	4.723666e+01
2.270000e-06	1.945099e-06	6.853592e-10	1.350416e+01	4.867983e+01
2.280000e-06	1.989143e-06	7.089610e-10	1.380994e+01	5.009143e+01
2.290000e-06	2.033104e-06	7.296309e-10	1.411514e+01	5.147144e+01
2.300000e-06	2.076977e-06	7.500332e-10	1.441974e+01	5.281989e+01
2.310000e-06	2.120737e-06	7.661438e-10	1.472355e+01	5.413686e+01
2.320000e-06	2.164431e-06	7.816398e-10	1.502691e+01	5.542246e+01
2.330000e-06	2.208045e-06	7.970730e-10	1.532970e+01	5.667684e+01
2.340000e-06	2.251425e-06	8.114359e-10	1.563088e+01	5.790016e+01
2.350000e-06	2.294615e-06	8.272413e-10	1.593073e+01	5.909262e+01
2.360000e-06	2.337620e-06	8.449876e-10	1.622930e+01	6.025442e+01
2.370000e-06	2.380339e-06	8.612470e-10	1.652588e+01	6.138578e+01
2.380000e-06	2.422808e-06	8.751116e-10	1.682073e+01	6.248694e+01
2.390000e-06	2.464917e-06	8.900883e-10	1.711308e+01	6.355817e+01
2.400000e-06	2.506671e-06	9.048650e-10	1.740296e+01	6.459974e+01
2.410000e-06	2.548150e-06	9.193007e-10	1.769094e+01	6.561195e+01
2.420000e-06	2.589316e-06	9.316970e-10	1.797674e+01	6.659514e+01
2.430000e-06	2.630229e-06	9.440163e-10	1.826078e+01	6.754966e+01
2.440000e-06	2.670903e-06	9.578292e-10	1.854317e+01	6.847591e+01
2.450000e-06	2.711344e-06	9.693543e-10	1.882394e+01	6.937433e+01
2.460000e-06	2.751609e-06	9.797409e-10	1.910348e+01	7.024540e+01
2.470000e-06	2.791795e-06	9.922050e-10	1.938248e+01	7.108964e+01
2.480000e-06	2.831881e-06	1.006128e-09	1.966078e+01	7.190763e+01
2.490000e-06	2.871768e-06	1.019736e-09	1.993771e+01	7.269998e+01
2.500000e-06	2.911468e-06	1.031889e-09	2.021333e+01	7.346738e+01
2.510000e-06	2.951045e-06	1.043941e-09	2.048810e+01	7.421056e+01
2.520000e-06	2.990488e-06	1.054108e-09	2.076194e+01	7.493027e+01
2.530000e-06	3.029687e-06	1.063831e-09	2.103409e+01	7.562734e+01
2.540000e-06	3.068597e-06	1.072352e-09	2.130422e+01	7.630263e+01
2.550000e-06	3.107317e-06	1.082076e-09	2.157304e+01	7.695704e+01
2.560000e-06	3.145826e-06	1.092983e-09	2.184039e+01	7.759147e+01
2.570000e-06	3.184151e-06	1.102323e-09	2.210647e+01	7.820688e+01
2.580000e-06	3.222351e-06	1.111213e-09	2.237168e+01	7.880422e+01
2.590000e-06	3.260286e-06	1.120759e-09	2.263505e+01	7.938445e+01
2.600000e-06	3.297990e-06	1.130062e-09	2.289682e+01	7.994852e+01
2.610000e-06	3.335455e-06	1.138181e-09	2.315693e+01	8.049737e+01
2.620000e-06	3.372712e-06	1.145168e-09	2.341559e+01	8.103191e+01
2.630000e-06	3.409785e-06	1.152228e-09	2.367297e+01	8.155301e+01
2.640000e-06	3.446535e-06	1.159495e-09	2.392811e+01	8.206152e+01
2.650000e-06	3.482990e-06	1.166355e-09	2.418121e+01	8.255822e+01
2.660000e-06	3.519215e-06	1.174158e-09	2.443271e+01	8.304382e+01
2.670000e-06	3.555260e-06	1.183161e-09	2.468296e+01	8.351900e+01
2.680000e-06	3.591147e-06	1.190517e-09	2.493211e+01	8.398433e+01
2.690000e-06	3.626969e-06	1.195786e-09	2.518081e+01	8.444034e+01
2.700000e-06	3.662725e-06	1.201791e-09	2.542905e+01	8.488746e+01
2.710000e-06	3.698276e-06	1.207585e-09	2.567587e+01	8.532605e+01
2.720000e-06	3.733553e-06	1.214250e-09	2.592078e+01	8.575641e+01
2.730000e-06	3.768537e-06	1.222085e-09	2.616367e+01	8.617873e+01
2.740000e-06	3.803098e-06	1.229861e-09	2.640361e+01	8.659316e+01
2.750000e-06	3.837096e-06	1.237514e-09	2.663964e+01	8.699978e+01
2.760000e-06	3.870550e-06	1.243990e-09	2.687191e+01	8.739860e+01
2.770000e-06	3.903559e-06	1.248472e-09	2.710108e+01	8.778958e+01
2.780000e-06	3.936230e-06	1.253159e-09	2.732790e+01	8.817264e+01
2.790000e-06	3.968591e-06	1.259160e-09	2.755257e+01	8.854766e+01
2.800000e-06	4.000694e-06	1.266221e-09	2.777545e+01	8.891450e+01
2.810000e-06	4.032621e-06	1.272044e-09	2.799711e+01	8.927300e+01
2.820000e-06	4.064370e-06	1.277612e-09	2.821753e+01	8.962299e+01
2.830000e-06	4.095924e-06	1.283700e-09	2.843660e+01	8.996431e+01
2.840000e-06	4.127302e-06	1.288886e-09	2.865445e+01	9.029680e+01
2.850000e-06	4.158402e-06	1.293501e-09	2.887036e+01	9.062033e+01
2.860000e-06	4.189178e-06	1.298561e-09	2.908403e+01	9.093478e+01
2.870000e-06	4.219595e-06	1.304434e-09	2.929521e+01	9.124010e+01
2.880000e-06	4.249657e-06	1.310909e-09	2.950392e+01	9.153623e+01
2.890000e-06	4.279513e-06	1.317642e-09	2.971120e+01	9.182319e+01
2.900000e-06	4.309215e-06	1.324282e-09	2.991741e+01	9.210104e+01
