# Temperatura_=_6.46
# Concentracion g/m^3_=_1620.0
# C_Vs_to_Am_M_A/Vsm_=_65563218390.804596
# pendiente_HvsI_1/m_=_3716.3
# ordenada_HvsI_A/m_=_1297.0
# frecuencia_Hz_=_135103.56530483914

Tiempo_(s)	Campo_(V.s)	Magnetizacion_(V.s)	Campo_(kA/m)	Magnetizacion_(A/m)
0.000000e+00	-5.529477e-06	-1.350687e-09	-3.837339e+01	-9.010112e+01
1.000000e-08	-5.529795e-06	-1.349918e-09	-3.837560e+01	-9.006881e+01
2.000000e-08	-5.529777e-06	-1.352571e-09	-3.837547e+01	-9.003543e+01
3.000000e-08	-5.529354e-06	-1.355640e-09	-3.837253e+01	-9.000102e+01
4.000000e-08	-5.528472e-06	-1.356721e-09	-3.836641e+01	-8.996568e+01
5.000000e-08	-5.526959e-06	-1.354901e-09	-3.835591e+01	-8.992948e+01
6.000000e-08	-5.524831e-06	-1.347427e-09	-3.834115e+01	-8.989252e+01
7.000000e-08	-5.522248e-06	-1.344611e-09	-3.832322e+01	-8.985492e+01
8.000000e-08	-5.519207e-06	-1.373836e-09	-3.830212e+01	-8.981677e+01
9.000000e-08	-5.515669e-06	-1.403612e-09	-3.827756e+01	-8.977817e+01
1.000000e-07	-5.511709e-06	-1.354268e-09	-3.825009e+01	-8.973922e+01
1.100000e-07	-5.507430e-06	-1.287319e-09	-3.822039e+01	-8.969999e+01
1.200000e-07	-5.503029e-06	-1.302936e-09	-3.818985e+01	-8.966054e+01
1.300000e-07	-5.498373e-06	-1.390474e-09	-3.815753e+01	-8.962090e+01
1.400000e-07	-5.493152e-06	-1.400988e-09	-3.812130e+01	-8.958108e+01
1.500000e-07	-5.487505e-06	-1.324651e-09	-3.808212e+01	-8.954105e+01
1.600000e-07	-5.481711e-06	-1.331928e-09	-3.804190e+01	-8.950074e+01
1.700000e-07	-5.475551e-06	-1.400248e-09	-3.799916e+01	-8.946006e+01
1.800000e-07	-5.468816e-06	-1.408456e-09	-3.795242e+01	-8.941885e+01
1.900000e-07	-5.461656e-06	-1.335621e-09	-3.790272e+01	-8.937694e+01
2.000000e-07	-5.454276e-06	-1.324330e-09	-3.785151e+01	-8.933410e+01
2.100000e-07	-5.446707e-06	-1.376434e-09	-3.779898e+01	-8.929009e+01
2.200000e-07	-5.438800e-06	-1.398366e-09	-3.774411e+01	-8.924460e+01
2.300000e-07	-5.430538e-06	-1.361586e-09	-3.768678e+01	-8.919733e+01
2.400000e-07	-5.421841e-06	-1.337569e-09	-3.762642e+01	-8.914793e+01
2.500000e-07	-5.412396e-06	-1.354814e-09	-3.756087e+01	-8.909604e+01
2.600000e-07	-5.402217e-06	-1.370220e-09	-3.749023e+01	-8.904129e+01
2.700000e-07	-5.391558e-06	-1.359204e-09	-3.741626e+01	-8.898329e+01
2.800000e-07	-5.380458e-06	-1.347165e-09	-3.733923e+01	-8.892168e+01
2.900000e-07	-5.368916e-06	-1.358922e-09	-3.725913e+01	-8.885610e+01
3.000000e-07	-5.356998e-06	-1.363960e-09	-3.717642e+01	-8.878619e+01
3.100000e-07	-5.344804e-06	-1.351397e-09	-3.709180e+01	-8.871165e+01
3.200000e-07	-5.332181e-06	-1.346865e-09	-3.700420e+01	-8.863218e+01
3.300000e-07	-5.319021e-06	-1.369387e-09	-3.691287e+01	-8.854754e+01
3.400000e-07	-5.305566e-06	-1.374917e-09	-3.681949e+01	-8.845753e+01
3.500000e-07	-5.291760e-06	-1.358341e-09	-3.672368e+01	-8.836200e+01
3.600000e-07	-5.277366e-06	-1.357640e-09	-3.662380e+01	-8.826084e+01
3.700000e-07	-5.262591e-06	-1.368706e-09	-3.652126e+01	-8.815402e+01
3.800000e-07	-5.247404e-06	-1.350888e-09	-3.641586e+01	-8.804154e+01
3.900000e-07	-5.231558e-06	-1.339956e-09	-3.630590e+01	-8.792349e+01
4.000000e-07	-5.215182e-06	-1.356161e-09	-3.619225e+01	-8.779999e+01
4.100000e-07	-5.198573e-06	-1.349196e-09	-3.607699e+01	-8.767122e+01
4.200000e-07	-5.181756e-06	-1.322956e-09	-3.596028e+01	-8.753741e+01
4.300000e-07	-5.164561e-06	-1.340542e-09	-3.584095e+01	-8.739883e+01
4.400000e-07	-5.146935e-06	-1.355616e-09	-3.571863e+01	-8.725580e+01
4.500000e-07	-5.128795e-06	-1.321162e-09	-3.559274e+01	-8.710866e+01
4.600000e-07	-5.110201e-06	-1.302983e-09	-3.546370e+01	-8.695777e+01
4.700000e-07	-5.091249e-06	-1.322238e-09	-3.533218e+01	-8.680353e+01
4.800000e-07	-5.072021e-06	-1.315138e-09	-3.519875e+01	-8.664633e+01
4.900000e-07	-5.052649e-06	-1.302731e-09	-3.506431e+01	-8.648655e+01
5.000000e-07	-5.033100e-06	-1.316315e-09	-3.492864e+01	-8.632457e+01
5.100000e-07	-5.013273e-06	-1.312760e-09	-3.479105e+01	-8.616077e+01
5.200000e-07	-4.993069e-06	-1.290427e-09	-3.465083e+01	-8.599547e+01
5.300000e-07	-4.972469e-06	-1.305466e-09	-3.450787e+01	-8.582898e+01
5.400000e-07	-4.951528e-06	-1.315253e-09	-3.436255e+01	-8.566157e+01
5.500000e-07	-4.930273e-06	-1.283384e-09	-3.421504e+01	-8.549346e+01
5.600000e-07	-4.908616e-06	-1.272013e-09	-3.406475e+01	-8.532483e+01
5.700000e-07	-4.886631e-06	-1.291376e-09	-3.391218e+01	-8.515580e+01
5.800000e-07	-4.864344e-06	-1.286428e-09	-3.375751e+01	-8.498646e+01
5.900000e-07	-4.841639e-06	-1.272895e-09	-3.359994e+01	-8.481682e+01
6.000000e-07	-4.818586e-06	-1.278619e-09	-3.343996e+01	-8.464685e+01
6.100000e-07	-4.795293e-06	-1.272258e-09	-3.327831e+01	-8.447648e+01
6.200000e-07	-4.771749e-06	-1.257448e-09	-3.311492e+01	-8.430559e+01
6.300000e-07	-4.748003e-06	-1.259666e-09	-3.295012e+01	-8.413402e+01
6.400000e-07	-4.723988e-06	-1.263995e-09	-3.278347e+01	-8.396158e+01
6.500000e-07	-4.699469e-06	-1.259729e-09	-3.261331e+01	-8.378804e+01
6.600000e-07	-4.674573e-06	-1.262250e-09	-3.244054e+01	-8.361317e+01
6.700000e-07	-4.649342e-06	-1.266418e-09	-3.226544e+01	-8.343670e+01
6.800000e-07	-4.623530e-06	-1.262828e-09	-3.208631e+01	-8.325838e+01
6.900000e-07	-4.597063e-06	-1.257683e-09	-3.190263e+01	-8.307795e+01
7.000000e-07	-4.570094e-06	-1.256512e-09	-3.171548e+01	-8.289516e+01
7.100000e-07	-4.542865e-06	-1.249952e-09	-3.152651e+01	-8.270977e+01
7.200000e-07	-4.515481e-06	-1.241291e-09	-3.133647e+01	-8.252159e+01
7.300000e-07	-4.487867e-06	-1.237107e-09	-3.114484e+01	-8.233042e+01
7.400000e-07	-4.459968e-06	-1.238348e-09	-3.095123e+01	-8.213611e+01
7.500000e-07	-4.431790e-06	-1.237802e-09	-3.075568e+01	-8.193857e+01
7.600000e-07	-4.403338e-06	-1.234281e-09	-3.055822e+01	-8.173770e+01
7.700000e-07	-4.374599e-06	-1.229103e-09	-3.035879e+01	-8.153349e+01
7.800000e-07	-4.345552e-06	-1.224639e-09	-3.015721e+01	-8.132593e+01
7.900000e-07	-4.316289e-06	-1.220517e-09	-2.995412e+01	-8.111508e+01
8.000000e-07	-4.286786e-06	-1.214655e-09	-2.974938e+01	-8.090101e+01
8.100000e-07	-4.256882e-06	-1.205357e-09	-2.954185e+01	-8.068383e+01
8.200000e-07	-4.226649e-06	-1.201739e-09	-2.933204e+01	-8.046369e+01
8.300000e-07	-4.196179e-06	-1.203878e-09	-2.912059e+01	-8.024074e+01
8.400000e-07	-4.165428e-06	-1.202123e-09	-2.890718e+01	-8.001517e+01
8.500000e-07	-4.134374e-06	-1.198469e-09	-2.869167e+01	-7.978715e+01
8.600000e-07	-4.103108e-06	-1.197902e-09	-2.847469e+01	-7.955687e+01
8.700000e-07	-4.071760e-06	-1.193725e-09	-2.825714e+01	-7.932450e+01
8.800000e-07	-4.040288e-06	-1.186095e-09	-2.803874e+01	-7.909021e+01
8.900000e-07	-4.008550e-06	-1.182077e-09	-2.781848e+01	-7.885414e+01
9.000000e-07	-3.976517e-06	-1.178317e-09	-2.759618e+01	-7.861638e+01
9.100000e-07	-3.944139e-06	-1.171977e-09	-2.737148e+01	-7.837703e+01
9.200000e-07	-3.911341e-06	-1.169094e-09	-2.714387e+01	-7.813611e+01
9.300000e-07	-3.878163e-06	-1.168728e-09	-2.691362e+01	-7.789360e+01
9.400000e-07	-3.844577e-06	-1.163243e-09	-2.668054e+01	-7.764946e+01
9.500000e-07	-3.810536e-06	-1.157520e-09	-2.644430e+01	-7.740357e+01
9.600000e-07	-3.776056e-06	-1.154458e-09	-2.620502e+01	-7.715577e+01
9.700000e-07	-3.741171e-06	-1.146984e-09	-2.596293e+01	-7.690586e+01
9.800000e-07	-3.706007e-06	-1.136634e-09	-2.571890e+01	-7.665357e+01
9.900000e-07	-3.670683e-06	-1.132176e-09	-2.547375e+01	-7.639861e+01
1.000000e-06	-3.635196e-06	-1.129029e-09	-2.522749e+01	-7.614064e+01
1.010000e-06	-3.599508e-06	-1.122822e-09	-2.497982e+01	-7.587929e+01
1.020000e-06	-3.563613e-06	-1.117313e-09	-2.473071e+01	-7.561415e+01
1.030000e-06	-3.527523e-06	-1.115701e-09	-2.448026e+01	-7.534482e+01
1.040000e-06	-3.491210e-06	-1.112236e-09	-2.422825e+01	-7.507086e+01
1.050000e-06	-3.454616e-06	-1.106461e-09	-2.397430e+01	-7.479185e+01
1.060000e-06	-3.417766e-06	-1.101076e-09	-2.371856e+01	-7.450737e+01
1.070000e-06	-3.380711e-06	-1.094442e-09	-2.346142e+01	-7.421701e+01
1.080000e-06	-3.343394e-06	-1.089368e-09	-2.320244e+01	-7.392040e+01
1.090000e-06	-3.305804e-06	-1.088301e-09	-2.294157e+01	-7.361719e+01
1.100000e-06	-3.268019e-06	-1.085327e-09	-2.267935e+01	-7.330707e+01
1.110000e-06	-3.230000e-06	-1.078432e-09	-2.241551e+01	-7.298980e+01
1.120000e-06	-3.191793e-06	-1.070128e-09	-2.215036e+01	-7.266517e+01
1.130000e-06	-3.153453e-06	-1.064526e-09	-2.188429e+01	-7.233303e+01
1.140000e-06	-3.114785e-06	-1.060521e-09	-2.161595e+01	-7.199329e+01
1.150000e-06	-3.075908e-06	-1.054915e-09	-2.134614e+01	-7.164594e+01
1.160000e-06	-3.036888e-06	-1.046910e-09	-2.107536e+01	-7.129101e+01
1.170000e-06	-2.997628e-06	-1.037477e-09	-2.080290e+01	-7.092860e+01
1.180000e-06	-2.958239e-06	-1.028347e-09	-2.052955e+01	-7.055887e+01
1.190000e-06	-2.918742e-06	-1.019753e-09	-2.025544e+01	-7.018201e+01
1.200000e-06	-2.879115e-06	-1.011434e-09	-1.998045e+01	-6.979829e+01
1.210000e-06	-2.839341e-06	-1.003478e-09	-1.970442e+01	-6.940800e+01
1.220000e-06	-2.799440e-06	-9.969605e-10	-1.942751e+01	-6.901146e+01
1.230000e-06	-2.759354e-06	-9.925675e-10	-1.914933e+01	-6.860902e+01
1.240000e-06	-2.719081e-06	-9.886930e-10	-1.886984e+01	-6.820105e+01
1.250000e-06	-2.678569e-06	-9.843044e-10	-1.858870e+01	-6.778790e+01
1.260000e-06	-2.637722e-06	-9.791404e-10	-1.830522e+01	-6.736994e+01
1.270000e-06	-2.596524e-06	-9.719327e-10	-1.801932e+01	-6.694751e+01
1.280000e-06	-2.555017e-06	-9.653620e-10	-1.773127e+01	-6.652092e+01
1.290000e-06	-2.513249e-06	-9.603849e-10	-1.744141e+01	-6.609045e+01
1.300000e-06	-2.471189e-06	-9.532768e-10	-1.714952e+01	-6.565635e+01
1.310000e-06	-2.428982e-06	-9.425474e-10	-1.685662e+01	-6.521879e+01
1.320000e-06	-2.386472e-06	-9.322524e-10	-1.656161e+01	-6.477792e+01
1.330000e-06	-2.343625e-06	-9.257543e-10	-1.626426e+01	-6.433379e+01
1.340000e-06	-2.300600e-06	-9.227302e-10	-1.596567e+01	-6.388641e+01
1.350000e-06	-2.257361e-06	-9.186249e-10	-1.566560e+01	-6.343572e+01
1.360000e-06	-2.213994e-06	-9.110730e-10	-1.536464e+01	-6.298158e+01
1.370000e-06	-2.170499e-06	-9.011968e-10	-1.506280e+01	-6.252380e+01
1.380000e-06	-2.126863e-06	-8.905105e-10	-1.475998e+01	-6.206210e+01
1.390000e-06	-2.083146e-06	-8.812141e-10	-1.445659e+01	-6.159618e+01
1.400000e-06	-2.039419e-06	-8.750981e-10	-1.415313e+01	-6.112563e+01
1.410000e-06	-1.995671e-06	-8.696012e-10	-1.384953e+01	-6.065004e+01
1.420000e-06	-1.951795e-06	-8.636565e-10	-1.354504e+01	-6.016892e+01
1.430000e-06	-1.907759e-06	-8.576754e-10	-1.323944e+01	-5.968174e+01
1.440000e-06	-1.863644e-06	-8.506713e-10	-1.293329e+01	-5.918798e+01
1.450000e-06	-1.819433e-06	-8.405040e-10	-1.262648e+01	-5.868705e+01
1.460000e-06	-1.775033e-06	-8.290773e-10	-1.231835e+01	-5.817837e+01
1.470000e-06	-1.730476e-06	-8.194137e-10	-1.200913e+01	-5.766135e+01
1.480000e-06	-1.685787e-06	-8.114826e-10	-1.169900e+01	-5.713540e+01
1.490000e-06	-1.640971e-06	-8.038418e-10	-1.138799e+01	-5.659992e+01
1.500000e-06	-1.596035e-06	-7.956921e-10	-1.107614e+01	-5.605434e+01
1.510000e-06	-1.551005e-06	-7.880164e-10	-1.076365e+01	-5.549808e+01
1.520000e-06	-1.505911e-06	-7.794763e-10	-1.045070e+01	-5.493060e+01
1.530000e-06	-1.460710e-06	-7.697300e-10	-1.013701e+01	-5.435137e+01
1.540000e-06	-1.415467e-06	-7.595324e-10	-9.823039e+00	-5.375987e+01
1.550000e-06	-1.370111e-06	-7.495263e-10	-9.508281e+00	-5.315560e+01
1.560000e-06	-1.324553e-06	-7.388710e-10	-9.192117e+00	-5.253808e+01
1.570000e-06	-1.278882e-06	-7.272714e-10	-8.875166e+00	-5.190684e+01
1.580000e-06	-1.233172e-06	-7.162153e-10	-8.557954e+00	-5.126139e+01
1.590000e-06	-1.187378e-06	-7.079942e-10	-8.240148e+00	-5.060127e+01
1.600000e-06	-1.141459e-06	-7.013469e-10	-7.921482e+00	-4.992601e+01
1.610000e-06	-1.095508e-06	-6.926323e-10	-7.602593e+00	-4.923510e+01
1.620000e-06	-1.049494e-06	-6.803456e-10	-7.283267e+00	-4.852803e+01
1.630000e-06	-1.003353e-06	-6.668789e-10	-6.963053e+00	-4.780425e+01
1.640000e-06	-9.571505e-07	-6.539772e-10	-6.642420e+00	-4.706319e+01
1.650000e-06	-9.109101e-07	-6.427274e-10	-6.321521e+00	-4.630421e+01
1.660000e-06	-8.646245e-07	-6.341465e-10	-6.000310e+00	-4.552663e+01
1.670000e-06	-8.182481e-07	-6.240194e-10	-5.678467e+00	-4.472973e+01
1.680000e-06	-7.717624e-07	-6.110023e-10	-5.355866e+00	-4.391273e+01
1.690000e-06	-7.252537e-07	-5.959244e-10	-5.033106e+00	-4.307477e+01
1.700000e-06	-6.787270e-07	-5.797632e-10	-4.710221e+00	-4.221496e+01
1.710000e-06	-6.321852e-07	-5.631946e-10	-4.387230e+00	-4.133233e+01
1.720000e-06	-5.855709e-07	-5.495153e-10	-4.063737e+00	-4.042588e+01
1.730000e-06	-5.388319e-07	-5.392665e-10	-3.739378e+00	-3.949455e+01
1.740000e-06	-4.920121e-07	-5.286382e-10	-3.414459e+00	-3.853725e+01
1.750000e-06	-4.451225e-07	-5.136037e-10	-3.089055e+00	-3.755286e+01
1.760000e-06	-3.982947e-07	-4.950651e-10	-2.764080e+00	-3.654026e+01
1.770000e-06	-3.515845e-07	-4.761458e-10	-2.439922e+00	-3.549833e+01
1.780000e-06	-3.047975e-07	-4.584762e-10	-2.115230e+00	-3.442594e+01
1.790000e-06	-2.578847e-07	-4.435744e-10	-1.789665e+00	-3.332203e+01
1.800000e-06	-2.108855e-07	-4.295094e-10	-1.463500e+00	-3.218558e+01
1.810000e-06	-1.638420e-07	-4.139457e-10	-1.137028e+00	-3.101565e+01
1.820000e-06	-1.167854e-07	-3.975662e-10	-8.104658e-01	-2.981138e+01
1.830000e-06	-6.969766e-08	-3.812517e-10	-4.836869e-01	-2.857205e+01
1.840000e-06	-2.264151e-08	-3.628434e-10	-1.571273e-01	-2.729705e+01
1.850000e-06	2.429334e-08	-3.433797e-10	1.685906e-01	-2.598593e+01
1.860000e-06	7.117440e-08	-3.228069e-10	4.939352e-01	-2.463841e+01
1.870000e-06	1.180707e-07	-3.014449e-10	8.193852e-01	-2.325440e+01
1.880000e-06	1.649474e-07	-2.821191e-10	1.144700e+00	-2.183402e+01
1.890000e-06	2.117823e-07	-2.642122e-10	1.469724e+00	-2.037757e+01
1.900000e-06	2.586155e-07	-2.453544e-10	1.794737e+00	-1.888561e+01
1.910000e-06	3.054658e-07	-2.253957e-10	2.119867e+00	-1.735891e+01
1.920000e-06	3.522839e-07	-2.064094e-10	2.444775e+00	-1.579846e+01
1.930000e-06	3.990718e-07	-1.868365e-10	2.769473e+00	-1.420550e+01
1.940000e-06	4.458087e-07	-1.626421e-10	3.093817e+00	-1.258149e+01
1.950000e-06	4.925659e-07	-1.365418e-10	3.418302e+00	-1.092812e+01
1.960000e-06	5.393830e-07	-1.128844e-10	3.743203e+00	-9.247295e+00
1.970000e-06	5.860977e-07	-9.227649e-11	4.067393e+00	-7.541102e+00
1.980000e-06	6.326357e-07	-7.247964e-11	4.390356e+00	-5.811831e+00
1.990000e-06	6.790748e-07	-5.299958e-11	4.712634e+00	-4.061931e+00
2.000000e-06	7.255149e-07	-2.948344e-11	5.034918e+00	-2.293999e+00
2.010000e-06	7.719025e-07	3.283014e-13	5.356838e+00	-5.107543e-01
2.020000e-06	8.182158e-07	3.063935e-11	5.678243e+00	1.284984e+00
2.030000e-06	8.644907e-07	5.785502e-11	5.999381e+00	3.090326e+00
2.040000e-06	9.107220e-07	8.186671e-11	6.320216e+00	4.902334e+00
2.050000e-06	9.569197e-07	1.042740e-10	6.640818e+00	6.718053e+00
2.060000e-06	1.002975e-06	1.256965e-10	6.960435e+00	8.534534e+00
2.070000e-06	1.048883e-06	1.471942e-10	7.279021e+00	1.034887e+01
2.080000e-06	1.094791e-06	1.716226e-10	7.597617e+00	1.215819e+01
2.090000e-06	1.140667e-06	1.990148e-10	7.915982e+00	1.395975e+01
2.100000e-06	1.186398e-06	2.268402e-10	8.233352e+00	1.575088e+01
2.110000e-06	1.232087e-06	2.523643e-10	8.550421e+00	1.752904e+01
2.120000e-06	1.277716e-06	2.757756e-10	8.867074e+00	1.929186e+01
2.130000e-06	1.323220e-06	2.972542e-10	9.182865e+00	2.103709e+01
2.140000e-06	1.368687e-06	3.181285e-10	9.498395e+00	2.276269e+01
2.150000e-06	1.414091e-06	3.393371e-10	9.813493e+00	2.446680e+01
2.160000e-06	1.459405e-06	3.624773e-10	1.012796e+01	2.614772e+01
2.170000e-06	1.504601e-06	3.875860e-10	1.044161e+01	2.780398e+01
2.180000e-06	1.549647e-06	4.110091e-10	1.075422e+01	2.943428e+01
2.190000e-06	1.594613e-06	4.344377e-10	1.106627e+01	3.103751e+01
2.200000e-06	1.639471e-06	4.578071e-10	1.137758e+01	3.261276e+01
2.210000e-06	1.684232e-06	4.791243e-10	1.168821e+01	3.415929e+01
2.220000e-06	1.728833e-06	4.995125e-10	1.199773e+01	3.567654e+01
2.230000e-06	1.773210e-06	5.185286e-10	1.230570e+01	3.716407e+01
2.240000e-06	1.817412e-06	5.362171e-10	1.261245e+01	3.862163e+01
2.250000e-06	1.861494e-06	5.522041e-10	1.291837e+01	4.004907e+01
2.260000e-06	1.905449e-06	5.695941e-10	1.322341e+01	4.144635e+01
2.270000e-06	1.949244e-06	5.908823e-10	1.352734e+01	4.281356e+01
2.280000e-06	1.992989e-06	6.132254e-10	1.383092e+01	4.415083e+01
2.290000e-06	2.036720e-06	6.361046e-10	1.413441e+01	4.545837e+01
2.300000e-06	2.080390e-06	6.561288e-10	1.443746e+01	4.673646e+01
2.310000e-06	2.123996e-06	6.717784e-10	1.474008e+01	4.798540e+01
2.320000e-06	2.167560e-06	6.859342e-10	1.504240e+01	4.920551e+01
2.330000e-06	2.211080e-06	7.002811e-10	1.534442e+01	5.039713e+01
2.340000e-06	2.254521e-06	7.153235e-10	1.564589e+01	5.156060e+01
2.350000e-06	2.297833e-06	7.315282e-10	1.594647e+01	5.269626e+01
2.360000e-06	2.341011e-06	7.471188e-10	1.624612e+01	5.380444e+01
2.370000e-06	2.383998e-06	7.601837e-10	1.654444e+01	5.488544e+01
2.380000e-06	2.426734e-06	7.719919e-10	1.684102e+01	5.593956e+01
2.390000e-06	2.469151e-06	7.838054e-10	1.713538e+01	5.696709e+01
2.400000e-06	2.511178e-06	7.954287e-10	1.742704e+01	5.796827e+01
2.410000e-06	2.552827e-06	8.093879e-10	1.771607e+01	5.894337e+01
2.420000e-06	2.594118e-06	8.250328e-10	1.800262e+01	5.989261e+01
2.430000e-06	2.635118e-06	8.403917e-10	1.828716e+01	6.081624e+01
2.440000e-06	2.675873e-06	8.548705e-10	1.856998e+01	6.171448e+01
2.450000e-06	2.716347e-06	8.684902e-10	1.885087e+01	6.258760e+01
2.460000e-06	2.756527e-06	8.791591e-10	1.912971e+01	6.343585e+01
2.470000e-06	2.796485e-06	8.869213e-10	1.940701e+01	6.425952e+01
2.480000e-06	2.836260e-06	8.943529e-10	1.968304e+01	6.505891e+01
2.490000e-06	2.875900e-06	9.049359e-10	1.995813e+01	6.583439e+01
2.500000e-06	2.915465e-06	9.187296e-10	2.023271e+01	6.658635e+01
2.510000e-06	2.954955e-06	9.340179e-10	2.050675e+01	6.731521e+01
2.520000e-06	2.994361e-06	9.474392e-10	2.078023e+01	6.802146e+01
2.530000e-06	3.033584e-06	9.578371e-10	2.105243e+01	6.870564e+01
2.540000e-06	3.072494e-06	9.658860e-10	2.132245e+01	6.936832e+01
2.550000e-06	3.111175e-06	9.715685e-10	2.159089e+01	7.001013e+01
2.560000e-06	3.149675e-06	9.781945e-10	2.185807e+01	7.063176e+01
2.570000e-06	3.187963e-06	9.859986e-10	2.212378e+01	7.123391e+01
2.580000e-06	3.226067e-06	9.956014e-10	2.238821e+01	7.181734e+01
2.590000e-06	3.263962e-06	1.006354e-09	2.265120e+01	7.238283e+01
2.600000e-06	3.301599e-06	1.016869e-09	2.291239e+01	7.293117e+01
2.610000e-06	3.339044e-06	1.025980e-09	2.317226e+01	7.346319e+01
2.620000e-06	3.376285e-06	1.032526e-09	2.343070e+01	7.397968e+01
2.630000e-06	3.413206e-06	1.038043e-09	2.368692e+01	7.448145e+01
2.640000e-06	3.449874e-06	1.043366e-09	2.394139e+01	7.496928e+01
2.650000e-06	3.486319e-06	1.048039e-09	2.419431e+01	7.544394e+01
2.660000e-06	3.522524e-06	1.053943e-09	2.444557e+01	7.590613e+01
2.670000e-06	3.558470e-06	1.058866e-09	2.469502e+01	7.635653e+01
2.680000e-06	3.594246e-06	1.064212e-09	2.494330e+01	7.679574e+01
2.690000e-06	3.629966e-06	1.070989e-09	2.519119e+01	7.722430e+01
2.700000e-06	3.665550e-06	1.078297e-09	2.543814e+01	7.764271e+01
2.710000e-06	3.700998e-06	1.084997e-09	2.568413e+01	7.805136e+01
2.720000e-06	3.736252e-06	1.092313e-09	2.592879e+01	7.845058e+01
2.730000e-06	3.771199e-06	1.100290e-09	2.617131e+01	7.884062e+01
2.740000e-06	3.805781e-06	1.106889e-09	2.641131e+01	7.922165e+01
2.750000e-06	3.839869e-06	1.114214e-09	2.664787e+01	7.959379e+01
2.760000e-06	3.873547e-06	1.122396e-09	2.688159e+01	7.995706e+01
2.770000e-06	3.906786e-06	1.129186e-09	2.711226e+01	8.031143e+01
2.780000e-06	3.939542e-06	1.134281e-09	2.733958e+01	8.065683e+01
2.790000e-06	3.971901e-06	1.139206e-09	2.756414e+01	8.099312e+01
2.800000e-06	4.003905e-06	1.144020e-09	2.778624e+01	8.132014e+01
2.810000e-06	4.035715e-06	1.147065e-09	2.800700e+01	8.163770e+01
2.820000e-06	4.067393e-06	1.149734e-09	2.822684e+01	8.194561e+01
2.830000e-06	4.098902e-06	1.154062e-09	2.844550e+01	8.224367e+01
2.840000e-06	4.130270e-06	1.161913e-09	2.866319e+01	8.253169e+01
2.850000e-06	4.161476e-06	1.171575e-09	2.887976e+01	8.280950e+01
2.860000e-06	4.192236e-06	1.178784e-09	2.909322e+01	8.307699e+01
2.870000e-06	4.222538e-06	1.183593e-09	2.930351e+01	8.333407e+01
2.880000e-06	4.252661e-06	1.187042e-09	2.951256e+01	8.358071e+01
2.890000e-06	4.282542e-06	1.190981e-09	2.971993e+01	8.381697e+01
2.900000e-06	4.312110e-06	1.196354e-09	2.992512e+01	8.404294e+01
